# == pyFAI calibration ==
# Distance Sample to Detector: 0.216 m
# PONI: 1.166e-01, 1.308e-01 m
# Rotations: 0.000000 0.000000 0.000000 rad
# 
# == Fit2d calibration ==
# Distance Sample-beamCenter: 216.000 mm
# Center: x=1744.293, y=1555.000 pix
# Tilt: 0.000 deg  TiltPlanRot: 0.000 deg
# 
# Detector Eiger 9M	 PixelSize= 7.500e-05, 7.500e-05 m
#    Detector has a mask: True 
#    Detector has a dark current: False 
#    detector has a flat field: False 
# 
# Wavelength: 9.8e-11 m
# Mask applied: from detector
# Dark current applied: False
# Flat field applied: False
# Polarization factor: None
# Normalization factor: 1.0
# 
# Headers of the input frame:
# {
# "_array_data.header_convention": "SLS_1.0",
# "_array_data.header_contents": "# Detector: Dectris Eiger 9M, S/N E-18-0102\r\n# Pixel_size 75e-6 m x 75e-6 m\r\n# Silicon sensor, thickness 0.000450 m\r\n# Exposure_time 0.024997 s\r\n# Exposure_period 0.025000 s\r\n# Count_cutoff 62318 counts\r\n# Wavelength 0.980106 A\r\n# Detector_distance 0.215992 m\r\n# Beam_xy (1555, 1744) pixels\r\n# Start_angle 0.000000 deg.\r\n# Angle_increment 0.000000 deg.",
# "Content-Type": "application/octet-stream;",
# "conversions": "x-CBF_BYTE_OFFSET",
# "Content-Transfer-Encoding": "BINARY",
# "X-Binary-Size": "10166590",
# "X-Binary-ID": "1",
# "X-Binary-Element-Type": "signed 32-bit integer",
# "X-Binary-Element-Byte-Order": "LITTLE_ENDIAN",
# "Content-MD5": "6aGAsQ2KRD3qdmzGFGbQ2w==",
# "X-Binary-Number-of-Elements": "10166590",
# "X-Binary-Size-Fastest-Dimension": "3110",
# "X-Binary-Size-Second-Dimension": "3269",
# "X-Binary-Size-Padding": "4095"
# }
# --> H:/Proxima2a_2019-04-05/RAW_DATA/C5_gel17_position5/C5_mesh_1_data.cbf/C5_mesh_1_data.cbf000170.dat
#        q_A^-1              I           sigma 
  1.105228e-03    1.349126e+00   6.285115e-01
  3.315685e-03    1.528766e+00   4.067391e-01
  5.526141e-03    1.622958e+00   3.240602e-01
  7.736597e-03    1.709687e+00   2.809820e-01
  9.947054e-03    1.583333e+00   2.383761e-01
  1.215751e-02    1.316381e+00   1.965438e-01
  1.436797e-02    1.412631e+00   1.872794e-01
  1.657842e-02    1.530159e+00   1.814315e-01
  1.878888e-02    1.512255e+00   1.694244e-01
  2.099934e-02    1.374274e+00   1.528054e-01
  2.320979e-02    1.528896e+00   1.532928e-01
  2.542025e-02    1.338703e+00   1.370729e-01
  2.763070e-02    1.418309e+00   1.353243e-01
  2.984116e-02    1.293632e+00   1.243603e-01
  3.205162e-02    1.463188e+00   1.276251e-01
  3.426207e-02    1.472745e+00   1.238336e-01
  3.647253e-02    1.456969e+00   1.193754e-01
  3.868299e-02    1.488612e+00   1.171754e-01
  4.089344e-02    1.338149e+00   1.080520e-01
  4.310390e-02    1.445549e+00   1.093806e-01
  4.531436e-02    1.440163e+00   1.064809e-01
  4.752481e-02    1.463478e+00   1.048123e-01
  4.973527e-02    1.452212e+00   1.020626e-01
  5.194572e-02    1.447523e+00   9.970473e-02
  5.415618e-02    1.409326e+00   9.634838e-02
  5.636664e-02    1.378503e+00   9.340478e-02
  5.857709e-02    1.432473e+00   9.340234e-02
  6.078755e-02    1.351091e+00   8.904295e-02
  6.299801e-02    1.405350e+00   8.920491e-02
  6.520846e-02    1.411086e+00   8.785926e-02
  6.741892e-02    1.377229e+00   8.535971e-02
  6.962938e-02    1.391336e+00   8.442718e-02
  7.183983e-02    1.416293e+00   8.385878e-02
  7.405029e-02    1.387951e+00   8.176516e-02
  7.626074e-02    1.393978e+00   8.074551e-02
  7.847120e-02    1.396710e+00   7.967591e-02
  8.068166e-02    1.534469e+00   8.236019e-02
  8.289211e-02    1.459244e+00   7.923750e-02
  8.510257e-02    1.430390e+00   7.742418e-02
  8.731303e-02    1.411874e+00   7.593863e-02
  8.952348e-02    1.384034e+00   7.425417e-02
  9.173394e-02    1.508345e+00   7.657449e-02
  9.394439e-02    1.466848e+00   7.461771e-02
  9.615485e-02    1.533782e+00   7.541737e-02
  9.836531e-02    1.538094e+00   7.466790e-02
  1.005758e-01    1.517624e+00   7.335023e-02
  1.027862e-01    1.514506e+00   7.248087e-02
  1.049967e-01    1.513740e+00   7.169447e-02
  1.072071e-01    1.525536e+00   7.122655e-02
  1.094176e-01    1.501969e+00   6.995568e-02
  1.116280e-01    1.544337e+00   7.022804e-02
  1.138385e-01    1.537826e+00   6.939480e-02
  1.160490e-01    1.547286e+00   6.894095e-02
  1.182594e-01    1.539354e+00   6.811686e-02
  1.204699e-01    1.617468e+00   6.917968e-02
  1.226803e-01    1.602353e+00   6.822971e-02
  1.248908e-01    1.598102e+00   6.753265e-02
  1.271012e-01    1.645875e+00   6.793472e-02
  1.293117e-01    1.640814e+00   6.724708e-02
  1.315222e-01    1.650514e+00   6.687485e-02
  1.337326e-01    1.661355e+00   6.653604e-02
  1.359431e-01    1.532499e+00   6.394108e-02
  1.381535e-01    1.608023e+00   6.637684e-02
  1.403640e-01    1.574118e+00   6.595694e-02
  1.425744e-01    1.582822e+00   6.624466e-02
  1.447849e-01    1.601269e+00   6.664493e-02
  1.469953e-01    1.617462e+00   6.693912e-02
  1.492058e-01    1.510744e+00   6.461799e-02
  1.514163e-01    1.457778e+00   6.336973e-02
  1.536267e-01    1.568525e+00   6.560441e-02
  1.558372e-01    1.584080e+00   6.578337e-02
  1.580476e-01    1.619081e+00   6.634475e-02
  1.602581e-01    1.708734e+00   6.798376e-02
  1.624685e-01    1.680055e+00   6.722629e-02
  1.646790e-01    1.677336e+00   6.697898e-02
  1.668895e-01    1.700107e+00   6.723735e-02
  1.690999e-01    1.666825e+00   6.637605e-02
  1.713104e-01    1.585922e+00   6.454421e-02
  1.735208e-01    1.684169e+00   6.630657e-02
  1.757313e-01    1.758295e+00   6.753772e-02
  1.779417e-01    1.873960e+00   6.949636e-02
  1.801522e-01    1.903706e+00   6.982268e-02
  1.823626e-01    1.835420e+00   6.833071e-02
  1.845731e-01    1.970663e+00   7.057410e-02
  1.867836e-01    1.974555e+00   7.040536e-02
  1.889940e-01    1.894183e+00   6.873225e-02
  1.912045e-01    1.988003e+00   7.017870e-02
  1.934149e-01    1.965289e+00   6.954312e-02
  1.956254e-01    2.031169e+00   7.046591e-02
  1.978358e-01    2.099381e+00   7.139387e-02
  2.000463e-01    2.018741e+00   6.977729e-02
  2.022568e-01    2.035224e+00   6.983160e-02
  2.044672e-01    1.978010e+00   6.860724e-02
  2.066777e-01    1.934991e+00   6.763184e-02
  2.088881e-01    1.979209e+00   6.817644e-02
  2.110986e-01    1.932115e+00   6.712946e-02
  2.133090e-01    1.952050e+00   6.725553e-02
  2.155195e-01    1.859906e+00   6.543124e-02
  2.177300e-01    1.871609e+00   6.512110e-02
  2.199404e-01    1.965647e+00   6.497854e-02
  2.221509e-01    1.923460e+00   6.322201e-02
  2.243613e-01    1.939833e+00   6.268562e-02
  2.265718e-01    1.990370e+00   6.279705e-02
  2.287822e-01    2.015744e+00   6.257056e-02
  2.309927e-01    2.074332e+00   6.289516e-02
  2.332031e-01    2.050270e+00   6.199410e-02
  2.354136e-01    2.158420e+00   6.309263e-02
  2.376241e-01    2.082743e+00   6.149565e-02
  2.398345e-01    2.118033e+00   6.155549e-02
  2.420450e-01    2.080952e+00   6.057823e-02
  2.442554e-01    2.102570e+00   6.047258e-02
  2.464659e-01    2.119132e+00   6.030267e-02
  2.486763e-01    2.113658e+00   5.982888e-02
  2.508868e-01    2.091595e+00   5.914036e-02
  2.530973e-01    2.089805e+00   5.874855e-02
  2.553077e-01    2.059658e+00   5.796947e-02
  2.575182e-01    2.115675e+00   5.840490e-02
  2.597286e-01    2.092185e+00   5.774213e-02
  2.619391e-01    2.041999e+00   5.671698e-02
  2.641495e-01    2.076265e+00   5.687434e-02
  2.663600e-01    2.000942e+00   5.552612e-02
  2.685704e-01    2.105900e+00   5.665500e-02
  2.707809e-01    2.043211e+00   5.550918e-02
  2.729914e-01    2.056165e+00   5.539466e-02
  2.752018e-01    2.045532e+00   5.496367e-02
  2.774123e-01    1.998172e+00   5.404615e-02
  2.796227e-01    2.058320e+00   5.458224e-02
  2.818332e-01    2.019006e+00   5.378878e-02
  2.840436e-01    2.040754e+00   5.381557e-02
  2.862541e-01    1.978903e+00   5.273905e-02
  2.884646e-01    1.949996e+00   5.210397e-02
  2.906750e-01    1.962045e+00   5.201687e-02
  2.928855e-01    1.925453e+00   5.129079e-02
  2.950959e-01    1.955002e+00   5.144545e-02
  2.973064e-01    1.921247e+00   5.077017e-02
  2.995168e-01    1.962124e+00   5.107505e-02
  3.017273e-01    1.951822e+00   5.071620e-02
  3.039377e-01    1.938312e+00   5.031908e-02
  3.061482e-01    1.916099e+00   4.981350e-02
  3.083587e-01    1.939601e+00   4.990111e-02
  3.105691e-01    1.902529e+00   4.921084e-02
  3.127796e-01    1.978906e+00   4.997788e-02
  3.149900e-01    2.018603e+00   5.026639e-02
  3.172005e-01    1.914310e+00   4.875046e-02
  3.194109e-01    1.881097e+00   4.812620e-02
  3.216214e-01    1.863651e+00   4.770707e-02
  3.238319e-01    1.824257e+00   4.701315e-02
  3.260423e-01    1.897681e+00   4.775893e-02
  3.282528e-01    1.862185e+00   4.712183e-02
  3.304632e-01    1.851422e+00   4.680341e-02
  3.326737e-01    1.861416e+00   4.674648e-02
  3.348841e-01    1.873321e+00   4.671386e-02
  3.370946e-01    1.870748e+00   4.650613e-02
  3.393050e-01    1.864736e+00   4.625548e-02
  3.415155e-01    1.823900e+00   4.557418e-02
  3.437260e-01    1.764267e+00   4.465682e-02
  3.459364e-01    1.811865e+00   4.508781e-02
  3.481469e-01    1.778850e+00   4.451206e-02
  3.503573e-01    1.796186e+00   4.456550e-02
  3.525678e-01    1.837623e+00   4.491597e-02
  3.547782e-01    1.786621e+00   4.412821e-02
  3.569887e-01    1.798781e+00   4.412123e-02
  3.591992e-01    1.787777e+00   4.383045e-02
  3.614096e-01    1.734952e+00   4.302833e-02
  3.636201e-01    1.744169e+00   4.299084e-02
  3.658305e-01    1.795981e+00   4.347592e-02
  3.680410e-01    1.757668e+00   4.286179e-02
  3.702514e-01    1.773046e+00   4.290408e-02
  3.724619e-01    1.779073e+00   4.283059e-02
  3.746724e-01    1.806337e+00   4.301353e-02
  3.768828e-01    1.793090e+00   4.271131e-02
  3.790933e-01    1.816701e+00   4.285151e-02
  3.813037e-01    1.832362e+00   4.289502e-02
  3.835142e-01    1.819323e+00   4.260175e-02
  3.857246e-01    1.776104e+00   4.195646e-02
  3.879351e-01    1.783424e+00   4.190676e-02
  3.901455e-01    1.761799e+00   4.151930e-02
  3.923560e-01    1.816405e+00   4.202383e-02
  3.945665e-01    1.799537e+00   4.169562e-02
  3.967769e-01    1.728667e+00   4.073834e-02
  3.989874e-01    1.809399e+00   4.154861e-02
  4.011978e-01    1.768276e+00   4.094748e-02
  4.034083e-01    1.785551e+00   4.102065e-02
  4.056187e-01    1.811041e+00   4.118517e-02
  4.078292e-01    1.750862e+00   4.037257e-02
  4.100397e-01    1.751185e+00   4.025302e-02
  4.122501e-01    1.727900e+00   3.986488e-02
  4.144606e-01    1.729529e+00   3.976539e-02
  4.166710e-01    1.805413e+00   4.050757e-02
  4.188815e-01    1.807832e+00   4.041499e-02
  4.210919e-01    1.803996e+00   4.025376e-02
  4.233024e-01    1.828929e+00   4.041176e-02
  4.255128e-01    1.834706e+00   4.035853e-02
  4.277233e-01    1.861158e+00   4.053165e-02
  4.299338e-01    1.830570e+00   4.008154e-02
  4.321442e-01    1.817315e+00   3.982188e-02
  4.343547e-01    1.817575e+00   3.971211e-02
  4.365651e-01    1.819835e+00   3.962390e-02
  4.387756e-01    1.752604e+00   3.877621e-02
  4.409860e-01    1.722020e+00   3.832990e-02
  4.431965e-01    1.763561e+00   3.868220e-02
  4.454070e-01    1.749766e+00   3.842343e-02
  4.476174e-01    1.733112e+00   3.813514e-02
  4.498279e-01    1.730289e+00   3.800040e-02
  4.520383e-01    1.745321e+00   3.806034e-02
  4.542488e-01    1.759474e+00   3.811133e-02
  4.564592e-01    1.781202e+00   3.824304e-02
  4.586697e-01    1.745200e+00   3.775413e-02
  4.608801e-01    1.683064e+00   3.697663e-02
  4.630906e-01    1.707239e+00   3.714262e-02
  4.653011e-01    1.705014e+00   3.702081e-02
  4.675115e-01    1.687360e+00   3.673163e-02
  4.697220e-01    1.737628e+00   3.717718e-02
  4.719324e-01    1.741610e+00   3.712348e-02
  4.741429e-01    1.724126e+00   3.684149e-02
  4.763533e-01    1.696694e+00   3.645354e-02
  4.785638e-01    1.704139e+00   3.643904e-02
  4.807743e-01    1.696041e+00   3.625992e-02
  4.829847e-01    1.696988e+00   3.617841e-02
  4.851952e-01    1.693166e+00   3.604621e-02
  4.874056e-01    1.718726e+00   3.622569e-02
  4.896161e-01    1.707140e+00   3.601386e-02
  4.918265e-01    1.656761e+00   3.539036e-02
  4.940370e-01    1.705624e+00   3.581980e-02
  4.962475e-01    1.748791e+00   3.618069e-02
  4.984579e-01    1.705150e+00   3.563835e-02
  5.006684e-01    1.681221e+00   3.530111e-02
  5.028788e-01    1.700308e+00   3.541492e-02
  5.050893e-01    1.687398e+00   3.519439e-02
  5.072997e-01    1.707780e+00   3.532081e-02
  5.095102e-01    1.656587e+00   3.470407e-02
  5.117206e-01    1.623714e+00   3.427631e-02
  5.139311e-01    1.650963e+00   3.448091e-02
  5.161416e-01    1.649183e+00   3.438090e-02
  5.183520e-01    1.699074e+00   3.481411e-02
  5.205625e-01    1.697721e+00   3.471876e-02
  5.227729e-01    1.690926e+00   3.456838e-02
  5.249834e-01    1.669583e+00   3.426979e-02
  5.271938e-01    1.666727e+00   3.416055e-02
  5.294043e-01    1.740028e+00   3.482312e-02
  5.316148e-01    1.733264e+00   3.467576e-02
  5.338252e-01    1.754205e+00   3.480488e-02
  5.360357e-01    1.740113e+00   3.458587e-02
  5.382461e-01    1.763927e+00   3.474301e-02
  5.404566e-01    1.757759e+00   3.460331e-02
  5.426670e-01    1.722583e+00   3.417812e-02
  5.448775e-01    1.755123e+00   3.442235e-02
  5.470879e-01    1.771295e+00   3.450347e-02
  5.492984e-01    1.771034e+00   3.442419e-02
  5.515089e-01    1.777179e+00   3.440741e-02
  5.537193e-01    1.769111e+00   3.425356e-02
  5.559298e-01    1.767382e+00   3.416174e-02
  5.581402e-01    1.781150e+00   3.421959e-02
  5.603507e-01    1.794542e+00   3.427324e-02
  5.625611e-01    1.812079e+00   3.436557e-02
  5.647716e-01    1.782909e+00   3.401384e-02
  5.669821e-01    1.784047e+00   3.395134e-02
  5.691925e-01    1.773282e+00   3.377609e-02
  5.714030e-01    1.744284e+00   3.342738e-02
  5.736134e-01    1.739506e+00   3.331055e-02
  5.758239e-01    1.738272e+00   3.322767e-02
  5.780343e-01    1.755608e+00   3.332230e-02
  5.802448e-01    1.729284e+00   3.300233e-02
  5.824552e-01    1.648311e+00   3.215278e-02
  5.846657e-01    1.675306e+00   3.234742e-02
  5.868762e-01    1.683476e+00   3.235872e-02
  5.890866e-01    1.642581e+00   3.189694e-02
  5.912971e-01    1.630786e+00   3.171641e-02
  5.935075e-01    1.627848e+00   3.162234e-02
  5.957180e-01    1.650423e+00   3.177553e-02
  5.979284e-01    1.630297e+00   3.151672e-02
  6.001389e-01    1.659962e+00   3.173740e-02
  6.023494e-01    1.694602e+00   3.200175e-02
  6.045598e-01    1.650935e+00   3.152243e-02
  6.067703e-01    1.694027e+00   3.186695e-02
  6.089807e-01    1.664044e+00   3.152020e-02
  6.111912e-01    1.657389e+00   3.139427e-02
  6.134016e-01    1.697563e+00   3.170912e-02
  6.156121e-01    1.658695e+00   3.128170e-02
  6.178226e-01    1.714501e+00   3.174061e-02
  6.200330e-01    1.686615e+00   3.141933e-02
  6.222435e-01    1.707213e+00   3.154797e-02
  6.244539e-01    1.742531e+00   3.181022e-02
  6.266644e-01    1.721214e+00   3.155340e-02
  6.288748e-01    1.682305e+00   3.113399e-02
  6.310853e-01    1.716881e+00   3.139124e-02
  6.332957e-01    1.705189e+00   3.122377e-02
  6.355062e-01    1.737238e+00   3.145460e-02
  6.377167e-01    1.764173e+00   3.163669e-02
  6.399271e-01    1.716193e+00   3.114374e-02
  6.421376e-01    1.699805e+00   3.093550e-02
  6.443480e-01    1.706460e+00   3.093705e-02
  6.465585e-01    1.685333e+00   3.068670e-02
  6.487689e-01    1.688851e+00   3.066071e-02
  6.509794e-01    1.664890e+00   3.038500e-02
  6.531899e-01    1.648907e+00   3.018196e-02
  6.554003e-01    1.576878e+00   2.945988e-02
  6.576108e-01    1.607506e+00   2.968921e-02
  6.598212e-01    1.614852e+00   2.970169e-02
  6.620317e-01    1.632380e+00   2.980709e-02
  6.642421e-01    1.600692e+00   2.946177e-02
  6.664526e-01    1.580758e+00   2.922378e-02
  6.686630e-01    1.654537e+00   2.984273e-02
  6.708735e-01    1.616708e+00   2.944548e-02
  6.730840e-01    1.641002e+00   2.961180e-02
  6.752944e-01    1.594891e+00   2.913973e-02
  6.775049e-01    1.595636e+00   2.909358e-02
  6.797153e-01    1.633262e+00   2.938133e-02
  6.819258e-01    1.605604e+00   2.907894e-02
  6.841362e-01    1.642621e+00   2.935935e-02
  6.863467e-01    1.636758e+00   2.925442e-02
  6.885572e-01    1.624147e+00   2.908928e-02
  6.907676e-01    1.635455e+00   2.913807e-02
  6.929781e-01    1.616347e+00   2.891586e-02
  6.951885e-01    1.637766e+00   2.905528e-02
  6.973990e-01    1.611552e+00   2.877085e-02
  6.996094e-01    1.581382e+00   2.845011e-02
  7.018199e-01    1.628749e+00   2.882236e-02
  7.040303e-01    1.622947e+00   2.872047e-02
  7.062408e-01    1.574930e+00   2.824285e-02
  7.084513e-01    1.557621e+00   2.803836e-02
  7.106617e-01    1.568994e+00   2.809163e-02
  7.128722e-01    1.566238e+00   2.801841e-02
  7.150826e-01    1.533721e+00   2.767823e-02
  7.172931e-01    1.569682e+00   2.795256e-02
  7.195035e-01    1.569111e+00   2.789945e-02
  7.217140e-01    1.549263e+00   2.777147e-02
  7.239245e-01    1.541047e+00   2.792204e-02
  7.261349e-01    1.584935e+00   2.842581e-02
  7.283454e-01    1.591375e+00   2.855630e-02
  7.305558e-01    1.579812e+00   2.850645e-02
  7.327663e-01    1.574224e+00   2.849847e-02
  7.349767e-01    1.554405e+00   2.833480e-02
  7.371872e-01    1.563507e+00   2.840647e-02
  7.393976e-01    1.576868e+00   2.851332e-02
  7.416081e-01    1.573904e+00   2.847035e-02
  7.438186e-01    1.574421e+00   2.833071e-02
  7.460290e-01    1.578757e+00   2.807506e-02
  7.482395e-01    1.584168e+00   2.795146e-02
  7.504499e-01    1.535023e+00   2.737994e-02
  7.526604e-01    1.564101e+00   2.752186e-02
  7.548708e-01    1.593714e+00   2.769124e-02
  7.570813e-01    1.587501e+00   2.758603e-02
  7.592918e-01    1.596234e+00   2.762638e-02
  7.615022e-01    1.584776e+00   2.749315e-02
  7.637127e-01    1.551531e+00   2.717070e-02
  7.659231e-01    1.580590e+00   2.739190e-02
  7.681336e-01    1.567951e+00   2.725064e-02
  7.703440e-01    1.559973e+00   2.715014e-02
  7.725545e-01    1.599548e+00   2.746123e-02
  7.747650e-01    1.602892e+00   2.745141e-02
  7.769754e-01    1.573191e+00   2.714322e-02
  7.791859e-01    1.551479e+00   2.690216e-02
  7.813963e-01    1.573837e+00   2.704282e-02
  7.836068e-01    1.547951e+00   2.676810e-02
  7.858172e-01    1.604118e+00   2.719844e-02
  7.880277e-01    1.635380e+00   2.740999e-02
  7.902381e-01    1.594489e+00   2.701596e-02
  7.924486e-01    1.584202e+00   2.687878e-02
  7.946591e-01    1.612811e+00   2.707190e-02
  7.968695e-01    1.653000e+00   2.735811e-02
  7.990800e-01    1.620860e+00   2.704241e-02
  8.012904e-01    1.651432e+00   2.724903e-02
  8.035009e-01    1.674151e+00   2.738700e-02
  8.057113e-01    1.684712e+00   2.742575e-02
  8.079218e-01    1.688461e+00   2.740888e-02
  8.101323e-01    1.687029e+00   2.735071e-02
  8.123427e-01    1.679341e+00   2.724182e-02
  8.145532e-01    1.654007e+00   2.698929e-02
  8.167636e-01    1.655411e+00   2.695535e-02
  8.189741e-01    1.641462e+00   2.679678e-02
  8.211845e-01    1.648885e+00   2.681230e-02
  8.233950e-01    1.655927e+00   2.682579e-02
  8.256054e-01    1.657237e+00   2.679193e-02
  8.278159e-01    1.660573e+00   2.677462e-02
  8.300264e-01    1.660269e+00   2.672877e-02
  8.322368e-01    1.680530e+00   2.684771e-02
  8.344473e-01    1.637844e+00   2.646120e-02
  8.366577e-01    1.645783e+00   2.648256e-02
  8.388682e-01    1.673962e+00   2.666564e-02
  8.410786e-01    1.665502e+00   2.655576e-02
  8.432891e-01    1.664667e+00   2.650695e-02
  8.454996e-01    1.643686e+00   2.629768e-02
  8.477100e-01    1.634522e+00   2.618266e-02
  8.499205e-01    1.608161e+00   2.592987e-02
  8.521309e-01    1.651183e+00   2.623345e-02
  8.543414e-01    1.617531e+00   2.592424e-02
  8.565518e-01    1.605483e+00   2.578732e-02
  8.587623e-01    1.629581e+00   2.593965e-02
  8.609727e-01    1.649157e+00   2.605455e-02
  8.631832e-01    1.637552e+00   2.592268e-02
  8.653937e-01    1.649299e+00   2.597551e-02
  8.676041e-01    1.625363e+00   2.574744e-02
  8.698146e-01    1.632062e+00   2.576098e-02
  8.720250e-01    1.641082e+00   2.579274e-02
  8.742355e-01    1.603840e+00   2.545956e-02
  8.764459e-01    1.609367e+00   2.546448e-02
  8.786564e-01    1.611586e+00   2.544405e-02
  8.808669e-01    1.622658e+00   2.549259e-02
  8.830773e-01    1.667145e+00   2.580078e-02
  8.852878e-01    1.635243e+00   2.551444e-02
  8.874982e-01    1.599459e+00   2.519709e-02
  8.897087e-01    1.587609e+00   2.506606e-02
  8.919191e-01    1.581972e+00   2.498397e-02
  8.941296e-01    1.620805e+00   2.525123e-02
  8.963401e-01    1.620908e+00   2.521540e-02
  8.985505e-01    1.603642e+00   2.504371e-02
  9.007610e-01    1.601157e+00   2.498756e-02
  9.029714e-01    1.601856e+00   2.495715e-02
  9.051819e-01    1.586620e+00   2.480111e-02
  9.073923e-01    1.580620e+00   2.471782e-02
  9.096028e-01    1.596419e+00   2.480617e-02
  9.118132e-01    1.604028e+00   2.482895e-02
  9.140237e-01    1.586621e+00   2.465739e-02
  9.162342e-01    1.587816e+00   2.463224e-02
  9.184446e-01    1.631225e+00   2.493056e-02
  9.206551e-01    1.655626e+00   2.508016e-02
  9.228655e-01    1.646580e+00   2.497578e-02
  9.250760e-01    1.626756e+00   2.478936e-02
  9.272864e-01    1.601394e+00   2.456112e-02
  9.294969e-01    1.618856e+00   2.465865e-02
  9.317074e-01    1.628109e+00   2.469410e-02
  9.339178e-01    1.604572e+00   2.448146e-02
  9.361283e-01    1.636182e+00   2.468498e-02
  9.383387e-01    1.654362e+00   2.478799e-02
  9.405492e-01    1.631387e+00   2.458089e-02
  9.427596e-01    1.674592e+00   2.486840e-02
  9.449701e-01    1.657065e+00   2.470432e-02
  9.471805e-01    1.637925e+00   2.452643e-02
  9.493910e-01    1.690840e+00   2.488524e-02
  9.516015e-01    1.708493e+00   2.497991e-02
  9.538119e-01    1.704603e+00   2.491724e-02
  9.560224e-01    1.693544e+00   2.480135e-02
  9.582328e-01    1.690931e+00   2.474894e-02
  9.604433e-01    1.751850e+00   2.515514e-02
  9.626537e-01    1.794165e+00   2.542291e-02
  9.648642e-01    1.765497e+00   2.518445e-02
  9.670747e-01    1.797004e+00   2.537312e-02
  9.692851e-01    1.785165e+00   2.525581e-02
  9.714956e-01    1.727511e+00   2.480959e-02
  9.737060e-01    1.747193e+00   2.491773e-02
  9.759165e-01    1.753180e+00   2.492519e-02
  9.781269e-01    1.794237e+00   2.518238e-02
  9.803374e-01    1.801178e+00   2.519614e-02
  9.825478e-01    1.798613e+00   2.514499e-02
  9.847583e-01    1.794457e+00   2.508182e-02
  9.869688e-01    1.775632e+00   2.491651e-02
  9.891792e-01    1.765981e+00   2.481568e-02
  9.913897e-01    1.752921e+00   2.469039e-02
  9.936001e-01    1.755265e+00   2.467454e-02
  9.958106e-01    1.722350e+00   2.440888e-02
  9.980210e-01    1.673906e+00   2.403193e-02
  1.000231e+00    1.643057e+00   2.393989e-02
  1.002442e+00    1.635098e+00   2.400872e-02
  1.004652e+00    1.646441e+00   2.415907e-02
  1.006863e+00    1.654597e+00   2.426908e-02
  1.009073e+00    1.590534e+00   2.383105e-02
  1.011284e+00    1.572763e+00   2.372922e-02
  1.013494e+00    1.564662e+00   2.369148e-02
  1.015705e+00    1.583957e+00   2.385965e-02
  1.017915e+00    1.582139e+00   2.386239e-02
  1.020126e+00    1.574117e+00   2.381790e-02
  1.022336e+00    1.578702e+00   2.386432e-02
  1.024547e+00    1.560868e+00   2.374039e-02
  1.026757e+00    1.542161e+00   2.360607e-02
  1.028967e+00    1.487731e+00   2.319328e-02
  1.031178e+00    1.508026e+00   2.335702e-02
  1.033388e+00    1.535008e+00   2.357014e-02
  1.035599e+00    1.540084e+00   2.361250e-02
  1.037809e+00    1.529789e+00   2.353672e-02
  1.040020e+00    1.527789e+00   2.352260e-02
  1.042230e+00    1.547533e+00   2.367605e-02
  1.044441e+00    1.571040e+00   2.385499e-02
  1.046651e+00    1.552753e+00   2.371591e-02
  1.048862e+00    1.586041e+00   2.396796e-02
  1.051072e+00    1.588636e+00   2.398514e-02
  1.053282e+00    1.569780e+00   2.384140e-02
  1.055493e+00    1.572077e+00   2.385442e-02
  1.057703e+00    1.544297e+00   2.364117e-02
  1.059914e+00    1.577140e+00   2.388684e-02
  1.062124e+00    1.575721e+00   2.387196e-02
  1.064335e+00    1.507083e+00   2.334277e-02
  1.066545e+00    1.485909e+00   2.317220e-02
  1.068756e+00    1.463263e+00   2.299123e-02
  1.070966e+00    1.444421e+00   2.283627e-02
  1.073177e+00    1.439343e+00   2.279009e-02
  1.075387e+00    1.464731e+00   2.298498e-02
  1.077597e+00    1.484846e+00   2.313500e-02
  1.079808e+00    1.440397e+00   2.265442e-02
  1.082018e+00    1.444345e+00   2.249758e-02
  1.084229e+00    1.444783e+00   2.239153e-02
  1.086439e+00    1.516237e+00   2.284928e-02
  1.088650e+00    1.526483e+00   2.284886e-02
  1.090860e+00    1.476218e+00   2.240140e-02
  1.093071e+00    1.463994e+00   2.224596e-02
  1.095281e+00    1.475323e+00   2.227405e-02
  1.097492e+00    1.458799e+00   2.209380e-02
  1.099702e+00    1.445806e+00   2.194370e-02
  1.101912e+00    1.447636e+00   2.190860e-02
  1.104123e+00    1.426362e+00   2.169896e-02
  1.106333e+00    1.432207e+00   2.169895e-02
  1.108544e+00    1.451331e+00   2.179876e-02
  1.110754e+00    1.414780e+00   2.147968e-02
  1.112965e+00    1.408186e+00   2.138922e-02
  1.115175e+00    1.400245e+00   2.128793e-02
  1.117386e+00    1.385412e+00   2.113604e-02
  1.119596e+00    1.392169e+00   2.114990e-02
  1.121807e+00    1.395029e+00   2.113301e-02
  1.124017e+00    1.411798e+00   2.122292e-02
  1.126228e+00    1.402022e+00   2.111361e-02
  1.128438e+00    1.412884e+00   2.115830e-02
  1.130648e+00    1.445500e+00   2.136623e-02
  1.132859e+00    1.494444e+00   2.168941e-02
  1.135069e+00    1.477684e+00   2.153171e-02
  1.137280e+00    1.439139e+00   2.121544e-02
  1.139490e+00    1.420591e+00   2.104482e-02
  1.141701e+00    1.391050e+00   2.079167e-02
  1.143911e+00    1.355131e+00   2.048994e-02
  1.146122e+00    1.347250e+00   2.039864e-02
  1.148332e+00    1.354386e+00   2.042101e-02
  1.150543e+00    1.363751e+00   2.046081e-02
  1.152753e+00    1.387099e+00   2.060423e-02
  1.154963e+00    1.395172e+00   2.063285e-02
  1.157174e+00    1.376029e+00   2.046060e-02
  1.159384e+00    1.387335e+00   2.051447e-02
  1.161595e+00    1.381284e+00   2.043973e-02
  1.163805e+00    1.389893e+00   2.047382e-02
  1.166016e+00    1.410400e+00   2.059444e-02
  1.168226e+00    1.412734e+00   2.058204e-02
  1.170437e+00    1.424597e+00   2.063900e-02
  1.172647e+00    1.459679e+00   2.086174e-02
  1.174858e+00    1.430252e+00   2.062161e-02
  1.177068e+00    1.447639e+00   2.071746e-02
  1.179278e+00    1.431421e+00   2.057180e-02
  1.181489e+00    1.436444e+00   2.058007e-02
  1.183699e+00    1.421473e+00   2.044438e-02
  1.185910e+00    1.399844e+00   2.026002e-02
  1.188120e+00    1.370987e+00   2.002329e-02
  1.190331e+00    1.375323e+00   2.002796e-02
  1.192541e+00    1.362438e+00   1.990647e-02
  1.194752e+00    1.377535e+00   1.998915e-02
  1.196962e+00    1.376052e+00   1.995242e-02
  1.199173e+00    1.375590e+00   1.992232e-02
  1.201383e+00    1.359838e+00   1.978068e-02
  1.203593e+00    1.343665e+00   1.963793e-02
  1.205804e+00    1.336594e+00   1.956040e-02
  1.208014e+00    1.330060e+00   1.948589e-02
  1.210225e+00    1.323557e+00   1.941310e-02
  1.212435e+00    1.349415e+00   1.957703e-02
  1.214646e+00    1.361594e+00   1.963897e-02
  1.216856e+00    1.333911e+00   1.941298e-02
  1.219067e+00    1.335116e+00   1.939741e-02
  1.221277e+00    1.312811e+00   1.921001e-02
  1.223488e+00    1.340204e+00   1.938375e-02
  1.225698e+00    1.354693e+00   1.946129e-02
  1.227909e+00    1.341648e+00   1.933730e-02
  1.230119e+00    1.332484e+00   1.923949e-02
  1.232329e+00    1.340970e+00   1.927004e-02
  1.234540e+00    1.347460e+00   1.928636e-02
  1.236750e+00    1.316196e+00   1.903143e-02
  1.238961e+00    1.364465e+00   1.935012e-02
  1.241171e+00    1.361963e+00   1.930809e-02
  1.243382e+00    1.366140e+00   1.931403e-02
  1.245592e+00    1.340925e+00   1.911096e-02
  1.247803e+00    1.330200e+00   1.901087e-02
  1.250013e+00    1.346611e+00   1.910427e-02
  1.252224e+00    1.341997e+00   1.904834e-02
  1.254434e+00    1.352605e+00   1.909971e-02
  1.256644e+00    1.317869e+00   1.882996e-02
  1.258855e+00    1.313349e+00   1.877466e-02
  1.261065e+00    1.315425e+00   1.876644e-02
  1.263276e+00    1.332682e+00   1.886632e-02
  1.265486e+00    1.352202e+00   1.898111e-02
  1.267697e+00    1.345647e+00   1.891206e-02
  1.269907e+00    1.340114e+00   1.885054e-02
  1.272118e+00    1.343586e+00   1.885241e-02
  1.274328e+00    1.354095e+00   1.890323e-02
  1.276539e+00    1.370974e+00   1.899772e-02
  1.278749e+00    1.341238e+00   1.876836e-02
  1.280959e+00    1.349746e+00   1.880524e-02
  1.283170e+00    1.355422e+00   1.882228e-02
  1.285380e+00    1.327330e+00   1.860394e-02
  1.287591e+00    1.315589e+00   1.849973e-02
  1.289801e+00    1.316952e+00   1.848834e-02
  1.292012e+00    1.340850e+00   1.863828e-02
  1.294222e+00    1.374698e+00   1.885570e-02
  1.296433e+00    1.346755e+00   1.864750e-02
  1.298643e+00    1.351780e+00   1.866576e-02
  1.300854e+00    1.355313e+00   1.867370e-02
  1.303064e+00    1.307459e+00   1.832215e-02
  1.305274e+00    1.337684e+00   1.851138e-02
  1.307485e+00    1.348725e+00   1.856607e-02
  1.309695e+00    1.370249e+00   1.869123e-02
  1.311906e+00    1.361265e+00   1.860806e-02
  1.314116e+00    1.350557e+00   1.851394e-02
  1.316327e+00    1.362579e+00   1.857434e-02
  1.318537e+00    1.379558e+00   1.866761e-02
  1.320748e+00    1.358731e+00   1.850453e-02
  1.322958e+00    1.380170e+00   1.862920e-02
  1.325169e+00    1.384336e+00   1.863601e-02
  1.327379e+00    1.370620e+00   1.852149e-02
  1.329589e+00    1.368876e+00   1.848849e-02
  1.331800e+00    1.368908e+00   1.846786e-02
  1.334010e+00    1.368879e+00   1.844687e-02
  1.336221e+00    1.375765e+00   1.847124e-02
  1.338431e+00    1.374196e+00   1.843966e-02
  1.340642e+00    1.361768e+00   1.842054e-02
  1.342852e+00    1.345803e+00   1.841275e-02
  1.345063e+00    1.369154e+00   1.862163e-02
  1.347273e+00    1.349686e+00   1.852403e-02
  1.349484e+00    1.317390e+00   1.832839e-02
  1.351694e+00    1.336664e+00   1.848455e-02
  1.353905e+00    1.367431e+00   1.871421e-02
  1.356115e+00    1.345176e+00   1.857632e-02
  1.358325e+00    1.326644e+00   1.846111e-02
  1.360536e+00    1.341476e+00   1.857561e-02
  1.362746e+00    1.324367e+00   1.846627e-02
  1.364957e+00    1.307299e+00   1.835441e-02
  1.367167e+00    1.310483e+00   1.838380e-02
  1.369378e+00    1.307316e+00   1.836751e-02
  1.371588e+00    1.303254e+00   1.834402e-02
  1.373799e+00    1.290712e+00   1.825913e-02
  1.376009e+00    1.291157e+00   1.826561e-02
  1.378220e+00    1.322875e+00   1.849112e-02
  1.380430e+00    1.276567e+00   1.816725e-02
  1.382640e+00    1.294364e+00   1.829433e-02
  1.384851e+00    1.300583e+00   1.833911e-02
  1.387061e+00    1.313435e+00   1.842978e-02
  1.389272e+00    1.294252e+00   1.829492e-02
  1.391482e+00    1.282253e+00   1.820924e-02
  1.393693e+00    1.268464e+00   1.811020e-02
  1.395903e+00    1.268674e+00   1.811021e-02
  1.398114e+00    1.259860e+00   1.804582e-02
  1.400324e+00    1.304198e+00   1.835847e-02
  1.402535e+00    1.301385e+00   1.833633e-02
  1.404745e+00    1.285921e+00   1.822469e-02
  1.406955e+00    1.270947e+00   1.811556e-02
  1.409166e+00    1.255437e+00   1.800143e-02
  1.411376e+00    1.234653e+00   1.784870e-02
  1.413587e+00    1.256509e+00   1.800220e-02
  1.415797e+00    1.254894e+00   1.798712e-02
  1.418008e+00    1.271645e+00   1.806486e-02
  1.420218e+00    1.273765e+00   1.792997e-02
  1.422429e+00    1.276122e+00   1.786103e-02
  1.424639e+00    1.263332e+00   1.770678e-02
  1.426850e+00    1.270192e+00   1.770009e-02
  1.429060e+00    1.264896e+00   1.761427e-02
  1.431270e+00    1.256989e+00   1.751504e-02
  1.433481e+00    1.266348e+00   1.753921e-02
  1.435691e+00    1.281911e+00   1.760807e-02
  1.437902e+00    1.269884e+00   1.748881e-02
  1.440112e+00    1.294670e+00   1.762296e-02
  1.442323e+00    1.318547e+00   1.775107e-02
  1.444533e+00    1.269676e+00   1.738646e-02
  1.446744e+00    1.260651e+00   1.729352e-02
  1.448954e+00    1.279231e+00   1.739020e-02
  1.451165e+00    1.270422e+00   1.730047e-02
  1.453375e+00    1.265625e+00   1.723976e-02
  1.455586e+00    1.263863e+00   1.719967e-02
  1.457796e+00    1.265348e+00   1.718231e-02
  1.460006e+00    1.277092e+00   1.723453e-02
  1.462217e+00    1.284719e+00   1.725955e-02
  1.464427e+00    1.270451e+00   1.713783e-02
  1.466638e+00    1.242518e+00   1.692332e-02
  1.468848e+00    1.268339e+00   1.707292e-02
  1.471059e+00    1.280321e+00   1.712819e-02
  1.473269e+00    1.265749e+00   1.700610e-02
  1.475480e+00    1.243539e+00   1.683271e-02
  1.477690e+00    1.262056e+00   1.693376e-02
  1.479901e+00    1.262340e+00   1.691192e-02
  1.482111e+00    1.247908e+00   1.679180e-02
  1.484321e+00    1.256098e+00   1.682381e-02
  1.486532e+00    1.246909e+00   1.673999e-02
  1.488742e+00    1.247156e+00   1.671917e-02
  1.490953e+00    1.251783e+00   1.672765e-02
  1.493163e+00    1.268456e+00   1.681636e-02
  1.495374e+00    1.253606e+00   1.669622e-02
  1.497584e+00    1.244225e+00   1.661215e-02
  1.499795e+00    1.247506e+00   1.661248e-02
  1.502005e+00    1.244524e+00   1.657107e-02
  1.504216e+00    1.247045e+00   1.656691e-02
  1.506426e+00    1.251152e+00   1.657341e-02
  1.508636e+00    1.250328e+00   1.654756e-02
  1.510847e+00    1.248064e+00   1.651084e-02
  1.513057e+00    1.248141e+00   1.648632e-02
  1.515268e+00    1.238460e+00   1.639673e-02
  1.517478e+00    1.255108e+00   1.648139e-02
  1.519689e+00    1.254594e+00   1.645306e-02
  1.521899e+00    1.270590e+00   1.653434e-02
  1.524110e+00    1.274180e+00   1.653719e-02
  1.526320e+00    1.283762e+00   1.657941e-02
  1.528531e+00    1.267923e+00   1.645693e-02
  1.530741e+00    1.262855e+00   1.640475e-02
  1.532951e+00    1.245454e+00   1.627181e-02
  1.535162e+00    1.253328e+00   1.640986e-02
  1.537372e+00    1.243839e+00   1.641442e-02
  1.539583e+00    1.237722e+00   1.640807e-02
  1.541793e+00    1.252140e+00   1.651034e-02
  1.544004e+00    1.232145e+00   1.637822e-02
  1.546214e+00    1.244931e+00   1.646149e-02
  1.548425e+00    1.232592e+00   1.637997e-02
  1.550635e+00    1.243541e+00   1.646222e-02
  1.552846e+00    1.243774e+00   1.647342e-02
  1.555056e+00    1.258326e+00   1.652780e-02
  1.557266e+00    1.266308e+00   1.646872e-02
  1.559477e+00    1.255581e+00   1.633945e-02
  1.561687e+00    1.256182e+00   1.631254e-02
  1.563898e+00    1.259881e+00   1.631927e-02
  1.566108e+00    1.273337e+00   1.639004e-02
  1.568319e+00    1.247722e+00   1.620873e-02
  1.570529e+00    1.224938e+00   1.603511e-02
  1.572740e+00    1.243451e+00   1.612821e-02
  1.574950e+00    1.267208e+00   1.625502e-02
  1.577161e+00    1.242988e+00   1.607346e-02
  1.579371e+00    1.249490e+00   1.609173e-02
  1.581582e+00    1.263696e+00   1.616303e-02
  1.583792e+00    1.262137e+00   1.613493e-02
  1.586002e+00    1.218786e+00   1.583796e-02
  1.588213e+00    1.223683e+00   1.585263e-02
  1.590423e+00    1.246946e+00   1.598252e-02
  1.592634e+00    1.235330e+00   1.588637e-02
  1.594844e+00    1.207724e+00   1.568676e-02
  1.597055e+00    1.222224e+00   1.576030e-02
  1.599265e+00    1.241984e+00   1.586649e-02
  1.601476e+00    1.214851e+00   1.567212e-02
  1.603686e+00    1.226991e+00   1.573057e-02
  1.605897e+00    1.233359e+00   1.575123e-02
  1.608107e+00    1.237954e+00   1.576098e-02
  1.610317e+00    1.225958e+00   1.566522e-02
  1.612528e+00    1.213179e+00   1.556435e-02
  1.614738e+00    1.218059e+00   1.557678e-02
  1.616949e+00    1.213413e+00   1.552816e-02
  1.619159e+00    1.206989e+00   1.546841e-02
  1.621370e+00    1.197268e+00   1.538769e-02
  1.623580e+00    1.181241e+00   1.526628e-02
  1.625791e+00    1.165921e+00   1.514902e-02
  1.628001e+00    1.171813e+00   1.516922e-02
  1.630212e+00    1.165348e+00   1.510979e-02
  1.632422e+00    1.135911e+00   1.490019e-02
  1.634632e+00    1.148297e+00   1.496416e-02
  1.636843e+00    1.148101e+00   1.494557e-02
  1.639053e+00    1.145267e+00   1.491002e-02
  1.641264e+00    1.142709e+00   1.487647e-02
  1.643474e+00    1.135564e+00   1.481270e-02
  1.645685e+00    1.120927e+00   1.470054e-02
  1.647895e+00    1.095744e+00   1.451830e-02
  1.650106e+00    1.103034e+00   1.454988e-02
  1.652316e+00    1.090434e+00   1.445046e-02
  1.654527e+00    1.111557e+00   1.457331e-02
  1.656737e+00    1.116044e+00   1.458629e-02
  1.658947e+00    1.105803e+00   1.450313e-02
  1.661158e+00    1.094520e+00   1.441290e-02
  1.663368e+00    1.117286e+00   1.454605e-02
  1.665579e+00    1.095579e+00   1.438809e-02
  1.667789e+00    1.083725e+00   1.429402e-02
  1.670000e+00    1.095907e+00   1.435876e-02
  1.672210e+00    1.108070e+00   1.442236e-02
  1.674421e+00    1.123044e+00   1.450402e-02
  1.676631e+00    1.120571e+00   1.447206e-02
  1.678842e+00    1.111438e+00   1.439709e-02
  1.681052e+00    1.091244e+00   1.425033e-02
  1.683263e+00    1.081302e+00   1.417018e-02
  1.685473e+00    1.083021e+00   1.416630e-02
  1.687683e+00    1.075314e+00   1.410046e-02
  1.689894e+00    1.065316e+00   1.401908e-02
  1.692104e+00    1.068898e+00   1.402777e-02
  1.694315e+00    1.053198e+00   1.390999e-02
  1.696525e+00    1.046441e+00   1.385033e-02
  1.698736e+00    1.025204e+00   1.369451e-02
  1.700946e+00    1.025734e+00   1.368316e-02
  1.703157e+00    1.041652e+00   1.377439e-02
  1.705367e+00    1.039835e+00   1.374796e-02
  1.707578e+00    1.047691e+00   1.378524e-02
  1.709788e+00    1.034921e+00   1.368693e-02
  1.711998e+00    1.040696e+00   1.371006e-02
  1.714209e+00    1.037328e+00   1.367344e-02
  1.716419e+00    1.033190e+00   1.363187e-02
  1.718630e+00    1.043088e+00   1.368267e-02
  1.720840e+00    1.054992e+00   1.374615e-02
  1.723051e+00    1.089549e+00   1.395517e-02
  1.725261e+00    1.098070e+00   1.399442e-02
  1.727472e+00    1.061162e+00   1.374276e-02
  1.729682e+00    1.018604e+00   1.345087e-02
  1.731893e+00    1.023372e+00   1.346831e-02
  1.734103e+00    1.025745e+00   1.347004e-02
  1.736313e+00    1.009250e+00   1.334725e-02
  1.738524e+00    1.012165e+00   1.335261e-02
  1.740734e+00    1.003299e+00   1.328028e-02
  1.742945e+00    9.815047e-01   1.312191e-02
  1.745155e+00    9.636335e-01   1.298862e-02
  1.747366e+00    9.731648e-01   1.303901e-02
  1.749576e+00    9.680411e-01   1.299109e-02
  1.751787e+00    9.527302e-01   1.287481e-02
  1.753997e+00    9.579503e-01   1.289680e-02
  1.756208e+00    9.486811e-01   1.282123e-02
  1.758418e+00    9.397888e-01   1.274810e-02
  1.760628e+00    9.530076e-01   1.282420e-02
  1.762839e+00    9.585441e-01   1.284823e-02
  1.765049e+00    9.583215e-01   1.283365e-02
  1.767260e+00    9.394642e-01   1.269408e-02
  1.769470e+00    9.466359e-01   1.272950e-02
  1.771681e+00    9.590420e-01   1.279947e-02
  1.773891e+00    9.354035e-01   1.262780e-02
  1.776102e+00    9.260294e-01   1.255163e-02
  1.778312e+00    9.349540e-01   1.259930e-02
  1.780523e+00    9.351896e-01   1.258820e-02
  1.782733e+00    9.656312e-01   1.277857e-02
  1.784944e+00    9.930931e-01   1.294573e-02
  1.787154e+00    9.802281e-01   1.284877e-02
  1.789364e+00    9.453691e-01   1.260567e-02
  1.791575e+00    9.267718e-01   1.246850e-02
  1.793785e+00    9.420175e-01   1.255811e-02
  1.795996e+00    9.349968e-01   1.249862e-02
  1.798206e+00    9.596031e-01   1.264921e-02
  1.800417e+00    9.451903e-01   1.254100e-02
  1.802627e+00    9.353092e-01   1.246319e-02
  1.804838e+00    9.461715e-01   1.252301e-02
  1.807048e+00    9.539828e-01   1.256146e-02
  1.809259e+00    9.371347e-01   1.243621e-02
  1.811469e+00    9.545102e-01   1.253561e-02
  1.813679e+00    9.225901e-01   1.230908e-02
  1.815890e+00    9.058311e-01   1.218194e-02
  1.818100e+00    9.019412e-01   1.214062e-02
  1.820311e+00    8.993585e-01   1.210842e-02
  1.822521e+00    8.747457e-01   1.192685e-02
  1.824732e+00    8.788926e-01   1.194038e-02
  1.826942e+00    8.762250e-01   1.190996e-02
  1.829153e+00    8.805388e-01   1.192761e-02
  1.831363e+00    8.689072e-01   1.183662e-02
  1.833574e+00    8.575420e-01   1.174745e-02
  1.835784e+00    8.448875e-01   1.164924e-02
  1.837994e+00    8.516985e-01   1.168456e-02
  1.840205e+00    8.621804e-01   1.174515e-02
  1.842415e+00    8.607040e-01   1.172340e-02
  1.844626e+00    8.622757e-01   1.172260e-02
  1.846836e+00    8.558713e-01   1.166763e-02
  1.849047e+00    8.668311e-01   1.173049e-02
  1.851257e+00    8.641996e-01   1.170309e-02
  1.853468e+00    8.725300e-01   1.175051e-02
  1.855678e+00    8.669758e-01   1.170414e-02
  1.857889e+00    8.576799e-01   1.163273e-02
  1.860099e+00    8.432599e-01   1.152597e-02
  1.862309e+00    8.371991e-01   1.147605e-02
  1.864520e+00    8.557452e-01   1.159390e-02
  1.866730e+00    8.328390e-01   1.142841e-02
  1.868941e+00    8.390536e-01   1.146011e-02
  1.871151e+00    8.430867e-01   1.147629e-02
  1.873362e+00    8.373351e-01   1.142581e-02
  1.875572e+00    8.244143e-01   1.132656e-02
  1.877783e+00    8.274461e-01   1.133606e-02
  1.879993e+00    8.376286e-01   1.139449e-02
  1.882204e+00    8.590499e-01   1.152830e-02
  1.884414e+00    8.337448e-01   1.134623e-02
  1.886624e+00    8.276349e-01   1.129361e-02
  1.888835e+00    8.453271e-01   1.140268e-02
  1.891045e+00    8.554381e-01   1.145968e-02
  1.893256e+00    8.601773e-01   1.148017e-02
  1.895466e+00    8.482721e-01   1.138919e-02
  1.897677e+00    8.440827e-01   1.135006e-02
  1.899887e+00    8.622252e-01   1.146023e-02
  1.902098e+00    8.556660e-01   1.140554e-02
  1.904308e+00    8.582032e-01   1.141171e-02
  1.906519e+00    8.619743e-01   1.142569e-02
  1.908729e+00    8.438964e-01   1.129456e-02
  1.910940e+00    8.425409e-01   1.127422e-02
  1.913150e+00    8.765205e-01   1.148842e-02
  1.915360e+00    8.837627e-01   1.152482e-02
  1.917571e+00    8.299590e-01   1.115757e-02
  1.919781e+00    8.208089e-01   1.108520e-02
  1.921992e+00    8.216484e-01   1.108024e-02
  1.924202e+00    8.393955e-01   1.118834e-02
  1.926413e+00    8.488875e-01   1.124093e-02
  1.928623e+00    8.391777e-01   1.116576e-02
  1.930834e+00    8.244070e-01   1.105656e-02
  1.933044e+00    8.228702e-01   1.103550e-02
  1.935255e+00    8.281494e-01   1.106040e-02
  1.937465e+00    8.062903e-01   1.090308e-02
  1.939675e+00    7.865735e-01   1.075822e-02
  1.941886e+00    8.017779e-01   1.085144e-02
  1.944096e+00    8.009505e-01   1.083568e-02
  1.946307e+00    7.807671e-01   1.068808e-02
  1.948517e+00    7.764034e-01   1.064787e-02
  1.950728e+00    8.008711e-01   1.080407e-02
  1.952938e+00    8.258747e-01   1.096119e-02
  1.955149e+00    8.138117e-01   1.087050e-02
  1.957359e+00    7.902420e-01   1.070193e-02
  1.959570e+00    7.780809e-01   1.060849e-02
  1.961780e+00    7.936000e-01   1.070384e-02
  1.963990e+00    7.982743e-01   1.072516e-02
  1.966201e+00    8.041686e-01   1.075455e-02
  1.968411e+00    7.944847e-01   1.067942e-02
  1.970622e+00    7.931672e-01   1.066041e-02
  1.972832e+00    8.238516e-01   1.085447e-02
  1.975043e+00    7.969714e-01   1.066583e-02
  1.977253e+00    8.021839e-01   1.069058e-02
  1.979464e+00    7.943718e-01   1.062830e-02
  1.981674e+00    7.989709e-01   1.064865e-02
  1.983885e+00    7.968742e-01   1.062456e-02
  1.986095e+00    7.994164e-01   1.063167e-02
  1.988305e+00    7.940151e-01   1.058571e-02
  1.990516e+00    7.761414e-01   1.045598e-02
  1.992726e+00    7.793105e-01   1.046761e-02
  1.994937e+00    7.809698e-01   1.046861e-02
  1.997147e+00    7.870327e-01   1.049936e-02
  1.999358e+00    7.884269e-01   1.049872e-02
  2.001568e+00    7.971361e-01   1.054557e-02
  2.003779e+00    7.670189e-01   1.033257e-02
  2.005989e+00    7.616960e-01   1.028470e-02
  2.008200e+00    7.744151e-01   1.035866e-02
  2.010410e+00    7.736713e-01   1.034190e-02
  2.012621e+00    7.737374e-01   1.033060e-02
  2.014831e+00    7.680423e-01   1.028103e-02
  2.017041e+00    7.666454e-01   1.026131e-02
  2.019252e+00    7.435005e-01   1.009542e-02
  2.021462e+00    7.415718e-01   1.007293e-02
  2.023673e+00    7.494891e-01   1.011727e-02
  2.025883e+00    7.527325e-01   1.012969e-02
  2.028094e+00    7.678424e-01   1.022115e-02
  2.030304e+00    7.646495e-01   1.019037e-02
  2.032515e+00    7.661617e-01   1.019107e-02
  2.034725e+00    7.675864e-01   1.019108e-02
  2.036936e+00    7.413490e-01   1.000613e-02
  2.039146e+00    7.677591e-01   1.017317e-02
  2.041356e+00    7.586869e-01   1.010323e-02
  2.043567e+00    7.679002e-01   1.015502e-02
  2.045777e+00    7.471301e-01   1.000754e-02
  2.047988e+00    7.417148e-01   9.961913e-03
  2.050198e+00    7.457181e-01   9.980389e-03
  2.052409e+00    7.430484e-01   9.954870e-03
  2.054619e+00    7.520503e-01   1.000765e-02
  2.056830e+00    7.427016e-01   9.938099e-03
  2.059040e+00    7.479233e-01   9.965470e-03
  2.061251e+00    7.682130e-01   1.009241e-02
  2.063461e+00    7.493500e-01   9.960147e-03
  2.065671e+00    7.480502e-01   9.942785e-03
  2.067882e+00    7.435988e-01   9.904171e-03
  2.070092e+00    7.561779e-01   9.978354e-03
  2.072303e+00    7.554812e-01   9.964564e-03
  2.074513e+00    7.301614e-01   9.786943e-03
  2.076724e+00    7.163236e-01   9.684464e-03
  2.078934e+00    7.341985e-01   9.795604e-03
  2.081145e+00    7.407193e-01   9.829935e-03
  2.083355e+00    7.326360e-01   9.767043e-03
  2.085566e+00    7.389548e-01   9.800165e-03
  2.087776e+00    7.356501e-01   9.768757e-03
  2.089986e+00    7.373042e-01   9.770954e-03
  2.092197e+00    7.201845e-01   9.647998e-03
  2.094407e+00    7.407095e-01   9.775241e-03
  2.096618e+00    7.488555e-01   9.819895e-03
  2.098828e+00    7.308956e-01   9.692123e-03
  2.101039e+00    7.285010e-01   9.667289e-03
  2.103249e+00    7.188959e-01   9.594752e-03
  2.105460e+00    7.010959e-01   9.466379e-03
  2.107670e+00    7.131644e-01   9.538863e-03
  2.109881e+00    7.241176e-01   9.602696e-03
  2.112091e+00    7.406818e-01   9.702823e-03
  2.114301e+00    7.265663e-01   9.601152e-03
  2.116512e+00    6.914489e-01   9.357636e-03
  2.118722e+00    7.070102e-01   9.453607e-03
  2.120933e+00    7.054289e-01   9.434272e-03
  2.123143e+00    7.143195e-01   9.484646e-03
  2.125354e+00    7.042881e-01   9.409374e-03
  2.127564e+00    7.113286e-01   9.447577e-03
  2.129775e+00    7.161697e-01   9.470958e-03
  2.131985e+00    7.165227e-01   9.464196e-03
  2.134196e+00    7.359671e-01   9.583040e-03
  2.136406e+00    7.223082e-01   9.484912e-03
  2.138617e+00    7.138914e-01   9.420988e-03
  2.140827e+00    7.253932e-01   9.512826e-03
  2.143037e+00    7.092716e-01   9.452083e-03
  2.145248e+00    7.072261e-01   9.460454e-03
  2.147458e+00    6.961536e-01   9.401168e-03
  2.149669e+00    7.039090e-01   9.465225e-03
  2.151879e+00    6.953229e-01   9.416517e-03
  2.154090e+00    7.053606e-01   9.491567e-03
  2.156300e+00    6.987355e-01   9.453503e-03
  2.158511e+00    6.856788e-01   9.369993e-03
  2.160721e+00    7.019202e-01   9.485149e-03
  2.162932e+00    6.914468e-01   9.417837e-03
  2.165142e+00    7.004173e-01   9.481773e-03
  2.167352e+00    6.896569e-01   9.411546e-03
  2.169563e+00    6.894737e-01   9.412250e-03
  2.171773e+00    6.851936e-01   9.385423e-03
  2.173984e+00    6.767172e-01   9.328570e-03
  2.176194e+00    6.789197e-01   9.344939e-03
  2.178405e+00    6.740515e-01   9.312056e-03
  2.180615e+00    6.776030e-01   9.337219e-03
  2.182826e+00    6.993646e-01   9.486664e-03
  2.185036e+00    7.015266e-01   9.501379e-03
  2.187247e+00    6.964338e-01   9.466758e-03
  2.189457e+00    6.854334e-01   9.391310e-03
  2.191667e+00    6.789075e-01   9.346308e-03
  2.193878e+00    6.810097e-01   9.360199e-03
  2.196088e+00    6.744033e-01   9.314028e-03
  2.198299e+00    6.858776e-01   9.391811e-03
  2.200509e+00    6.893895e-01   9.414786e-03
  2.202720e+00    6.817628e-01   9.361407e-03
  2.204930e+00    6.753898e-01   9.316309e-03
  2.207141e+00    6.850985e-01   9.381907e-03
  2.209351e+00    6.894418e-01   9.409728e-03
  2.211562e+00    6.594223e-01   9.200966e-03
  2.213772e+00    6.898201e-01   9.354650e-03
  2.215982e+00    6.752103e-01   9.210864e-03
  2.218193e+00    6.747897e-01   9.178397e-03
  2.220403e+00    6.673175e-01   9.102981e-03
  2.222614e+00    6.742898e-01   9.129447e-03
  2.224824e+00    6.760035e-01   9.121622e-03
  2.227035e+00    6.864895e-01   9.174485e-03
  2.229245e+00    6.662230e-01   9.021156e-03
  2.231456e+00    6.677076e-01   9.015611e-03
  2.233666e+00    6.631924e-01   8.970073e-03
  2.235877e+00    6.715769e-01   9.012315e-03
  2.238087e+00    6.878104e-01   9.106937e-03
  2.240298e+00    6.766967e-01   9.019225e-03
  2.242508e+00    6.608207e-01   8.897758e-03
  2.244718e+00    6.698305e-01   8.942372e-03
  2.246929e+00    6.766471e-01   8.973267e-03
  2.249139e+00    6.710419e-01   8.923597e-03
  2.251350e+00    6.691291e-01   8.899147e-03
  2.253560e+00    6.713347e-01   8.902200e-03
  2.255771e+00    6.624703e-01   8.831837e-03
  2.257981e+00    6.636754e-01   8.828718e-03
  2.260192e+00    6.693322e-01   8.855101e-03
  2.262402e+00    6.643748e-01   8.811395e-03
  2.264613e+00    6.670137e-01   8.818023e-03
  2.266823e+00    6.711141e-01   8.834604e-03
  2.269033e+00    7.013386e-01   9.020674e-03
  2.271244e+00    7.497120e-01   9.315506e-03
  2.273454e+00    8.209555e-01   9.736665e-03
  2.275665e+00    8.721276e-01   1.002372e-02
  2.277875e+00    8.549809e-01   9.913454e-03
  2.280086e+00    7.600632e-01   9.336216e-03
  2.282296e+00    7.039974e-01   8.975548e-03
  2.284507e+00    6.684037e-01   8.735488e-03
  2.286717e+00    6.739194e-01   8.761849e-03
  2.288928e+00    6.632628e-01   8.682423e-03
  2.291138e+00    6.406361e-01   8.523704e-03
  2.293348e+00    6.515294e-01   8.586367e-03
  2.295559e+00    6.429679e-01   8.520530e-03
  2.297769e+00    6.634097e-01   8.645622e-03
  2.299980e+00    6.466612e-01   8.526498e-03
  2.302190e+00    6.508452e-01   8.544924e-03
  2.304401e+00    6.571562e-01   8.576906e-03
  2.306611e+00    6.395769e-01   8.452293e-03
  2.308822e+00    6.523627e-01   8.527962e-03
  2.311032e+00    6.580493e-01   8.558565e-03
  2.313243e+00    6.465484e-01   8.477204e-03
  2.315453e+00    6.481619e-01   8.480196e-03
  2.317663e+00    6.396548e-01   8.415285e-03
  2.319874e+00    6.417181e-01   8.420155e-03
  2.322084e+00    6.443390e-01   8.428377e-03
  2.324295e+00    6.461053e-01   8.431695e-03
  2.326505e+00    6.438823e-01   8.408122e-03
  2.328716e+00    6.502258e-01   8.440843e-03
  2.330926e+00    6.479047e-01   8.416948e-03
  2.333137e+00    6.291135e-01   8.285698e-03
  2.335347e+00    6.381741e-01   8.336291e-03
  2.337558e+00    6.471956e-01   8.386734e-03
  2.339768e+00    6.401240e-01   8.332228e-03
  2.341979e+00    6.503521e-01   8.390076e-03
  2.344189e+00    6.383864e-01   8.304159e-03
  2.346399e+00    6.219807e-01   8.188337e-03
  2.348610e+00    6.288971e-01   8.225334e-03
  2.350820e+00    6.308911e-01   8.230206e-03
  2.353031e+00    6.320661e-01   8.229594e-03
  2.355241e+00    6.360482e-01   8.247406e-03
  2.357452e+00    6.297876e-01   8.198321e-03
  2.359662e+00    6.278540e-01   8.177525e-03
  2.361873e+00    6.194121e-01   8.114200e-03
  2.364083e+00    6.262351e-01   8.150789e-03
  2.366294e+00    6.381752e-01   8.219958e-03
  2.368504e+00    6.246802e-01   8.124529e-03
  2.370714e+00    6.229194e-01   8.105023e-03
  2.372925e+00    6.234262e-01   8.100275e-03
  2.375135e+00    6.247036e-01   8.100515e-03
  2.377346e+00    6.232996e-01   8.083466e-03
  2.379556e+00    6.212025e-01   8.061965e-03
  2.381767e+00    6.199886e-01   8.046233e-03
  2.383977e+00    6.080189e-01   7.960323e-03
  2.386188e+00    6.232105e-01   8.051227e-03
  2.388398e+00    6.168888e-01   8.002335e-03
  2.390609e+00    6.192130e-01   8.009655e-03
  2.392819e+00    6.207770e-01   8.011969e-03
  2.395029e+00    6.181592e-01   7.987381e-03
  2.397240e+00    5.992509e-01   7.856511e-03
  2.399450e+00    5.999857e-01   7.853585e-03
  2.401661e+00    6.102530e-01   7.912837e-03
  2.403871e+00    6.088305e-01   7.895873e-03
  2.406082e+00    6.092859e-01   7.891386e-03
  2.408292e+00    6.064040e-01   7.864937e-03
  2.410503e+00    6.061231e-01   7.855632e-03
  2.412713e+00    6.173970e-01   7.920493e-03
  2.414924e+00    6.026801e-01   7.818069e-03
  2.417134e+00    5.961721e-01   7.768157e-03
  2.419344e+00    6.067280e-01   7.829187e-03
  2.421555e+00    5.957564e-01   7.750621e-03
  2.423765e+00    5.970103e-01   7.751374e-03
  2.425976e+00    5.946775e-01   7.728457e-03
  2.428186e+00    5.833513e-01   7.647381e-03
  2.430397e+00    5.821523e-01   7.632114e-03
  2.432607e+00    5.793136e-01   7.606316e-03
  2.434818e+00    5.922276e-01   7.683111e-03
  2.437028e+00    5.940611e-01   7.687841e-03
  2.439239e+00    5.935183e-01   7.676663e-03
  2.441449e+00    5.956857e-01   7.683476e-03
  2.443659e+00    5.702851e-01   7.510646e-03
  2.445870e+00    5.670258e-01   7.501156e-03
  2.448080e+00    5.877461e-01   7.671930e-03
  2.450291e+00    5.755821e-01   7.608709e-03
  2.452501e+00    5.757046e-01   7.620679e-03
  2.454712e+00    5.748005e-01   7.623132e-03
  2.456922e+00    5.629592e-01   7.550782e-03
  2.459133e+00    5.715623e-01   7.613702e-03
  2.461343e+00    5.527395e-01   7.491602e-03
  2.463554e+00    5.509391e-01   7.482794e-03
  2.465764e+00    5.567722e-01   7.525420e-03
  2.467975e+00    5.714851e-01   7.626511e-03
  2.470185e+00    5.623404e-01   7.567532e-03
  2.472395e+00    5.476287e-01   7.469086e-03
  2.474606e+00    5.448284e-01   7.451513e-03
  2.476816e+00    5.391943e-01   7.413615e-03
  2.479027e+00    5.472450e-01   7.469599e-03
  2.481237e+00    5.380253e-01   7.406693e-03
  2.483448e+00    5.339017e-01   7.378541e-03
  2.485658e+00    5.375100e-01   7.403290e-03
  2.487869e+00    5.437796e-01   7.446391e-03
  2.490079e+00    5.381213e-01   7.407025e-03
  2.492290e+00    5.371348e-01   7.399803e-03
  2.494500e+00    5.351724e-01   7.385538e-03
  2.496710e+00    5.415946e-01   7.429021e-03
  2.498921e+00    5.315299e-01   7.358691e-03
  2.501131e+00    5.303189e-01   7.349353e-03
  2.503342e+00    5.231671e-01   7.298373e-03
  2.505552e+00    5.239827e-01   7.302932e-03
  2.507763e+00    5.315070e-01   7.353763e-03
  2.509973e+00    5.419060e-01   7.423932e-03
  2.512184e+00    5.412806e-01   7.418035e-03
  2.514394e+00    5.343064e-01   7.360655e-03
  2.516605e+00    5.338024e-01   7.309803e-03
  2.518815e+00    5.195187e-01   7.183175e-03
  2.521025e+00    5.335714e-01   7.258557e-03
  2.523236e+00    5.338936e-01   7.242628e-03
  2.525446e+00    5.265654e-01   7.177121e-03
  2.527657e+00    5.461751e-01   7.294656e-03
  2.529867e+00    5.379322e-01   7.225057e-03
  2.532078e+00    5.343044e-01   7.185465e-03
  2.534288e+00    5.308874e-01   7.148502e-03
  2.536499e+00    5.264151e-01   7.106365e-03
  2.538709e+00    5.298940e-01   7.118740e-03
  2.540920e+00    5.257338e-01   7.080106e-03
  2.543130e+00    5.168194e-01   7.009516e-03
  2.545340e+00    5.233788e-01   7.043799e-03
  2.547551e+00    5.186133e-01   7.001750e-03
  2.549761e+00    5.269278e-01   7.048036e-03
  2.551972e+00    5.295204e-01   7.055926e-03
  2.554182e+00    5.263914e-01   7.025836e-03
  2.556393e+00    5.111422e-01   6.914318e-03
  2.558603e+00    5.234414e-01   6.987891e-03
  2.560814e+00    5.240469e-01   6.983198e-03
  2.563024e+00    5.271908e-01   6.995482e-03
  2.565235e+00    5.177753e-01   6.923228e-03
  2.567445e+00    5.199848e-01   6.928426e-03
  2.569656e+00    5.071606e-01   6.832809e-03
  2.571866e+00    5.160845e-01   6.883327e-03
  2.574076e+00    5.030083e-01   6.786406e-03
  2.576287e+00    5.218095e-01   6.903712e-03
  2.578497e+00    5.108544e-01   6.823059e-03
  2.580708e+00    5.108721e-01   6.815112e-03
  2.582918e+00    5.138535e-01   6.827231e-03
  2.585129e+00    5.059252e-01   6.766658e-03
  2.587339e+00    5.063797e-01   6.762083e-03
  2.589550e+00    5.110227e-01   6.785473e-03
  2.591760e+00    5.087304e-01   6.762511e-03
  2.593971e+00    5.239663e-01   6.855437e-03
  2.596181e+00    5.138889e-01   6.782935e-03
  2.598391e+00    5.118490e-01   6.764280e-03
  2.600602e+00    5.140103e-01   6.772593e-03
  2.602812e+00    5.191795e-01   6.798954e-03
  2.605023e+00    5.264478e-01   6.839097e-03
  2.607233e+00    5.213270e-01   6.798520e-03
  2.609444e+00    5.130736e-01   6.737231e-03
  2.611654e+00    5.066600e-01   6.687657e-03
  2.613865e+00    4.897339e-01   6.568090e-03
  2.616075e+00    4.979315e-01   6.615738e-03
  2.618286e+00    5.013128e-01   6.631200e-03
  2.620496e+00    5.006099e-01   6.619888e-03
  2.622706e+00    5.013514e-01   6.619060e-03
  2.624917e+00    5.035951e-01   6.628009e-03
  2.627127e+00    5.027236e-01   6.616553e-03
  2.629338e+00    4.959303e-01   6.565747e-03
  2.631548e+00    5.093393e-01   6.647720e-03
  2.633759e+00    5.045103e-01   6.608973e-03
  2.635969e+00    4.947375e-01   6.538008e-03
  2.638180e+00    5.004243e-01   6.568488e-03
  2.640390e+00    4.956372e-01   6.530448e-03
  2.642601e+00    4.900388e-01   6.486856e-03
  2.644811e+00    5.063424e-01   6.586750e-03
  2.647021e+00    5.174422e-01   6.651900e-03
  2.649232e+00    4.994184e-01   6.528308e-03
  2.651442e+00    5.075759e-01   6.574823e-03
  2.653653e+00    5.149782e-01   6.615723e-03
  2.655863e+00    4.959873e-01   6.485915e-03
  2.658074e+00    4.925939e-01   6.457105e-03
  2.660284e+00    4.956761e-01   6.470943e-03
  2.662495e+00    4.995718e-01   6.489547e-03
  2.664705e+00    4.936466e-01   6.444404e-03
  2.666916e+00    5.029483e-01   6.498323e-03
  2.669126e+00    4.918266e-01   6.419646e-03
  2.671337e+00    4.979710e-01   6.453035e-03
  2.673547e+00    4.959011e-01   6.433210e-03
  2.675757e+00    4.866579e-01   6.366585e-03
  2.677968e+00    4.977566e-01   6.432215e-03
  2.680178e+00    5.044071e-01   6.468587e-03
  2.682389e+00    4.854247e-01   6.339366e-03
  2.684599e+00    4.884523e-01   6.352919e-03
  2.686810e+00    5.036885e-01   6.444572e-03
  2.689020e+00    4.892250e-01   6.345105e-03
  2.691231e+00    4.921844e-01   6.357951e-03
  2.693441e+00    5.000580e-01   6.402409e-03
  2.695652e+00    4.909568e-01   6.337373e-03
  2.697862e+00    4.842958e-01   6.287905e-03
  2.700072e+00    4.898910e-01   6.318063e-03
  2.702283e+00    4.787948e-01   6.239931e-03
  2.704493e+00    4.988458e-01   6.362901e-03
  2.706704e+00    4.925451e-01   6.316174e-03
  2.708914e+00    4.883371e-01   6.283144e-03
  2.711125e+00    4.945686e-01   6.316839e-03
  2.713335e+00    4.814203e-01   6.226247e-03
  2.715546e+00    4.883008e-01   6.264101e-03
  2.717756e+00    4.801510e-01   6.205763e-03
  2.719967e+00    4.847191e-01   6.229024e-03
  2.722177e+00    4.712428e-01   6.135781e-03
  2.724387e+00    4.711190e-01   6.128949e-03
  2.726598e+00    4.901179e-01   6.245233e-03
  2.728808e+00    4.832189e-01   6.194976e-03
  2.731019e+00    4.780582e-01   6.155743e-03
  2.733229e+00    4.764302e-01   6.139482e-03
  2.735440e+00    4.787043e-01   6.147891e-03
  2.737650e+00    4.669307e-01   6.065898e-03
  2.739861e+00    4.852265e-01   6.177509e-03
  2.742071e+00    4.695641e-01   6.071350e-03
  2.744282e+00    4.693508e-01   6.063788e-03
  2.746492e+00    4.804972e-01   6.129355e-03
  2.748702e+00    4.644476e-01   6.020325e-03
  2.750913e+00    4.728878e-01   6.069033e-03
  2.753123e+00    4.817420e-01   6.119472e-03
  2.755334e+00    4.742483e-01   6.065665e-03
  2.757544e+00    4.705988e-01   6.036580e-03
  2.759755e+00    4.783345e-01   6.080148e-03
  2.761965e+00    4.786086e-01   6.075904e-03
  2.764176e+00    4.755082e-01   6.050244e-03
  2.766386e+00    4.833316e-01   6.093989e-03
  2.768597e+00    4.747908e-01   6.034078e-03
  2.770807e+00    4.767495e-01   6.040648e-03
  2.773017e+00    4.808112e-01   6.060340e-03
  2.775228e+00    4.957416e-01   6.147824e-03
  2.777438e+00    4.847814e-01   6.073674e-03
  2.779649e+00    4.741107e-01   6.000558e-03
  2.781859e+00    4.718435e-01   5.980472e-03
  2.784070e+00    4.745989e-01   5.992068e-03
  2.786280e+00    4.791616e-01   6.015017e-03
  2.788491e+00    4.695785e-01   5.948781e-03
  2.790701e+00    4.622546e-01   5.896640e-03
  2.792912e+00    4.749885e-01   5.971344e-03
  2.795122e+00    4.773401e-01   5.980381e-03
  2.797333e+00    4.572751e-01   5.847889e-03
  2.799543e+00    4.711626e-01   5.930175e-03
  2.801753e+00    4.780981e-01   5.967794e-03
  2.803964e+00    4.851366e-01   6.005842e-03
  2.806174e+00    4.742622e-01   5.932014e-03
  2.808385e+00    4.782510e-01   5.950089e-03
  2.810595e+00    4.582419e-01   5.817541e-03
  2.812806e+00    4.602045e-01   5.823474e-03
  2.815016e+00    4.706548e-01   5.884489e-03
  2.817227e+00    4.716647e-01   5.916666e-03
  2.819437e+00    4.784884e-01   5.970449e-03
  2.821648e+00    4.841087e-01   6.007719e-03
  2.823858e+00    4.750312e-01   5.956492e-03
  2.826068e+00    4.777311e-01   5.978380e-03
  2.828279e+00    4.736086e-01   5.956590e-03
  2.830489e+00    4.704990e-01   5.940326e-03
  2.832700e+00    4.690866e-01   5.933968e-03
  2.834910e+00    4.614281e-01   5.887337e-03
  2.837121e+00    4.598784e-01   5.879162e-03
  2.839331e+00    4.786110e-01   5.998930e-03
  2.841542e+00    4.709865e-01   5.951974e-03
  2.843752e+00    4.646116e-01   5.912353e-03
  2.845963e+00    4.623894e-01   5.898567e-03
  2.848173e+00    4.651410e-01   5.916184e-03
  2.850383e+00    4.626090e-01   5.900363e-03
  2.852594e+00    4.625616e-01   5.899965e-03
  2.854804e+00    4.731010e-01   5.966311e-03
  2.857015e+00    4.628355e-01   5.900789e-03
  2.859225e+00    4.715013e-01   5.955508e-03
  2.861436e+00    4.766926e-01   5.987562e-03
  2.863646e+00    4.613790e-01   5.890639e-03
  2.865857e+00    4.632958e-01   5.903194e-03
  2.868067e+00    4.622562e-01   5.896785e-03
  2.870278e+00    4.560282e-01   5.856596e-03
  2.872488e+00    4.475658e-01   5.800840e-03
  2.874698e+00    4.681655e-01   5.931789e-03
  2.876909e+00    4.716153e-01   5.952268e-03
  2.879119e+00    4.582375e-01   5.865627e-03
  2.881330e+00    4.696819e-01   5.936937e-03
  2.883540e+00    4.605806e-01   5.877758e-03
  2.885751e+00    4.577359e-01   5.857920e-03
  2.887961e+00    4.679324e-01   5.920931e-03
  2.890172e+00    4.638286e-01   5.893293e-03
  2.892382e+00    4.593852e-01   5.863198e-03
  2.894593e+00    4.478219e-01   5.787151e-03
  2.896803e+00    4.583840e-01   5.853009e-03
  2.899014e+00    4.666545e-01   5.903665e-03
  2.901224e+00    4.504432e-01   5.798237e-03
  2.903434e+00    4.603088e-01   5.859442e-03
  2.905645e+00    4.488980e-01   5.784166e-03
  2.907855e+00    4.548571e-01   5.820349e-03
  2.910066e+00    4.592687e-01   5.846398e-03
  2.912276e+00    4.583411e-01   5.838409e-03
  2.914487e+00    4.572856e-01   5.829208e-03
  2.916697e+00    4.551251e-01   5.813210e-03
  2.918908e+00    4.604393e-01   5.845048e-03
  2.921118e+00    4.536386e-01   5.799032e-03
  2.923329e+00    4.587248e-01   5.829139e-03
  2.925539e+00    4.600485e-01   5.835250e-03
  2.927749e+00    4.581813e-01   5.821088e-03
  2.929960e+00    4.601733e-01   5.830943e-03
  2.932170e+00    4.534170e-01   5.785651e-03
  2.934381e+00    4.567620e-01   5.804529e-03
  2.936591e+00    4.495195e-01   5.755755e-03
  2.938802e+00    4.457181e-01   5.728687e-03
  2.941012e+00    4.531198e-01   5.773728e-03
  2.943223e+00    4.541378e-01   5.777515e-03
  2.945433e+00    4.557464e-01   5.784016e-03
  2.947644e+00    4.495814e-01   5.740642e-03
  2.949854e+00    4.640585e-01   5.828044e-03
  2.952064e+00    4.495965e-01   5.732296e-03
  2.954275e+00    4.537648e-01   5.754419e-03
  2.956485e+00    4.586180e-01   5.780890e-03
  2.958696e+00    4.618769e-01   5.796994e-03
  2.960906e+00    4.712529e-01   5.851268e-03
  2.963117e+00    4.627885e-01   5.793989e-03
  2.965327e+00    4.594376e-01   5.769028e-03
  2.967538e+00    4.651933e-01   5.802112e-03
  2.969748e+00    4.462464e-01   5.679936e-03
  2.971959e+00    4.643149e-01   5.790603e-03
  2.974169e+00    4.637129e-01   5.784255e-03
  2.976379e+00    4.529862e-01   5.714037e-03
  2.978590e+00    4.540822e-01   5.717809e-03
  2.980800e+00    4.591315e-01   5.746707e-03
  2.983011e+00    4.478693e-01   5.673007e-03
  2.985221e+00    4.598148e-01   5.744983e-03
  2.987432e+00    4.514817e-01   5.689604e-03
  2.989642e+00    4.409353e-01   5.620154e-03
  2.991853e+00    4.584258e-01   5.727238e-03
  2.994063e+00    4.505779e-01   5.675114e-03
  2.996274e+00    4.484590e-01   5.658598e-03
  2.998484e+00    4.494831e-01   5.662350e-03
  3.000694e+00    4.524185e-01   5.677379e-03
  3.002905e+00    4.477057e-01   5.644788e-03
  3.005115e+00    4.621262e-01   5.731984e-03
  3.007326e+00    4.654052e-01   5.749091e-03
  3.009536e+00    4.500244e-01   5.650056e-03
  3.011747e+00    4.583615e-01   5.699201e-03
  3.013957e+00    4.574303e-01   5.690228e-03
  3.016168e+00    4.601091e-01   5.703592e-03
  3.018378e+00    4.475631e-01   5.622246e-03
  3.020589e+00    4.511697e-01   5.641657e-03
  3.022799e+00    4.610666e-01   5.700015e-03
  3.025010e+00    4.474765e-01   5.612147e-03
  3.027220e+00    4.572484e-01   5.669975e-03
  3.029430e+00    4.685969e-01   5.736599e-03
  3.031641e+00    4.541444e-01   5.644293e-03
  3.033851e+00    4.465434e-01   5.593385e-03
  3.036062e+00    4.397276e-01   5.547765e-03
  3.038272e+00    4.377908e-01   5.532033e-03
  3.040483e+00    4.404176e-01   5.545402e-03
  3.042693e+00    4.452765e-01   5.572672e-03
  3.044904e+00    4.491198e-01   5.592658e-03
  3.047114e+00    4.455480e-01   5.565593e-03
  3.049325e+00    4.489050e-01   5.582140e-03
  3.051535e+00    4.637960e-01   5.669502e-03
  3.053745e+00    4.579447e-01   5.628855e-03
  3.055956e+00    4.470645e-01   5.557039e-03
  3.058166e+00    4.410588e-01   5.515337e-03
  3.060377e+00    4.523033e-01   5.580448e-03
  3.062587e+00    4.386913e-01   5.491256e-03
  3.064798e+00    4.367462e-01   5.474866e-03
  3.067008e+00    4.579981e-01   5.601705e-03
  3.069219e+00    4.621350e-01   5.622401e-03
  3.071429e+00    4.638990e-01   5.629538e-03
  3.073640e+00    4.411115e-01   5.486258e-03
  3.075850e+00    4.398010e-01   5.474523e-03
  3.078060e+00    4.545429e-01   5.562407e-03
  3.080271e+00    4.375459e-01   5.453980e-03
  3.082481e+00    4.457071e-01   5.501191e-03
  3.084692e+00    4.511827e-01   5.531474e-03
  3.086902e+00    4.552208e-01   5.552904e-03
  3.089113e+00    4.539863e-01   5.541788e-03
  3.091323e+00    4.650420e-01   5.605403e-03
  3.093534e+00    4.509382e-01   5.516390e-03
  3.095744e+00    4.434467e-01   5.466999e-03
  3.097955e+00    4.540243e-01   5.528241e-03
  3.100165e+00    4.464029e-01   5.478329e-03
  3.102375e+00    4.350971e-01   5.405135e-03
  3.104586e+00    4.331557e-01   5.389609e-03
  3.106796e+00    4.487946e-01   5.482514e-03
  3.109007e+00    4.521005e-01   5.499436e-03
  3.111217e+00    4.513285e-01   5.491029e-03
  3.113428e+00    4.398477e-01   5.417360e-03
  3.115638e+00    4.417651e-01   5.425909e-03
  3.117849e+00    4.481165e-01   5.461058e-03
  3.120059e+00    4.408947e-01   5.413414e-03
  3.122270e+00    4.484938e-01   5.456592e-03
  3.124480e+00    4.431191e-01   5.420139e-03
  3.126691e+00    4.406388e-01   5.401394e-03
  3.128901e+00    4.470907e-01   5.437654e-03
  3.131111e+00    4.481132e-01   5.440020e-03
  3.133322e+00    4.416357e-01   5.397122e-03
  3.135532e+00    4.407461e-01   5.388285e-03
  3.137743e+00    4.517302e-01   5.451524e-03
  3.139953e+00    4.426451e-01   5.392729e-03
  3.142164e+00    4.484053e-01   5.439809e-03
  3.144374e+00    4.377643e-01   5.403123e-03
  3.146585e+00    4.502430e-01   5.494274e-03
  3.148795e+00    4.559586e-01   5.539991e-03
  3.151006e+00    4.515148e-01   5.521566e-03
  3.153216e+00    4.625632e-01   5.596015e-03
  3.155426e+00    4.601491e-01   5.587841e-03
  3.157637e+00    4.508174e-01   5.536478e-03
  3.159847e+00    4.406282e-01   5.478426e-03
  3.162058e+00    4.524159e-01   5.555705e-03
  3.164268e+00    4.342228e-01   5.446916e-03
  3.166479e+00    4.422859e-01   5.500895e-03
  3.168689e+00    4.484584e-01   5.542542e-03
  3.170900e+00    4.532289e-01   5.575172e-03
  3.173110e+00    4.545804e-01   5.586413e-03
  3.175321e+00    4.337611e-01   5.459470e-03
  3.177531e+00    4.461484e-01   5.539616e-03
  3.179741e+00    4.476642e-01   5.551130e-03
  3.181952e+00    4.514322e-01   5.576593e-03
  3.184162e+00    4.472879e-01   5.553149e-03
  3.186373e+00    4.376695e-01   5.494721e-03
  3.188583e+00    4.436793e-01   5.534102e-03
  3.190794e+00    4.313106e-01   5.458194e-03
  3.193004e+00    4.180385e-01   5.374759e-03
  3.195215e+00    4.188270e-01   5.381284e-03
  3.197425e+00    4.278238e-01   5.439984e-03
  3.199636e+00    4.357211e-01   5.489178e-03
  3.201846e+00    4.414566e-01   5.524608e-03
  3.204056e+00    4.259364e-01   5.427501e-03
  3.206267e+00    4.236419e-01   5.413687e-03
  3.208477e+00    4.130910e-01   5.346754e-03
  3.210688e+00    4.317061e-01   5.466732e-03
  3.212898e+00    4.381084e-01   5.507707e-03
  3.215109e+00    4.273213e-01   5.440238e-03
  3.217319e+00    4.241939e-01   5.420909e-03
  3.219530e+00    4.269344e-01   5.438786e-03
  3.221740e+00    4.340204e-01   5.484286e-03
  3.223951e+00    4.299221e-01   5.458834e-03
  3.226161e+00    4.223705e-01   5.410838e-03
  3.228372e+00    4.267138e-01   5.439124e-03
  3.230582e+00    4.301766e-01   5.461281e-03
  3.232792e+00    4.417478e-01   5.534476e-03
  3.235003e+00    4.391817e-01   5.518630e-03
  3.237213e+00    4.337985e-01   5.484811e-03
  3.239424e+00    4.209822e-01   5.403178e-03
  3.241634e+00    4.233245e-01   5.418298e-03
  3.243845e+00    4.333095e-01   5.481916e-03
  3.246055e+00    4.372953e-01   5.506773e-03
  3.248266e+00    4.237834e-01   5.421258e-03
  3.250476e+00    4.183465e-01   5.386060e-03
  3.252687e+00    4.257417e-01   5.433361e-03
  3.254897e+00    4.271274e-01   5.442088e-03
  3.257107e+00    4.381204e-01   5.511361e-03
  3.259318e+00    4.212312e-01   5.403855e-03
  3.261528e+00    4.319425e-01   5.471988e-03
  3.263739e+00    4.213341e-01   5.403817e-03
  3.265949e+00    4.227068e-01   5.412492e-03
  3.268160e+00    4.369231e-01   5.502324e-03
  3.270370e+00    4.307432e-01   5.462780e-03
  3.272581e+00    4.254025e-01   5.428515e-03
  3.274791e+00    4.380458e-01   5.508064e-03
  3.277002e+00    4.287480e-01   5.448732e-03
  3.279212e+00    4.278711e-01   5.442770e-03
  3.281422e+00    4.208102e-01   5.397114e-03
  3.283633e+00    4.188807e-01   5.384021e-03
  3.285843e+00    4.305313e-01   5.458066e-03
  3.288054e+00    4.187678e-01   5.382052e-03
  3.290264e+00    4.225191e-01   5.405775e-03
  3.292475e+00    4.225152e-01   5.404926e-03
  3.294685e+00    4.299548e-01   5.451657e-03
  3.296896e+00    4.290129e-01   5.444935e-03
  3.299106e+00    4.198341e-01   5.385816e-03
  3.301317e+00    4.283836e-01   5.439332e-03
  3.303527e+00    4.207001e-01   5.389890e-03
  3.305737e+00    4.112450e-01   5.327934e-03
  3.307948e+00    4.232484e-01   5.404458e-03
  3.310158e+00    4.203149e-01   5.384856e-03
  3.312369e+00    4.212768e-01   5.390129e-03
  3.314579e+00    4.145130e-01   5.345775e-03
  3.316790e+00    4.217292e-01   5.391403e-03
  3.319000e+00    4.313587e-01   5.451418e-03
  3.321211e+00    4.134400e-01   5.336387e-03
  3.323421e+00    4.167410e-01   5.356442e-03
  3.325632e+00    4.320992e-01   5.453365e-03
  3.327842e+00    4.157976e-01   5.348598e-03
  3.330052e+00    4.160899e-01   5.349410e-03
  3.332263e+00    4.146668e-01   5.339253e-03
  3.334473e+00    4.131745e-01   5.328715e-03
  3.336684e+00    4.313808e-01   5.443582e-03
  3.338894e+00    4.282946e-01   5.423249e-03
  3.341105e+00    4.261657e-01   5.408510e-03
  3.343315e+00    4.189367e-01   5.361324e-03
  3.345526e+00    4.212374e-01   5.375108e-03
  3.347736e+00    4.208157e-01   5.371031e-03
  3.349947e+00    4.232132e-01   5.385352e-03
  3.352157e+00    4.336614e-01   5.450225e-03
  3.354368e+00    4.332048e-01   5.446069e-03
  3.356578e+00    4.098613e-01   5.296285e-03
  3.358788e+00    4.179735e-01   5.347096e-03
  3.360999e+00    4.202007e-01   5.360087e-03
  3.363209e+00    4.204265e-01   5.360513e-03
  3.365420e+00    4.073764e-01   5.275172e-03
  3.367630e+00    4.067826e-01   5.270288e-03
  3.369841e+00    4.249561e-01   5.385324e-03
  3.372051e+00    4.158801e-01   5.325521e-03
  3.374262e+00    4.061325e-01   5.260329e-03
  3.376472e+00    4.133136e-01   5.304206e-03
  3.378683e+00    4.173209e-01   5.327313e-03
  3.380893e+00    4.257020e-01   5.378220e-03
  3.383103e+00    4.114466e-01   5.284696e-03
  3.385314e+00    4.029146e-01   5.227427e-03
  3.387524e+00    3.990633e-01   5.199693e-03
  3.389735e+00    4.104063e-01   5.270458e-03
  3.391945e+00    4.077666e-01   5.249839e-03
  3.394156e+00    4.062406e-01   5.235809e-03
  3.396366e+00    4.074376e-01   5.240122e-03
  3.398577e+00    4.061262e-01   5.228670e-03
  3.400787e+00    4.119952e-01   5.278244e-03
  3.402998e+00    4.022148e-01   5.252908e-03
  3.405208e+00    3.911592e-01   5.200516e-03
  3.407418e+00    3.912188e-01   5.216484e-03
  3.409629e+00    3.879727e-01   5.208543e-03
  3.411839e+00    3.876448e-01   5.217932e-03
  3.414050e+00    4.024008e-01   5.327389e-03
  3.416260e+00    4.012115e-01   5.329236e-03
  3.418471e+00    3.916166e-01   5.274530e-03
  3.420681e+00    3.796947e-01   5.201976e-03
  3.422892e+00    3.803435e-01   5.214306e-03
  3.425102e+00    3.955640e-01   5.325476e-03
  3.427313e+00    3.683443e-01   5.146011e-03
  3.429523e+00    3.771516e-01   5.214117e-03
  3.431733e+00    3.657475e-01   5.141182e-03
  3.433944e+00    3.905683e-01   5.319262e-03
  3.436154e+00    3.750633e-01   5.218860e-03
  3.438365e+00    3.750798e-01   5.224788e-03
  3.440575e+00    3.790561e-01   5.258346e-03
  3.442786e+00    3.728170e-01   5.220477e-03
  3.444996e+00    3.644971e-01   5.167271e-03
  3.447207e+00    3.599960e-01   5.140478e-03
  3.449417e+00    3.630519e-01   5.202573e-03
  3.451628e+00    3.636166e-01   5.235848e-03
  3.453838e+00    3.629397e-01   5.252019e-03
  3.456049e+00    3.638176e-01   5.282160e-03
  3.458259e+00    3.621481e-01   5.291811e-03
  3.460469e+00    3.810264e-01   5.448167e-03
  3.462680e+00    3.858222e-01   5.501935e-03
  3.464890e+00    3.672700e-01   5.385844e-03
  3.467101e+00    3.537848e-01   5.303168e-03
  3.469311e+00    3.707921e-01   5.445685e-03
  3.471522e+00    3.860771e-01   5.573444e-03
  3.473732e+00    3.864889e-01   5.592507e-03
  3.475943e+00    4.107950e-01   5.781957e-03
  3.478153e+00    4.033139e-01   5.744855e-03
  3.480364e+00    4.105553e-01   5.811635e-03
  3.482574e+00    4.075818e-01   5.805980e-03
  3.484784e+00    4.084728e-01   5.827146e-03
  3.486995e+00    4.225227e-01   5.941735e-03
  3.489205e+00    4.261823e-01   5.982126e-03
  3.491416e+00    4.379035e-01   6.078936e-03
  3.493626e+00    4.432055e-01   6.130357e-03
  3.495837e+00    4.499415e-01   6.191679e-03
  3.498047e+00    4.660698e-01   6.316511e-03
  3.500258e+00    4.698426e-01   6.356882e-03
  3.502468e+00    4.685448e-01   6.362761e-03
  3.504679e+00    4.769465e-01   6.434286e-03
  3.506889e+00    4.733043e-01   6.424235e-03
  3.509099e+00    4.790023e-01   6.477236e-03
  3.511310e+00    4.938331e-01   6.591519e-03
  3.513520e+00    4.973979e-01   6.629867e-03
  3.515731e+00    4.997250e-01   6.659975e-03
  3.517941e+00    5.001621e-01   6.677377e-03
  3.520152e+00    5.165318e-01   6.800401e-03
  3.522362e+00    5.281740e-01   6.891480e-03
  3.524573e+00    5.202473e-01   6.854061e-03
  3.526783e+00    5.214674e-01   6.875583e-03
  3.528994e+00    5.213490e-01   6.887101e-03
  3.531204e+00    5.231154e-01   6.911236e-03
  3.533414e+00    5.217226e-01   6.914057e-03
  3.535625e+00    5.295672e-01   6.978234e-03
  3.537835e+00    5.164270e-01   6.903060e-03
  3.540046e+00    5.306771e-01   7.006500e-03
  3.542256e+00    5.550132e-01   7.173027e-03
  3.544467e+00    5.551841e-01   7.181951e-03
  3.546677e+00    5.429283e-01   7.109820e-03
  3.548888e+00    5.195745e-01   6.962610e-03
  3.551098e+00    5.462173e-01   7.146244e-03
  3.553309e+00    5.432189e-01   7.134837e-03
  3.555519e+00    5.289983e-01   7.052061e-03
  3.557729e+00    5.296763e-01   7.068209e-03
  3.559940e+00    5.203100e-01   7.016813e-03
  3.562150e+00    5.407093e-01   7.164808e-03
  3.564361e+00    5.384087e-01   7.162900e-03
  3.566571e+00    5.380748e-01   7.174529e-03
  3.568782e+00    5.400767e-01   7.202036e-03
  3.570992e+00    5.586484e-01   7.338855e-03
  3.573203e+00    5.457657e-01   7.268052e-03
  3.575413e+00    5.385936e-01   7.233918e-03
  3.577624e+00    5.490150e-01   7.317863e-03
  3.579834e+00    5.357493e-01   7.242788e-03
  3.582045e+00    5.388127e-01   7.277542e-03
  3.584255e+00    5.466074e-01   7.344182e-03
  3.586465e+00    5.608287e-01   7.453360e-03
  3.588676e+00    5.534616e-01   7.418662e-03
  3.590886e+00    5.459701e-01   7.382151e-03
  3.593097e+00    5.332444e-01   7.310037e-03
  3.595307e+00    5.148942e-01   7.196855e-03
  3.597518e+00    5.102855e-01   7.178384e-03
  3.599728e+00    5.615197e-01   7.544590e-03
  3.601939e+00    5.503349e-01   7.483361e-03
  3.604149e+00    5.414580e-01   7.437228e-03
  3.606360e+00    5.356097e-01   7.411113e-03
  3.608570e+00    5.414208e-01   7.465421e-03
  3.610780e+00    5.480893e-01   7.522487e-03
  3.612991e+00    5.432445e-01   7.499217e-03
  3.615201e+00    5.262735e-01   7.390921e-03
  3.617412e+00    5.154532e-01   7.321655e-03
  3.619622e+00    5.335273e-01   7.454848e-03
  3.621833e+00    5.206950e-01   7.371291e-03
  3.624043e+00    5.355758e-01   7.485380e-03
  3.626254e+00    5.349739e-01   7.490909e-03
  3.628464e+00    5.274664e-01   7.449059e-03
  3.630675e+00    5.250807e-01   7.446184e-03
  3.632885e+00    5.339372e-01   7.523192e-03
  3.635095e+00    5.147341e-01   7.400784e-03
  3.637306e+00    5.388313e-01   7.586466e-03
  3.639516e+00    5.484718e-01   7.668787e-03
  3.641727e+00    5.393936e-01   7.619706e-03
  3.643937e+00    5.325488e-01   7.585749e-03
  3.646148e+00    5.407252e-01   7.658458e-03
  3.648358e+00    5.345468e-01   7.629483e-03
  3.650569e+00    5.472474e-01   7.734497e-03
  3.652779e+00    5.285176e-01   7.615714e-03
  3.654990e+00    5.238263e-01   7.596595e-03
  3.657200e+00    5.524529e-01   7.816559e-03
  3.659410e+00    5.618250e-01   7.898008e-03
  3.661621e+00    5.415767e-01   7.769592e-03
  3.663831e+00    5.495362e-01   7.841859e-03
  3.666042e+00    5.280735e-01   7.702314e-03
  3.668252e+00    5.155566e-01   7.625498e-03
  3.670463e+00    5.213727e-01   7.683455e-03
  3.672673e+00    5.410435e-01   7.842627e-03
  3.674884e+00    5.283195e-01   7.765254e-03
  3.677094e+00    5.559199e-01   7.981349e-03
  3.679305e+00    5.411433e-01   7.890335e-03
  3.681515e+00    5.297804e-01   7.822629e-03
  3.683726e+00    5.436346e-01   7.940250e-03
  3.685936e+00    5.398728e-01   7.928607e-03
  3.688146e+00    5.336099e-01   7.898349e-03
  3.690357e+00    5.284330e-01   7.875922e-03
  3.692567e+00    5.139351e-01   7.783027e-03
  3.694778e+00    5.072398e-01   7.747903e-03
  3.696988e+00    5.294046e-01   7.931392e-03
  3.699199e+00    5.216098e-01   7.889040e-03
  3.701409e+00    5.108721e-01   7.823502e-03
  3.703620e+00    5.158141e-01   7.877438e-03
  3.705830e+00    5.336067e-01   8.028686e-03
  3.708041e+00    5.023679e-01   7.806401e-03
  3.710251e+00    4.992845e-01   7.798716e-03
  3.712461e+00    5.277942e-01   8.035073e-03
  3.714672e+00    5.179141e-01   7.976237e-03
  3.716882e+00    5.142760e-01   7.964741e-03
  3.719093e+00    5.142250e-01   7.981399e-03
  3.721303e+00    5.129608e-01   7.988447e-03
  3.723514e+00    5.063844e-01   7.954064e-03
  3.725724e+00    5.152771e-01   8.040760e-03
  3.727935e+00    5.027550e-01   7.959638e-03
  3.730145e+00    5.345963e-01   8.225450e-03
  3.732356e+00    5.237365e-01   8.159159e-03
  3.734566e+00    4.993727e-01   7.984354e-03
  3.736776e+00    5.118040e-01   8.100849e-03
  3.738987e+00    5.057361e-01   8.070266e-03
  3.741197e+00    5.229531e-01   8.224661e-03
  3.743408e+00    5.239722e-01   8.250922e-03
  3.745618e+00    5.177981e-01   8.220566e-03
  3.747829e+00    5.056837e-01   8.141815e-03
  3.750039e+00    5.000142e-01   8.114223e-03
  3.752250e+00    4.921365e-01   8.068156e-03
  3.754460e+00    5.076875e-01   8.213144e-03
  3.756671e+00    5.127038e-01   8.272472e-03
  3.758881e+00    5.141817e-01   8.303144e-03
  3.761091e+00    5.119473e-01   8.304293e-03
  3.763302e+00    5.106472e-01   8.312844e-03
  3.765512e+00    4.830514e-01   8.103949e-03
  3.767723e+00    5.069194e-01   8.321004e-03
  3.769933e+00    4.834074e-01   8.144706e-03
  3.772144e+00    4.972115e-01   8.279511e-03
  3.774354e+00    5.010573e-01   8.331282e-03
  3.776565e+00    4.838363e-01   8.206245e-03
  3.778775e+00    5.115577e-01   8.458135e-03
  3.780986e+00    5.162128e-01   8.517164e-03
  3.783196e+00    5.018295e-01   8.417801e-03
  3.785407e+00    5.422530e-01   8.771491e-03
  3.787617e+00    5.105063e-01   8.531863e-03
  3.789827e+00    5.124641e-01   8.568825e-03
  3.792038e+00    5.286049e-01   8.724131e-03
  3.794248e+00    5.165936e-01   8.645973e-03
  3.796459e+00    5.010497e-01   8.536219e-03
  3.798669e+00    5.029210e-01   8.573577e-03
  3.800880e+00    4.899128e-01   8.483191e-03
  3.803090e+00    4.953527e-01   8.551891e-03
  3.805301e+00    5.010564e-01   8.623025e-03
  3.807511e+00    5.092830e-01   8.715778e-03
  3.809722e+00    4.988607e-01   8.648371e-03
  3.811932e+00    5.227619e-01   8.875833e-03
  3.814142e+00    4.999467e-01   8.702910e-03
  3.816353e+00    4.765660e-01   8.519249e-03
  3.818563e+00    5.014794e-01   8.762277e-03
  3.820774e+00    4.976556e-01   8.751947e-03
  3.822984e+00    4.996117e-01   8.792535e-03
  3.825195e+00    5.049845e-01   8.863560e-03
  3.827405e+00    5.059603e-01   8.896272e-03
  3.829616e+00    4.943807e-01   8.817837e-03
  3.831826e+00    4.833630e-01   8.742862e-03
  3.834037e+00    4.785159e-01   8.722917e-03
  3.836247e+00    4.886413e-01   8.839271e-03
  3.838457e+00    4.907107e-01   8.882802e-03
  3.840668e+00    4.997305e-01   8.989338e-03
  3.842878e+00    5.034745e-01   9.048674e-03
  3.845089e+00    4.906955e-01   8.958563e-03
  3.847299e+00    4.952864e-01   9.026132e-03
  3.849510e+00    5.004420e-01   9.099005e-03
  3.851720e+00    5.021982e-01   9.136510e-03
  3.853931e+00    4.991723e-01   9.128000e-03
  3.856141e+00    4.978402e-01   9.134942e-03
  3.858352e+00    5.149305e-01   9.310016e-03
  3.860562e+00    4.876087e-01   9.078898e-03
  3.862772e+00    4.577811e-01   8.815675e-03
  3.864983e+00    4.582891e-01   8.839454e-03
  3.867193e+00    4.823287e-01   9.087950e-03
  3.869404e+00    4.626417e-01   8.919609e-03
  3.871614e+00    5.143497e-01   9.425349e-03
  3.873825e+00    4.958527e-01   9.274722e-03
  3.876035e+00    4.936954e-01   9.275076e-03
  3.878246e+00    4.898594e-01   9.264662e-03
  3.880456e+00    5.021574e-01   9.409601e-03
  3.882667e+00    4.656047e-01   9.089100e-03
  3.884877e+00    4.936129e-01   9.388297e-03
  3.887087e+00    4.902548e-01   9.386252e-03
  3.889298e+00    5.046029e-01   9.553350e-03
  3.891508e+00    5.013858e-01   9.553698e-03
  3.893719e+00    5.030987e-01   9.601412e-03
  3.895929e+00    5.010388e-01   9.613549e-03
  3.898140e+00    4.821914e-01   9.462330e-03
  3.900350e+00    4.903593e-01   9.574298e-03
  3.902561e+00    4.974304e-01   9.675667e-03
  3.904771e+00    5.159108e-01   9.887477e-03
  3.906982e+00    4.768775e-01   9.538821e-03
  3.909192e+00    4.986446e-01   9.787809e-03
  3.911403e+00    4.916525e-01   9.753142e-03
  3.913613e+00    5.028001e-01   9.897818e-03
  3.915823e+00    5.097172e-01   1.000122e-02
  3.918034e+00    4.922558e-01   9.863848e-03
  3.920244e+00    4.920865e-01   9.897954e-03
  3.922455e+00    4.895454e-01   9.908589e-03
  3.924665e+00    4.891997e-01   9.941491e-03
  3.926876e+00    4.820208e-01   9.905211e-03
  3.929086e+00    4.785409e-01   9.906298e-03
  3.931297e+00    5.151188e-01   1.031378e-02
  3.933507e+00    4.800097e-01   9.984875e-03
  3.935718e+00    4.932510e-01   1.015045e-02
  3.937928e+00    4.812457e-01   1.005553e-02
  3.940138e+00    4.943411e-01   1.022089e-02
  3.942349e+00    4.873153e-01   1.017791e-02
  3.944559e+00    4.794787e-01   1.012550e-02
  3.946770e+00    5.007886e-01   1.037863e-02
  3.948980e+00    5.055851e-01   1.045960e-02
  3.951191e+00    4.700136e-01   1.011525e-02
  3.953401e+00    5.043892e-01   1.051045e-02
  3.955612e+00    4.981866e-01   1.047782e-02
  3.957822e+00    4.600890e-01   1.009999e-02
  3.960033e+00    4.782498e-01   1.032968e-02
  3.962243e+00    5.001006e-01   1.059642e-02
  3.964453e+00    4.758279e-01   1.036887e-02
  3.966664e+00    4.772963e-01   1.041790e-02
  3.968874e+00    5.015741e-01   1.070840e-02
  3.971085e+00    4.897996e-01   1.060408e-02
  3.973295e+00    4.859849e-01   1.058412e-02
  3.975506e+00    4.797500e-01   1.053754e-02
  3.977716e+00    4.761201e-01   1.051937e-02
  3.979927e+00    4.868396e-01   1.065922e-02
  3.982137e+00    4.974443e-01   1.079733e-02
  3.984348e+00    4.972364e-01   1.081778e-02
  3.986558e+00    5.183793e-01   1.106863e-02
  3.988768e+00    4.908838e-01   1.079412e-02
  3.990979e+00    5.064073e-01   1.098677e-02
  3.993189e+00    4.897812e-01   1.082805e-02
  3.995400e+00    4.942937e-01   1.090169e-02
  3.997610e+00    5.000962e-01   1.099562e-02
  3.999821e+00    4.736241e-01   1.073778e-02
  4.002031e+00    4.622186e-01   1.064524e-02
  4.004242e+00    4.609109e-01   1.066767e-02
  4.006452e+00    4.567554e-01   1.065767e-02
  4.008663e+00    4.683965e-01   1.083190e-02
  4.010873e+00    4.899247e-01   1.111827e-02
  4.013084e+00    4.725914e-01   1.096021e-02
  4.015294e+00    4.983559e-01   1.129661e-02
  4.017504e+00    4.989749e-01   1.134617e-02
  4.019715e+00    4.676289e-01   1.102570e-02
  4.021925e+00    4.832230e-01   1.125104e-02
  4.024136e+00    4.475203e-01   1.086943e-02
  4.026346e+00    4.612144e-01   1.107746e-02
  4.028557e+00    4.676292e-01   1.119788e-02
  4.030767e+00    4.746302e-01   1.132657e-02
  4.032978e+00    4.743090e-01   1.136863e-02
  4.035188e+00    4.700627e-01   1.136310e-02
  4.037399e+00    4.570447e-01   1.125090e-02
  4.039609e+00    4.885452e-01   1.168015e-02
  4.041819e+00    5.103757e-01   1.198834e-02
  4.044030e+00    4.873966e-01   1.176554e-02
  4.046240e+00    4.512057e-01   1.136857e-02
  4.048451e+00    4.483727e-01   1.138170e-02
  4.050661e+00    4.728913e-01   1.173977e-02
  4.052872e+00    4.626975e-01   1.166421e-02
  4.055082e+00    4.590225e-01   1.166990e-02
  4.057293e+00    4.565306e-01   1.169047e-02
  4.059503e+00    4.809213e-01   1.205317e-02
  4.061714e+00    5.059592e-01   1.242105e-02
  4.063924e+00    4.577651e-01   1.186985e-02
  4.066134e+00    4.610805e-01   1.196896e-02
  4.068345e+00    4.627438e-01   1.204820e-02
  4.070555e+00    4.684240e-01   1.218032e-02
  4.072766e+00    5.107113e-01   1.278110e-02
  4.074976e+00    4.491038e-01   1.204493e-02
  4.077187e+00    4.627692e-01   1.228785e-02
  4.079397e+00    4.710663e-01   1.246068e-02
  4.081608e+00    4.661885e-01   1.246054e-02
  4.083818e+00    4.834768e-01   1.275538e-02
  4.086029e+00    5.186720e-01   1.328115e-02
  4.088239e+00    4.610428e-01   1.258926e-02
  4.090449e+00    4.412515e-01   1.238265e-02
  4.092660e+00    4.562832e-01   1.266111e-02
  4.094870e+00    4.787607e-01   1.304131e-02
  4.097081e+00    4.778436e-01   1.310028e-02
  4.099291e+00    4.525070e-01   1.280087e-02
  4.101502e+00    4.887290e-01   1.335312e-02
  4.103712e+00    5.011635e-01   1.357216e-02
  4.105923e+00    4.931658e-01   1.351568e-02
  4.108133e+00    5.035753e-01   1.371018e-02
  4.110344e+00    4.627056e-01   1.319239e-02
  4.112554e+00    4.852668e-01   1.356348e-02
  4.114764e+00    4.967470e-01   1.377819e-02
  4.116975e+00    5.049102e-01   1.394558e-02
  4.119185e+00    5.155362e-01   1.414882e-02
  4.121396e+00    5.097125e-01   1.412680e-02
  4.123606e+00    5.136666e-01   1.423973e-02
  4.125817e+00    4.928779e-01   1.400707e-02
  4.128027e+00    4.505900e-01   1.344906e-02
  4.130238e+00    5.300717e-01   1.464957e-02
  4.132448e+00    5.246353e-01   1.463753e-02
  4.134659e+00    5.072867e-01   1.445547e-02
  4.136869e+00    4.855392e-01   1.420531e-02
  4.139080e+00    4.575985e-01   1.385264e-02
  4.141290e+00    4.634361e-01   1.400250e-02
  4.143500e+00    4.979580e-01   1.458150e-02
  4.145711e+00    4.288983e-01   1.359619e-02
  4.147921e+00    4.454586e-01   1.391928e-02
  4.150132e+00    5.068190e-01   1.491810e-02
  4.152342e+00    4.719245e-01   1.446515e-02
  4.154553e+00    4.791318e-01   1.464460e-02
  4.156763e+00    4.535708e-01   1.431903e-02
  4.158974e+00    4.651843e-01   1.457395e-02
  4.161184e+00    5.324085e-01   1.566896e-02
  4.163395e+00    5.022054e-01   1.529571e-02
  4.165605e+00    4.874772e-01   1.514814e-02
  4.167815e+00    4.988175e-01   1.540324e-02
  4.170026e+00    4.920799e-01   1.537945e-02
  4.172236e+00    5.019826e-01   1.561744e-02
  4.174447e+00    4.616021e-01   1.505777e-02
  4.176657e+00    4.296735e-01   1.460671e-02
  4.178868e+00    5.231019e-01   1.620809e-02
  4.181078e+00    5.149292e-01   1.617168e-02
  4.183289e+00    4.985838e-01   1.600397e-02
  4.185499e+00    4.562207e-01   1.539926e-02
  4.187710e+00    4.981945e-01   1.618642e-02
  4.189920e+00    4.530519e-01   1.552879e-02
  4.192130e+00    4.487832e-01   1.554955e-02
  4.194341e+00    4.857002e-01   1.627598e-02
  4.196551e+00    3.990412e-01   1.484593e-02
  4.198762e+00    4.768791e-01   1.633246e-02
  4.200972e+00    4.756798e-01   1.641745e-02
  4.203183e+00    5.066005e-01   1.705452e-02
  4.205393e+00    5.141421e-01   1.729530e-02
  4.207604e+00    4.831586e-01   1.688049e-02
  4.209814e+00    4.999115e-01   1.728813e-02
  4.212025e+00    4.927217e-01   1.728532e-02
  4.214235e+00    4.508229e-01   1.665099e-02
  4.216445e+00    5.481642e-01   1.849377e-02
  4.218656e+00    5.052139e-01   1.788766e-02
  4.220866e+00    4.279887e-01   1.658600e-02
  4.223077e+00    4.274123e-01   1.670183e-02
  4.225287e+00    4.254089e-01   1.679374e-02
  4.227498e+00    4.813052e-01   1.800327e-02
  4.229708e+00    4.894983e-01   1.830348e-02
  4.231919e+00    5.074854e-01   1.879089e-02
  4.234129e+00    4.439458e-01   1.772271e-02
  4.236340e+00    5.126605e-01   1.920754e-02
  4.238550e+00    4.764019e-01   1.867978e-02
  4.240761e+00    5.155401e-01   1.960339e-02
  4.242971e+00    4.492294e-01   1.846692e-02
  4.245181e+00    4.182567e-01   1.798637e-02
  4.247392e+00    4.472332e-01   1.877292e-02
  4.249602e+00    4.591958e-01   1.921073e-02
  4.251813e+00    4.708974e-01   1.964638e-02
  4.254023e+00    4.590124e-01   1.959176e-02
  4.256234e+00    5.251310e-01   2.117942e-02
  4.258444e+00    4.596671e-01   2.002313e-02
  4.260655e+00    4.508085e-01   2.004704e-02
  4.262865e+00    4.860191e-01   2.105078e-02
  4.265076e+00    4.116246e-01   1.959401e-02
  4.267286e+00    4.754131e-01   2.130643e-02
  4.269496e+00    5.060536e-01   2.225108e-02
  4.271707e+00    5.202385e-01   2.283924e-02
  4.273917e+00    4.502150e-01   2.152174e-02
  4.276128e+00    4.041317e-01   2.066085e-02
  4.278338e+00    4.721092e-01   2.262982e-02
  4.280549e+00    4.356577e-01   2.205004e-02
  4.282759e+00    4.244135e-01   2.207635e-02
  4.284970e+00    4.129981e-01   2.209977e-02
  4.287180e+00    4.299529e-01   2.281910e-02
  4.289391e+00    5.008576e-01   2.481367e-02
  4.291601e+00    4.729618e-01   2.430547e-02
  4.293811e+00    5.579517e-01   2.660565e-02
  4.296022e+00    4.615990e-01   2.439388e-02
  4.298232e+00    4.129223e-01   2.326535e-02
  4.300443e+00    3.835063e-01   2.260607e-02
  4.302653e+00    4.661817e-01   2.513958e-02
  4.304864e+00    4.829834e-01   2.581050e-02
  4.307074e+00    4.298412e-01   2.456840e-02
  4.309285e+00    4.178852e-01   2.444328e-02
  4.311495e+00    4.498322e-01   2.559844e-02
  4.313706e+00    4.933874e-01   2.706075e-02
  4.315916e+00    4.554712e-01   2.625681e-02
  4.318126e+00    4.945077e-01   2.762877e-02
  4.320337e+00    4.950217e-01   2.792243e-02
  4.322547e+00    5.398797e-01   2.946982e-02
  4.324758e+00    4.016914e-01   2.568492e-02
  4.326968e+00    3.946470e-01   2.574458e-02
  4.329179e+00    5.030370e-01   2.938634e-02
  4.331389e+00    4.583129e-01   2.837286e-02
  4.333600e+00    4.164475e-01   2.736894e-02
  4.335810e+00    4.482770e-01   2.873390e-02
  4.338021e+00    3.932159e-01   2.725496e-02
  4.340231e+00    4.742890e-01   3.030924e-02
  4.342442e+00    4.256580e-01   2.909946e-02
  4.344652e+00    4.001606e-01   2.859556e-02
  4.346862e+00    4.746178e-01   3.157965e-02
  4.349073e+00    5.286593e-01   3.381535e-02
  4.351283e+00    4.043813e-01   3.001506e-02
  4.353494e+00    4.967411e-01   3.378093e-02
  4.355704e+00    5.389028e-01   3.575134e-02
  4.357915e+00    4.475569e-01   3.312459e-02
  4.360125e+00    5.257822e-01   3.651459e-02
  4.362336e+00    4.872365e-01   3.579241e-02
  4.364546e+00    4.330186e-01   3.435547e-02
  4.366757e+00    4.289583e-01   3.487463e-02
  4.368967e+00    4.386339e-01   3.596918e-02
  4.371177e+00    5.062908e-01   3.946488e-02
  4.373388e+00    6.294139e-01   4.498681e-02
  4.375598e+00    5.127302e-01   4.153003e-02
  4.377809e+00    3.580075e-01   3.558076e-02
  4.380019e+00    4.813661e-01   4.229334e-02
  4.382230e+00    3.610735e-01   3.765550e-02
  4.384440e+00    2.509583e-01   3.229356e-02
  4.386651e+00    5.163704e-01   4.775160e-02
  4.388861e+00    5.438728e-01   5.065277e-02
  4.391072e+00    4.477445e-01   4.757454e-02
  4.393282e+00    5.223740e-01   5.337052e-02
  4.395492e+00    4.746602e-01   5.299111e-02
  4.397703e+00    5.142902e-01   5.767636e-02
  4.399913e+00    4.328788e-01   5.560087e-02
  4.402124e+00    4.590598e-01   6.049481e-02
  4.404334e+00    5.120890e-01   6.792483e-02
  4.406545e+00    2.302931e-01   4.894331e-02
  4.408755e+00    3.724937e-01   6.749632e-02
  4.410966e+00    1.772822e-01   5.155026e-02
  4.413176e+00    2.290624e-01   6.631459e-02
  4.415387e+00   -8.208092e-01            nan
  4.417597e+00   -1.816504e+00            nan
  4.419807e+00   -3.766224e-01            nan
