# == pyFAI calibration ==
# Distance Sample to Detector: 0.216 m
# PONI: 1.166e-01, 1.308e-01 m
# Rotations: 0.000000 0.000000 0.000000 rad
# 
# == Fit2d calibration ==
# Distance Sample-beamCenter: 216.000 mm
# Center: x=1744.293, y=1555.000 pix
# Tilt: 0.000 deg  TiltPlanRot: 0.000 deg
# 
# Detector Eiger 9M	 PixelSize= 7.500e-05, 7.500e-05 m
#    Detector has a mask: True 
#    Detector has a dark current: False 
#    detector has a flat field: False 
# 
# Wavelength: 9.8e-11 m
# Mask applied: from detector
# Dark current applied: False
# Flat field applied: False
# Polarization factor: None
# Normalization factor: 1.0
# 
# Headers of the input frame:
# {
# "_array_data.header_convention": "SLS_1.0",
# "_array_data.header_contents": "# Detector: Dectris Eiger 9M, S/N E-18-0102\r\n# Pixel_size 75e-6 m x 75e-6 m\r\n# Silicon sensor, thickness 0.000450 m\r\n# Exposure_time 0.024997 s\r\n# Exposure_period 0.025000 s\r\n# Count_cutoff 62318 counts\r\n# Wavelength 0.980106 A\r\n# Detector_distance 0.215992 m\r\n# Beam_xy (1555, 1744) pixels\r\n# Start_angle 0.000000 deg.\r\n# Angle_increment 0.000000 deg.",
# "Content-Type": "application/octet-stream;",
# "conversions": "x-CBF_BYTE_OFFSET",
# "Content-Transfer-Encoding": "BINARY",
# "X-Binary-Size": "10166592",
# "X-Binary-ID": "1",
# "X-Binary-Element-Type": "signed 32-bit integer",
# "X-Binary-Element-Byte-Order": "LITTLE_ENDIAN",
# "Content-MD5": "F5aT8QIUkVFcvCrKlCGfhg==",
# "X-Binary-Number-of-Elements": "10166590",
# "X-Binary-Size-Fastest-Dimension": "3110",
# "X-Binary-Size-Second-Dimension": "3269",
# "X-Binary-Size-Padding": "4095"
# }
# --> H:/Proxima2a_2019-04-05/RAW_DATA/C5_gel17_position5/C5_mesh_1_data.cbf/C5_mesh_1_data.cbf000022.dat
#        q_A^-1              I           sigma 
  1.105228e-03    1.607658e+00   6.860943e-01
  3.315685e-03    1.412620e+00   3.909832e-01
  5.526141e-03    1.135085e+00   2.710106e-01
  7.736597e-03    1.321031e+00   2.469885e-01
  9.947054e-03    1.277042e+00   2.140815e-01
  1.215751e-02    1.452912e+00   2.064849e-01
  1.436797e-02    1.264364e+00   1.771789e-01
  1.657842e-02    1.203229e+00   1.608861e-01
  1.878888e-02    1.271164e+00   1.553332e-01
  2.099934e-02    1.283860e+00   1.476933e-01
  2.320979e-02    1.385162e+00   1.459094e-01
  2.542025e-02    1.517668e+00   1.459479e-01
  2.763070e-02    1.365453e+00   1.327788e-01
  2.984116e-02    1.679385e+00   1.416940e-01
  3.205162e-02    1.543835e+00   1.310952e-01
  3.426207e-02    1.437791e+00   1.223553e-01
  3.647253e-02    1.459715e+00   1.194879e-01
  3.868299e-02    1.342539e+00   1.112779e-01
  4.089344e-02    1.394588e+00   1.103072e-01
  4.310390e-02    1.490143e+00   1.110549e-01
  4.531436e-02    1.466678e+00   1.074566e-01
  4.752481e-02    1.305730e+00   9.900241e-02
  4.973527e-02    1.452125e+00   1.020596e-01
  5.194572e-02    1.425801e+00   9.895378e-02
  5.415618e-02    1.250550e+00   9.075894e-02
  5.636664e-02    1.206504e+00   8.738351e-02
  5.857709e-02    1.369532e+00   9.132730e-02
  6.078755e-02    1.344074e+00   8.881146e-02
  6.299801e-02    1.318761e+00   8.641306e-02
  6.520846e-02    1.437225e+00   8.866927e-02
  6.741892e-02    1.432888e+00   8.706747e-02
  6.962938e-02    1.461073e+00   8.651718e-02
  7.183983e-02    1.375063e+00   8.262917e-02
  7.405029e-02    1.317383e+00   7.965945e-02
  7.626074e-02    1.279338e+00   7.735402e-02
  7.847120e-02    1.495772e+00   8.245305e-02
  8.068166e-02    1.547419e+00   8.270700e-02
  8.289211e-02    1.520103e+00   8.087296e-02
  8.510257e-02    1.481075e+00   7.878397e-02
  8.731303e-02    1.437278e+00   7.661878e-02
  8.952348e-02    1.436274e+00   7.564255e-02
  9.173394e-02    1.446326e+00   7.498373e-02
  9.394439e-02    1.415174e+00   7.329161e-02
  9.615485e-02    1.487917e+00   7.428122e-02
  9.836531e-02    1.556609e+00   7.511596e-02
  1.005758e-01    1.525756e+00   7.354649e-02
  1.027862e-01    1.536150e+00   7.299694e-02
  1.049967e-01    1.535599e+00   7.221024e-02
  1.072071e-01    1.567059e+00   7.218941e-02
  1.094176e-01    1.447390e+00   6.867288e-02
  1.116280e-01    1.470303e+00   6.852405e-02
  1.138385e-01    1.492920e+00   6.837410e-02
  1.160490e-01    1.584377e+00   6.976237e-02
  1.182594e-01    1.645667e+00   7.042979e-02
  1.204699e-01    1.597649e+00   6.875452e-02
  1.226803e-01    1.516626e+00   6.637947e-02
  1.248908e-01    1.493727e+00   6.529006e-02
  1.271012e-01    1.607434e+00   6.713668e-02
  1.293117e-01    1.528040e+00   6.489502e-02
  1.315222e-01    1.613682e+00   6.612443e-02
  1.337326e-01    1.658496e+00   6.647877e-02
  1.359431e-01    1.575070e+00   6.482308e-02
  1.381535e-01    1.609395e+00   6.640517e-02
  1.403640e-01    1.568842e+00   6.584629e-02
  1.425744e-01    1.525681e+00   6.503792e-02
  1.447849e-01    1.552980e+00   6.563235e-02
  1.469953e-01    1.551121e+00   6.555196e-02
  1.492058e-01    1.575444e+00   6.598713e-02
  1.514163e-01    1.573932e+00   6.584596e-02
  1.536267e-01    1.541466e+00   6.503606e-02
  1.558372e-01    1.636420e+00   6.686132e-02
  1.580476e-01    1.496846e+00   6.379125e-02
  1.602581e-01    1.531888e+00   6.436968e-02
  1.624685e-01    1.592641e+00   6.545399e-02
  1.646790e-01    1.630486e+00   6.603694e-02
  1.668895e-01    1.680903e+00   6.685650e-02
  1.690999e-01    1.810107e+00   6.917009e-02
  1.713104e-01    1.811271e+00   6.897760e-02
  1.735208e-01    1.815198e+00   6.883764e-02
  1.757313e-01    1.709336e+00   6.659079e-02
  1.779417e-01    1.841373e+00   6.888945e-02
  1.801522e-01    1.826109e+00   6.838485e-02
  1.823626e-01    1.862328e+00   6.882978e-02
  1.845731e-01    1.831226e+00   6.803153e-02
  1.867836e-01    1.891049e+00   6.890047e-02
  1.889940e-01    1.929868e+00   6.937666e-02
  1.912045e-01    1.917872e+00   6.892975e-02
  1.934149e-01    1.969674e+00   6.962064e-02
  1.956254e-01    2.015643e+00   7.019610e-02
  1.978358e-01    1.990263e+00   6.951373e-02
  2.000463e-01    1.988434e+00   6.925153e-02
  2.022568e-01    1.983184e+00   6.893303e-02
  2.044672e-01    2.026642e+00   6.944550e-02
  2.066777e-01    1.985069e+00   6.850141e-02
  2.088881e-01    1.962003e+00   6.787945e-02
  2.110986e-01    2.010418e+00   6.847622e-02
  2.133090e-01    1.931683e+00   6.690376e-02
  2.155195e-01    1.994632e+00   6.775961e-02
  2.177300e-01    1.966528e+00   6.675202e-02
  2.199404e-01    1.871804e+00   6.340849e-02
  2.221509e-01    1.839739e+00   6.183079e-02
  2.243613e-01    1.949937e+00   6.284865e-02
  2.265718e-01    2.098187e+00   6.447546e-02
  2.287822e-01    2.086333e+00   6.365671e-02
  2.309927e-01    2.026572e+00   6.216688e-02
  2.332031e-01    2.077983e+00   6.241166e-02
  2.354136e-01    2.153548e+00   6.302138e-02
  2.376241e-01    2.172897e+00   6.281251e-02
  2.398345e-01    2.119782e+00   6.158091e-02
  2.420450e-01    2.139459e+00   6.142393e-02
  2.442554e-01    2.130753e+00   6.087653e-02
  2.464659e-01    2.089129e+00   5.987427e-02
  2.486763e-01    2.098127e+00   5.960865e-02
  2.508868e-01    2.162346e+00   6.013229e-02
  2.530973e-01    2.095237e+00   5.882485e-02
  2.553077e-01    2.091479e+00   5.841556e-02
  2.575182e-01    2.117309e+00   5.842744e-02
  2.597286e-01    2.114923e+00   5.805505e-02
  2.619391e-01    2.140077e+00   5.806308e-02
  2.641495e-01    2.052745e+00   5.655128e-02
  2.663600e-01    2.053897e+00   5.625606e-02
  2.685704e-01    2.079765e+00   5.630235e-02
  2.707809e-01    2.036809e+00   5.542215e-02
  2.729914e-01    1.996659e+00   5.458720e-02
  2.752018e-01    2.055672e+00   5.509974e-02
  2.774123e-01    2.011758e+00   5.422959e-02
  2.796227e-01    2.042024e+00   5.436575e-02
  2.818332e-01    1.872061e+00   5.179441e-02
  2.840436e-01    1.990416e+00   5.314771e-02
  2.862541e-01    1.935193e+00   5.215334e-02
  2.884646e-01    1.909182e+00   5.155582e-02
  2.906750e-01    1.912806e+00   5.136003e-02
  2.928855e-01    1.972562e+00   5.191444e-02
  2.950959e-01    1.958742e+00   5.149461e-02
  2.973064e-01    1.967602e+00   5.137900e-02
  2.995168e-01    1.979380e+00   5.129917e-02
  3.017273e-01    1.871287e+00   4.965887e-02
  3.039377e-01    1.963001e+00   5.063850e-02
  3.061482e-01    1.941732e+00   5.014559e-02
  3.083587e-01    1.911932e+00   4.954392e-02
  3.105691e-01    1.891019e+00   4.906174e-02
  3.127796e-01    1.892537e+00   4.887509e-02
  3.149900e-01    1.855210e+00   4.818909e-02
  3.172005e-01    1.791585e+00   4.716191e-02
  3.194109e-01    1.811355e+00   4.722564e-02
  3.216214e-01    1.835112e+00   4.734037e-02
  3.238319e-01    1.875385e+00   4.766741e-02
  3.260423e-01    1.865709e+00   4.735489e-02
  3.282528e-01    1.908079e+00   4.769895e-02
  3.304632e-01    1.873495e+00   4.708160e-02
  3.326737e-01    1.885523e+00   4.704820e-02
  3.348841e-01    1.881605e+00   4.681703e-02
  3.370946e-01    1.874224e+00   4.654934e-02
  3.393050e-01    1.819586e+00   4.569205e-02
  3.415155e-01    1.851999e+00   4.592389e-02
  3.437260e-01    1.901868e+00   4.636560e-02
  3.459364e-01    1.866408e+00   4.576142e-02
  3.481469e-01    1.836054e+00   4.522211e-02
  3.503573e-01    1.841607e+00   4.512544e-02
  3.525678e-01    1.846640e+00   4.502604e-02
  3.547782e-01    1.850319e+00   4.490797e-02
  3.569887e-01    1.753258e+00   4.355936e-02
  3.591992e-01    1.788581e+00   4.384031e-02
  3.614096e-01    1.748185e+00   4.319211e-02
  3.636201e-01    1.771551e+00   4.332701e-02
  3.658305e-01    1.795118e+00   4.346547e-02
  3.680410e-01    1.816861e+00   4.357751e-02
  3.702514e-01    1.803465e+00   4.327056e-02
  3.724619e-01    1.780319e+00   4.284560e-02
  3.746724e-01    1.782181e+00   4.272495e-02
  3.768828e-01    1.825371e+00   4.309408e-02
  3.790933e-01    1.803554e+00   4.269618e-02
  3.813037e-01    1.780460e+00   4.228316e-02
  3.835142e-01    1.737813e+00   4.163648e-02
  3.857246e-01    1.738471e+00   4.150958e-02
  3.879351e-01    1.780115e+00   4.186784e-02
  3.901455e-01    1.761511e+00   4.151592e-02
  3.923560e-01    1.761722e+00   4.138643e-02
  3.945665e-01    1.832622e+00   4.207716e-02
  3.967769e-01    1.807916e+00   4.166169e-02
  3.989874e-01    1.796480e+00   4.140004e-02
  4.011978e-01    1.758138e+00   4.082992e-02
  4.034083e-01    1.791918e+00   4.109374e-02
  4.056187e-01    1.756712e+00   4.056271e-02
  4.078292e-01    1.798481e+00   4.091790e-02
  4.100397e-01    1.774928e+00   4.052499e-02
  4.122501e-01    1.751795e+00   4.013956e-02
  4.144606e-01    1.821137e+00   4.080493e-02
  4.166710e-01    1.850414e+00   4.100932e-02
  4.188815e-01    1.794838e+00   4.026948e-02
  4.210919e-01    1.762173e+00   3.978441e-02
  4.233024e-01    1.799137e+00   4.008127e-02
  4.255128e-01    1.770298e+00   3.964380e-02
  4.277233e-01    1.786562e+00   3.971108e-02
  4.299338e-01    1.776700e+00   3.948737e-02
  4.321442e-01    1.783583e+00   3.945056e-02
  4.343547e-01    1.800435e+00   3.952443e-02
  4.365651e-01    1.794138e+00   3.934314e-02
  4.387756e-01    1.774873e+00   3.902179e-02
  4.409860e-01    1.698513e+00   3.806739e-02
  4.431965e-01    1.703603e+00   3.801895e-02
  4.454070e-01    1.704255e+00   3.792045e-02
  4.476174e-01    1.740074e+00   3.821163e-02
  4.498279e-01    1.801605e+00   3.877560e-02
  4.520383e-01    1.798966e+00   3.864086e-02
  4.542488e-01    1.752213e+00   3.803261e-02
  4.564592e-01    1.729643e+00   3.768548e-02
  4.586697e-01    1.716787e+00   3.744553e-02
  4.608801e-01    1.701929e+00   3.718326e-02
  4.630906e-01    1.685298e+00   3.690318e-02
  4.653011e-01    1.686320e+00   3.681729e-02
  4.675115e-01    1.740994e+00   3.731084e-02
  4.697220e-01    1.722558e+00   3.701562e-02
  4.719324e-01    1.721348e+00   3.690688e-02
  4.741429e-01    1.694566e+00   3.652430e-02
  4.763533e-01    1.666615e+00   3.612897e-02
  4.785638e-01    1.684439e+00   3.622780e-02
  4.807743e-01    1.695176e+00   3.625067e-02
  4.829847e-01    1.699549e+00   3.620569e-02
  4.851952e-01    1.650409e+00   3.558818e-02
  4.874056e-01    1.631615e+00   3.529571e-02
  4.896161e-01    1.721674e+00   3.616682e-02
  4.918265e-01    1.707779e+00   3.593116e-02
  4.940370e-01    1.694306e+00   3.570076e-02
  4.962475e-01    1.692952e+00   3.559837e-02
  4.984579e-01    1.657833e+00   3.514039e-02
  5.006684e-01    1.653654e+00   3.501051e-02
  5.028788e-01    1.682380e+00   3.522770e-02
  5.050893e-01    1.708422e+00   3.541297e-02
  5.072997e-01    1.677245e+00   3.500361e-02
  5.095102e-01    1.685275e+00   3.500328e-02
  5.117206e-01    1.668571e+00   3.474654e-02
  5.139311e-01    1.661121e+00   3.458685e-02
  5.161416e-01    1.655912e+00   3.445094e-02
  5.183520e-01    1.684445e+00   3.466394e-02
  5.205625e-01    1.690385e+00   3.464366e-02
  5.227729e-01    1.719386e+00   3.485807e-02
  5.249834e-01    1.673470e+00   3.430967e-02
  5.271938e-01    1.686733e+00   3.436496e-02
  5.294043e-01    1.732177e+00   3.474445e-02
  5.316148e-01    1.779173e+00   3.513199e-02
  5.338252e-01    1.781964e+00   3.507918e-02
  5.360357e-01    1.735070e+00   3.453574e-02
  5.382461e-01    1.649168e+00   3.359387e-02
  5.404566e-01    1.718794e+00   3.421759e-02
  5.426670e-01    1.765689e+00   3.460312e-02
  5.448775e-01    1.749781e+00   3.436995e-02
  5.470879e-01    1.722803e+00   3.402787e-02
  5.492984e-01    1.767875e+00   3.439350e-02
  5.515089e-01    1.705158e+00   3.370298e-02
  5.537193e-01    1.792307e+00   3.447738e-02
  5.559298e-01    1.811021e+00   3.458091e-02
  5.581402e-01    1.792143e+00   3.432503e-02
  5.603507e-01    1.794493e+00   3.427278e-02
  5.625611e-01    1.773650e+00   3.399922e-02
  5.647716e-01    1.776566e+00   3.395328e-02
  5.669821e-01    1.782194e+00   3.393370e-02
  5.691925e-01    1.763984e+00   3.368744e-02
  5.714030e-01    1.697137e+00   3.297252e-02
  5.736134e-01    1.704486e+00   3.297354e-02
  5.758239e-01    1.722204e+00   3.307372e-02
  5.780343e-01    1.708791e+00   3.287502e-02
  5.802448e-01    1.663508e+00   3.236857e-02
  5.824552e-01    1.672441e+00   3.238726e-02
  5.846657e-01    1.685382e+00   3.244457e-02
  5.868762e-01    1.642004e+00   3.195765e-02
  5.890866e-01    1.625798e+00   3.173358e-02
  5.912971e-01    1.647902e+00   3.188242e-02
  5.935075e-01    1.634377e+00   3.168571e-02
  5.957180e-01    1.600975e+00   3.129590e-02
  5.979284e-01    1.629183e+00   3.150594e-02
  6.001389e-01    1.639349e+00   3.153974e-02
  6.023494e-01    1.644710e+00   3.152712e-02
  6.045598e-01    1.652722e+00   3.153948e-02
  6.067703e-01    1.653125e+00   3.147989e-02
  6.089807e-01    1.643866e+00   3.132851e-02
  6.111912e-01    1.591931e+00   3.076808e-02
  6.134016e-01    1.637632e+00   3.114435e-02
  6.156121e-01    1.665246e+00   3.134340e-02
  6.178226e-01    1.681716e+00   3.143567e-02
  6.200330e-01    1.702296e+00   3.156503e-02
  6.222435e-01    1.739841e+00   3.184802e-02
  6.244539e-01    1.759349e+00   3.196337e-02
  6.266644e-01    1.709145e+00   3.144256e-02
  6.288748e-01    1.716769e+00   3.145130e-02
  6.310853e-01    1.716632e+00   3.138896e-02
  6.332957e-01    1.679268e+00   3.098555e-02
  6.355062e-01    1.660838e+00   3.075517e-02
  6.377167e-01    1.688812e+00   3.095359e-02
  6.399271e-01    1.711416e+00   3.110035e-02
  6.421376e-01    1.702312e+00   3.095833e-02
  6.443480e-01    1.691328e+00   3.079956e-02
  6.465585e-01    1.727243e+00   3.106591e-02
  6.487689e-01    1.678675e+00   3.056820e-02
  6.509794e-01    1.675431e+00   3.048104e-02
  6.531899e-01    1.631516e+00   3.002236e-02
  6.554003e-01    1.606674e+00   2.973691e-02
  6.576108e-01    1.589519e+00   2.952264e-02
  6.598212e-01    1.583577e+00   2.941268e-02
  6.620317e-01    1.571978e+00   2.925043e-02
  6.642421e-01    1.559182e+00   2.907725e-02
  6.664526e-01    1.546274e+00   2.890327e-02
  6.686630e-01    1.604487e+00   2.938789e-02
  6.708735e-01    1.567318e+00   2.899222e-02
  6.730840e-01    1.570692e+00   2.897048e-02
  6.752944e-01    1.585557e+00   2.905433e-02
  6.775049e-01    1.548340e+00   2.865918e-02
  6.797153e-01    1.590266e+00   2.899200e-02
  6.819258e-01    1.615209e+00   2.916580e-02
  6.841362e-01    1.579681e+00   2.879139e-02
  6.863467e-01    1.562447e+00   2.858260e-02
  6.885572e-01    1.586411e+00   2.874935e-02
  6.907676e-01    1.613674e+00   2.894338e-02
  6.929781e-01    1.561354e+00   2.841971e-02
  6.951885e-01    1.602118e+00   2.873730e-02
  6.973990e-01    1.594118e+00   2.861480e-02
  6.996094e-01    1.607976e+00   2.868834e-02
  7.018199e-01    1.597041e+00   2.854045e-02
  7.040303e-01    1.609354e+00   2.859991e-02
  7.062408e-01    1.629935e+00   2.873183e-02
  7.084513e-01    1.576741e+00   2.820993e-02
  7.106617e-01    1.546779e+00   2.789205e-02
  7.128722e-01    1.597423e+00   2.829594e-02
  7.150826e-01    1.602304e+00   2.829032e-02
  7.172931e-01    1.566273e+00   2.792219e-02
  7.195035e-01    1.560621e+00   2.782387e-02
  7.217140e-01    1.564952e+00   2.791173e-02
  7.239245e-01    1.546444e+00   2.797091e-02
  7.261349e-01    1.534869e+00   2.797323e-02
  7.283454e-01    1.560604e+00   2.827888e-02
  7.305558e-01    1.579803e+00   2.850635e-02
  7.327663e-01    1.584552e+00   2.859181e-02
  7.349767e-01    1.593245e+00   2.868660e-02
  7.371872e-01    1.575500e+00   2.851522e-02
  7.393976e-01    1.574422e+00   2.849119e-02
  7.416081e-01    1.546131e+00   2.821805e-02
  7.438186e-01    1.542015e+00   2.803762e-02
  7.460290e-01    1.592929e+00   2.820079e-02
  7.482395e-01    1.563120e+00   2.776515e-02
  7.504499e-01    1.579878e+00   2.777708e-02
  7.526604e-01    1.596236e+00   2.780317e-02
  7.548708e-01    1.536831e+00   2.719259e-02
  7.570813e-01    1.500746e+00   2.682166e-02
  7.592918e-01    1.529740e+00   2.704485e-02
  7.615022e-01    1.521721e+00   2.694064e-02
  7.637127e-01    1.532343e+00   2.700217e-02
  7.659231e-01    1.537515e+00   2.701607e-02
  7.681336e-01    1.573295e+00   2.729703e-02
  7.703440e-01    1.567804e+00   2.721820e-02
  7.725545e-01    1.573825e+00   2.723955e-02
  7.747650e-01    1.557349e+00   2.705861e-02
  7.769754e-01    1.568839e+00   2.710564e-02
  7.791859e-01    1.536860e+00   2.677514e-02
  7.813963e-01    1.564338e+00   2.696107e-02
  7.836068e-01    1.574055e+00   2.699286e-02
  7.858172e-01    1.555674e+00   2.678463e-02
  7.880277e-01    1.572585e+00   2.687859e-02
  7.902381e-01    1.583342e+00   2.692135e-02
  7.924486e-01    1.590145e+00   2.692916e-02
  7.946591e-01    1.625304e+00   2.717655e-02
  7.968695e-01    1.609423e+00   2.699510e-02
  7.990800e-01    1.628248e+00   2.710396e-02
  8.012904e-01    1.603170e+00   2.684793e-02
  8.035009e-01    1.619156e+00   2.693342e-02
  8.057113e-01    1.632598e+00   2.699824e-02
  8.079218e-01    1.619077e+00   2.683979e-02
  8.101323e-01    1.632957e+00   2.690885e-02
  8.123427e-01    1.649748e+00   2.700071e-02
  8.145532e-01    1.661257e+00   2.704837e-02
  8.167636e-01    1.692370e+00   2.725458e-02
  8.189741e-01    1.686617e+00   2.716287e-02
  8.211845e-01    1.667936e+00   2.696675e-02
  8.233950e-01    1.671387e+00   2.695072e-02
  8.256054e-01    1.709322e+00   2.720969e-02
  8.278159e-01    1.711053e+00   2.717853e-02
  8.300264e-01    1.707146e+00   2.710349e-02
  8.322368e-01    1.686766e+00   2.689748e-02
  8.344473e-01    1.714157e+00   2.707061e-02
  8.366577e-01    1.723180e+00   2.709812e-02
  8.388682e-01    1.679489e+00   2.670964e-02
  8.410786e-01    1.658235e+00   2.649777e-02
  8.432891e-01    1.658669e+00   2.645914e-02
  8.454996e-01    1.658087e+00   2.641263e-02
  8.477100e-01    1.653334e+00   2.633289e-02
  8.499205e-01    1.635197e+00   2.614692e-02
  8.521309e-01    1.640816e+00   2.615098e-02
  8.543414e-01    1.622815e+00   2.596654e-02
  8.565518e-01    1.614699e+00   2.586123e-02
  8.587623e-01    1.584419e+00   2.557770e-02
  8.609727e-01    1.618973e+00   2.581500e-02
  8.631832e-01    1.577514e+00   2.544305e-02
  8.653937e-01    1.611233e+00   2.567400e-02
  8.676041e-01    1.620615e+00   2.570980e-02
  8.698146e-01    1.567996e+00   2.525033e-02
  8.720250e-01    1.584361e+00   2.534304e-02
  8.742355e-01    1.608281e+00   2.549479e-02
  8.764459e-01    1.586581e+00   2.528358e-02
  8.786564e-01    1.590756e+00   2.527907e-02
  8.808669e-01    1.588738e+00   2.522474e-02
  8.830773e-01    1.592180e+00   2.521403e-02
  8.852878e-01    1.565296e+00   2.496279e-02
  8.874982e-01    1.540103e+00   2.472513e-02
  8.897087e-01    1.580602e+00   2.501067e-02
  8.919191e-01    1.591679e+00   2.506052e-02
  8.941296e-01    1.573881e+00   2.488303e-02
  8.963401e-01    1.605391e+00   2.509439e-02
  8.985505e-01    1.617955e+00   2.515523e-02
  9.007610e-01    1.599152e+00   2.497192e-02
  9.029714e-01    1.565399e+00   2.467150e-02
  9.051819e-01    1.558359e+00   2.457924e-02
  9.073923e-01    1.543846e+00   2.442858e-02
  9.096028e-01    1.574821e+00   2.463780e-02
  9.118132e-01    1.567576e+00   2.454519e-02
  9.140237e-01    1.627498e+00   2.497299e-02
  9.162342e-01    1.640342e+00   2.503636e-02
  9.184446e-01    1.629096e+00   2.491430e-02
  9.206551e-01    1.619660e+00   2.480625e-02
  9.228655e-01    1.592325e+00   2.456087e-02
  9.250760e-01    1.614641e+00   2.469686e-02
  9.272864e-01    1.610883e+00   2.463378e-02
  9.294969e-01    1.585929e+00   2.440660e-02
  9.317074e-01    1.619747e+00   2.463059e-02
  9.339178e-01    1.610250e+00   2.452475e-02
  9.361283e-01    1.615098e+00   2.452541e-02
  9.383387e-01    1.623091e+00   2.455260e-02
  9.405492e-01    1.614907e+00   2.445640e-02
  9.427596e-01    1.650694e+00   2.469032e-02
  9.449701e-01    1.671233e+00   2.480968e-02
  9.471805e-01    1.650009e+00   2.461674e-02
  9.493910e-01    1.685442e+00   2.484549e-02
  9.516015e-01    1.700938e+00   2.492461e-02
  9.538119e-01    1.675207e+00   2.470148e-02
  9.560224e-01    1.701895e+00   2.486241e-02
  9.582328e-01    1.712330e+00   2.490504e-02
  9.604433e-01    1.753781e+00   2.516901e-02
  9.626537e-01    1.820995e+00   2.561227e-02
  9.648642e-01    1.860553e+00   2.585353e-02
  9.670747e-01    1.872911e+00   2.590348e-02
  9.692851e-01    1.827734e+00   2.555517e-02
  9.714956e-01    1.805209e+00   2.536137e-02
  9.737060e-01    1.832502e+00   2.551880e-02
  9.759165e-01    1.878721e+00   2.580219e-02
  9.781269e-01    1.860353e+00   2.564217e-02
  9.803374e-01    1.835007e+00   2.543166e-02
  9.825478e-01    1.811966e+00   2.523816e-02
  9.847583e-01    1.768356e+00   2.489874e-02
  9.869688e-01    1.777185e+00   2.492739e-02
  9.891792e-01    1.778163e+00   2.490113e-02
  9.913897e-01    1.746030e+00   2.464181e-02
  9.936001e-01    1.735060e+00   2.453212e-02
  9.958106e-01    1.729623e+00   2.446036e-02
  9.980210e-01    1.693260e+00   2.417047e-02
  1.000231e+00    1.634174e+00   2.387510e-02
  1.002442e+00    1.613866e+00   2.385233e-02
  1.004652e+00    1.627882e+00   2.402252e-02
  1.006863e+00    1.588872e+00   2.378220e-02
  1.009073e+00    1.559800e+00   2.359966e-02
  1.011284e+00    1.554146e+00   2.358836e-02
  1.013494e+00    1.575311e+00   2.377197e-02
  1.015705e+00    1.551620e+00   2.361485e-02
  1.017915e+00    1.592737e+00   2.394216e-02
  1.020126e+00    1.651824e+00   2.439870e-02
  1.022336e+00    1.643190e+00   2.434687e-02
  1.024547e+00    1.540023e+00   2.358137e-02
  1.026757e+00    1.528077e+00   2.349800e-02
  1.028967e+00    1.502659e+00   2.330936e-02
  1.031178e+00    1.482790e+00   2.316077e-02
  1.033388e+00    1.516427e+00   2.342704e-02
  1.035599e+00    1.493873e+00   2.325555e-02
  1.037809e+00    1.503933e+00   2.333696e-02
  1.040020e+00    1.503665e+00   2.333615e-02
  1.042230e+00    1.583899e+00   2.395258e-02
  1.044441e+00    1.666764e+00   2.457098e-02
  1.046651e+00    1.587563e+00   2.398030e-02
  1.048862e+00    1.511704e+00   2.339955e-02
  1.051072e+00    1.489908e+00   2.322789e-02
  1.053282e+00    1.523688e+00   2.348875e-02
  1.055493e+00    1.574651e+00   2.387393e-02
  1.057703e+00    1.564407e+00   2.379462e-02
  1.059914e+00    1.519129e+00   2.344345e-02
  1.062124e+00    1.490181e+00   2.321495e-02
  1.064335e+00    1.502425e+00   2.330664e-02
  1.066545e+00    1.495175e+00   2.324434e-02
  1.068756e+00    1.478043e+00   2.310706e-02
  1.070966e+00    1.463335e+00   2.298528e-02
  1.073177e+00    1.466049e+00   2.300055e-02
  1.075387e+00    1.483884e+00   2.313477e-02
  1.077597e+00    1.515265e+00   2.337075e-02
  1.079808e+00    1.530955e+00   2.335569e-02
  1.082018e+00    1.524198e+00   2.311114e-02
  1.084229e+00    1.497557e+00   2.279683e-02
  1.086439e+00    1.457821e+00   2.240482e-02
  1.088650e+00    1.487054e+00   2.255184e-02
  1.090860e+00    1.478491e+00   2.241862e-02
  1.093071e+00    1.494162e+00   2.247402e-02
  1.095281e+00    1.467678e+00   2.221627e-02
  1.097492e+00    1.482334e+00   2.227128e-02
  1.099702e+00    1.526476e+00   2.254757e-02
  1.101912e+00    1.509299e+00   2.237034e-02
  1.104123e+00    1.490046e+00   2.217808e-02
  1.106333e+00    1.508604e+00   2.227015e-02
  1.108544e+00    1.561474e+00   2.261080e-02
  1.110754e+00    1.578557e+00   2.268889e-02
  1.112965e+00    1.521208e+00   2.223104e-02
  1.115175e+00    1.459723e+00   2.173536e-02
  1.117386e+00    1.449127e+00   2.161659e-02
  1.119596e+00    1.448933e+00   2.157678e-02
  1.121807e+00    1.439175e+00   2.146480e-02
  1.124017e+00    1.421560e+00   2.129617e-02
  1.126228e+00    1.431681e+00   2.133576e-02
  1.128438e+00    1.411942e+00   2.115126e-02
  1.130648e+00    1.410356e+00   2.110493e-02
  1.132859e+00    1.384899e+00   2.087936e-02
  1.135069e+00    1.407043e+00   2.101072e-02
  1.137280e+00    1.421648e+00   2.108611e-02
  1.139490e+00    1.405237e+00   2.093079e-02
  1.141701e+00    1.393035e+00   2.080648e-02
  1.143911e+00    1.363359e+00   2.055206e-02
  1.146122e+00    1.347090e+00   2.039742e-02
  1.148332e+00    1.376643e+00   2.058813e-02
  1.150543e+00    1.351509e+00   2.036878e-02
  1.152753e+00    1.342488e+00   2.027020e-02
  1.154963e+00    1.361770e+00   2.038435e-02
  1.157174e+00    1.347613e+00   2.024824e-02
  1.159384e+00    1.360087e+00   2.031202e-02
  1.161595e+00    1.368008e+00   2.034126e-02
  1.163805e+00    1.353314e+00   2.020263e-02
  1.166016e+00    1.371508e+00   2.030850e-02
  1.168226e+00    1.373131e+00   2.029149e-02
  1.170437e+00    1.380147e+00   2.031448e-02
  1.172647e+00    1.369671e+00   2.020833e-02
  1.174858e+00    1.352184e+00   2.005091e-02
  1.177068e+00    1.365649e+00   2.012222e-02
  1.179278e+00    1.367216e+00   2.010512e-02
  1.181489e+00    1.336429e+00   1.985071e-02
  1.183699e+00    1.355304e+00   1.996284e-02
  1.185910e+00    1.340233e+00   1.982395e-02
  1.188120e+00    1.364590e+00   1.997651e-02
  1.190331e+00    1.358124e+00   1.990234e-02
  1.192541e+00    1.354178e+00   1.984602e-02
  1.194752e+00    1.352674e+00   1.980796e-02
  1.196962e+00    1.348916e+00   1.975470e-02
  1.199173e+00    1.364415e+00   1.984123e-02
  1.201383e+00    1.344324e+00   1.966751e-02
  1.203593e+00    1.319696e+00   1.946199e-02
  1.205804e+00    1.317700e+00   1.942166e-02
  1.208014e+00    1.320855e+00   1.941833e-02
  1.210225e+00    1.347615e+00   1.958874e-02
  1.212435e+00    1.329840e+00   1.943453e-02
  1.214646e+00    1.331540e+00   1.942101e-02
  1.216856e+00    1.334814e+00   1.941954e-02
  1.219067e+00    1.341927e+00   1.944682e-02
  1.221277e+00    1.356283e+00   1.952548e-02
  1.223488e+00    1.328194e+00   1.929672e-02
  1.225698e+00    1.308103e+00   1.912371e-02
  1.227909e+00    1.335131e+00   1.929027e-02
  1.230119e+00    1.300355e+00   1.900613e-02
  1.232329e+00    1.303291e+00   1.899739e-02
  1.234540e+00    1.308678e+00   1.900676e-02
  1.236750e+00    1.347148e+00   1.925390e-02
  1.238961e+00    1.344436e+00   1.920758e-02
  1.241171e+00    1.344309e+00   1.918256e-02
  1.243382e+00    1.307929e+00   1.889807e-02
  1.245592e+00    1.305999e+00   1.886041e-02
  1.247803e+00    1.309310e+00   1.886101e-02
  1.250013e+00    1.315894e+00   1.888514e-02
  1.252224e+00    1.325567e+00   1.893137e-02
  1.254434e+00    1.344275e+00   1.904081e-02
  1.256644e+00    1.360446e+00   1.913169e-02
  1.258855e+00    1.347120e+00   1.901452e-02
  1.261065e+00    1.333278e+00   1.889336e-02
  1.263276e+00    1.337536e+00   1.890065e-02
  1.265486e+00    1.339778e+00   1.889371e-02
  1.267697e+00    1.349018e+00   1.893573e-02
  1.269907e+00    1.373290e+00   1.908243e-02
  1.272118e+00    1.345403e+00   1.886518e-02
  1.274328e+00    1.320536e+00   1.866752e-02
  1.276539e+00    1.317071e+00   1.862050e-02
  1.278749e+00    1.320046e+00   1.861949e-02
  1.280959e+00    1.318086e+00   1.858339e-02
  1.283170e+00    1.321131e+00   1.858265e-02
  1.285380e+00    1.351000e+00   1.876906e-02
  1.287591e+00    1.378835e+00   1.893919e-02
  1.289801e+00    1.364783e+00   1.882110e-02
  1.292012e+00    1.333151e+00   1.858471e-02
  1.294222e+00    1.344117e+00   1.864479e-02
  1.296433e+00    1.349059e+00   1.866343e-02
  1.298643e+00    1.348502e+00   1.864312e-02
  1.300854e+00    1.363477e+00   1.872986e-02
  1.303064e+00    1.355295e+00   1.865432e-02
  1.305274e+00    1.348879e+00   1.858867e-02
  1.307485e+00    1.344776e+00   1.853888e-02
  1.309695e+00    1.343580e+00   1.850845e-02
  1.311906e+00    1.357580e+00   1.858286e-02
  1.314116e+00    1.362671e+00   1.859677e-02
  1.316327e+00    1.368167e+00   1.861242e-02
  1.318537e+00    1.351132e+00   1.847427e-02
  1.320748e+00    1.373916e+00   1.860765e-02
  1.322958e+00    1.348939e+00   1.841723e-02
  1.325169e+00    1.363240e+00   1.849346e-02
  1.327379e+00    1.371557e+00   1.852783e-02
  1.329589e+00    1.366629e+00   1.847330e-02
  1.331800e+00    1.357707e+00   1.839214e-02
  1.334010e+00    1.358000e+00   1.837343e-02
  1.336221e+00    1.359421e+00   1.836119e-02
  1.338431e+00    1.358478e+00   1.833390e-02
  1.340642e+00    1.370405e+00   1.847885e-02
  1.342852e+00    1.391234e+00   1.872094e-02
  1.345063e+00    1.367428e+00   1.860991e-02
  1.347273e+00    1.354743e+00   1.855868e-02
  1.349484e+00    1.336750e+00   1.846257e-02
  1.351694e+00    1.354554e+00   1.860787e-02
  1.353905e+00    1.324238e+00   1.841628e-02
  1.356115e+00    1.331250e+00   1.847990e-02
  1.358325e+00    1.320973e+00   1.842161e-02
  1.360536e+00    1.339251e+00   1.856020e-02
  1.362746e+00    1.323087e+00   1.845733e-02
  1.364957e+00    1.320820e+00   1.844909e-02
  1.367167e+00    1.323073e+00   1.847189e-02
  1.369378e+00    1.328193e+00   1.851360e-02
  1.371588e+00    1.292543e+00   1.826847e-02
  1.373799e+00    1.301710e+00   1.833676e-02
  1.376009e+00    1.300459e+00   1.833129e-02
  1.378220e+00    1.324818e+00   1.850468e-02
  1.380430e+00    1.304760e+00   1.836678e-02
  1.382640e+00    1.281578e+00   1.820376e-02
  1.384851e+00    1.290562e+00   1.826830e-02
  1.387061e+00    1.296934e+00   1.831366e-02
  1.389272e+00    1.297799e+00   1.831996e-02
  1.391482e+00    1.294627e+00   1.829690e-02
  1.393693e+00    1.270841e+00   1.812716e-02
  1.395903e+00    1.289118e+00   1.825555e-02
  1.398114e+00    1.249117e+00   1.796873e-02
  1.400324e+00    1.256083e+00   1.801664e-02
  1.402535e+00    1.277591e+00   1.816791e-02
  1.404745e+00    1.303009e+00   1.834537e-02
  1.406955e+00    1.307547e+00   1.837457e-02
  1.409166e+00    1.282496e+00   1.819438e-02
  1.411376e+00    1.256720e+00   1.800751e-02
  1.413587e+00    1.253976e+00   1.798404e-02
  1.415797e+00    1.261003e+00   1.803084e-02
  1.418008e+00    1.258432e+00   1.797077e-02
  1.420218e+00    1.251735e+00   1.777425e-02
  1.422429e+00    1.262280e+00   1.776388e-02
  1.424639e+00    1.295489e+00   1.793070e-02
  1.426850e+00    1.333050e+00   1.813276e-02
  1.429060e+00    1.296637e+00   1.783390e-02
  1.431270e+00    1.313578e+00   1.790495e-02
  1.433481e+00    1.309333e+00   1.783442e-02
  1.435691e+00    1.291107e+00   1.767111e-02
  1.437902e+00    1.279880e+00   1.755750e-02
  1.440112e+00    1.284264e+00   1.755201e-02
  1.442323e+00    1.281147e+00   1.749750e-02
  1.444533e+00    1.270210e+00   1.739011e-02
  1.446744e+00    1.246152e+00   1.719379e-02
  1.448954e+00    1.291061e+00   1.747041e-02
  1.451165e+00    1.302466e+00   1.751729e-02
  1.453375e+00    1.289015e+00   1.739835e-02
  1.455586e+00    1.271300e+00   1.725020e-02
  1.457796e+00    1.286842e+00   1.732763e-02
  1.460006e+00    1.288796e+00   1.731332e-02
  1.462217e+00    1.284877e+00   1.726061e-02
  1.464427e+00    1.257251e+00   1.704857e-02
  1.466638e+00    1.258907e+00   1.703455e-02
  1.468848e+00    1.286760e+00   1.719647e-02
  1.471059e+00    1.261940e+00   1.700480e-02
  1.473269e+00    1.251406e+00   1.690946e-02
  1.475480e+00    1.264109e+00   1.697135e-02
  1.477690e+00    1.258942e+00   1.691289e-02
  1.479901e+00    1.249107e+00   1.682302e-02
  1.482111e+00    1.261943e+00   1.688597e-02
  1.484321e+00    1.257509e+00   1.683325e-02
  1.486532e+00    1.266706e+00   1.687235e-02
  1.488742e+00    1.265715e+00   1.684310e-02
  1.490953e+00    1.264867e+00   1.681485e-02
  1.493163e+00    1.255988e+00   1.673350e-02
  1.495374e+00    1.280163e+00   1.687215e-02
  1.497584e+00    1.279472e+00   1.684579e-02
  1.499795e+00    1.283061e+00   1.684757e-02
  1.502005e+00    1.267914e+00   1.672607e-02
  1.504216e+00    1.262512e+00   1.666934e-02
  1.506426e+00    1.272555e+00   1.671455e-02
  1.508636e+00    1.245507e+00   1.651565e-02
  1.510847e+00    1.237312e+00   1.643955e-02
  1.513057e+00    1.243399e+00   1.645499e-02
  1.515268e+00    1.251657e+00   1.648384e-02
  1.517478e+00    1.247427e+00   1.643089e-02
  1.519689e+00    1.265341e+00   1.652337e-02
  1.521899e+00    1.270976e+00   1.653686e-02
  1.524110e+00    1.268122e+00   1.649784e-02
  1.526320e+00    1.269881e+00   1.648952e-02
  1.528531e+00    1.286976e+00   1.658012e-02
  1.530741e+00    1.262628e+00   1.640329e-02
  1.532951e+00    1.248931e+00   1.629450e-02
  1.535162e+00    1.239294e+00   1.631775e-02
  1.537372e+00    1.223074e+00   1.627681e-02
  1.539583e+00    1.226033e+00   1.633042e-02
  1.541793e+00    1.220996e+00   1.630371e-02
  1.544004e+00    1.219910e+00   1.629671e-02
  1.546214e+00    1.228016e+00   1.634928e-02
  1.548425e+00    1.215768e+00   1.626779e-02
  1.550635e+00    1.236674e+00   1.641671e-02
  1.552846e+00    1.241474e+00   1.645819e-02
  1.555056e+00    1.243356e+00   1.642920e-02
  1.557266e+00    1.248541e+00   1.635280e-02
  1.559477e+00    1.196893e+00   1.595301e-02
  1.561687e+00    1.235361e+00   1.617677e-02
  1.563898e+00    1.251196e+00   1.626294e-02
  1.566108e+00    1.243291e+00   1.619552e-02
  1.568319e+00    1.236676e+00   1.613683e-02
  1.570529e+00    1.217428e+00   1.598587e-02
  1.572740e+00    1.235256e+00   1.607499e-02
  1.574950e+00    1.255256e+00   1.617817e-02
  1.577161e+00    1.249401e+00   1.611488e-02
  1.579371e+00    1.249498e+00   1.609178e-02
  1.581582e+00    1.260537e+00   1.614283e-02
  1.583792e+00    1.265406e+00   1.615578e-02
  1.586002e+00    1.261418e+00   1.611259e-02
  1.588213e+00    1.256458e+00   1.606354e-02
  1.590423e+00    1.252414e+00   1.601753e-02
  1.592634e+00    1.258327e+00   1.603354e-02
  1.594844e+00    1.246490e+00   1.593654e-02
  1.597055e+00    1.226144e+00   1.578558e-02
  1.599265e+00    1.211922e+00   1.567329e-02
  1.601476e+00    1.221089e+00   1.571230e-02
  1.603686e+00    1.241080e+00   1.582064e-02
  1.605897e+00    1.213764e+00   1.562560e-02
  1.608107e+00    1.238432e+00   1.576402e-02
  1.610317e+00    1.236362e+00   1.573155e-02
  1.612528e+00    1.218295e+00   1.559714e-02
  1.614738e+00    1.205878e+00   1.549869e-02
  1.616949e+00    1.194019e+00   1.540358e-02
  1.619159e+00    1.206194e+00   1.546330e-02
  1.621370e+00    1.216572e+00   1.551125e-02
  1.623580e+00    1.190274e+00   1.532454e-02
  1.625791e+00    1.176757e+00   1.521926e-02
  1.628001e+00    1.160197e+00   1.509385e-02
  1.630212e+00    1.159487e+00   1.507173e-02
  1.632422e+00    1.150704e+00   1.499691e-02
  1.634632e+00    1.142595e+00   1.492696e-02
  1.636843e+00    1.124285e+00   1.478974e-02
  1.639053e+00    1.142333e+00   1.489090e-02
  1.641264e+00    1.131853e+00   1.480564e-02
  1.643474e+00    1.126056e+00   1.475056e-02
  1.645685e+00    1.108889e+00   1.462139e-02
  1.647895e+00    1.122334e+00   1.469339e-02
  1.650106e+00    1.128481e+00   1.471675e-02
  1.652316e+00    1.112369e+00   1.459509e-02
  1.654527e+00    1.140667e+00   1.476290e-02
  1.656737e+00    1.142021e+00   1.475506e-02
  1.658947e+00    1.118281e+00   1.458474e-02
  1.661158e+00    1.088712e+00   1.437462e-02
  1.663368e+00    1.114273e+00   1.452641e-02
  1.665579e+00    1.105402e+00   1.445244e-02
  1.667789e+00    1.095665e+00   1.437255e-02
  1.670000e+00    1.075577e+00   1.422497e-02
  1.672210e+00    1.070966e+00   1.417883e-02
  1.674421e+00    1.090218e+00   1.429048e-02
  1.676631e+00    1.075832e+00   1.418020e-02
  1.678842e+00    1.092260e+00   1.427233e-02
  1.681052e+00    1.079276e+00   1.417197e-02
  1.683263e+00    1.060701e+00   1.403457e-02
  1.685473e+00    1.050022e+00   1.394880e-02
  1.687683e+00    1.067279e+00   1.404767e-02
  1.689894e+00    1.053943e+00   1.394406e-02
  1.692104e+00    1.031275e+00   1.377869e-02
  1.694315e+00    1.038764e+00   1.381435e-02
  1.696525e+00    1.043831e+00   1.383303e-02
  1.698736e+00    1.036208e+00   1.376781e-02
  1.700946e+00    1.037362e+00   1.376049e-02
  1.703157e+00    1.053633e+00   1.385338e-02
  1.705367e+00    1.053003e+00   1.383473e-02
  1.707578e+00    1.046886e+00   1.377996e-02
  1.709788e+00    1.034527e+00   1.368430e-02
  1.711998e+00    1.048461e+00   1.376113e-02
  1.714209e+00    1.027437e+00   1.360808e-02
  1.716419e+00    1.042638e+00   1.369406e-02
  1.718630e+00    1.038328e+00   1.365141e-02
  1.720840e+00    1.016640e+00   1.349400e-02
  1.723051e+00    1.002053e+00   1.338312e-02
  1.725261e+00    9.813890e-01   1.323002e-02
  1.727472e+00    1.006679e+00   1.338530e-02
  1.729682e+00    9.948950e-01   1.329340e-02
  1.731893e+00    1.024097e+00   1.347311e-02
  1.734103e+00    9.992501e-01   1.329493e-02
  1.736313e+00    1.011752e+00   1.336379e-02
  1.738524e+00    9.968222e-01   1.325103e-02
  1.740734e+00    1.011351e+00   1.333346e-02
  1.742945e+00    9.755796e-01   1.308224e-02
  1.745155e+00    9.535511e-01   1.292050e-02
  1.747366e+00    9.686497e-01   1.300872e-02
  1.749576e+00    9.897628e-01   1.313602e-02
  1.751787e+00    1.010697e+00   1.326069e-02
  1.753997e+00    1.030973e+00   1.337931e-02
  1.756208e+00    1.017006e+00   1.327492e-02
  1.758418e+00    1.023777e+00   1.330555e-02
  1.760628e+00    9.995282e-01   1.313350e-02
  1.762839e+00    9.944534e-01   1.308668e-02
  1.765049e+00    9.832598e-01   1.299955e-02
  1.767260e+00    1.019199e+00   1.322179e-02
  1.769470e+00    9.890703e-01   1.301172e-02
  1.771681e+00    1.005076e+00   1.310302e-02
  1.773891e+00    1.009306e+00   1.311717e-02
  1.776102e+00    9.456886e-01   1.268417e-02
  1.778312e+00    9.524453e-01   1.271661e-02
  1.780523e+00    9.378760e-01   1.260628e-02
  1.782733e+00    9.331492e-01   1.256182e-02
  1.784944e+00    9.347074e-01   1.255942e-02
  1.787154e+00    9.377394e-01   1.256721e-02
  1.789364e+00    9.131102e-01   1.238872e-02
  1.791575e+00    9.114478e-01   1.236497e-02
  1.793785e+00    9.295813e-01   1.247495e-02
  1.795996e+00    9.086452e-01   1.232123e-02
  1.798206e+00    9.037815e-01   1.227579e-02
  1.800417e+00    9.177054e-01   1.235731e-02
  1.802627e+00    8.936098e-01   1.218220e-02
  1.804838e+00    8.962746e-01   1.218834e-02
  1.807048e+00    9.011140e-01   1.220843e-02
  1.809259e+00    9.102223e-01   1.225634e-02
  1.811469e+00    8.897130e-01   1.210264e-02
  1.813679e+00    8.870539e-01   1.206969e-02
  1.815890e+00    8.902546e-01   1.207674e-02
  1.818100e+00    8.924389e-01   1.207651e-02
  1.820311e+00    8.861778e-01   1.201934e-02
  1.822521e+00    8.892546e-01   1.202536e-02
  1.824732e+00    9.049257e-01   1.211592e-02
  1.826942e+00    8.817889e-01   1.194773e-02
  1.829153e+00    9.075905e-01   1.210944e-02
  1.831363e+00    8.817629e-01   1.192387e-02
  1.833574e+00    8.880736e-01   1.195472e-02
  1.835784e+00    9.046240e-01   1.205404e-02
  1.837994e+00    8.716253e-01   1.182047e-02
  1.840205e+00    8.770444e-01   1.184596e-02
  1.842415e+00    8.433473e-01   1.160461e-02
  1.844626e+00    8.467894e-01   1.161684e-02
  1.846836e+00    8.654011e-01   1.173241e-02
  1.849047e+00    8.673549e-01   1.173403e-02
  1.851257e+00    8.528222e-01   1.162580e-02
  1.853468e+00    8.519374e-01   1.161102e-02
  1.855678e+00    8.465815e-01   1.156566e-02
  1.857889e+00    8.466403e-01   1.155761e-02
  1.860099e+00    8.594022e-01   1.163576e-02
  1.862309e+00    8.730590e-01   1.171924e-02
  1.864520e+00    8.639544e-01   1.164939e-02
  1.866730e+00    8.606040e-01   1.161733e-02
  1.868941e+00    8.587160e-01   1.159362e-02
  1.871151e+00    8.678966e-01   1.164391e-02
  1.873362e+00    8.596209e-01   1.157687e-02
  1.875572e+00    8.483723e-01   1.148995e-02
  1.877783e+00    8.548524e-01   1.152227e-02
  1.879993e+00    8.494233e-01   1.147445e-02
  1.882204e+00    8.447152e-01   1.143171e-02
  1.884414e+00    8.413827e-01   1.139807e-02
  1.886624e+00    8.597559e-01   1.151068e-02
  1.888835e+00    8.395759e-01   1.136384e-02
  1.891045e+00    8.330621e-01   1.130882e-02
  1.893256e+00    8.492785e-01   1.140719e-02
  1.895466e+00    8.665224e-01   1.151106e-02
  1.897677e+00    8.549202e-01   1.142270e-02
  1.899887e+00    8.508354e-01   1.138428e-02
  1.902098e+00    8.494182e-01   1.136384e-02
  1.904308e+00    8.555201e-01   1.139383e-02
  1.906519e+00    8.758209e-01   1.151710e-02
  1.908729e+00    8.551790e-01   1.136981e-02
  1.910940e+00    8.347144e-01   1.122176e-02
  1.913150e+00    8.304077e-01   1.118215e-02
  1.915360e+00    8.339319e-01   1.119517e-02
  1.917571e+00    8.081053e-01   1.100970e-02
  1.919781e+00    8.093831e-01   1.100776e-02
  1.921992e+00    8.270984e-01   1.111692e-02
  1.924202e+00    8.255316e-01   1.109558e-02
  1.926413e+00    8.019714e-01   1.092589e-02
  1.928623e+00    8.015476e-01   1.091254e-02
  1.930834e+00    8.016068e-01   1.090259e-02
  1.933044e+00    7.987347e-01   1.087244e-02
  1.935255e+00    8.003033e-01   1.087287e-02
  1.937465e+00    7.956014e-01   1.083055e-02
  1.939675e+00    8.094943e-01   1.091385e-02
  1.941886e+00    8.237623e-01   1.099921e-02
  1.944096e+00    7.884016e-01   1.075047e-02
  1.946307e+00    7.929947e-01   1.077143e-02
  1.948517e+00    7.992181e-01   1.080319e-02
  1.950728e+00    7.908586e-01   1.073635e-02
  1.952938e+00    7.889062e-01   1.071305e-02
  1.955149e+00    7.917269e-01   1.072197e-02
  1.957359e+00    8.140694e-01   1.086206e-02
  1.959570e+00    8.065147e-01   1.080060e-02
  1.961780e+00    7.948796e-01   1.071247e-02
  1.963990e+00    8.361820e-01   1.097683e-02
  1.966201e+00    9.056196e-01   1.141277e-02
  1.968411e+00    8.492964e-01   1.104171e-02
  1.970622e+00    7.729167e-01   1.052348e-02
  1.972832e+00    7.748572e-01   1.052675e-02
  1.975043e+00    7.921388e-01   1.063343e-02
  1.977253e+00    7.882072e-01   1.059704e-02
  1.979464e+00    8.043137e-01   1.069459e-02
  1.981674e+00    8.054968e-01   1.069206e-02
  1.983885e+00    7.776677e-01   1.049575e-02
  1.986095e+00    7.740092e-01   1.046134e-02
  1.988305e+00    7.742035e-01   1.045282e-02
  1.990516e+00    7.639369e-01   1.037344e-02
  1.992726e+00    7.650560e-01   1.037145e-02
  1.994937e+00    7.598976e-01   1.032640e-02
  1.997147e+00    7.732839e-01   1.040724e-02
  1.999358e+00    7.696477e-01   1.037295e-02
  2.001568e+00    7.553641e-01   1.026554e-02
  2.003779e+00    7.723637e-01   1.036849e-02
  2.005989e+00    7.583054e-01   1.026180e-02
  2.008200e+00    7.674211e-01   1.031176e-02
  2.010410e+00    7.698532e-01   1.031636e-02
  2.012621e+00    7.548712e-01   1.020388e-02
  2.014831e+00    7.731039e-01   1.031485e-02
  2.017041e+00    7.684975e-01   1.027369e-02
  2.019252e+00    7.582723e-01   1.019519e-02
  2.021462e+00    7.681347e-01   1.025176e-02
  2.023673e+00    7.699659e-01   1.025455e-02
  2.025883e+00    7.486722e-01   1.010233e-02
  2.028094e+00    7.535613e-01   1.012568e-02
  2.030304e+00    7.543944e-01   1.012177e-02
  2.032515e+00    7.560432e-01   1.012357e-02
  2.034725e+00    7.398591e-01   1.000531e-02
  2.036936e+00    7.549657e-01   1.009761e-02
  2.039146e+00    7.432597e-01   1.000955e-02
  2.041356e+00    7.459668e-01   1.001818e-02
  2.043567e+00    7.526140e-01   1.005342e-02
  2.045777e+00    7.424479e-01   9.976144e-03
  2.047988e+00    7.608283e-01   1.008944e-02
  2.050198e+00    7.695322e-01   1.013849e-02
  2.052409e+00    7.566676e-01   1.004570e-02
  2.054619e+00    7.554718e-01   1.003038e-02
  2.056830e+00    7.608330e-01   1.005867e-02
  2.059040e+00    7.621290e-01   1.005968e-02
  2.061251e+00    7.466130e-01   9.949511e-03
  2.063461e+00    7.573866e-01   1.001340e-02
  2.065671e+00    7.637491e-01   1.004658e-02
  2.067882e+00    7.422413e-01   9.895134e-03
  2.070092e+00    7.559268e-01   9.976687e-03
  2.072303e+00    7.624382e-01   1.001033e-02
  2.074513e+00    7.683252e-01   1.003945e-02
  2.076724e+00    7.539786e-01   9.935751e-03
  2.078934e+00    7.587801e-01   9.958238e-03
  2.081145e+00    7.616294e-01   9.967721e-03
  2.083355e+00    7.381445e-01   9.803700e-03
  2.085566e+00    7.436053e-01   9.830954e-03
  2.087776e+00    7.390954e-01   9.791616e-03
  2.089986e+00    7.197926e-01   9.654218e-03
  2.092197e+00    7.253407e-01   9.682476e-03
  2.094407e+00    7.297232e-01   9.702489e-03
  2.096618e+00    7.320425e-01   9.709008e-03
  2.098828e+00    7.540137e-01   9.844210e-03
  2.101039e+00    7.499503e-01   9.808577e-03
  2.103249e+00    7.512984e-01   9.808582e-03
  2.105460e+00    7.398361e-01   9.724418e-03
  2.107670e+00    7.243549e-01   9.613422e-03
  2.109881e+00    7.219480e-01   9.588295e-03
  2.112091e+00    7.261860e-01   9.607416e-03
  2.114301e+00    7.180067e-01   9.544414e-03
  2.116512e+00    7.262486e-01   9.590223e-03
  2.118722e+00    7.012130e-01   9.414770e-03
  2.120933e+00    7.222388e-01   9.546013e-03
  2.123143e+00    7.273319e-01   9.570637e-03
  2.125354e+00    7.252228e-01   9.548213e-03
  2.127564e+00    7.011572e-01   9.379783e-03
  2.129775e+00    7.137600e-01   9.455010e-03
  2.131985e+00    7.003096e-01   9.356514e-03
  2.134196e+00    7.143757e-01   9.441431e-03
  2.136406e+00    7.027176e-01   9.355392e-03
  2.138617e+00    7.039119e-01   9.354916e-03
  2.140827e+00    6.862409e-01   9.252554e-03
  2.143037e+00    6.893471e-01   9.318358e-03
  2.145248e+00    6.925188e-01   9.361563e-03
  2.147458e+00    7.052143e-01   9.462144e-03
  2.149669e+00    7.053911e-01   9.475192e-03
  2.151879e+00    7.037221e-01   9.473216e-03
  2.154090e+00    6.907897e-01   9.393026e-03
  2.156300e+00    7.104158e-01   9.532162e-03
  2.158511e+00    7.064056e-01   9.510567e-03
  2.160721e+00    7.147931e-01   9.571739e-03
  2.162932e+00    7.140453e-01   9.570503e-03
  2.165142e+00    7.004493e-01   9.481980e-03
  2.167352e+00    6.850395e-01   9.380005e-03
  2.169563e+00    6.828707e-01   9.367064e-03
  2.171773e+00    6.818909e-01   9.362775e-03
  2.173984e+00    6.798640e-01   9.350233e-03
  2.176194e+00    6.924970e-01   9.437911e-03
  2.178405e+00    6.990841e-01   9.483390e-03
  2.180615e+00    6.949367e-01   9.455911e-03
  2.182826e+00    6.960245e-01   9.463984e-03
  2.185036e+00    6.882372e-01   9.410948e-03
  2.187247e+00    6.943971e-01   9.452916e-03
  2.189457e+00    6.866969e-01   9.399958e-03
  2.191667e+00    6.791986e-01   9.348313e-03
  2.193878e+00    6.867444e-01   9.399529e-03
  2.196088e+00    6.731817e-01   9.305582e-03
  2.198299e+00    6.738923e-01   9.309414e-03
  2.200509e+00    6.640683e-01   9.240243e-03
  2.202720e+00    6.923508e-01   9.433806e-03
  2.204930e+00    6.962439e-01   9.459060e-03
  2.207141e+00    6.741274e-01   9.306497e-03
  2.209351e+00    6.779736e-01   9.331125e-03
  2.211562e+00    6.861957e-01   9.385884e-03
  2.213772e+00    6.924031e-01   9.372157e-03
  2.215982e+00    6.888106e-01   9.303170e-03
  2.218193e+00    6.757904e-01   9.185192e-03
  2.220403e+00    6.755724e-01   9.159099e-03
  2.222614e+00    6.976472e-01   9.286232e-03
  2.224824e+00    6.863371e-01   9.191080e-03
  2.227035e+00    6.735540e-01   9.087654e-03
  2.229245e+00    6.620834e-01   8.993053e-03
  2.231456e+00    6.909943e-01   9.171482e-03
  2.233666e+00    6.836710e-01   9.107524e-03
  2.235877e+00    6.522838e-01   8.881933e-03
  2.238087e+00    6.534177e-01   8.876317e-03
  2.240298e+00    6.653608e-01   8.943370e-03
  2.242508e+00    6.531718e-01   8.846098e-03
  2.244718e+00    6.512086e-01   8.817208e-03
  2.246929e+00    6.734180e-01   8.951816e-03
  2.249139e+00    6.593077e-01   8.845240e-03
  2.251350e+00    6.732743e-01   8.926663e-03
  2.253560e+00    6.604631e-01   8.829840e-03
  2.255771e+00    6.618883e-01   8.827946e-03
  2.257981e+00    6.711305e-01   8.878167e-03
  2.260192e+00    6.620906e-01   8.807067e-03
  2.262402e+00    6.625448e-01   8.799255e-03
  2.264613e+00    6.656725e-01   8.809141e-03
  2.266823e+00    6.681406e-01   8.815034e-03
  2.269033e+00    6.642807e-01   8.779129e-03
  2.271244e+00    6.576388e-01   8.724784e-03
  2.273454e+00    6.616393e-01   8.741020e-03
  2.275665e+00    6.563416e-01   8.695702e-03
  2.277875e+00    6.659812e-01   8.749357e-03
  2.280086e+00    6.535411e-01   8.657266e-03
  2.282296e+00    6.460111e-01   8.597939e-03
  2.284507e+00    6.400707e-01   8.548326e-03
  2.286717e+00    6.535455e-01   8.628399e-03
  2.288928e+00    6.563399e-01   8.636957e-03
  2.291138e+00    6.611677e-01   8.659231e-03
  2.293348e+00    6.532387e-01   8.597615e-03
  2.295559e+00    6.528338e-01   8.585675e-03
  2.297769e+00    6.305355e-01   8.428681e-03
  2.299980e+00    6.512182e-01   8.556484e-03
  2.302190e+00    6.433195e-01   8.495376e-03
  2.304401e+00    6.479642e-01   8.516714e-03
  2.306611e+00    6.426615e-01   8.472648e-03
  2.308822e+00    6.373056e-01   8.428982e-03
  2.311032e+00    6.380486e-01   8.427493e-03
  2.313243e+00    6.463593e-01   8.475957e-03
  2.315453e+00    6.428828e-01   8.445590e-03
  2.317663e+00    6.458328e-01   8.455826e-03
  2.319874e+00    6.430556e-01   8.428923e-03
  2.322084e+00    6.438991e-01   8.425509e-03
  2.324295e+00    6.506900e-01   8.461554e-03
  2.326505e+00    6.492617e-01   8.443178e-03
  2.328716e+00    6.485953e-01   8.430256e-03
  2.330926e+00    6.498312e-01   8.429443e-03
  2.333137e+00    6.496853e-01   8.420085e-03
  2.335347e+00    6.270722e-01   8.263468e-03
  2.337558e+00    6.319753e-01   8.287542e-03
  2.339768e+00    6.363227e-01   8.307439e-03
  2.341979e+00    6.306332e-01   8.261917e-03
  2.344189e+00    6.304199e-01   8.252159e-03
  2.346399e+00    6.341904e-01   8.268316e-03
  2.348610e+00    6.335100e-01   8.255452e-03
  2.350820e+00    6.273856e-01   8.207312e-03
  2.353031e+00    6.443784e-01   8.309355e-03
  2.355241e+00    6.329909e-01   8.227571e-03
  2.357452e+00    6.318460e-01   8.211701e-03
  2.359662e+00    6.306304e-01   8.195573e-03
  2.361873e+00    6.448264e-01   8.279001e-03
  2.364083e+00    6.127644e-01   8.062651e-03
  2.366294e+00    6.136225e-01   8.060290e-03
  2.368504e+00    6.204180e-01   8.096746e-03
  2.370714e+00    6.260930e-01   8.125648e-03
  2.372925e+00    6.271417e-01   8.124393e-03
  2.375135e+00    6.242043e-01   8.097257e-03
  2.377346e+00    6.304191e-01   8.129499e-03
  2.379556e+00    6.338412e-01   8.143577e-03
  2.381767e+00    6.040429e-01   7.942085e-03
  2.383977e+00    6.222641e-01   8.053039e-03
  2.386188e+00    6.289331e-01   8.088101e-03
  2.388398e+00    6.107653e-01   7.962527e-03
  2.390609e+00    6.160264e-01   7.989021e-03
  2.392819e+00    6.152120e-01   7.975977e-03
  2.395029e+00    6.128281e-01   7.952862e-03
  2.397240e+00    6.155211e-01   7.962447e-03
  2.399450e+00    6.042507e-01   7.881451e-03
  2.401661e+00    6.114689e-01   7.920723e-03
  2.403871e+00    6.222345e-01   7.982308e-03
  2.406082e+00    6.073736e-01   7.879000e-03
  2.408292e+00    6.144258e-01   7.916784e-03
  2.410503e+00    6.068344e-01   7.860245e-03
  2.412713e+00    5.934679e-01   7.765485e-03
  2.414924e+00    5.908582e-01   7.741016e-03
  2.417134e+00    5.878244e-01   7.713567e-03
  2.419344e+00    5.991204e-01   7.779948e-03
  2.421555e+00    6.112817e-01   7.850952e-03
  2.423765e+00    6.065327e-01   7.812955e-03
  2.425976e+00    6.068913e-01   7.807408e-03
  2.428186e+00    6.041363e-01   7.782432e-03
  2.430397e+00    5.813100e-01   7.626602e-03
  2.432607e+00    5.867245e-01   7.654807e-03
  2.434818e+00    6.032166e-01   7.754053e-03
  2.437028e+00    6.103261e-01   7.792380e-03
  2.439239e+00    5.981876e-01   7.706820e-03
  2.441449e+00    5.891621e-01   7.641287e-03
  2.443659e+00    5.642223e-01   7.470601e-03
  2.445870e+00    5.798106e-01   7.585268e-03
  2.448080e+00    5.674205e-01   7.538100e-03
  2.450291e+00    5.750800e-01   7.605378e-03
  2.452501e+00    5.862136e-01   7.689929e-03
  2.454712e+00    5.734543e-01   7.614194e-03
  2.456922e+00    5.820737e-01   7.677897e-03
  2.459133e+00    5.725852e-01   7.620515e-03
  2.461343e+00    5.788445e-01   7.666450e-03
  2.463554e+00    5.618793e-01   7.556743e-03
  2.465764e+00    5.623683e-01   7.563141e-03
  2.467975e+00    5.690503e-01   7.610261e-03
  2.470185e+00    5.636346e-01   7.576219e-03
  2.472395e+00    5.549318e-01   7.518733e-03
  2.474606e+00    5.476376e-01   7.470699e-03
  2.476816e+00    5.439186e-01   7.446026e-03
  2.479027e+00    5.446296e-01   7.451713e-03
  2.481237e+00    5.399374e-01   7.419852e-03
  2.483448e+00    5.445091e-01   7.451488e-03
  2.485658e+00    5.305089e-01   7.354917e-03
  2.487869e+00    5.422625e-01   7.435983e-03
  2.490079e+00    5.459622e-01   7.460806e-03
  2.492290e+00    5.366682e-01   7.396576e-03
  2.494500e+00    5.338517e-01   7.376436e-03
  2.496710e+00    5.411934e-01   7.426254e-03
  2.498921e+00    5.379738e-01   7.403168e-03
  2.501131e+00    5.274459e-01   7.329409e-03
  2.503342e+00    5.269012e-01   7.324369e-03
  2.505552e+00    5.426602e-01   7.431953e-03
  2.507763e+00    5.186729e-01   7.264444e-03
  2.509973e+00    5.291090e-01   7.335766e-03
  2.512184e+00    5.283456e-01   7.328845e-03
  2.514394e+00    5.254524e-01   7.299413e-03
  2.516605e+00    5.323181e-01   7.299628e-03
  2.518815e+00    5.309677e-01   7.261885e-03
  2.521025e+00    5.467888e-01   7.347916e-03
  2.523236e+00    5.316702e-01   7.227540e-03
  2.525446e+00    5.297062e-01   7.198495e-03
  2.527657e+00    5.270184e-01   7.165592e-03
  2.529867e+00    5.326227e-01   7.189296e-03
  2.532078e+00    5.291848e-01   7.150971e-03
  2.534288e+00    5.224816e-01   7.091673e-03
  2.536499e+00    5.316048e-01   7.141313e-03
  2.538709e+00    5.333533e-01   7.141944e-03
  2.540920e+00    5.211194e-01   7.048956e-03
  2.543130e+00    5.221765e-01   7.045754e-03
  2.545340e+00    5.215219e-01   7.031291e-03
  2.547551e+00    5.338565e-01   7.103895e-03
  2.549761e+00    5.306687e-01   7.073020e-03
  2.551972e+00    5.254555e-01   7.028792e-03
  2.554182e+00    5.498265e-01   7.180518e-03
  2.556393e+00    5.199315e-01   6.973523e-03
  2.558603e+00    5.119807e-01   6.910963e-03
  2.560814e+00    5.269057e-01   7.002226e-03
  2.563024e+00    5.256572e-01   6.985287e-03
  2.565235e+00    5.245938e-01   6.968677e-03
  2.567445e+00    5.216773e-01   6.939676e-03
  2.569656e+00    5.221712e-01   6.933200e-03
  2.571866e+00    5.194700e-01   6.905859e-03
  2.574076e+00    5.208805e-01   6.905927e-03
  2.576287e+00    5.107682e-01   6.830287e-03
  2.578497e+00    5.035462e-01   6.774069e-03
  2.580708e+00    5.120706e-01   6.823107e-03
  2.582918e+00    5.130008e-01   6.821552e-03
  2.585129e+00    5.004039e-01   6.729653e-03
  2.587339e+00    4.986587e-01   6.710315e-03
  2.589550e+00    5.159307e-01   6.817984e-03
  2.591760e+00    5.079574e-01   6.757379e-03
  2.593971e+00    5.061109e-01   6.737616e-03
  2.596181e+00    5.027203e-01   6.708821e-03
  2.598391e+00    5.066569e-01   6.729885e-03
  2.600602e+00    5.096198e-01   6.743616e-03
  2.602812e+00    4.988773e-01   6.664702e-03
  2.605023e+00    5.129821e-01   6.751057e-03
  2.607233e+00    5.129636e-01   6.743776e-03
  2.609444e+00    5.083454e-01   6.706100e-03
  2.611654e+00    5.024301e-01   6.659689e-03
  2.613865e+00    5.166799e-01   6.746340e-03
  2.616075e+00    5.147819e-01   6.726773e-03
  2.618286e+00    4.984388e-01   6.612155e-03
  2.620496e+00    4.976681e-01   6.600420e-03
  2.622706e+00    4.972804e-01   6.592124e-03
  2.624917e+00    5.044046e-01   6.633337e-03
  2.627127e+00    4.942369e-01   6.560471e-03
  2.629338e+00    4.856826e-01   6.497564e-03
  2.631548e+00    4.991193e-01   6.580674e-03
  2.633759e+00    4.933304e-01   6.535338e-03
  2.635969e+00    5.120423e-01   6.651364e-03
  2.638180e+00    4.936198e-01   6.523682e-03
  2.640390e+00    5.122012e-01   6.638662e-03
  2.642601e+00    4.959201e-01   6.525673e-03
  2.644811e+00    5.033548e-01   6.567308e-03
  2.647021e+00    5.030692e-01   6.558858e-03
  2.649232e+00    4.973154e-01   6.514548e-03
  2.651442e+00    4.875220e-01   6.443646e-03
  2.653653e+00    4.993990e-01   6.514859e-03
  2.655863e+00    5.041417e-01   6.539017e-03
  2.658074e+00    4.956959e-01   6.477413e-03
  2.660284e+00    4.995568e-01   6.496218e-03
  2.662495e+00    4.961327e-01   6.467173e-03
  2.664705e+00    4.922930e-01   6.435561e-03
  2.666916e+00    4.972704e-01   6.461542e-03
  2.669126e+00    4.870303e-01   6.388277e-03
  2.671337e+00    4.916115e-01   6.411672e-03
  2.673547e+00    4.913310e-01   6.403512e-03
  2.675757e+00    4.724004e-01   6.272639e-03
  2.677968e+00    4.844297e-01   6.345517e-03
  2.680178e+00    4.884484e-01   6.365428e-03
  2.682389e+00    4.944706e-01   6.398152e-03
  2.684599e+00    4.876034e-01   6.347413e-03
  2.686810e+00    4.921890e-01   6.370577e-03
  2.689020e+00    5.008588e-01   6.420090e-03
  2.691231e+00    5.098417e-01   6.471000e-03
  2.693441e+00    4.949044e-01   6.369352e-03
  2.695652e+00    4.806125e-01   6.270238e-03
  2.697862e+00    4.836953e-01   6.284008e-03
  2.700072e+00    4.907584e-01   6.323652e-03
  2.702283e+00    4.885406e-01   6.303110e-03
  2.704493e+00    4.846448e-01   6.271698e-03
  2.706704e+00    4.791788e-01   6.229862e-03
  2.708914e+00    4.945369e-01   6.322919e-03
  2.711125e+00    4.844922e-01   6.252148e-03
  2.713335e+00    4.878803e-01   6.267881e-03
  2.715546e+00    4.917925e-01   6.286458e-03
  2.717756e+00    4.856522e-01   6.241221e-03
  2.719967e+00    4.820418e-01   6.211785e-03
  2.722177e+00    4.786778e-01   6.183996e-03
  2.724387e+00    4.813865e-01   6.195382e-03
  2.726598e+00    4.940985e-01   6.270532e-03
  2.728808e+00    4.944339e-01   6.266473e-03
  2.731019e+00    4.797856e-01   6.166845e-03
  2.733229e+00    4.716557e-01   6.108653e-03
  2.735440e+00    4.751764e-01   6.125184e-03
  2.737650e+00    4.804143e-01   6.152853e-03
  2.739861e+00    4.771040e-01   6.125605e-03
  2.742071e+00    4.782978e-01   6.127527e-03
  2.744282e+00    4.808578e-01   6.137685e-03
  2.746492e+00    4.794421e-01   6.122618e-03
  2.748702e+00    4.793021e-01   6.115836e-03
  2.750913e+00    4.879485e-01   6.164931e-03
  2.753123e+00    4.740206e-01   6.070241e-03
  2.755334e+00    4.734012e-01   6.060224e-03
  2.757544e+00    4.829235e-01   6.115142e-03
  2.759755e+00    4.639793e-01   5.988209e-03
  2.761965e+00    4.787571e-01   6.076845e-03
  2.764176e+00    4.793903e-01   6.074882e-03
  2.766386e+00    4.813252e-01   6.081333e-03
  2.768597e+00    4.680060e-01   5.990816e-03
  2.770807e+00    4.762135e-01   6.037248e-03
  2.773017e+00    4.765024e-01   6.033125e-03
  2.775228e+00    4.755859e-01   6.021570e-03
  2.777438e+00    4.615889e-01   5.926583e-03
  2.779649e+00    4.804410e-01   6.040481e-03
  2.781859e+00    4.739339e-01   5.993713e-03
  2.784070e+00    4.746607e-01   5.992452e-03
  2.786280e+00    4.850238e-01   6.051697e-03
  2.788491e+00    4.911862e-01   6.084104e-03
  2.790701e+00    4.902781e-01   6.072756e-03
  2.792912e+00    4.742130e-01   5.966482e-03
  2.795122e+00    4.646385e-01   5.900265e-03
  2.797333e+00    4.853648e-01   6.024814e-03
  2.799543e+00    4.662554e-01   5.899231e-03
  2.801753e+00    4.734082e-01   5.938446e-03
  2.803964e+00    4.688198e-01   5.903988e-03
  2.806174e+00    4.651909e-01   5.875000e-03
  2.808385e+00    4.824825e-01   5.976348e-03
  2.810595e+00    4.679249e-01   5.878681e-03
  2.812806e+00    4.738743e-01   5.909331e-03
  2.815016e+00    4.639279e-01   5.842292e-03
  2.817227e+00    4.713347e-01   5.914594e-03
  2.819437e+00    4.795262e-01   5.976920e-03
  2.821648e+00    4.771132e-01   5.964155e-03
  2.823858e+00    4.643872e-01   5.889385e-03
  2.826068e+00    4.612508e-01   5.874356e-03
  2.828279e+00    4.658780e-01   5.907776e-03
  2.830489e+00    4.616814e-01   5.884392e-03
  2.832700e+00    4.719761e-01   5.952203e-03
  2.834910e+00    4.647430e-01   5.908466e-03
  2.837121e+00    4.728283e-01   5.961344e-03
  2.839331e+00    4.820397e-01   6.020393e-03
  2.841542e+00    4.684030e-01   5.935633e-03
  2.843752e+00    4.610199e-01   5.889439e-03
  2.845963e+00    4.742265e-01   5.973598e-03
  2.848173e+00    4.648013e-01   5.914039e-03
  2.850383e+00    4.578361e-01   5.869839e-03
  2.852594e+00    4.688161e-01   5.939718e-03
  2.854804e+00    4.625438e-01   5.899355e-03
  2.857015e+00    4.747331e-01   5.976159e-03
  2.859225e+00    4.619685e-01   5.895005e-03
  2.861436e+00    4.695084e-01   5.942271e-03
  2.863646e+00    4.545906e-01   5.847141e-03
  2.865857e+00    4.716574e-01   5.956220e-03
  2.868067e+00    4.636707e-01   5.905815e-03
  2.870278e+00    4.477022e-01   5.802877e-03
  2.872488e+00    4.592086e-01   5.875806e-03
  2.874698e+00    4.696966e-01   5.941485e-03
  2.876909e+00    4.700802e-01   5.942577e-03
  2.879119e+00    4.686593e-01   5.931950e-03
  2.881330e+00    4.537130e-01   5.835142e-03
  2.883540e+00    4.549176e-01   5.841502e-03
  2.885751e+00    4.559227e-01   5.846329e-03
  2.887961e+00    4.638139e-01   5.894793e-03
  2.890172e+00    4.615377e-01   5.878730e-03
  2.892382e+00    4.563099e-01   5.843535e-03
  2.894593e+00    4.620712e-01   5.878496e-03
  2.896803e+00    4.636650e-01   5.886639e-03
  2.899014e+00    4.596880e-01   5.859430e-03
  2.901224e+00    4.592419e-01   5.854584e-03
  2.903434e+00    4.639740e-01   5.882731e-03
  2.905645e+00    4.647469e-01   5.885381e-03
  2.907855e+00    4.506550e-01   5.793402e-03
  2.910066e+00    4.626597e-01   5.867959e-03
  2.912276e+00    4.573389e-01   5.832016e-03
  2.914487e+00    4.566564e-01   5.825202e-03
  2.916697e+00    4.422367e-01   5.730315e-03
  2.918908e+00    4.412633e-01   5.722024e-03
  2.921118e+00    4.605462e-01   5.843018e-03
  2.923329e+00    4.510874e-01   5.780414e-03
  2.925539e+00    4.471732e-01   5.753018e-03
  2.927749e+00    4.486137e-01   5.759991e-03
  2.929960e+00    4.513580e-01   5.774818e-03
  2.932170e+00    4.613569e-01   5.836077e-03
  2.934381e+00    4.766562e-01   5.929574e-03
  2.936591e+00    4.681056e-01   5.873557e-03
  2.938802e+00    4.587242e-01   5.811672e-03
  2.941012e+00    4.518026e-01   5.765331e-03
  2.943223e+00    4.679355e-01   5.864632e-03
  2.945433e+00    4.534476e-01   5.769415e-03
  2.947644e+00    4.526018e-01   5.759893e-03
  2.949854e+00    4.440175e-01   5.700807e-03
  2.952064e+00    4.472219e-01   5.717132e-03
  2.954275e+00    4.501433e-01   5.731418e-03
  2.956485e+00    4.501152e-01   5.727050e-03
  2.958696e+00    4.343835e-01   5.621818e-03
  2.960906e+00    4.508867e-01   5.723442e-03
  2.963117e+00    4.526517e-01   5.730154e-03
  2.965327e+00    4.555863e-01   5.744814e-03
  2.967538e+00    4.526064e-01   5.723068e-03
  2.969748e+00    4.630561e-01   5.785922e-03
  2.971959e+00    4.550936e-01   5.732826e-03
  2.974169e+00    4.491221e-01   5.692516e-03
  2.976379e+00    4.593208e-01   5.753852e-03
  2.978590e+00    4.634356e-01   5.776403e-03
  2.980800e+00    4.448794e-01   5.656815e-03
  2.983011e+00    4.596357e-01   5.747029e-03
  2.985221e+00    4.586053e-01   5.737438e-03
  2.987432e+00    4.523848e-01   5.695275e-03
  2.989642e+00    4.652530e-01   5.773046e-03
  2.991853e+00    4.501277e-01   5.675185e-03
  2.994063e+00    4.464691e-01   5.649172e-03
  2.996274e+00    4.584960e-01   5.721557e-03
  2.998484e+00    4.595158e-01   5.725213e-03
  3.000694e+00    4.588239e-01   5.717413e-03
  3.002905e+00    4.513839e-01   5.667950e-03
  3.005115e+00    4.550750e-01   5.688081e-03
  3.007326e+00    4.560465e-01   5.690985e-03
  3.009536e+00    4.609803e-01   5.718405e-03
  3.011747e+00    4.669955e-01   5.752651e-03
  3.013957e+00    4.569802e-01   5.687421e-03
  3.016168e+00    4.525842e-01   5.656746e-03
  3.018378e+00    4.576999e-01   5.685563e-03
  3.020589e+00    4.642424e-01   5.722806e-03
  3.022799e+00    4.540733e-01   5.656629e-03
  3.025010e+00    4.474237e-01   5.611819e-03
  3.027220e+00    4.393036e-01   5.557600e-03
  3.029430e+00    4.504498e-01   5.624425e-03
  3.031641e+00    4.459051e-01   5.592858e-03
  3.033851e+00    4.521388e-01   5.628304e-03
  3.036062e+00    4.603786e-01   5.676545e-03
  3.038272e+00    4.588364e-01   5.663435e-03
  3.040483e+00    4.496154e-01   5.603017e-03
  3.042693e+00    4.487064e-01   5.594099e-03
  3.044904e+00    4.315972e-01   5.482484e-03
  3.047114e+00    4.442546e-01   5.557499e-03
  3.049325e+00    4.520343e-01   5.601565e-03
  3.051535e+00    4.389712e-01   5.515691e-03
  3.053745e+00    4.427316e-01   5.534565e-03
  3.055956e+00    4.354621e-01   5.484437e-03
  3.058166e+00    4.518002e-01   5.582113e-03
  3.060377e+00    4.375280e-01   5.488528e-03
  3.062587e+00    4.396829e-01   5.497453e-03
  3.064798e+00    4.475586e-01   5.542231e-03
  3.067008e+00    4.440265e-01   5.515619e-03
  3.069219e+00    4.422072e-01   5.499836e-03
  3.071429e+00    4.391811e-01   5.477518e-03
  3.073640e+00    4.410113e-01   5.485600e-03
  3.075850e+00    4.468640e-01   5.518322e-03
  3.078060e+00    4.347839e-01   5.440170e-03
  3.080271e+00    4.345046e-01   5.434984e-03
  3.082481e+00    4.515239e-01   5.536960e-03
  3.084692e+00    4.480703e-01   5.512375e-03
  3.086902e+00    4.373907e-01   5.443078e-03
  3.089113e+00    4.420433e-01   5.468390e-03
  3.091323e+00    4.555766e-01   5.548075e-03
  3.093534e+00    4.411596e-01   5.456241e-03
  3.095744e+00    4.551621e-01   5.538732e-03
  3.097955e+00    4.486158e-01   5.495236e-03
  3.100165e+00    4.454139e-01   5.472244e-03
  3.102375e+00    4.452240e-01   5.467676e-03
  3.104586e+00    4.492562e-01   5.488867e-03
  3.106796e+00    4.409011e-01   5.434096e-03
  3.109007e+00    4.523776e-01   5.501117e-03
  3.111217e+00    4.491231e-01   5.477602e-03
  3.113428e+00    4.483711e-01   5.469576e-03
  3.115638e+00    4.393778e-01   5.411242e-03
  3.117849e+00    4.598134e-01   5.531838e-03
  3.120059e+00    4.670912e-01   5.571942e-03
  3.122270e+00    4.408748e-01   5.410062e-03
  3.124480e+00    4.253914e-01   5.310602e-03
  3.126691e+00    4.465926e-01   5.437751e-03
  3.128901e+00    4.491607e-01   5.450225e-03
  3.131111e+00    4.538661e-01   5.474830e-03
  3.133322e+00    4.491185e-01   5.442656e-03
  3.135532e+00    4.460897e-01   5.420853e-03
  3.137743e+00    4.543255e-01   5.467156e-03
  3.139953e+00    4.375134e-01   5.361399e-03
  3.142164e+00    4.315940e-01   5.336847e-03
  3.144374e+00    4.370770e-01   5.398884e-03
  3.146585e+00    4.383454e-01   5.421198e-03
  3.148795e+00    4.392610e-01   5.437607e-03
  3.151006e+00    4.385950e-01   5.441993e-03
  3.153216e+00    4.369325e-01   5.438768e-03
  3.155426e+00    4.314427e-01   5.410741e-03
  3.157637e+00    4.265622e-01   5.385467e-03
  3.159847e+00    4.263402e-01   5.388875e-03
  3.162058e+00    4.370113e-01   5.460306e-03
  3.164268e+00    4.386030e-01   5.474307e-03
  3.166479e+00    4.352273e-01   5.456822e-03
  3.168689e+00    4.351152e-01   5.459473e-03
  3.170900e+00    4.342988e-01   5.457507e-03
  3.173110e+00    4.342263e-01   5.459899e-03
  3.175321e+00    4.337524e-01   5.459419e-03
  3.177531e+00    4.356151e-01   5.473841e-03
  3.179741e+00    4.404649e-01   5.506304e-03
  3.181952e+00    4.523972e-01   5.582543e-03
  3.184162e+00    4.433075e-01   5.528388e-03
  3.186373e+00    4.376772e-01   5.494775e-03
  3.188583e+00    4.288157e-01   5.440615e-03
  3.190794e+00    4.354151e-01   5.484085e-03
  3.193004e+00    4.385380e-01   5.504958e-03
  3.195215e+00    4.261400e-01   5.428076e-03
  3.197425e+00    4.217906e-01   5.401492e-03
  3.199636e+00    4.251228e-01   5.422021e-03
  3.201846e+00    4.381160e-01   5.503644e-03
  3.204056e+00    4.399332e-01   5.515956e-03
  3.206267e+00    4.287421e-01   5.446190e-03
  3.208477e+00    4.252136e-01   5.424636e-03
  3.210688e+00    4.337581e-01   5.479706e-03
  3.212898e+00    4.313324e-01   5.464956e-03
  3.215109e+00    4.388142e-01   5.512883e-03
  3.217319e+00    4.328074e-01   5.475692e-03
  3.219530e+00    4.286118e-01   5.449453e-03
  3.221740e+00    4.331856e-01   5.479015e-03
  3.223951e+00    4.339699e-01   5.484457e-03
  3.226161e+00    4.354183e-01   5.493780e-03
  3.228372e+00    4.396754e-01   5.521126e-03
  3.230582e+00    4.169449e-01   5.376634e-03
  3.232792e+00    4.343795e-01   5.488118e-03
  3.235003e+00    4.504179e-01   5.588773e-03
  3.237213e+00    4.324578e-01   5.476335e-03
  3.239424e+00    4.271287e-01   5.442473e-03
  3.241634e+00    4.261126e-01   5.436125e-03
  3.243845e+00    4.396228e-01   5.521692e-03
  3.246055e+00    4.325159e-01   5.476624e-03
  3.248266e+00    4.389344e-01   5.517293e-03
  3.250476e+00    4.290603e-01   5.454601e-03
  3.252687e+00    4.276078e-01   5.445271e-03
  3.254897e+00    4.239260e-01   5.421651e-03
  3.257107e+00    4.176712e-01   5.381193e-03
  3.259318e+00    4.278397e-01   5.446076e-03
  3.261528e+00    4.383425e-01   5.512373e-03
  3.263739e+00    4.333898e-01   5.480597e-03
  3.265949e+00    4.261225e-01   5.434309e-03
  3.268160e+00    4.237938e-01   5.419028e-03
  3.270370e+00    4.236501e-01   5.417603e-03
  3.272581e+00    4.370616e-01   5.502408e-03
  3.274791e+00    4.268057e-01   5.436943e-03
  3.277002e+00    4.187061e-01   5.384526e-03
  3.279212e+00    4.329312e-01   5.474865e-03
  3.281422e+00    4.163969e-01   5.368735e-03
  3.283633e+00    4.314610e-01   5.464277e-03
  3.285843e+00    4.293570e-01   5.450614e-03
  3.288054e+00    4.264328e-01   5.431082e-03
  3.290264e+00    4.417432e-01   5.527379e-03
  3.292475e+00    4.317778e-01   5.463862e-03
  3.294685e+00    4.278652e-01   5.438401e-03
  3.296896e+00    4.248444e-01   5.418408e-03
  3.299106e+00    4.255529e-01   5.422371e-03
  3.301317e+00    4.129330e-01   5.340360e-03
  3.303527e+00    4.231579e-01   5.405583e-03
  3.305737e+00    4.290318e-01   5.441937e-03
  3.307948e+00    4.252546e-01   5.417249e-03
  3.310158e+00    4.289512e-01   5.439900e-03
  3.312369e+00    4.285167e-01   5.436250e-03
  3.314579e+00    4.170184e-01   5.361911e-03
  3.316790e+00    4.255398e-01   5.415702e-03
  3.319000e+00    4.070789e-01   5.295789e-03
  3.321211e+00    4.085125e-01   5.304482e-03
  3.323421e+00    4.060703e-01   5.287418e-03
  3.325632e+00    4.175833e-01   5.360977e-03
  3.327842e+00    4.321915e-01   5.453014e-03
  3.330052e+00    4.307227e-01   5.442669e-03
  3.332263e+00    4.187558e-01   5.365508e-03
  3.334473e+00    4.266097e-01   5.414677e-03
  3.336684e+00    4.196074e-01   5.368786e-03
  3.338894e+00    4.310504e-01   5.440656e-03
  3.341105e+00    4.044113e-01   5.268685e-03
  3.343315e+00    4.154503e-01   5.338949e-03
  3.345526e+00    4.263786e-01   5.407819e-03
  3.347736e+00    4.206583e-01   5.370003e-03
  3.349947e+00    4.272168e-01   5.410780e-03
  3.352157e+00    4.126974e-01   5.316869e-03
  3.354368e+00    4.040050e-01   5.259322e-03
  3.356578e+00    4.126488e-01   5.314241e-03
  3.358788e+00    4.160358e-01   5.334700e-03
  3.360999e+00    4.158586e-01   5.332337e-03
  3.363209e+00    4.010367e-01   5.235436e-03
  3.365420e+00    4.158088e-01   5.329461e-03
  3.367630e+00    4.219642e-01   5.367758e-03
  3.369841e+00    4.188233e-01   5.346317e-03
  3.372051e+00    4.215442e-01   5.361671e-03
  3.374262e+00    3.998176e-01   5.219271e-03
  3.376472e+00    4.104062e-01   5.285511e-03
  3.378683e+00    4.222941e-01   5.358982e-03
  3.380893e+00    4.151930e-01   5.311399e-03
  3.383103e+00    4.162510e-01   5.315458e-03
  3.385314e+00    4.267932e-01   5.380092e-03
  3.387524e+00    4.191169e-01   5.328741e-03
  3.389735e+00    4.124119e-01   5.283338e-03
  3.391945e+00    4.050591e-01   5.232356e-03
  3.394156e+00    4.185741e-01   5.314697e-03
  3.396366e+00    4.170751e-01   5.301742e-03
  3.398577e+00    4.200971e-01   5.317841e-03
  3.400787e+00    4.060716e-01   5.240167e-03
  3.402998e+00    4.055763e-01   5.274807e-03
  3.405208e+00    4.101897e-01   5.325504e-03
  3.407418e+00    4.039083e-01   5.300431e-03
  3.409629e+00    3.887288e-01   5.213616e-03
  3.411839e+00    3.820479e-01   5.180141e-03
  3.414050e+00    3.810591e-01   5.184185e-03
  3.416260e+00    3.850416e-01   5.220734e-03
  3.418471e+00    3.957691e-01   5.302418e-03
  3.420681e+00    3.803117e-01   5.206200e-03
  3.422892e+00    3.735395e-01   5.167459e-03
  3.425102e+00    3.786764e-01   5.210559e-03
  3.427313e+00    3.665847e-01   5.133707e-03
  3.429523e+00    3.628800e-01   5.114506e-03
  3.431733e+00    3.778684e-01   5.225683e-03
  3.433944e+00    3.812611e-01   5.255508e-03
  3.436154e+00    3.838007e-01   5.279266e-03
  3.438365e+00    3.690079e-01   5.182349e-03
  3.440575e+00    3.756599e-01   5.234751e-03
  3.442786e+00    3.679172e-01   5.186027e-03
  3.444996e+00    3.725834e-01   5.224284e-03
  3.447207e+00    3.692094e-01   5.205832e-03
  3.449417e+00    3.662095e-01   5.225158e-03
  3.451628e+00    3.683677e-01   5.269945e-03
  3.453838e+00    3.602191e-01   5.232305e-03
  3.456049e+00    3.627345e-01   5.274264e-03
  3.458259e+00    3.784036e-01   5.409288e-03
  3.460469e+00    3.783781e-01   5.429215e-03
  3.462680e+00    3.751892e-01   5.425591e-03
  3.464890e+00    3.554328e-01   5.298315e-03
  3.467101e+00    3.749484e-01   5.459490e-03
  3.469311e+00    3.735822e-01   5.466138e-03
  3.471522e+00    3.826285e-01   5.548499e-03
  3.473732e+00    3.990158e-01   5.682424e-03
  3.475943e+00    3.941148e-01   5.663368e-03
  3.478153e+00    4.025691e-01   5.739520e-03
  3.480364e+00    4.147051e-01   5.840939e-03
  3.482574e+00    4.179460e-01   5.879328e-03
  3.484784e+00    4.245284e-01   5.940574e-03
  3.486995e+00    4.104195e-01   5.856020e-03
  3.489205e+00    4.296551e-01   6.006441e-03
  3.491416e+00    4.421451e-01   6.108306e-03
  3.493626e+00    4.427297e-01   6.127073e-03
  3.495837e+00    4.432138e-01   6.145213e-03
  3.498047e+00    4.596343e-01   6.272739e-03
  3.500258e+00    4.619762e-01   6.303459e-03
  3.502468e+00    4.645796e-01   6.335780e-03
  3.504679e+00    4.405220e-01   6.183716e-03
  3.506889e+00    4.647602e-01   6.365974e-03
  3.509099e+00    4.729208e-01   6.436002e-03
  3.511310e+00    4.799451e-01   6.498162e-03
  3.513520e+00    4.817994e-01   6.525103e-03
  3.515731e+00    5.037434e-01   6.686661e-03
  3.517941e+00    5.129350e-01   6.762106e-03
  3.520152e+00    5.117801e-01   6.769058e-03
  3.522362e+00    5.249289e-01   6.870277e-03
  3.524573e+00    5.101408e-01   6.787170e-03
  3.526783e+00    5.101206e-01   6.800367e-03
  3.528994e+00    5.316336e-01   6.954696e-03
  3.531204e+00    5.217153e-01   6.901972e-03
  3.533414e+00    5.266461e-01   6.946612e-03
  3.535625e+00    5.378246e-01   7.032409e-03
  3.537835e+00    5.534346e-01   7.146111e-03
  3.540046e+00    5.272824e-01   6.984098e-03
  3.542256e+00    5.354962e-01   7.045791e-03
  3.544467e+00    5.382158e-01   7.071315e-03
  3.546677e+00    5.264779e-01   7.001290e-03
  3.548888e+00    5.351716e-01   7.066327e-03
  3.551098e+00    5.369083e-01   7.085107e-03
  3.553309e+00    5.241759e-01   7.008651e-03
  3.555519e+00    5.346537e-01   7.089640e-03
  3.557729e+00    5.298778e-01   7.069557e-03
  3.559940e+00    5.410897e-01   7.155566e-03
  3.562150e+00    5.344928e-01   7.123512e-03
  3.564361e+00    5.370104e-01   7.153582e-03
  3.566571e+00    5.357430e-01   7.158990e-03
  3.568782e+00    5.266013e-01   7.111602e-03
  3.570992e+00    5.623568e-01   7.363175e-03
  3.573203e+00    5.513945e-01   7.305425e-03
  3.575413e+00    5.342613e-01   7.204763e-03
  3.577624e+00    5.498121e-01   7.323186e-03
  3.579834e+00    5.162023e-01   7.109445e-03
  3.582045e+00    5.304514e-01   7.220834e-03
  3.584255e+00    5.407120e-01   7.304485e-03
  3.586465e+00    5.420793e-01   7.327705e-03
  3.588676e+00    5.397254e-01   7.326029e-03
  3.590886e+00    5.371964e-01   7.322575e-03
  3.593097e+00    5.363672e-01   7.331409e-03
  3.595307e+00    5.359574e-01   7.342551e-03
  3.597518e+00    5.280786e-01   7.302515e-03
  3.599728e+00    5.323640e-01   7.346103e-03
  3.601939e+00    5.363221e-01   7.387494e-03
  3.604149e+00    5.457275e-01   7.466454e-03
  3.606360e+00    5.560856e-01   7.551447e-03
  3.608570e+00    5.479234e-01   7.510148e-03
  3.610780e+00    5.209687e-01   7.333985e-03
  3.612991e+00    5.500450e-01   7.546033e-03
  3.615201e+00    5.498090e-01   7.554343e-03
  3.617412e+00    5.427610e-01   7.513106e-03
  3.619622e+00    5.236186e-01   7.385293e-03
  3.621833e+00    5.363215e-01   7.481108e-03
  3.624043e+00    5.211058e-01   7.383582e-03
  3.626254e+00    5.385976e-01   7.516200e-03
  3.628464e+00    5.464836e-01   7.582157e-03
  3.630675e+00    5.379283e-01   7.536739e-03
  3.632885e+00    5.304045e-01   7.498248e-03
  3.635095e+00    5.393202e-01   7.575487e-03
  3.637306e+00    5.343986e-01   7.555211e-03
  3.639516e+00    5.406730e-01   7.614057e-03
  3.641727e+00    5.463332e-01   7.668571e-03
  3.643937e+00    5.365883e-01   7.614476e-03
  3.646148e+00    5.324979e-01   7.599965e-03
  3.648358e+00    5.229078e-01   7.545963e-03
  3.650569e+00    5.267920e-01   7.588560e-03
  3.652779e+00    5.293766e-01   7.621899e-03
  3.654990e+00    5.395004e-01   7.709406e-03
  3.657200e+00    5.335764e-01   7.681894e-03
  3.659410e+00    5.468403e-01   7.791939e-03
  3.661621e+00    5.255632e-01   7.653893e-03
  3.663831e+00    5.103536e-01   7.557117e-03
  3.666042e+00    5.429531e-01   7.810029e-03
  3.668252e+00    5.468488e-01   7.853510e-03
  3.670463e+00    5.450470e-01   7.855991e-03
  3.672673e+00    5.226345e-01   7.708072e-03
  3.674884e+00    4.992813e-01   7.548836e-03
  3.677094e+00    5.063302e-01   7.617067e-03
  3.679305e+00    5.400883e-01   7.882582e-03
  3.681515e+00    5.268140e-01   7.800713e-03
  3.683726e+00    5.194504e-01   7.761637e-03
  3.685936e+00    5.414650e-01   7.940282e-03
  3.688146e+00    5.387272e-01   7.936144e-03
  3.690357e+00    5.426652e-01   7.981223e-03
  3.692567e+00    5.191454e-01   7.822399e-03
  3.694778e+00    5.404381e-01   7.997424e-03
  3.696988e+00    5.117631e-01   7.798190e-03
  3.699199e+00    5.099412e-01   7.800255e-03
  3.701409e+00    5.226761e-01   7.913384e-03
  3.703620e+00    5.251079e-01   7.948074e-03
  3.705830e+00    5.368821e-01   8.053293e-03
  3.708041e+00    5.202630e-01   7.944241e-03
  3.710251e+00    4.977823e-01   7.786983e-03
  3.712461e+00    5.134511e-01   7.925151e-03
  3.714672e+00    5.201872e-01   7.993672e-03
  3.716882e+00    5.219025e-01   8.023595e-03
  3.719093e+00    5.220423e-01   8.041857e-03
  3.721303e+00    4.985588e-01   7.875484e-03
  3.723514e+00    5.182835e-01   8.047001e-03
  3.725724e+00    5.069627e-01   7.975622e-03
  3.727935e+00    5.086314e-01   8.006035e-03
  3.730145e+00    4.996173e-01   7.951792e-03
  3.732356e+00    5.267718e-01   8.182733e-03
  3.734566e+00    5.088747e-01   8.059994e-03
  3.736776e+00    5.104020e-01   8.089724e-03
  3.738987e+00    5.179518e-01   8.167170e-03
  3.741197e+00    5.090073e-01   8.114260e-03
  3.743408e+00    5.055988e-01   8.104955e-03
  3.745618e+00    5.060835e-01   8.127041e-03
  3.747829e+00    5.100488e-01   8.176877e-03
  3.750039e+00    4.957570e-01   8.079613e-03
  3.752250e+00    4.929176e-01   8.074580e-03
  3.754460e+00    5.043521e-01   8.186073e-03
  3.756671e+00    5.234277e-01   8.358578e-03
  3.758881e+00    5.043004e-01   8.222962e-03
  3.761091e+00    5.145615e-01   8.325452e-03
  3.763302e+00    5.090277e-01   8.299691e-03
  3.765512e+00    5.027363e-01   8.267353e-03
  3.767723e+00    5.259778e-01   8.475984e-03
  3.769933e+00    5.176321e-01   8.428120e-03
  3.772144e+00    4.782687e-01   8.120278e-03
  3.774354e+00    5.038297e-01   8.354255e-03
  3.776565e+00    5.144442e-01   8.461867e-03
  3.778775e+00    5.010239e-01   8.370626e-03
  3.780986e+00    5.178544e-01   8.530646e-03
  3.783196e+00    5.203757e-01   8.571995e-03
  3.785407e+00    4.878885e-01   8.320211e-03
  3.787617e+00    4.972569e-01   8.420317e-03
  3.789827e+00    4.879964e-01   8.361866e-03
  3.792038e+00    4.943878e-01   8.437010e-03
  3.794248e+00    5.226099e-01   8.696167e-03
  3.796459e+00    4.965685e-01   8.497960e-03
  3.798669e+00    5.032129e-01   8.576040e-03
  3.800880e+00    5.243183e-01   8.776029e-03
  3.803090e+00    5.022213e-01   8.610988e-03
  3.805301e+00    4.876871e-01   8.507241e-03
  3.807511e+00    4.918247e-01   8.565096e-03
  3.809722e+00    5.152917e-01   8.789612e-03
  3.811932e+00    4.863587e-01   8.561187e-03
  3.814142e+00    5.231240e-01   8.902340e-03
  3.816353e+00    4.832982e-01   8.579265e-03
  3.818563e+00    4.907715e-01   8.668208e-03
  3.820774e+00    4.767543e-01   8.566213e-03
  3.822984e+00    4.999408e-01   8.795392e-03
  3.825195e+00    5.171924e-01   8.970086e-03
  3.827405e+00    5.149523e-01   8.974939e-03
  3.829616e+00    5.038087e-01   8.901531e-03
  3.831826e+00    5.066360e-01   8.950836e-03
  3.834037e+00    5.179100e-01   9.074917e-03
  3.836247e+00    4.982010e-01   8.925294e-03
  3.838457e+00    4.902641e-01   8.878775e-03
  3.840668e+00    4.927395e-01   8.926229e-03
  3.842878e+00    4.934976e-01   8.958573e-03
  3.845089e+00    5.120547e-01   9.151442e-03
  3.847299e+00    5.027499e-01   9.093960e-03
  3.849510e+00    4.657874e-01   8.778269e-03
  3.851720e+00    4.888570e-01   9.014299e-03
  3.853931e+00    4.884295e-01   9.029313e-03
  3.856141e+00    4.829173e-01   8.996945e-03
  3.858352e+00    4.859229e-01   9.044016e-03
  3.860562e+00    4.870318e-01   9.073438e-03
  3.862772e+00    4.899177e-01   9.119836e-03
  3.864983e+00    4.889241e-01   9.130158e-03
  3.867193e+00    4.980714e-01   9.235035e-03
  3.869404e+00    4.805990e-01   9.091134e-03
  3.871614e+00    4.853434e-01   9.155738e-03
  3.873825e+00    4.975542e-01   9.290579e-03
  3.876035e+00    5.071278e-01   9.400414e-03
  3.878246e+00    4.978801e-01   9.340259e-03
  3.880456e+00    4.790086e-01   9.190108e-03
  3.882667e+00    4.797008e-01   9.225680e-03
  3.884877e+00    4.888491e-01   9.342888e-03
  3.887087e+00    4.998895e-01   9.478022e-03
  3.889298e+00    4.910403e-01   9.424116e-03
  3.891508e+00    4.951336e-01   9.493962e-03
  3.893719e+00    4.954040e-01   9.527681e-03
  3.895929e+00    5.172989e-01   9.768193e-03
  3.898140e+00    5.125635e-01   9.755887e-03
  3.900350e+00    5.088813e-01   9.753447e-03
  3.902561e+00    4.823824e-01   9.528243e-03
  3.904771e+00    4.858558e-01   9.595092e-03
  3.906982e+00    4.884467e-01   9.653840e-03
  3.909192e+00    4.786918e-01   9.589996e-03
  3.911403e+00    4.749435e-01   9.586024e-03
  3.913613e+00    4.742847e-01   9.613007e-03
  3.915823e+00    5.127717e-01   1.003108e-02
  3.918034e+00    5.288177e-01   1.022363e-02
  3.920244e+00    4.921841e-01   9.899014e-03
  3.922455e+00    4.660334e-01   9.667690e-03
  3.924665e+00    4.847586e-01   9.896232e-03
  3.926876e+00    5.134742e-01   1.022321e-02
  3.929086e+00    4.885523e-01   1.000950e-02
  3.931297e+00    5.019193e-01   1.018077e-02
  3.933507e+00    4.830522e-01   1.001638e-02
  3.935718e+00    5.117210e-01   1.033884e-02
  3.937928e+00    4.920062e-01   1.016726e-02
  3.940138e+00    4.926078e-01   1.020303e-02
  3.942349e+00    4.826790e-01   1.012936e-02
  3.944559e+00    4.739544e-01   1.006700e-02
  3.946770e+00    4.836106e-01   1.019909e-02
  3.948980e+00    4.924231e-01   1.032256e-02
  3.951191e+00    4.759666e-01   1.017905e-02
  3.953401e+00    4.856583e-01   1.031352e-02
  3.955612e+00    4.839557e-01   1.032702e-02
  3.957822e+00    4.864355e-01   1.038512e-02
  3.960033e+00    5.028453e-01   1.059204e-02
  3.962243e+00    4.871456e-01   1.045827e-02
  3.964453e+00    4.747941e-01   1.035752e-02
  3.966664e+00    4.877177e-01   1.053107e-02
  3.968874e+00    4.718271e-01   1.038600e-02
  3.971085e+00    5.084333e-01   1.080381e-02
  3.973295e+00    4.798127e-01   1.051685e-02
  3.975506e+00    4.750459e-01   1.048566e-02
  3.977716e+00    4.728757e-01   1.048352e-02
  3.979927e+00    4.776818e-01   1.055844e-02
  3.982137e+00    4.814719e-01   1.062256e-02
  3.984348e+00    4.774733e-01   1.060079e-02
  3.986558e+00    4.602584e-01   1.042955e-02
  3.988768e+00    4.727593e-01   1.059301e-02
  3.990979e+00    4.640743e-01   1.051753e-02
  3.993189e+00    4.668391e-01   1.057138e-02
  3.995400e+00    4.853386e-01   1.080244e-02
  3.997610e+00    4.773433e-01   1.074256e-02
  3.999821e+00    4.903910e-01   1.092619e-02
  4.002031e+00    4.843728e-01   1.089734e-02
  4.004242e+00    4.854932e-01   1.094843e-02
  4.006452e+00    5.005854e-01   1.115731e-02
  4.008663e+00    4.791655e-01   1.095575e-02
  4.010873e+00    4.773100e-01   1.097430e-02
  4.013084e+00    4.754026e-01   1.099271e-02
  4.015294e+00    5.021821e-01   1.133996e-02
  4.017504e+00    4.494101e-01   1.076789e-02
  4.019715e+00    4.978029e-01   1.137575e-02
  4.021925e+00    5.194102e-01   1.166474e-02
  4.024136e+00    4.914936e-01   1.139086e-02
  4.026346e+00    4.942317e-01   1.146724e-02
  4.028557e+00    4.755879e-01   1.129272e-02
  4.030767e+00    5.118450e-01   1.176225e-02
  4.032978e+00    5.076372e-01   1.176121e-02
  4.035188e+00    5.310791e-01   1.207813e-02
  4.037399e+00    4.731987e-01   1.144810e-02
  4.039609e+00    4.738740e-01   1.150348e-02
  4.041819e+00    4.490877e-01   1.124557e-02
  4.044030e+00    4.708889e-01   1.156451e-02
  4.046240e+00    5.156969e-01   1.215372e-02
  4.048451e+00    5.177685e-01   1.223093e-02
  4.050661e+00    4.984629e-01   1.205298e-02
  4.052872e+00    4.727556e-01   1.179030e-02
  4.055082e+00    4.794754e-01   1.192705e-02
  4.057293e+00    5.024322e-01   1.226411e-02
  4.059503e+00    4.862576e-01   1.211995e-02
  4.061714e+00    4.925906e-01   1.225573e-02
  4.063924e+00    4.756099e-01   1.209900e-02
  4.066134e+00    5.051236e-01   1.252749e-02
  4.068345e+00    4.925454e-01   1.243017e-02
  4.070555e+00    4.737483e-01   1.224943e-02
  4.072766e+00    4.974782e-01   1.261432e-02
  4.074976e+00    4.483933e-01   1.203558e-02
  4.077187e+00    4.574054e-01   1.221628e-02
  4.079397e+00    5.034828e-01   1.288223e-02
  4.081608e+00    5.278044e-01   1.325837e-02
  4.083818e+00    5.004669e-01   1.297772e-02
  4.086029e+00    4.813360e-01   1.279425e-02
  4.088239e+00    4.632513e-01   1.261924e-02
  4.090449e+00    5.036623e-01   1.322942e-02
  4.092660e+00    4.979502e-01   1.322662e-02
  4.094870e+00    4.560097e-01   1.272779e-02
  4.097081e+00    4.337916e-01   1.248182e-02
  4.099291e+00    4.412960e-01   1.264131e-02
  4.101502e+00    4.887424e-01   1.335317e-02
  4.103712e+00    5.317161e-01   1.397988e-02
  4.105923e+00    4.773508e-01   1.329715e-02
  4.108133e+00    4.881042e-01   1.349792e-02
  4.110344e+00    4.668952e-01   1.325193e-02
  4.112554e+00    4.994024e-01   1.375955e-02
  4.114764e+00    5.403451e-01   1.437012e-02
  4.116975e+00    5.356097e-01   1.436337e-02
  4.119185e+00    4.789361e-01   1.363743e-02
  4.121396e+00    4.526728e-01   1.331297e-02
  4.123606e+00    4.865513e-01   1.385864e-02
  4.125817e+00    4.511919e-01   1.340177e-02
  4.128027e+00    4.577698e-01   1.355565e-02
  4.130238e+00    4.520279e-01   1.352830e-02
  4.132448e+00    5.208327e-01   1.458434e-02
  4.134659e+00    5.104986e-01   1.450123e-02
  4.136869e+00    4.644670e-01   1.389359e-02
  4.139080e+00    4.939768e-01   1.439277e-02
  4.141290e+00    5.088134e-01   1.467193e-02
  4.143500e+00    4.912858e-01   1.448358e-02
  4.145711e+00    5.033406e-01   1.472869e-02
  4.147921e+00    5.552101e-01   1.553972e-02
  4.150132e+00    5.191496e-01   1.509865e-02
  4.152342e+00    4.404123e-01   1.397401e-02
  4.154553e+00    4.468121e-01   1.414196e-02
  4.156763e+00    4.724241e-01   1.461352e-02
  4.158974e+00    5.082091e-01   1.523304e-02
  4.161184e+00    4.707088e-01   1.473302e-02
  4.163395e+00    5.100448e-01   1.541471e-02
  4.165605e+00    4.610704e-01   1.473225e-02
  4.167815e+00    4.478259e-01   1.459468e-02
  4.170026e+00    4.840554e-01   1.525347e-02
  4.172236e+00    4.888397e-01   1.541166e-02
  4.174447e+00    5.195569e-01   1.597499e-02
  4.176657e+00    4.650246e-01   1.519584e-02
  4.178868e+00    5.317892e-01   1.634217e-02
  4.181078e+00    5.064826e-01   1.603855e-02
  4.183289e+00    4.393786e-01   1.502382e-02
  4.185499e+00    4.868225e-01   1.590730e-02
  4.187710e+00    5.134764e-01   1.643278e-02
  4.189920e+00    4.703743e-01   1.582270e-02
  4.192130e+00    5.122339e-01   1.661271e-02
  4.194341e+00    4.871062e-01   1.629936e-02
  4.196551e+00    4.346558e-01   1.549445e-02
  4.198762e+00    4.555908e-01   1.596378e-02
  4.200972e+00    4.556511e-01   1.606803e-02
  4.203183e+00    4.877220e-01   1.673372e-02
  4.205393e+00    4.553126e-01   1.627582e-02
  4.207604e+00    4.564202e-01   1.640670e-02
  4.209814e+00    4.623909e-01   1.662670e-02
  4.212025e+00    5.253202e-01   1.784782e-02
  4.214235e+00    5.412393e-01   1.824475e-02
  4.216445e+00    4.935882e-01   1.754916e-02
  4.218656e+00    4.442799e-01   1.677400e-02
  4.220866e+00    4.727810e-01   1.743196e-02
  4.223077e+00    5.087867e-01   1.822288e-02
  4.225287e+00    4.547586e-01   1.736357e-02
  4.227498e+00    4.731297e-01   1.784957e-02
  4.229708e+00    4.663380e-01   1.786534e-02
  4.231919e+00    4.868160e-01   1.840393e-02
  4.234129e+00    5.690261e-01   2.006445e-02
  4.236340e+00    4.586567e-01   1.816833e-02
  4.238550e+00    4.767114e-01   1.868551e-02
  4.240761e+00    4.602431e-01   1.852219e-02
  4.242971e+00    4.589600e-01   1.866584e-02
  4.245181e+00    4.608741e-01   1.888038e-02
  4.247392e+00    4.793791e-01   1.943583e-02
  4.249602e+00    4.771173e-01   1.958204e-02
  4.251813e+00    5.612124e-01   2.144782e-02
  4.254023e+00    4.939979e-01   2.032512e-02
  4.256234e+00    4.516921e-01   1.964268e-02
  4.258444e+00    4.418239e-01   1.963030e-02
  4.260655e+00    5.164760e-01   2.145734e-02
  4.262865e+00    4.772815e-01   2.086131e-02
  4.265076e+00    4.907957e-01   2.139478e-02
  4.267286e+00    4.908610e-01   2.165020e-02
  4.269496e+00    4.756318e-01   2.157199e-02
  4.271707e+00    4.859001e-01   2.207272e-02
  4.273917e+00    4.739195e-01   2.208093e-02
  4.276128e+00    5.347645e-01   2.376655e-02
  4.278338e+00    5.424990e-01   2.425765e-02
  4.280549e+00    4.654893e-01   2.279297e-02
  4.282759e+00    4.361377e-01   2.237956e-02
  4.284970e+00    4.243177e-01   2.240063e-02
  4.287180e+00    4.913266e-01   2.439313e-02
  4.289391e+00    5.677241e-01   2.641799e-02
  4.291601e+00    4.961746e-01   2.489546e-02
  4.293811e+00    5.351173e-01   2.605525e-02
  4.296022e+00    4.480928e-01   2.403443e-02
  4.298232e+00    4.932170e-01   2.542622e-02
  4.300443e+00    5.103129e-01   2.607701e-02
  4.302653e+00    5.788246e-01   2.801265e-02
  4.304864e+00    4.558629e-01   2.507594e-02
  4.307074e+00    4.526763e-01   2.521214e-02
  4.309285e+00    5.154588e-01   2.714800e-02
  4.311495e+00    4.694988e-01   2.615182e-02
  4.313706e+00    4.583828e-01   2.608333e-02
  4.315916e+00    4.395858e-01   2.579470e-02
  4.318126e+00    3.873245e-01   2.445184e-02
  4.320337e+00    3.574902e-01   2.372918e-02
  4.322547e+00    5.190109e-01   2.889474e-02
  4.324758e+00    4.203575e-01   2.627373e-02
  4.326968e+00    4.610887e-01   2.782812e-02
  4.329179e+00    4.633982e-01   2.820528e-02
  4.331389e+00    4.977067e-01   2.956680e-02
  4.333600e+00    4.533518e-01   2.855543e-02
  4.335810e+00    4.524866e-01   2.886749e-02
  4.338021e+00    5.129160e-01   3.112840e-02
  4.340231e+00    4.469630e-01   2.942398e-02
  4.342442e+00    4.868440e-01   3.111925e-02
  4.344652e+00    3.824401e-01   2.795708e-02
  4.346862e+00    3.405178e-01   2.674851e-02
  4.349073e+00    4.711444e-01   3.192201e-02
  4.351283e+00    5.078452e-01   3.363625e-02
  4.353494e+00    5.667402e-01   3.608299e-02
  4.355704e+00    5.242024e-01   3.526176e-02
  4.357915e+00    4.023744e-01   3.140697e-02
  4.360125e+00    4.504243e-01   3.379748e-02
  4.362336e+00    4.614163e-01   3.483095e-02
  4.364546e+00    3.984565e-01   3.295587e-02
  4.366757e+00    4.407455e-01   3.534965e-02
  4.368967e+00    3.772568e-01   3.335777e-02
  4.371177e+00    4.188904e-01   3.589863e-02
  4.373388e+00    4.443779e-01   3.779898e-02
  4.375598e+00    4.692783e-01   3.973098e-02
  4.377809e+00    4.278593e-01   3.889732e-02
  4.380019e+00    2.589023e-01   3.101866e-02
  4.382230e+00    4.388111e-01   4.150980e-02
  4.384440e+00    3.317632e-01   3.712953e-02
  4.386651e+00    7.741434e-01   5.846747e-02
  4.388861e+00    7.430451e-01   5.920594e-02
  4.391072e+00    5.490733e-01   5.268193e-02
  4.393282e+00    5.987031e-01   5.713885e-02
  4.395492e+00    6.027480e-01   5.971535e-02
  4.397703e+00    2.781386e-01   4.242015e-02
  4.399913e+00    3.028829e-01   4.650342e-02
  4.402124e+00    4.496773e-01   5.987397e-02
  4.404334e+00    5.157328e-01   6.816538e-02
  4.406545e+00    3.766933e-01   6.258627e-02
  4.408755e+00    5.809729e-01   8.430170e-02
  4.410966e+00    1.982729e-01   5.450786e-02
  4.413176e+00    5.828740e-01   1.057745e-01
  4.415387e+00   -3.819635e-01            nan
  4.417597e+00   -1.981293e+00            nan
  4.419807e+00    7.946631e-01   3.202241e-01
