# == pyFAI calibration ==
# Distance Sample to Detector: 0.216 m
# PONI: 1.166e-01, 1.308e-01 m
# Rotations: 0.000000 0.000000 0.000000 rad
# 
# == Fit2d calibration ==
# Distance Sample-beamCenter: 216.000 mm
# Center: x=1744.293, y=1555.000 pix
# Tilt: 0.000 deg  TiltPlanRot: 0.000 deg
# 
# Detector Eiger 9M	 PixelSize= 7.500e-05, 7.500e-05 m
#    Detector has a mask: True 
#    Detector has a dark current: False 
#    detector has a flat field: False 
# 
# Wavelength: 9.8e-11 m
# Mask applied: from detector
# Dark current applied: False
# Flat field applied: False
# Polarization factor: None
# Normalization factor: 1.0
# 
# Headers of the input frame:
# {
# "_array_data.header_convention": "SLS_1.0",
# "_array_data.header_contents": "# Detector: Dectris Eiger 9M, S/N E-18-0102\r\n# Pixel_size 75e-6 m x 75e-6 m\r\n# Silicon sensor, thickness 0.000450 m\r\n# Exposure_time 0.024997 s\r\n# Exposure_period 0.025000 s\r\n# Count_cutoff 62318 counts\r\n# Wavelength 0.980106 A\r\n# Detector_distance 0.215992 m\r\n# Beam_xy (1555, 1744) pixels\r\n# Start_angle 0.000000 deg.\r\n# Angle_increment 0.000000 deg.",
# "Content-Type": "application/octet-stream;",
# "conversions": "x-CBF_BYTE_OFFSET",
# "Content-Transfer-Encoding": "BINARY",
# "X-Binary-Size": "10166594",
# "X-Binary-ID": "1",
# "X-Binary-Element-Type": "signed 32-bit integer",
# "X-Binary-Element-Byte-Order": "LITTLE_ENDIAN",
# "Content-MD5": "xJRi7AH8P/tkzug3ombjzQ==",
# "X-Binary-Number-of-Elements": "10166590",
# "X-Binary-Size-Fastest-Dimension": "3110",
# "X-Binary-Size-Second-Dimension": "3269",
# "X-Binary-Size-Padding": "4095"
# }
# --> H:/Proxima2a_2019-04-05/RAW_DATA/C5_gel17_position5/C5_mesh_1_data.cbf/C5_mesh_1_data.cbf000169.dat
#        q_A^-1              I           sigma 
  1.105228e-03    7.201000e-01   4.591804e-01
  3.315685e-03    1.527429e+00   4.065612e-01
  5.526141e-03    1.708790e+00   3.325190e-01
  7.736597e-03    1.485348e+00   2.618993e-01
  9.947054e-03    1.314413e+00   2.171914e-01
  1.215751e-02    1.294088e+00   1.948725e-01
  1.436797e-02    1.398718e+00   1.863549e-01
  1.657842e-02    1.286331e+00   1.663492e-01
  1.878888e-02    1.475261e+00   1.673393e-01
  2.099934e-02    1.424641e+00   1.555804e-01
  2.320979e-02    1.388251e+00   1.460720e-01
  2.542025e-02    1.415002e+00   1.409249e-01
  2.763070e-02    1.425572e+00   1.356703e-01
  2.984116e-02    1.516010e+00   1.346256e-01
  3.205162e-02    1.596783e+00   1.333243e-01
  3.426207e-02    1.419219e+00   1.215625e-01
  3.647253e-02    1.248229e+00   1.104935e-01
  3.868299e-02    1.336712e+00   1.110362e-01
  4.089344e-02    1.486022e+00   1.138658e-01
  4.310390e-02    1.504057e+00   1.115722e-01
  4.531436e-02    1.377593e+00   1.041421e-01
  4.752481e-02    1.334768e+00   1.000972e-01
  4.973527e-02    1.516267e+00   1.042893e-01
  5.194572e-02    1.635497e+00   1.059809e-01
  5.415618e-02    1.596746e+00   1.025550e-01
  5.636664e-02    1.482589e+00   9.686695e-02
  5.857709e-02    1.406685e+00   9.255782e-02
  6.078755e-02    1.355740e+00   8.919603e-02
  6.299801e-02    1.409791e+00   8.934574e-02
  6.520846e-02    1.436486e+00   8.864646e-02
  6.741892e-02    1.326527e+00   8.377372e-02
  6.962938e-02    1.397192e+00   8.460468e-02
  7.183983e-02    1.424238e+00   8.409369e-02
  7.405029e-02    1.403082e+00   8.220964e-02
  7.626074e-02    1.530748e+00   8.461399e-02
  7.847120e-02    1.544058e+00   8.377334e-02
  8.068166e-02    1.453544e+00   8.015902e-02
  8.289211e-02    1.442860e+00   7.879139e-02
  8.510257e-02    1.521416e+00   7.984971e-02
  8.731303e-02    1.447099e+00   7.688010e-02
  8.952348e-02    1.484225e+00   7.689489e-02
  9.173394e-02    1.594040e+00   7.871969e-02
  9.394439e-02    1.554988e+00   7.682682e-02
  9.615485e-02    1.441134e+00   7.310415e-02
  9.836531e-02    1.457655e+00   7.268917e-02
  1.005758e-01    1.560054e+00   7.436853e-02
  1.027862e-01    1.554478e+00   7.343113e-02
  1.049967e-01    1.496445e+00   7.128371e-02
  1.072071e-01    1.478796e+00   7.012694e-02
  1.094176e-01    1.497916e+00   6.986122e-02
  1.116280e-01    1.574710e+00   7.091530e-02
  1.138385e-01    1.614413e+00   7.110181e-02
  1.160490e-01    1.517884e+00   6.828281e-02
  1.182594e-01    1.522523e+00   6.774343e-02
  1.204699e-01    1.561094e+00   6.796341e-02
  1.226803e-01    1.580348e+00   6.775959e-02
  1.248908e-01    1.543877e+00   6.637705e-02
  1.271012e-01    1.598761e+00   6.695531e-02
  1.293117e-01    1.585747e+00   6.610902e-02
  1.315222e-01    1.537208e+00   6.453861e-02
  1.337326e-01    1.503585e+00   6.329792e-02
  1.359431e-01    1.562218e+00   6.455809e-02
  1.381535e-01    1.521452e+00   6.456538e-02
  1.403640e-01    1.503551e+00   6.446156e-02
  1.425744e-01    1.557381e+00   6.571012e-02
  1.447849e-01    1.550065e+00   6.557072e-02
  1.469953e-01    1.520386e+00   6.489927e-02
  1.492058e-01    1.590517e+00   6.630205e-02
  1.514163e-01    1.621735e+00   6.683841e-02
  1.536267e-01    1.614637e+00   6.656176e-02
  1.558372e-01    1.616255e+00   6.644809e-02
  1.580476e-01    1.601843e+00   6.599065e-02
  1.602581e-01    1.594295e+00   6.566779e-02
  1.624685e-01    1.577414e+00   6.514034e-02
  1.646790e-01    1.656488e+00   6.656143e-02
  1.668895e-01    1.669745e+00   6.663423e-02
  1.690999e-01    1.723224e+00   6.748965e-02
  1.713104e-01    1.790980e+00   6.859016e-02
  1.735208e-01    1.775818e+00   6.808682e-02
  1.757313e-01    1.780322e+00   6.795943e-02
  1.779417e-01    1.812832e+00   6.835350e-02
  1.801522e-01    1.913125e+00   6.999515e-02
  1.823626e-01    1.931317e+00   7.009307e-02
  1.845731e-01    1.884132e+00   6.900728e-02
  1.867836e-01    1.933094e+00   6.966225e-02
  1.889940e-01    1.992827e+00   7.049923e-02
  1.912045e-01    1.908559e+00   6.876220e-02
  1.934149e-01    1.884654e+00   6.810150e-02
  1.956254e-01    1.947451e+00   6.899847e-02
  1.978358e-01    1.968332e+00   6.912967e-02
  2.000463e-01    2.077421e+00   7.078413e-02
  2.022568e-01    2.006128e+00   6.933065e-02
  2.044672e-01    2.030335e+00   6.950875e-02
  2.066777e-01    1.937309e+00   6.767235e-02
  2.088881e-01    1.891531e+00   6.664926e-02
  2.110986e-01    1.899876e+00   6.656704e-02
  2.133090e-01    2.011773e+00   6.827660e-02
  2.155195e-01    2.049909e+00   6.869211e-02
  2.177300e-01    1.943896e+00   6.636679e-02
  2.199404e-01    2.043462e+00   6.625221e-02
  2.221509e-01    2.073768e+00   6.564578e-02
  2.243613e-01    1.958081e+00   6.297980e-02
  2.265718e-01    2.018593e+00   6.324072e-02
  2.287822e-01    2.023259e+00   6.268708e-02
  2.309927e-01    2.098182e+00   6.325568e-02
  2.332031e-01    2.091207e+00   6.260996e-02
  2.354136e-01    2.139270e+00   6.281211e-02
  2.376241e-01    2.169887e+00   6.276898e-02
  2.398345e-01    2.203206e+00   6.278097e-02
  2.420450e-01    2.202701e+00   6.232516e-02
  2.442554e-01    2.112334e+00   6.061283e-02
  2.464659e-01    2.117544e+00   6.028010e-02
  2.486763e-01    2.046749e+00   5.887431e-02
  2.508868e-01    2.051982e+00   5.857766e-02
  2.530973e-01    2.002444e+00   5.750747e-02
  2.553077e-01    2.111918e+00   5.870031e-02
  2.575182e-01    2.087960e+00   5.802107e-02
  2.597286e-01    2.071768e+00   5.745971e-02
  2.619391e-01    2.020426e+00   5.641656e-02
  2.641495e-01    2.038911e+00   5.636041e-02
  2.663600e-01    2.053145e+00   5.624576e-02
  2.685704e-01    2.083460e+00   5.635235e-02
  2.707809e-01    2.077302e+00   5.597034e-02
  2.729914e-01    2.109477e+00   5.610819e-02
  2.752018e-01    2.061928e+00   5.518351e-02
  2.774123e-01    1.985357e+00   5.387259e-02
  2.796227e-01    1.965251e+00   5.333397e-02
  2.818332e-01    2.017369e+00   5.376698e-02
  2.840436e-01    1.966487e+00   5.282728e-02
  2.862541e-01    2.096999e+00   5.428988e-02
  2.884646e-01    2.051877e+00   5.344779e-02
  2.906750e-01    1.963326e+00   5.203387e-02
  2.928855e-01    1.947104e+00   5.157834e-02
  2.950959e-01    1.988677e+00   5.188663e-02
  2.973064e-01    1.905880e+00   5.056672e-02
  2.995168e-01    1.898778e+00   5.024381e-02
  3.017273e-01    1.924734e+00   5.036306e-02
  3.039377e-01    1.881346e+00   4.957413e-02
  3.061482e-01    1.869738e+00   4.920718e-02
  3.083587e-01    1.913464e+00   4.956374e-02
  3.105691e-01    1.916849e+00   4.939570e-02
  3.127796e-01    1.869870e+00   4.858151e-02
  3.149900e-01    1.952958e+00   4.944227e-02
  3.172005e-01    1.888994e+00   4.842705e-02
  3.194109e-01    1.865844e+00   4.793069e-02
  3.216214e-01    1.906763e+00   4.825570e-02
  3.238319e-01    1.891346e+00   4.786984e-02
  3.260423e-01    1.862517e+00   4.731438e-02
  3.282528e-01    1.812575e+00   4.648991e-02
  3.304632e-01    1.806163e+00   4.622781e-02
  3.326737e-01    1.871930e+00   4.687830e-02
  3.348841e-01    1.802194e+00   4.581847e-02
  3.370946e-01    1.781712e+00   4.538594e-02
  3.393050e-01    1.833054e+00   4.586083e-02
  3.415155e-01    1.830806e+00   4.566039e-02
  3.437260e-01    1.809967e+00   4.523150e-02
  3.459364e-01    1.831600e+00   4.533270e-02
  3.481469e-01    1.845089e+00   4.533324e-02
  3.503573e-01    1.834175e+00   4.503432e-02
  3.525678e-01    1.819232e+00   4.469063e-02
  3.547782e-01    1.822223e+00   4.456572e-02
  3.569887e-01    1.781331e+00   4.390670e-02
  3.591992e-01    1.759781e+00   4.348590e-02
  3.614096e-01    1.754848e+00   4.327434e-02
  3.636201e-01    1.747729e+00   4.303471e-02
  3.658305e-01    1.796366e+00   4.348058e-02
  3.680410e-01    1.735770e+00   4.259395e-02
  3.702514e-01    1.753858e+00   4.267129e-02
  3.724619e-01    1.838763e+00   4.354316e-02
  3.746724e-01    1.815013e+00   4.311672e-02
  3.768828e-01    1.839012e+00   4.325479e-02
  3.790933e-01    1.819197e+00   4.288093e-02
  3.813037e-01    1.855639e+00   4.316661e-02
  3.835142e-01    1.768038e+00   4.199700e-02
  3.857246e-01    1.817839e+00   4.244654e-02
  3.879351e-01    1.843421e+00   4.260582e-02
  3.901455e-01    1.804492e+00   4.201936e-02
  3.923560e-01    1.788769e+00   4.170293e-02
  3.945665e-01    1.794558e+00   4.163789e-02
  3.967769e-01    1.816863e+00   4.176463e-02
  3.989874e-01    1.784442e+00   4.126111e-02
  4.011978e-01    1.728943e+00   4.048948e-02
  4.034083e-01    1.758896e+00   4.071334e-02
  4.056187e-01    1.717215e+00   4.010412e-02
  4.078292e-01    1.722251e+00   4.004134e-02
  4.100397e-01    1.729638e+00   4.000460e-02
  4.122501e-01    1.770750e+00   4.035614e-02
  4.144606e-01    1.741055e+00   3.989767e-02
  4.166710e-01    1.790620e+00   4.034129e-02
  4.188815e-01    1.797327e+00   4.029738e-02
  4.210919e-01    1.809097e+00   4.031064e-02
  4.233024e-01    1.782271e+00   3.989297e-02
  4.255128e-01    1.763743e+00   3.957034e-02
  4.277233e-01    1.785012e+00   3.969384e-02
  4.299338e-01    1.808418e+00   3.983828e-02
  4.321442e-01    1.759278e+00   3.918086e-02
  4.343547e-01    1.704718e+00   3.845946e-02
  4.365651e-01    1.703318e+00   3.833442e-02
  4.387756e-01    1.740018e+00   3.863672e-02
  4.409860e-01    1.721864e+00   3.832817e-02
  4.431965e-01    1.743317e+00   3.845953e-02
  4.454070e-01    1.765443e+00   3.859517e-02
  4.476174e-01    1.711479e+00   3.789639e-02
  4.498279e-01    1.682465e+00   3.747156e-02
  4.520383e-01    1.748924e+00   3.809962e-02
  4.542488e-01    1.775203e+00   3.828130e-02
  4.564592e-01    1.748760e+00   3.789318e-02
  4.586697e-01    1.744457e+00   3.774609e-02
  4.608801e-01    1.728726e+00   3.747486e-02
  4.630906e-01    1.691260e+00   3.696839e-02
  4.653011e-01    1.697303e+00   3.693701e-02
  4.675115e-01    1.671566e+00   3.655932e-02
  4.697220e-01    1.678728e+00   3.654165e-02
  4.719324e-01    1.733019e+00   3.703179e-02
  4.741429e-01    1.724829e+00   3.684901e-02
  4.763533e-01    1.707427e+00   3.656865e-02
  4.785638e-01    1.725201e+00   3.666354e-02
  4.807743e-01    1.707118e+00   3.637813e-02
  4.829847e-01    1.754182e+00   3.678302e-02
  4.851952e-01    1.672734e+00   3.582807e-02
  4.874056e-01    1.657682e+00   3.557655e-02
  4.896161e-01    1.691203e+00   3.584534e-02
  4.918265e-01    1.678969e+00   3.562678e-02
  4.940370e-01    1.670234e+00   3.544624e-02
  4.962475e-01    1.677612e+00   3.543673e-02
  4.984579e-01    1.682829e+00   3.540430e-02
  5.006684e-01    1.666347e+00   3.514462e-02
  5.028788e-01    1.681518e+00   3.521867e-02
  5.050893e-01    1.658595e+00   3.489276e-02
  5.072997e-01    1.627245e+00   3.447790e-02
  5.095102e-01    1.666692e+00   3.480975e-02
  5.117206e-01    1.657142e+00   3.462734e-02
  5.139311e-01    1.657622e+00   3.455039e-02
  5.161416e-01    1.647593e+00   3.436432e-02
  5.183520e-01    1.650864e+00   3.431666e-02
  5.205625e-01    1.681894e+00   3.455653e-02
  5.227729e-01    1.646114e+00   3.410725e-02
  5.249834e-01    1.647277e+00   3.404009e-02
  5.271938e-01    1.687818e+00   3.437602e-02
  5.294043e-01    1.714070e+00   3.456238e-02
  5.316148e-01    1.724701e+00   3.459000e-02
  5.338252e-01    1.751289e+00   3.477593e-02
  5.360357e-01    1.741417e+00   3.459884e-02
  5.382461e-01    1.766557e+00   3.476889e-02
  5.404566e-01    1.772927e+00   3.475229e-02
  5.426670e-01    1.758327e+00   3.453090e-02
  5.448775e-01    1.764649e+00   3.451565e-02
  5.470879e-01    1.783991e+00   3.462690e-02
  5.492984e-01    1.743919e+00   3.415967e-02
  5.515089e-01    1.739138e+00   3.403715e-02
  5.537193e-01    1.745092e+00   3.402024e-02
  5.559298e-01    1.770299e+00   3.418990e-02
  5.581402e-01    1.785148e+00   3.425798e-02
  5.603507e-01    1.799761e+00   3.432305e-02
  5.625611e-01    1.798459e+00   3.423619e-02
  5.647716e-01    1.785755e+00   3.404098e-02
  5.669821e-01    1.746601e+00   3.359314e-02
  5.691925e-01    1.735252e+00   3.341196e-02
  5.714030e-01    1.734455e+00   3.333304e-02
  5.736134e-01    1.732699e+00   3.324534e-02
  5.758239e-01    1.676687e+00   3.263374e-02
  5.780343e-01    1.675841e+00   3.255650e-02
  5.802448e-01    1.709374e+00   3.281178e-02
  5.824552e-01    1.628366e+00   3.195768e-02
  5.846657e-01    1.559486e+00   3.120928e-02
  5.868762e-01    1.595288e+00   3.149974e-02
  5.890866e-01    1.578906e+00   3.127259e-02
  5.912971e-01    1.614049e+00   3.155322e-02
  5.935075e-01    1.658890e+00   3.192243e-02
  5.957180e-01    1.627533e+00   3.155442e-02
  5.979284e-01    1.591028e+00   3.113484e-02
  6.001389e-01    1.615775e+00   3.131213e-02
  6.023494e-01    1.653492e+00   3.161118e-02
  6.045598e-01    1.660299e+00   3.161169e-02
  6.067703e-01    1.636218e+00   3.131850e-02
  6.089807e-01    1.661217e+00   3.149340e-02
  6.111912e-01    1.652752e+00   3.135034e-02
  6.134016e-01    1.676018e+00   3.150725e-02
  6.156121e-01    1.643198e+00   3.113525e-02
  6.178226e-01    1.690212e+00   3.151495e-02
  6.200330e-01    1.714060e+00   3.167393e-02
  6.222435e-01    1.674819e+00   3.124724e-02
  6.244539e-01    1.717553e+00   3.158140e-02
  6.266644e-01    1.712500e+00   3.147343e-02
  6.288748e-01    1.714609e+00   3.143149e-02
  6.310853e-01    1.685565e+00   3.110363e-02
  6.332957e-01    1.711887e+00   3.128503e-02
  6.355062e-01    1.697351e+00   3.109141e-02
  6.377167e-01    1.691285e+00   3.097626e-02
  6.399271e-01    1.701253e+00   3.100785e-02
  6.421376e-01    1.692909e+00   3.087270e-02
  6.443480e-01    1.703995e+00   3.091468e-02
  6.465585e-01    1.685233e+00   3.068580e-02
  6.487689e-01    1.700153e+00   3.076313e-02
  6.509794e-01    1.669277e+00   3.042500e-02
  6.531899e-01    1.665190e+00   3.033062e-02
  6.554003e-01    1.620885e+00   2.986813e-02
  6.576108e-01    1.593604e+00   2.956056e-02
  6.598212e-01    1.618230e+00   2.973272e-02
  6.620317e-01    1.652058e+00   2.998622e-02
  6.642421e-01    1.603472e+00   2.948734e-02
  6.664526e-01    1.570786e+00   2.913147e-02
  6.686630e-01    1.632453e+00   2.964287e-02
  6.708735e-01    1.631691e+00   2.958162e-02
  6.730840e-01    1.609572e+00   2.932686e-02
  6.752944e-01    1.595590e+00   2.914611e-02
  6.775049e-01    1.611561e+00   2.923841e-02
  6.797153e-01    1.581019e+00   2.890760e-02
  6.819258e-01    1.582906e+00   2.887267e-02
  6.841362e-01    1.592349e+00   2.890659e-02
  6.863467e-01    1.549330e+00   2.846238e-02
  6.885572e-01    1.568077e+00   2.858275e-02
  6.907676e-01    1.564803e+00   2.850172e-02
  6.929781e-01    1.593287e+00   2.870885e-02
  6.951885e-01    1.602783e+00   2.874328e-02
  6.973990e-01    1.598323e+00   2.865250e-02
  6.996094e-01    1.568141e+00   2.833077e-02
  7.018199e-01    1.548121e+00   2.809993e-02
  7.040303e-01    1.564696e+00   2.820031e-02
  7.062408e-01    1.604802e+00   2.850944e-02
  7.084513e-01    1.586539e+00   2.829744e-02
  7.106617e-01    1.573473e+00   2.813170e-02
  7.128722e-01    1.618689e+00   2.848368e-02
  7.150826e-01    1.577147e+00   2.806735e-02
  7.172931e-01    1.571673e+00   2.797028e-02
  7.195035e-01    1.580181e+00   2.799767e-02
  7.217140e-01    1.546806e+00   2.774945e-02
  7.239245e-01    1.524869e+00   2.777509e-02
  7.261349e-01    1.551080e+00   2.812056e-02
  7.283454e-01    1.587561e+00   2.852206e-02
  7.305558e-01    1.573641e+00   2.845070e-02
  7.327663e-01    1.600815e+00   2.873816e-02
  7.349767e-01    1.560911e+00   2.839403e-02
  7.371872e-01    1.561256e+00   2.838601e-02
  7.393976e-01    1.583903e+00   2.857685e-02
  7.416081e-01    1.576420e+00   2.849310e-02
  7.438186e-01    1.563469e+00   2.823201e-02
  7.460290e-01    1.519493e+00   2.754309e-02
  7.482395e-01    1.559017e+00   2.772867e-02
  7.504499e-01    1.564323e+00   2.764002e-02
  7.526604e-01    1.559543e+00   2.748175e-02
  7.548708e-01    1.571655e+00   2.749893e-02
  7.570813e-01    1.586899e+00   2.758079e-02
  7.592918e-01    1.555893e+00   2.727506e-02
  7.615022e-01    1.575185e+00   2.740982e-02
  7.637127e-01    1.562156e+00   2.726357e-02
  7.659231e-01    1.553632e+00   2.715732e-02
  7.681336e-01    1.512418e+00   2.676371e-02
  7.703440e-01    1.542905e+00   2.700120e-02
  7.725545e-01    1.559764e+00   2.711757e-02
  7.747650e-01    1.653280e+00   2.787954e-02
  7.769754e-01    1.570679e+00   2.712154e-02
  7.791859e-01    1.564611e+00   2.701578e-02
  7.813963e-01    1.576932e+00   2.706939e-02
  7.836068e-01    1.566276e+00   2.692608e-02
  7.858172e-01    1.601759e+00   2.717845e-02
  7.880277e-01    1.614911e+00   2.723790e-02
  7.902381e-01    1.610533e+00   2.715153e-02
  7.924486e-01    1.634507e+00   2.730219e-02
  7.946591e-01    1.624414e+00   2.716913e-02
  7.968695e-01    1.618863e+00   2.707414e-02
  7.990800e-01    1.597883e+00   2.685006e-02
  8.012904e-01    1.630436e+00   2.707525e-02
  8.035009e-01    1.642669e+00   2.712828e-02
  8.057113e-01    1.641825e+00   2.707441e-02
  8.079218e-01    1.643429e+00   2.704089e-02
  8.101323e-01    1.631202e+00   2.689437e-02
  8.123427e-01    1.659409e+00   2.707966e-02
  8.145532e-01    1.637454e+00   2.685390e-02
  8.167636e-01    1.658038e+00   2.697671e-02
  8.189741e-01    1.641854e+00   2.679999e-02
  8.211845e-01    1.662526e+00   2.692297e-02
  8.233950e-01    1.682398e+00   2.703935e-02
  8.256054e-01    1.669082e+00   2.688752e-02
  8.278159e-01    1.626613e+00   2.649942e-02
  8.300264e-01    1.602927e+00   2.626315e-02
  8.322368e-01    1.640898e+00   2.652924e-02
  8.344473e-01    1.640544e+00   2.648299e-02
  8.366577e-01    1.619406e+00   2.626950e-02
  8.388682e-01    1.611296e+00   2.616174e-02
  8.410786e-01    1.634155e+00   2.630467e-02
  8.432891e-01    1.649296e+00   2.638428e-02
  8.454996e-01    1.634709e+00   2.622577e-02
  8.477100e-01    1.616614e+00   2.603883e-02
  8.499205e-01    1.611033e+00   2.595301e-02
  8.521309e-01    1.631241e+00   2.607457e-02
  8.543414e-01    1.613496e+00   2.589189e-02
  8.565518e-01    1.616561e+00   2.587612e-02
  8.587623e-01    1.625912e+00   2.591044e-02
  8.609727e-01    1.634494e+00   2.593846e-02
  8.631832e-01    1.636753e+00   2.591636e-02
  8.653937e-01    1.618288e+00   2.573016e-02
  8.676041e-01    1.596881e+00   2.552084e-02
  8.698146e-01    1.579091e+00   2.533950e-02
  8.720250e-01    1.591606e+00   2.540093e-02
  8.742355e-01    1.601461e+00   2.544068e-02
  8.764459e-01    1.601804e+00   2.540458e-02
  8.786564e-01    1.624820e+00   2.554830e-02
  8.808669e-01    1.601301e+00   2.532427e-02
  8.830773e-01    1.592222e+00   2.521437e-02
  8.852878e-01    1.621876e+00   2.540992e-02
  8.874982e-01    1.632373e+00   2.545502e-02
  8.897087e-01    1.626501e+00   2.537123e-02
  8.919191e-01    1.610962e+00   2.521186e-02
  8.941296e-01    1.603762e+00   2.511814e-02
  8.963401e-01    1.600283e+00   2.505444e-02
  8.985505e-01    1.615701e+00   2.513771e-02
  9.007610e-01    1.582147e+00   2.483879e-02
  9.029714e-01    1.591676e+00   2.487771e-02
  9.051819e-01    1.569968e+00   2.467063e-02
  9.073923e-01    1.564971e+00   2.459516e-02
  9.096028e-01    1.564972e+00   2.456062e-02
  9.118132e-01    1.603906e+00   2.482800e-02
  9.140237e-01    1.612570e+00   2.485821e-02
  9.162342e-01    1.575886e+00   2.453954e-02
  9.184446e-01    1.572257e+00   2.447581e-02
  9.206551e-01    1.599400e+00   2.465060e-02
  9.228655e-01    1.585819e+00   2.451063e-02
  9.250760e-01    1.636618e+00   2.486438e-02
  9.272864e-01    1.623431e+00   2.472952e-02
  9.294969e-01    1.625474e+00   2.470902e-02
  9.317074e-01    1.597544e+00   2.446123e-02
  9.339178e-01    1.557950e+00   2.412317e-02
  9.361283e-01    1.601553e+00   2.442236e-02
  9.383387e-01    1.633398e+00   2.463042e-02
  9.405492e-01    1.631628e+00   2.458272e-02
  9.427596e-01    1.610968e+00   2.439139e-02
  9.449701e-01    1.629447e+00   2.449758e-02
  9.471805e-01    1.639498e+00   2.453819e-02
  9.493910e-01    1.663126e+00   2.468047e-02
  9.516015e-01    1.693042e+00   2.486669e-02
  9.538119e-01    1.678742e+00   2.472752e-02
  9.560224e-01    1.687043e+00   2.475370e-02
  9.582328e-01    1.709664e+00   2.488565e-02
  9.604433e-01    1.751098e+00   2.514974e-02
  9.626537e-01    1.770419e+00   2.525412e-02
  9.648642e-01    1.742710e+00   2.502139e-02
  9.670747e-01    1.774693e+00   2.521511e-02
  9.692851e-01    1.790440e+00   2.529310e-02
  9.714956e-01    1.780175e+00   2.518490e-02
  9.737060e-01    1.810103e+00   2.536238e-02
  9.759165e-01    1.794227e+00   2.521530e-02
  9.781269e-01    1.793233e+00   2.517534e-02
  9.803374e-01    1.810378e+00   2.526041e-02
  9.825478e-01    1.780535e+00   2.501832e-02
  9.847583e-01    1.762807e+00   2.485963e-02
  9.869688e-01    1.762506e+00   2.482424e-02
  9.891792e-01    1.767729e+00   2.482796e-02
  9.913897e-01    1.779541e+00   2.487715e-02
  9.936001e-01    1.801617e+00   2.499822e-02
  9.958106e-01    1.753741e+00   2.463033e-02
  9.980210e-01    1.686107e+00   2.411937e-02
  1.000231e+00    1.667892e+00   2.412013e-02
  1.002442e+00    1.672954e+00   2.428505e-02
  1.004652e+00    1.673309e+00   2.435540e-02
  1.006863e+00    1.638269e+00   2.414904e-02
  1.009073e+00    1.632713e+00   2.414494e-02
  1.011284e+00    1.650772e+00   2.431057e-02
  1.013494e+00    1.630503e+00   2.418483e-02
  1.015705e+00    1.612224e+00   2.407161e-02
  1.017915e+00    1.629429e+00   2.421637e-02
  1.020126e+00    1.664030e+00   2.448869e-02
  1.022336e+00    1.587747e+00   2.393261e-02
  1.024547e+00    1.565600e+00   2.377635e-02
  1.026757e+00    1.540223e+00   2.359123e-02
  1.028967e+00    1.523089e+00   2.346727e-02
  1.031178e+00    1.537965e+00   2.358774e-02
  1.033388e+00    1.538142e+00   2.359419e-02
  1.035599e+00    1.530007e+00   2.353513e-02
  1.037809e+00    1.545709e+00   2.365886e-02
  1.040020e+00    1.532624e+00   2.355981e-02
  1.042230e+00    1.534739e+00   2.357798e-02
  1.044441e+00    1.564174e+00   2.380279e-02
  1.046651e+00    1.573244e+00   2.387188e-02
  1.048862e+00    1.555777e+00   2.373819e-02
  1.051072e+00    1.543124e+00   2.363908e-02
  1.053282e+00    1.551702e+00   2.370370e-02
  1.055493e+00    1.595099e+00   2.402844e-02
  1.057703e+00    1.607285e+00   2.411848e-02
  1.059914e+00    1.669129e+00   2.457358e-02
  1.062124e+00    1.637991e+00   2.433910e-02
  1.064335e+00    1.519238e+00   2.343673e-02
  1.066545e+00    1.484224e+00   2.315905e-02
  1.068756e+00    1.504805e+00   2.331531e-02
  1.070966e+00    1.478636e+00   2.310514e-02
  1.073177e+00    1.497770e+00   2.324805e-02
  1.075387e+00    1.466102e+00   2.299576e-02
  1.077597e+00    1.461607e+00   2.295322e-02
  1.079808e+00    1.490781e+00   2.304723e-02
  1.082018e+00    1.439296e+00   2.245823e-02
  1.084229e+00    1.466344e+00   2.255798e-02
  1.086439e+00    1.509364e+00   2.279745e-02
  1.088650e+00    1.560264e+00   2.310028e-02
  1.090860e+00    1.543497e+00   2.290620e-02
  1.093071e+00    1.493989e+00   2.247272e-02
  1.095281e+00    1.454099e+00   2.211326e-02
  1.097492e+00    1.435470e+00   2.191643e-02
  1.099702e+00    1.389380e+00   2.151124e-02
  1.101912e+00    1.394564e+00   2.150324e-02
  1.104123e+00    1.410793e+00   2.158020e-02
  1.106333e+00    1.413383e+00   2.155589e-02
  1.108544e+00    1.403319e+00   2.143516e-02
  1.110754e+00    1.396541e+00   2.134077e-02
  1.112965e+00    1.385752e+00   2.121815e-02
  1.115175e+00    1.396436e+00   2.125896e-02
  1.117386e+00    1.402465e+00   2.126570e-02
  1.119596e+00    1.418881e+00   2.135184e-02
  1.121807e+00    1.419468e+00   2.131732e-02
  1.124017e+00    1.392453e+00   2.107703e-02
  1.126228e+00    1.388491e+00   2.101147e-02
  1.128438e+00    1.403480e+00   2.108779e-02
  1.130648e+00    1.360700e+00   2.073006e-02
  1.132859e+00    1.385863e+00   2.088662e-02
  1.135069e+00    1.405129e+00   2.099643e-02
  1.137280e+00    1.377520e+00   2.075629e-02
  1.139490e+00    1.387477e+00   2.079808e-02
  1.141701e+00    1.391884e+00   2.079790e-02
  1.143911e+00    1.359700e+00   2.052445e-02
  1.146122e+00    1.352595e+00   2.043908e-02
  1.148332e+00    1.347718e+00   2.037066e-02
  1.150543e+00    1.405132e+00   2.076892e-02
  1.152753e+00    1.373430e+00   2.050248e-02
  1.154963e+00    1.398459e+00   2.065712e-02
  1.157174e+00    1.367145e+00   2.039446e-02
  1.159384e+00    1.331554e+00   2.009783e-02
  1.161595e+00    1.367225e+00   2.033541e-02
  1.163805e+00    1.424006e+00   2.072356e-02
  1.166016e+00    1.429231e+00   2.073146e-02
  1.168226e+00    1.459143e+00   2.091735e-02
  1.170437e+00    1.453644e+00   2.084838e-02
  1.172647e+00    1.466655e+00   2.091152e-02
  1.174858e+00    1.467610e+00   2.088919e-02
  1.177068e+00    1.483266e+00   2.097084e-02
  1.179278e+00    1.489586e+00   2.098558e-02
  1.181489e+00    1.496233e+00   2.100401e-02
  1.183699e+00    1.487433e+00   2.091334e-02
  1.185910e+00    1.430660e+00   2.048182e-02
  1.188120e+00    1.382958e+00   2.011052e-02
  1.190331e+00    1.377179e+00   2.004147e-02
  1.192541e+00    1.341992e+00   1.975654e-02
  1.194752e+00    1.346142e+00   1.976006e-02
  1.196962e+00    1.340225e+00   1.969097e-02
  1.199173e+00    1.331155e+00   1.959791e-02
  1.201383e+00    1.349649e+00   1.970642e-02
  1.203593e+00    1.342144e+00   1.962681e-02
  1.205804e+00    1.343143e+00   1.960826e-02
  1.208014e+00    1.340951e+00   1.956549e-02
  1.210225e+00    1.336062e+00   1.950459e-02
  1.212435e+00    1.341164e+00   1.951710e-02
  1.214646e+00    1.347745e+00   1.953883e-02
  1.216856e+00    1.363566e+00   1.962757e-02
  1.219067e+00    1.344599e+00   1.946620e-02
  1.221277e+00    1.296466e+00   1.909005e-02
  1.223488e+00    1.328676e+00   1.930020e-02
  1.225698e+00    1.335514e+00   1.932304e-02
  1.227909e+00    1.346227e+00   1.937026e-02
  1.230119e+00    1.351380e+00   1.937543e-02
  1.232329e+00    1.356963e+00   1.938459e-02
  1.234540e+00    1.397520e+00   1.964135e-02
  1.236750e+00    1.359409e+00   1.934133e-02
  1.238961e+00    1.341925e+00   1.918965e-02
  1.241171e+00    1.343202e+00   1.917464e-02
  1.243382e+00    1.344739e+00   1.916215e-02
  1.245592e+00    1.339553e+00   1.910117e-02
  1.247803e+00    1.326377e+00   1.898355e-02
  1.250013e+00    1.330868e+00   1.899227e-02
  1.252224e+00    1.330590e+00   1.896722e-02
  1.254434e+00    1.343209e+00   1.903326e-02
  1.256644e+00    1.336602e+00   1.896330e-02
  1.258855e+00    1.318887e+00   1.881422e-02
  1.261065e+00    1.318543e+00   1.878865e-02
  1.263276e+00    1.331209e+00   1.885591e-02
  1.265486e+00    1.329689e+00   1.882242e-02
  1.267697e+00    1.335851e+00   1.884310e-02
  1.269907e+00    1.339016e+00   1.884280e-02
  1.272118e+00    1.334125e+00   1.878593e-02
  1.274328e+00    1.317377e+00   1.864517e-02
  1.276539e+00    1.328237e+00   1.869926e-02
  1.278749e+00    1.326273e+00   1.866335e-02
  1.280959e+00    1.307660e+00   1.850974e-02
  1.283170e+00    1.319212e+00   1.856915e-02
  1.285380e+00    1.345991e+00   1.873425e-02
  1.287591e+00    1.371474e+00   1.888855e-02
  1.289801e+00    1.369150e+00   1.885119e-02
  1.292012e+00    1.347883e+00   1.868712e-02
  1.294222e+00    1.346746e+00   1.866300e-02
  1.296433e+00    1.378368e+00   1.886508e-02
  1.298643e+00    1.362937e+00   1.874265e-02
  1.300854e+00    1.349522e+00   1.863375e-02
  1.303064e+00    1.371930e+00   1.876846e-02
  1.305274e+00    1.362352e+00   1.868127e-02
  1.307485e+00    1.372313e+00   1.872772e-02
  1.309695e+00    1.372992e+00   1.870994e-02
  1.311906e+00    1.363023e+00   1.862007e-02
  1.314116e+00    1.350060e+00   1.851054e-02
  1.316327e+00    1.338444e+00   1.840912e-02
  1.318537e+00    1.362023e+00   1.854857e-02
  1.320748e+00    1.366361e+00   1.855643e-02
  1.322958e+00    1.343405e+00   1.837941e-02
  1.325169e+00    1.350883e+00   1.840946e-02
  1.327379e+00    1.356233e+00   1.842402e-02
  1.329589e+00    1.356388e+00   1.840396e-02
  1.331800e+00    1.366969e+00   1.845476e-02
  1.334010e+00    1.378935e+00   1.851451e-02
  1.336221e+00    1.370032e+00   1.843271e-02
  1.338431e+00    1.365395e+00   1.838053e-02
  1.340642e+00    1.362539e+00   1.842574e-02
  1.342852e+00    1.370548e+00   1.858126e-02
  1.345063e+00    1.356269e+00   1.853381e-02
  1.347273e+00    1.328323e+00   1.837684e-02
  1.349484e+00    1.336163e+00   1.845851e-02
  1.351694e+00    1.334595e+00   1.847026e-02
  1.353905e+00    1.299663e+00   1.824460e-02
  1.356115e+00    1.303355e+00   1.828525e-02
  1.358325e+00    1.341936e+00   1.856720e-02
  1.360536e+00    1.348083e+00   1.862130e-02
  1.362746e+00    1.340445e+00   1.857802e-02
  1.364957e+00    1.330922e+00   1.851949e-02
  1.367167e+00    1.347796e+00   1.864370e-02
  1.369378e+00    1.321567e+00   1.846736e-02
  1.371588e+00    1.313407e+00   1.841531e-02
  1.373799e+00    1.335782e+00   1.857520e-02
  1.376009e+00    1.330875e+00   1.854441e-02
  1.378220e+00    1.336344e+00   1.858503e-02
  1.380430e+00    1.295643e+00   1.830249e-02
  1.382640e+00    1.296736e+00   1.831109e-02
  1.384851e+00    1.288889e+00   1.825648e-02
  1.387061e+00    1.303001e+00   1.835643e-02
  1.389272e+00    1.316644e+00   1.845249e-02
  1.391482e+00    1.319590e+00   1.847246e-02
  1.393693e+00    1.277567e+00   1.817508e-02
  1.395903e+00    1.268247e+00   1.810715e-02
  1.398114e+00    1.263610e+00   1.807267e-02
  1.400324e+00    1.270185e+00   1.811750e-02
  1.402535e+00    1.286678e+00   1.823241e-02
  1.404745e+00    1.282586e+00   1.820105e-02
  1.406955e+00    1.265748e+00   1.807849e-02
  1.409166e+00    1.272030e+00   1.811997e-02
  1.411376e+00    1.284837e+00   1.820783e-02
  1.413587e+00    1.259372e+00   1.802271e-02
  1.415797e+00    1.261139e+00   1.803181e-02
  1.418008e+00    1.281368e+00   1.813380e-02
  1.420218e+00    1.257685e+00   1.781644e-02
  1.422429e+00    1.265192e+00   1.778437e-02
  1.424639e+00    1.274399e+00   1.778417e-02
  1.426850e+00    1.284236e+00   1.779767e-02
  1.429060e+00    1.292054e+00   1.780234e-02
  1.431270e+00    1.284642e+00   1.770666e-02
  1.433481e+00    1.286145e+00   1.767578e-02
  1.435691e+00    1.306475e+00   1.777596e-02
  1.437902e+00    1.277306e+00   1.753984e-02
  1.440112e+00    1.290922e+00   1.759744e-02
  1.442323e+00    1.272319e+00   1.743711e-02
  1.444533e+00    1.284309e+00   1.748635e-02
  1.446744e+00    1.259300e+00   1.728428e-02
  1.448954e+00    1.234969e+00   1.708669e-02
  1.451165e+00    1.246711e+00   1.713825e-02
  1.453375e+00    1.261169e+00   1.720939e-02
  1.455586e+00    1.271132e+00   1.724906e-02
  1.457796e+00    1.266205e+00   1.718814e-02
  1.460006e+00    1.246471e+00   1.702666e-02
  1.462217e+00    1.239598e+00   1.695376e-02
  1.464427e+00    1.261792e+00   1.707930e-02
  1.466638e+00    1.272927e+00   1.712916e-02
  1.468848e+00    1.269774e+00   1.708259e-02
  1.471059e+00    1.254371e+00   1.695373e-02
  1.473269e+00    1.244651e+00   1.686375e-02
  1.475480e+00    1.265230e+00   1.697887e-02
  1.477690e+00    1.267322e+00   1.696908e-02
  1.479901e+00    1.234887e+00   1.672700e-02
  1.482111e+00    1.241743e+00   1.675027e-02
  1.484321e+00    1.242772e+00   1.673432e-02
  1.486532e+00    1.237780e+00   1.667859e-02
  1.488742e+00    1.240490e+00   1.667442e-02
  1.490953e+00    1.252252e+00   1.673077e-02
  1.493163e+00    1.264625e+00   1.679096e-02
  1.495374e+00    1.245978e+00   1.664534e-02
  1.497584e+00    1.260301e+00   1.671911e-02
  1.499795e+00    1.249585e+00   1.662633e-02
  1.502005e+00    1.229601e+00   1.647142e-02
  1.504216e+00    1.251620e+00   1.659727e-02
  1.506426e+00    1.241485e+00   1.650927e-02
  1.508636e+00    1.236286e+00   1.645437e-02
  1.510847e+00    1.245495e+00   1.649383e-02
  1.513057e+00    1.238234e+00   1.642078e-02
  1.515268e+00    1.219045e+00   1.626768e-02
  1.517478e+00    1.258656e+00   1.650466e-02
  1.519689e+00    1.245438e+00   1.639291e-02
  1.521899e+00    1.250779e+00   1.640493e-02
  1.524110e+00    1.251076e+00   1.638658e-02
  1.526320e+00    1.246338e+00   1.633597e-02
  1.528531e+00    1.258858e+00   1.639799e-02
  1.530741e+00    1.236916e+00   1.623540e-02
  1.532951e+00    1.239879e+00   1.623534e-02
  1.535162e+00    1.225917e+00   1.622942e-02
  1.537372e+00    1.235438e+00   1.635889e-02
  1.539583e+00    1.235776e+00   1.639518e-02
  1.541793e+00    1.235644e+00   1.640120e-02
  1.544004e+00    1.251189e+00   1.650433e-02
  1.546214e+00    1.220676e+00   1.630034e-02
  1.548425e+00    1.228615e+00   1.635351e-02
  1.550635e+00    1.225705e+00   1.634375e-02
  1.552846e+00    1.218650e+00   1.630620e-02
  1.555056e+00    1.223371e+00   1.629662e-02
  1.557266e+00    1.228642e+00   1.622195e-02
  1.559477e+00    1.223399e+00   1.612868e-02
  1.561687e+00    1.240261e+00   1.620883e-02
  1.563898e+00    1.229763e+00   1.612304e-02
  1.566108e+00    1.235875e+00   1.614714e-02
  1.568319e+00    1.268402e+00   1.634248e-02
  1.570529e+00    1.252065e+00   1.621170e-02
  1.572740e+00    1.239277e+00   1.610112e-02
  1.574950e+00    1.230432e+00   1.601742e-02
  1.577161e+00    1.222220e+00   1.593860e-02
  1.579371e+00    1.247240e+00   1.607724e-02
  1.581582e+00    1.243284e+00   1.603196e-02
  1.583792e+00    1.224164e+00   1.589035e-02
  1.586002e+00    1.230540e+00   1.591414e-02
  1.588213e+00    1.238419e+00   1.594780e-02
  1.590423e+00    1.241087e+00   1.594493e-02
  1.592634e+00    1.227851e+00   1.583821e-02
  1.594844e+00    1.240515e+00   1.589828e-02
  1.597055e+00    1.244443e+00   1.590293e-02
  1.599265e+00    1.221431e+00   1.573467e-02
  1.601476e+00    1.180910e+00   1.545164e-02
  1.603686e+00    1.235675e+00   1.578612e-02
  1.605897e+00    1.216735e+00   1.564473e-02
  1.608107e+00    1.216854e+00   1.562607e-02
  1.610317e+00    1.215636e+00   1.559913e-02
  1.612528e+00    1.203442e+00   1.550177e-02
  1.614738e+00    1.207610e+00   1.550981e-02
  1.616949e+00    1.196514e+00   1.541966e-02
  1.619159e+00    1.179679e+00   1.529240e-02
  1.621370e+00    1.182466e+00   1.529228e-02
  1.623580e+00    1.198822e+00   1.537946e-02
  1.625791e+00    1.191039e+00   1.531134e-02
  1.628001e+00    1.173420e+00   1.517962e-02
  1.630212e+00    1.154961e+00   1.504230e-02
  1.632422e+00    1.131782e+00   1.487309e-02
  1.634632e+00    1.165753e+00   1.507747e-02
  1.636843e+00    1.163967e+00   1.504848e-02
  1.639053e+00    1.160759e+00   1.501053e-02
  1.641264e+00    1.148168e+00   1.491197e-02
  1.643474e+00    1.149302e+00   1.490203e-02
  1.645685e+00    1.155397e+00   1.492485e-02
  1.647895e+00    1.142857e+00   1.482713e-02
  1.650106e+00    1.113877e+00   1.462122e-02
  1.652316e+00    1.121356e+00   1.465392e-02
  1.654527e+00    1.130050e+00   1.469405e-02
  1.656737e+00    1.116016e+00   1.458610e-02
  1.658947e+00    1.120479e+00   1.459905e-02
  1.661158e+00    1.104557e+00   1.447884e-02
  1.663368e+00    1.090187e+00   1.436856e-02
  1.665579e+00    1.080591e+00   1.428932e-02
  1.667789e+00    1.079396e+00   1.426545e-02
  1.670000e+00    1.085139e+00   1.428804e-02
  1.672210e+00    1.100183e+00   1.437093e-02
  1.674421e+00    1.118625e+00   1.447547e-02
  1.676631e+00    1.091663e+00   1.428416e-02
  1.678842e+00    1.107135e+00   1.436918e-02
  1.681052e+00    1.140210e+00   1.456652e-02
  1.683263e+00    1.145590e+00   1.458534e-02
  1.685473e+00    1.112842e+00   1.436004e-02
  1.687683e+00    1.073677e+00   1.408973e-02
  1.689894e+00    1.058651e+00   1.397515e-02
  1.692104e+00    1.067829e+00   1.402076e-02
  1.694315e+00    1.055343e+00   1.392415e-02
  1.696525e+00    1.063936e+00   1.396561e-02
  1.698736e+00    1.067683e+00   1.397534e-02
  1.700946e+00    1.047266e+00   1.382605e-02
  1.703157e+00    1.030058e+00   1.369751e-02
  1.705367e+00    1.034427e+00   1.371217e-02
  1.707578e+00    1.027945e+00   1.365471e-02
  1.709788e+00    1.027638e+00   1.363868e-02
  1.711998e+00    1.011061e+00   1.351344e-02
  1.714209e+00    1.021407e+00   1.356810e-02
  1.716419e+00    1.026465e+00   1.358743e-02
  1.718630e+00    1.030663e+00   1.360094e-02
  1.720840e+00    1.034743e+00   1.361358e-02
  1.723051e+00    1.087298e+00   1.394074e-02
  1.725261e+00    1.093276e+00   1.396385e-02
  1.727472e+00    1.057566e+00   1.371944e-02
  1.729682e+00    1.020223e+00   1.346156e-02
  1.731893e+00    1.017784e+00   1.343150e-02
  1.734103e+00    1.010880e+00   1.337208e-02
  1.736313e+00    1.002001e+00   1.329923e-02
  1.738524e+00    9.961172e-01   1.324634e-02
  1.740734e+00    9.936357e-01   1.321618e-02
  1.742945e+00    9.599763e-01   1.297720e-02
  1.745155e+00    9.583148e-01   1.295273e-02
  1.747366e+00    9.772459e-01   1.306632e-02
  1.749576e+00    9.748110e-01   1.303643e-02
  1.751787e+00    9.541845e-01   1.288464e-02
  1.753997e+00    9.502064e-01   1.284455e-02
  1.756208e+00    9.676431e-01   1.294873e-02
  1.758418e+00    9.604698e-01   1.288761e-02
  1.760628e+00    9.335724e-01   1.269277e-02
  1.762839e+00    9.351671e-01   1.269059e-02
  1.765049e+00    9.433764e-01   1.273318e-02
  1.767260e+00    9.463812e-01   1.274072e-02
  1.769470e+00    9.327846e-01   1.263604e-02
  1.771681e+00    9.270799e-01   1.258438e-02
  1.773891e+00    9.036272e-01   1.241145e-02
  1.776102e+00    9.194880e-01   1.250722e-02
  1.778312e+00    9.369702e-01   1.261288e-02
  1.780523e+00    9.628120e-01   1.277275e-02
  1.782733e+00    9.753602e-01   1.284278e-02
  1.784944e+00    1.032421e+00   1.319956e-02
  1.787154e+00    1.010731e+00   1.304717e-02
  1.789364e+00    9.530648e-01   1.265688e-02
  1.791575e+00    8.952423e-01   1.225459e-02
  1.793785e+00    8.971145e-01   1.225514e-02
  1.795996e+00    9.089561e-01   1.232334e-02
  1.798206e+00    9.168273e-01   1.236407e-02
  1.800417e+00    9.236442e-01   1.239723e-02
  1.802627e+00    9.669347e-01   1.267211e-02
  1.804838e+00    1.017622e+00   1.298727e-02
  1.807048e+00    9.910173e-01   1.280296e-02
  1.809259e+00    9.795393e-01   1.271447e-02
  1.811469e+00    9.661734e-01   1.261196e-02
  1.813679e+00    9.484950e-01   1.248068e-02
  1.815890e+00    9.214690e-01   1.228667e-02
  1.818100e+00    8.873714e-01   1.204216e-02
  1.820311e+00    8.748382e-01   1.194221e-02
  1.822521e+00    8.655519e-01   1.186401e-02
  1.824732e+00    8.631774e-01   1.183314e-02
  1.826942e+00    8.553618e-01   1.176733e-02
  1.829153e+00    8.671508e-01   1.183658e-02
  1.831363e+00    8.795959e-01   1.190919e-02
  1.833574e+00    8.904668e-01   1.197085e-02
  1.835784e+00    8.582773e-01   1.174118e-02
  1.837994e+00    8.785714e-01   1.186746e-02
  1.840205e+00    8.676326e-01   1.178223e-02
  1.842415e+00    8.811916e-01   1.186210e-02
  1.844626e+00    8.840270e-01   1.186954e-02
  1.846836e+00    8.572878e-01   1.167730e-02
  1.849047e+00    8.444704e-01   1.157819e-02
  1.851257e+00    8.551090e-01   1.164138e-02
  1.853468e+00    8.613693e-01   1.167512e-02
  1.855678e+00    8.418098e-01   1.153302e-02
  1.857889e+00    8.354201e-01   1.148078e-02
  1.860099e+00    8.476944e-01   1.155622e-02
  1.862309e+00    8.487239e-01   1.155478e-02
  1.864520e+00    8.469396e-01   1.153409e-02
  1.866730e+00    8.425148e-01   1.149459e-02
  1.868941e+00    8.602465e-01   1.160394e-02
  1.871151e+00    8.557801e-01   1.156236e-02
  1.873362e+00    8.523212e-01   1.152761e-02
  1.875572e+00    8.576837e-01   1.155282e-02
  1.877783e+00    8.696313e-01   1.162144e-02
  1.879993e+00    8.621848e-01   1.156033e-02
  1.882204e+00    8.606566e-01   1.153907e-02
  1.884414e+00    8.477997e-01   1.144147e-02
  1.886624e+00    8.441626e-01   1.140581e-02
  1.888835e+00    8.561140e-01   1.147520e-02
  1.891045e+00    8.716880e-01   1.156802e-02
  1.893256e+00    8.537370e-01   1.143712e-02
  1.895466e+00    8.425363e-01   1.135062e-02
  1.897677e+00    8.404481e-01   1.132559e-02
  1.899887e+00    8.563502e-01   1.142111e-02
  1.902098e+00    8.685482e-01   1.149108e-02
  1.904308e+00    9.063626e-01   1.172750e-02
  1.906519e+00    9.231306e-01   1.182409e-02
  1.908729e+00    8.659365e-01   1.144110e-02
  1.910940e+00    8.628899e-01   1.140956e-02
  1.913150e+00    8.821833e-01   1.152548e-02
  1.915360e+00    8.807507e-01   1.150515e-02
  1.917571e+00    8.573210e-01   1.134002e-02
  1.919781e+00    7.974859e-01   1.092658e-02
  1.921992e+00    7.997972e-01   1.093191e-02
  1.924202e+00    8.160461e-01   1.103164e-02
  1.926413e+00    8.163489e-01   1.102338e-02
  1.928623e+00    8.296641e-01   1.110229e-02
  1.930834e+00    8.300881e-01   1.109458e-02
  1.933044e+00    8.045151e-01   1.091173e-02
  1.935255e+00    8.012298e-01   1.087915e-02
  1.937465e+00    8.003003e-01   1.086250e-02
  1.939675e+00    7.969716e-01   1.082910e-02
  1.941886e+00    7.669305e-01   1.061301e-02
  1.944096e+00    7.889599e-01   1.075425e-02
  1.946307e+00    7.780172e-01   1.066925e-02
  1.948517e+00    7.583808e-01   1.052356e-02
  1.950728e+00    7.781222e-01   1.064952e-02
  1.952938e+00    7.963289e-01   1.076333e-02
  1.955149e+00    7.940103e-01   1.073743e-02
  1.957359e+00    7.922965e-01   1.071582e-02
  1.959570e+00    7.803829e-01   1.062418e-02
  1.961780e+00    7.782595e-01   1.059989e-02
  1.963990e+00    7.774572e-01   1.058440e-02
  1.966201e+00    7.800785e-01   1.059224e-02
  1.968411e+00    7.818757e-01   1.059432e-02
  1.970622e+00    7.862583e-01   1.061390e-02
  1.972832e+00    7.851219e-01   1.059626e-02
  1.975043e+00    7.914339e-01   1.062870e-02
  1.977253e+00    7.782314e-01   1.052977e-02
  1.979464e+00    7.793953e-01   1.052763e-02
  1.981674e+00    7.647853e-01   1.041836e-02
  1.983885e+00    7.804865e-01   1.051472e-02
  1.986095e+00    7.783239e-01   1.049048e-02
  1.988305e+00    7.822043e-01   1.050666e-02
  1.990516e+00    8.009874e-01   1.062202e-02
  1.992726e+00    7.844187e-01   1.050188e-02
  1.994937e+00    7.774923e-01   1.044527e-02
  1.997147e+00    7.740113e-01   1.041215e-02
  1.999358e+00    7.637516e-01   1.033313e-02
  2.001568e+00    7.648189e-01   1.032958e-02
  2.003779e+00    7.612556e-01   1.029369e-02
  2.005989e+00    7.541128e-01   1.023337e-02
  2.008200e+00    7.587239e-01   1.025318e-02
  2.010410e+00    7.586261e-01   1.024086e-02
  2.012621e+00    7.515356e-01   1.018131e-02
  2.014831e+00    7.636374e-01   1.025149e-02
  2.017041e+00    7.872164e-01   1.039807e-02
  2.019252e+00    7.663379e-01   1.024928e-02
  2.021462e+00    7.730582e-01   1.028456e-02
  2.023673e+00    7.663073e-01   1.023016e-02
  2.025883e+00    7.684362e-01   1.023480e-02
  2.028094e+00    7.693262e-01   1.023106e-02
  2.030304e+00    7.644589e-01   1.018908e-02
  2.032515e+00    7.462493e-01   1.005778e-02
  2.034725e+00    7.602912e-01   1.014251e-02
  2.036936e+00    7.518226e-01   1.007659e-02
  2.039146e+00    7.497775e-01   1.005332e-02
  2.041356e+00    7.620219e-01   1.012542e-02
  2.043567e+00    7.592302e-01   1.009752e-02
  2.045777e+00    7.516061e-01   1.003748e-02
  2.047988e+00    7.472681e-01   9.999148e-03
  2.050198e+00    7.377616e-01   9.926983e-03
  2.052409e+00    7.366748e-01   9.912116e-03
  2.054619e+00    7.324713e-01   9.876494e-03
  2.056830e+00    7.547122e-01   1.001813e-02
  2.059040e+00    7.455186e-01   9.949455e-03
  2.061251e+00    7.454665e-01   9.941863e-03
  2.063461e+00    7.359315e-01   9.870563e-03
  2.065671e+00    7.436803e-01   9.913694e-03
  2.067882e+00    7.300947e-01   9.813853e-03
  2.070092e+00    7.168942e-01   9.715699e-03
  2.072303e+00    7.382135e-01   9.850019e-03
  2.074513e+00    7.392788e-01   9.847845e-03
  2.076724e+00    7.391927e-01   9.837844e-03
  2.078934e+00    7.304054e-01   9.770283e-03
  2.081145e+00    7.256151e-01   9.729193e-03
  2.083355e+00    7.465013e-01   9.859025e-03
  2.085566e+00    7.335796e-01   9.764474e-03
  2.087776e+00    7.283522e-01   9.720173e-03
  2.089986e+00    7.306343e-01   9.726663e-03
  2.092197e+00    7.244729e-01   9.676673e-03
  2.094407e+00    7.380919e-01   9.757967e-03
  2.096618e+00    7.281960e-01   9.683488e-03
  2.098828e+00    7.183407e-01   9.608521e-03
  2.101039e+00    7.161078e-01   9.584696e-03
  2.103249e+00    7.271732e-01   9.649822e-03
  2.105460e+00    7.321064e-01   9.673472e-03
  2.107670e+00    7.030407e-01   9.470934e-03
  2.109881e+00    7.101587e-01   9.509685e-03
  2.112091e+00    6.974891e-01   9.415677e-03
  2.114301e+00    7.052286e-01   9.459094e-03
  2.116512e+00    7.146851e-01   9.513563e-03
  2.118722e+00    7.089213e-01   9.466389e-03
  2.120933e+00    7.043095e-01   9.426774e-03
  2.123143e+00    7.222691e-01   9.537271e-03
  2.125354e+00    7.202653e-01   9.515511e-03
  2.127564e+00    7.151276e-01   9.472790e-03
  2.129775e+00    7.041002e-01   9.390798e-03
  2.131985e+00    7.178228e-01   9.472786e-03
  2.134196e+00    6.997286e-01   9.344148e-03
  2.136406e+00    7.004076e-01   9.339994e-03
  2.138617e+00    7.160939e-01   9.435505e-03
  2.140827e+00    6.959598e-01   9.317853e-03
  2.143037e+00    6.998211e-01   9.388880e-03
  2.145248e+00    7.033580e-01   9.434556e-03
  2.147458e+00    6.929398e-01   9.379437e-03
  2.149669e+00    6.854300e-01   9.340169e-03
  2.151879e+00    6.889449e-01   9.373227e-03
  2.154090e+00    6.878033e-01   9.372701e-03
  2.156300e+00    6.751485e-01   9.292562e-03
  2.158511e+00    6.826856e-01   9.349516e-03
  2.160721e+00    7.006040e-01   9.476240e-03
  2.162932e+00    7.025819e-01   9.493384e-03
  2.165142e+00    7.049393e-01   9.512316e-03
  2.167352e+00    6.959779e-01   9.454582e-03
  2.169563e+00    7.073523e-01   9.533492e-03
  2.171773e+00    6.925451e-01   9.435651e-03
  2.173984e+00    6.862149e-01   9.393799e-03
  2.176194e+00    6.928837e-01   9.440551e-03
  2.178405e+00    6.883811e-01   9.410515e-03
  2.180615e+00    6.966256e-01   9.467399e-03
  2.182826e+00    6.751158e-01   9.320760e-03
  2.185036e+00    6.741635e-01   9.314217e-03
  2.187247e+00    6.866136e-01   9.399789e-03
  2.189457e+00    6.902922e-01   9.424515e-03
  2.191667e+00    6.737928e-01   9.311050e-03
  2.193878e+00    6.868778e-01   9.400441e-03
  2.196088e+00    6.873940e-01   9.403295e-03
  2.198299e+00    6.823251e-01   9.367469e-03
  2.200509e+00    6.821476e-01   9.365203e-03
  2.202720e+00    6.796952e-01   9.347198e-03
  2.204930e+00    6.765848e-01   9.324549e-03
  2.207141e+00    6.868207e-01   9.393697e-03
  2.209351e+00    6.846641e-01   9.377052e-03
  2.211562e+00    6.803314e-01   9.345717e-03
  2.213772e+00    6.819960e-01   9.301446e-03
  2.215982e+00    6.773471e-01   9.225427e-03
  2.218193e+00    6.829105e-01   9.233452e-03
  2.220403e+00    6.697275e-01   9.119416e-03
  2.222614e+00    6.619260e-01   9.045357e-03
  2.224824e+00    6.705780e-01   9.084958e-03
  2.227035e+00    6.613337e-01   9.004811e-03
  2.229245e+00    6.724906e-01   9.063481e-03
  2.231456e+00    6.651697e-01   8.998469e-03
  2.233666e+00    6.652150e-01   8.983736e-03
  2.235877e+00    6.868924e-01   9.114503e-03
  2.238087e+00    6.756863e-01   9.026321e-03
  2.240298e+00    6.916050e-01   9.118011e-03
  2.242508e+00    6.810737e-01   9.033098e-03
  2.244718e+00    6.506373e-01   8.813334e-03
  2.246929e+00    6.730837e-01   8.949586e-03
  2.249139e+00    6.848675e-01   9.015061e-03
  2.251350e+00    6.884971e-01   9.027013e-03
  2.253560e+00    6.925132e-01   9.041529e-03
  2.255771e+00    6.940591e-01   9.039955e-03
  2.257981e+00    6.779994e-01   8.923477e-03
  2.260192e+00    6.740783e-01   8.886455e-03
  2.262402e+00    6.691698e-01   8.843130e-03
  2.264613e+00    6.764036e-01   8.879855e-03
  2.266823e+00    6.952755e-01   8.992247e-03
  2.269033e+00    7.212273e-01   9.147664e-03
  2.271244e+00    8.336747e-01   9.823265e-03
  2.273454e+00    9.966450e-01   1.072801e-02
  2.275665e+00    1.116242e+00   1.134013e-02
  2.277875e+00    1.037587e+00   1.092094e-02
  2.280086e+00    8.667120e-01   9.969781e-03
  2.282296e+00    7.211110e-01   9.083998e-03
  2.284507e+00    6.781461e-01   8.798919e-03
  2.286717e+00    6.528754e-01   8.623991e-03
  2.288928e+00    6.574368e-01   8.644172e-03
  2.291138e+00    6.630377e-01   8.671459e-03
  2.293348e+00    6.538200e-01   8.601449e-03
  2.295559e+00    6.468847e-01   8.546453e-03
  2.297769e+00    6.529559e-01   8.577236e-03
  2.299980e+00    6.321605e-01   8.430358e-03
  2.302190e+00    6.281217e-01   8.394429e-03
  2.304401e+00    6.450663e-01   8.497624e-03
  2.306611e+00    6.551453e-01   8.554555e-03
  2.308822e+00    6.479393e-01   8.499007e-03
  2.311032e+00    6.492375e-01   8.501070e-03
  2.313243e+00    6.507922e-01   8.504971e-03
  2.315453e+00    6.356583e-01   8.398004e-03
  2.317663e+00    6.363814e-01   8.393728e-03
  2.319874e+00    6.449402e-01   8.441268e-03
  2.322084e+00    6.380371e-01   8.387066e-03
  2.324295e+00    6.456590e-01   8.428765e-03
  2.326505e+00    6.432002e-01   8.403683e-03
  2.328716e+00    6.446115e-01   8.404325e-03
  2.330926e+00    6.234953e-01   8.256875e-03
  2.333137e+00    6.418797e-01   8.369328e-03
  2.335347e+00    6.362748e-01   8.323892e-03
  2.337558e+00    6.381106e-01   8.327661e-03
  2.339768e+00    6.520885e-01   8.409726e-03
  2.341979e+00    6.442347e-01   8.350521e-03
  2.344189e+00    6.555288e-01   8.414909e-03
  2.346399e+00    6.370054e-01   8.286660e-03
  2.348610e+00    6.354375e-01   8.267990e-03
  2.350820e+00    6.312865e-01   8.232784e-03
  2.353031e+00    6.246871e-01   8.181423e-03
  2.355241e+00    6.261442e-01   8.182942e-03
  2.357452e+00    6.313221e-01   8.208297e-03
  2.359662e+00    6.264013e-01   8.168053e-03
  2.361873e+00    6.380253e-01   8.235214e-03
  2.364083e+00    6.165681e-01   8.087644e-03
  2.366294e+00    6.073254e-01   8.018828e-03
  2.368504e+00    6.081973e-01   8.016609e-03
  2.370714e+00    6.205158e-01   8.089374e-03
  2.372925e+00    6.109222e-01   8.018638e-03
  2.375135e+00    6.256627e-01   8.106718e-03
  2.377346e+00    6.218060e-01   8.073779e-03
  2.379556e+00    6.245674e-01   8.083767e-03
  2.381767e+00    6.153185e-01   8.015882e-03
  2.383977e+00    5.950482e-01   7.874966e-03
  2.386188e+00    6.251816e-01   8.063925e-03
  2.388398e+00    6.202283e-01   8.023983e-03
  2.390609e+00    6.090459e-01   7.943626e-03
  2.392819e+00    6.094433e-01   7.938498e-03
  2.395029e+00    6.056305e-01   7.906020e-03
  2.397240e+00    6.114425e-01   7.936013e-03
  2.399450e+00    6.020699e-01   7.867241e-03
  2.401661e+00    5.914353e-01   7.789867e-03
  2.403871e+00    6.103721e-01   7.905863e-03
  2.406082e+00    6.087639e-01   7.888004e-03
  2.408292e+00    6.137713e-01   7.912559e-03
  2.410503e+00    6.187633e-01   7.937131e-03
  2.412713e+00    5.991083e-01   7.802311e-03
  2.414924e+00    6.006632e-01   7.804964e-03
  2.417134e+00    5.924826e-01   7.744082e-03
  2.419344e+00    6.052867e-01   7.819882e-03
  2.421555e+00    5.977417e-01   7.763518e-03
  2.423765e+00    6.053972e-01   7.805634e-03
  2.425976e+00    6.012380e-01   7.770964e-03
  2.428186e+00    5.978086e-01   7.741557e-03
  2.430397e+00    5.966796e-01   7.726766e-03
  2.432607e+00    5.868714e-01   7.655772e-03
  2.434818e+00    5.898233e-01   7.667498e-03
  2.437028e+00    5.929218e-01   7.680461e-03
  2.439239e+00    5.906336e-01   7.658002e-03
  2.441449e+00    5.854098e-01   7.616906e-03
  2.443659e+00    5.895774e-01   7.636621e-03
  2.445870e+00    5.739352e-01   7.546730e-03
  2.448080e+00    5.786787e-01   7.612520e-03
  2.450291e+00    5.582924e-01   7.493563e-03
  2.452501e+00    5.708627e-01   7.588561e-03
  2.454712e+00    5.642744e-01   7.553017e-03
  2.456922e+00    5.475614e-01   7.446798e-03
  2.459133e+00    5.562170e-01   7.510799e-03
  2.461343e+00    5.620813e-01   7.554628e-03
  2.463554e+00    5.588587e-01   7.536388e-03
  2.465764e+00    5.619672e-01   7.560456e-03
  2.467975e+00    5.687680e-01   7.608364e-03
  2.470185e+00    5.595583e-01   7.548786e-03
  2.472395e+00    5.435953e-01   7.441532e-03
  2.474606e+00    5.308279e-01   7.355151e-03
  2.476816e+00    5.413798e-01   7.428617e-03
  2.479027e+00    5.418839e-01   7.432928e-03
  2.481237e+00    5.328649e-01   7.371084e-03
  2.483448e+00    5.355746e-01   7.390082e-03
  2.485658e+00    5.416337e-01   7.431652e-03
  2.487869e+00    5.295320e-01   7.348188e-03
  2.490079e+00    5.408035e-01   7.425455e-03
  2.492290e+00    5.258138e-01   7.321409e-03
  2.494500e+00    5.341312e-01   7.378349e-03
  2.496710e+00    5.343096e-01   7.378891e-03
  2.498921e+00    5.267277e-01   7.325376e-03
  2.501131e+00    5.358221e-01   7.387362e-03
  2.503342e+00    5.455959e-01   7.453187e-03
  2.505552e+00    5.374091e-01   7.395900e-03
  2.507763e+00    5.436338e-01   7.437183e-03
  2.509973e+00    5.494371e-01   7.475355e-03
  2.512184e+00    5.390989e-01   7.403060e-03
  2.514394e+00    5.252122e-01   7.297758e-03
  2.516605e+00    5.162466e-01   7.188584e-03
  2.518815e+00    5.217719e-01   7.198736e-03
  2.521025e+00    5.340530e-01   7.261833e-03
  2.523236e+00    5.391390e-01   7.278109e-03
  2.525446e+00    5.377181e-01   7.252746e-03
  2.527657e+00    5.227625e-01   7.136597e-03
  2.529867e+00    5.283300e-01   7.160270e-03
  2.532078e+00    5.352539e-01   7.191848e-03
  2.534288e+00    5.221136e-01   7.089195e-03
  2.536499e+00    5.215504e-01   7.073443e-03
  2.538709e+00    5.237617e-01   7.077443e-03
  2.540920e+00    5.210638e-01   7.048577e-03
  2.543130e+00    5.245600e-01   7.061819e-03
  2.545340e+00    5.014164e-01   6.894425e-03
  2.547551e+00    5.159963e-01   6.984068e-03
  2.549761e+00    5.170641e-01   6.981744e-03
  2.551972e+00    5.222374e-01   7.007240e-03
  2.554182e+00    5.419934e-01   7.129166e-03
  2.556393e+00    5.526456e-01   7.189558e-03
  2.558603e+00    5.291836e-01   7.026125e-03
  2.560814e+00    5.263262e-01   6.998383e-03
  2.563024e+00    5.220286e-01   6.961139e-03
  2.565235e+00    5.170205e-01   6.918183e-03
  2.567445e+00    5.153825e-01   6.897695e-03
  2.569656e+00    5.126957e-01   6.869991e-03
  2.571866e+00    5.122429e-01   6.857659e-03
  2.574076e+00    5.085330e-01   6.823578e-03
  2.576287e+00    5.164990e-01   6.868493e-03
  2.578497e+00    5.044382e-01   6.780072e-03
  2.580708e+00    5.159077e-01   6.848616e-03
  2.582918e+00    5.183029e-01   6.856719e-03
  2.585129e+00    5.085249e-01   6.784032e-03
  2.587339e+00    5.049977e-01   6.752844e-03
  2.589550e+00    5.027173e-01   6.730109e-03
  2.591760e+00    5.108392e-01   6.776522e-03
  2.593971e+00    5.000686e-01   6.697268e-03
  2.596181e+00    5.108654e-01   6.762951e-03
  2.598391e+00    5.087717e-01   6.743917e-03
  2.600602e+00    5.118473e-01   6.758328e-03
  2.602812e+00    5.201495e-01   6.805314e-03
  2.605023e+00    5.081118e-01   6.718948e-03
  2.607233e+00    5.025626e-01   6.675041e-03
  2.609444e+00    5.112037e-01   6.724931e-03
  2.611654e+00    4.955394e-01   6.613866e-03
  2.613865e+00    4.975090e-01   6.620007e-03
  2.616075e+00    4.981897e-01   6.617461e-03
  2.618286e+00    5.059645e-01   6.661893e-03
  2.620496e+00    4.948641e-01   6.581790e-03
  2.622706e+00    4.994334e-01   6.606385e-03
  2.624917e+00    4.886561e-01   6.528973e-03
  2.627127e+00    5.027389e-01   6.616631e-03
  2.629338e+00    4.910249e-01   6.533217e-03
  2.631548e+00    4.956476e-01   6.557747e-03
  2.633759e+00    5.006873e-01   6.583893e-03
  2.635969e+00    4.978851e-01   6.558764e-03
  2.638180e+00    5.113395e-01   6.639745e-03
  2.640390e+00    5.074425e-01   6.607751e-03
  2.642601e+00    5.109012e-01   6.623501e-03
  2.644811e+00    5.042469e-01   6.573123e-03
  2.647021e+00    5.051662e-01   6.572513e-03
  2.649232e+00    5.120606e-01   6.610414e-03
  2.651442e+00    5.029379e-01   6.544734e-03
  2.653653e+00    5.067487e-01   6.562638e-03
  2.655863e+00    5.095456e-01   6.573955e-03
  2.658074e+00    5.099983e-01   6.570214e-03
  2.660284e+00    4.894133e-01   6.429915e-03
  2.662495e+00    4.953294e-01   6.461946e-03
  2.664705e+00    4.910758e-01   6.427590e-03
  2.666916e+00    4.997380e-01   6.477563e-03
  2.669126e+00    4.798310e-01   6.340875e-03
  2.671337e+00    4.859958e-01   6.374959e-03
  2.673547e+00    4.930689e-01   6.414820e-03
  2.675757e+00    4.911096e-01   6.395629e-03
  2.677968e+00    4.942962e-01   6.409825e-03
  2.680178e+00    4.910477e-01   6.382349e-03
  2.682389e+00    4.934947e-01   6.391831e-03
  2.684599e+00    4.982845e-01   6.416557e-03
  2.686810e+00    4.843408e-01   6.319594e-03
  2.689020e+00    4.635790e-01   6.176543e-03
  2.691231e+00    4.950080e-01   6.376159e-03
  2.693441e+00    4.929208e-01   6.356566e-03
  2.695652e+00    4.852744e-01   6.300580e-03
  2.697862e+00    4.835778e-01   6.283248e-03
  2.700072e+00    4.847161e-01   6.284593e-03
  2.702283e+00    4.926854e-01   6.329801e-03
  2.704493e+00    4.918727e-01   6.318275e-03
  2.706704e+00    4.897392e-01   6.298150e-03
  2.708914e+00    4.710962e-01   6.171265e-03
  2.711125e+00    4.672211e-01   6.139688e-03
  2.713335e+00    4.803806e-01   6.219510e-03
  2.715546e+00    4.915480e-01   6.284906e-03
  2.717756e+00    4.834967e-01   6.227347e-03
  2.719967e+00    4.878596e-01   6.249164e-03
  2.722177e+00    4.762683e-01   6.168411e-03
  2.724387e+00    4.791777e-01   6.181153e-03
  2.726598e+00    4.809555e-01   6.186571e-03
  2.728808e+00    4.842971e-01   6.201898e-03
  2.731019e+00    4.720218e-01   6.116739e-03
  2.733229e+00    4.851587e-01   6.195477e-03
  2.735440e+00    4.703934e-01   6.094282e-03
  2.737650e+00    4.860590e-01   6.188890e-03
  2.739861e+00    4.847644e-01   6.174585e-03
  2.742071e+00    4.807808e-01   6.143426e-03
  2.744282e+00    4.725344e-01   6.084328e-03
  2.746492e+00    4.776239e-01   6.110990e-03
  2.748702e+00    4.796652e-01   6.118153e-03
  2.750913e+00    4.826006e-01   6.131053e-03
  2.753123e+00    4.684143e-01   6.034242e-03
  2.755334e+00    4.667139e-01   6.017279e-03
  2.757544e+00    4.649132e-01   6.000015e-03
  2.759755e+00    4.810529e-01   6.097382e-03
  2.761965e+00    4.824561e-01   6.100278e-03
  2.764176e+00    4.824684e-01   6.094364e-03
  2.766386e+00    4.707896e-01   6.014402e-03
  2.768597e+00    4.829081e-01   6.085447e-03
  2.770807e+00    4.690322e-01   5.991555e-03
  2.773017e+00    4.730211e-01   6.011049e-03
  2.775228e+00    4.827221e-01   6.066563e-03
  2.777438e+00    4.817407e-01   6.054573e-03
  2.779649e+00    4.912572e-01   6.108106e-03
  2.781859e+00    4.884283e-01   6.084676e-03
  2.784070e+00    4.738588e-01   5.987394e-03
  2.786280e+00    4.820645e-01   6.033217e-03
  2.788491e+00    4.718376e-01   5.963072e-03
  2.790701e+00    4.682095e-01   5.934498e-03
  2.792912e+00    4.708757e-01   5.945444e-03
  2.795122e+00    4.838629e-01   6.021089e-03
  2.797333e+00    4.820333e-01   6.004110e-03
  2.799543e+00    4.780796e-01   5.973549e-03
  2.801753e+00    4.778148e-01   5.966038e-03
  2.803964e+00    4.709537e-01   5.917401e-03
  2.806174e+00    4.599826e-01   5.842031e-03
  2.808385e+00    4.655975e-01   5.870836e-03
  2.810595e+00    4.730880e-01   5.911022e-03
  2.812806e+00    4.686944e-01   5.876946e-03
  2.815016e+00    4.593724e-01   5.813552e-03
  2.817227e+00    4.627007e-01   5.860160e-03
  2.819437e+00    4.709992e-01   5.923540e-03
  2.821648e+00    4.750268e-01   5.951106e-03
  2.823858e+00    4.730065e-01   5.943773e-03
  2.826068e+00    4.772029e-01   5.975080e-03
  2.828279e+00    4.733644e-01   5.955048e-03
  2.830489e+00    4.684762e-01   5.927551e-03
  2.832700e+00    4.632124e-01   5.896675e-03
  2.834910e+00    4.776085e-01   5.989681e-03
  2.837121e+00    4.668274e-01   5.923419e-03
  2.839331e+00    4.575646e-01   5.865550e-03
  2.841542e+00    4.742969e-01   5.972854e-03
  2.843752e+00    4.684200e-01   5.936527e-03
  2.845963e+00    4.579166e-01   5.869979e-03
  2.848173e+00    4.659819e-01   5.921524e-03
  2.850383e+00    4.555272e-01   5.855026e-03
  2.852594e+00    4.619117e-01   5.895827e-03
  2.854804e+00    4.631673e-01   5.903337e-03
  2.857015e+00    4.591837e-01   5.877464e-03
  2.859225e+00    4.644006e-01   5.910497e-03
  2.861436e+00    4.664536e-01   5.922914e-03
  2.863646e+00    4.672187e-01   5.927783e-03
  2.865857e+00    4.604716e-01   5.885182e-03
  2.868067e+00    4.635281e-01   5.904892e-03
  2.870278e+00    4.647118e-01   5.912087e-03
  2.872488e+00    4.618791e-01   5.892874e-03
  2.874698e+00    4.628775e-01   5.898200e-03
  2.876909e+00    4.644871e-01   5.907113e-03
  2.879119e+00    4.622965e-01   5.891554e-03
  2.881330e+00    4.623390e-01   5.890340e-03
  2.883540e+00    4.578134e-01   5.860075e-03
  2.885751e+00    4.473561e-01   5.791135e-03
  2.887961e+00    4.535277e-01   5.829075e-03
  2.890172e+00    4.545138e-01   5.833816e-03
  2.892382e+00    4.532552e-01   5.823946e-03
  2.894593e+00    4.605785e-01   5.868982e-03
  2.896803e+00    4.581777e-01   5.851712e-03
  2.899014e+00    4.483457e-01   5.786684e-03
  2.901224e+00    4.581629e-01   5.847712e-03
  2.903434e+00    4.489267e-01   5.786554e-03
  2.905645e+00    4.514010e-01   5.800261e-03
  2.907855e+00    4.589995e-01   5.846776e-03
  2.910066e+00    4.667496e-01   5.893851e-03
  2.912276e+00    4.582292e-01   5.837681e-03
  2.914487e+00    4.565467e-01   5.824501e-03
  2.916697e+00    4.533434e-01   5.801832e-03
  2.918908e+00    4.518819e-01   5.790468e-03
  2.921118e+00    4.541553e-01   5.802331e-03
  2.923329e+00    4.529934e-01   5.792620e-03
  2.925539e+00    4.424125e-01   5.722310e-03
  2.927749e+00    4.499248e-01   5.768387e-03
  2.929960e+00    4.619659e-01   5.842289e-03
  2.932170e+00    4.533766e-01   5.785401e-03
  2.934381e+00    4.473071e-01   5.744143e-03
  2.936591e+00    4.467780e-01   5.738170e-03
  2.938802e+00    4.427356e-01   5.709494e-03
  2.941012e+00    4.477488e-01   5.739403e-03
  2.943223e+00    4.469102e-01   5.731365e-03
  2.945433e+00    4.534938e-01   5.769697e-03
  2.947644e+00    4.583811e-01   5.796548e-03
  2.949854e+00    4.633906e-01   5.823848e-03
  2.952064e+00    4.382573e-01   5.659566e-03
  2.954275e+00    4.458820e-01   5.704196e-03
  2.956485e+00    4.548943e-01   5.757378e-03
  2.958696e+00    4.583117e-01   5.774586e-03
  2.960906e+00    4.421923e-01   5.668007e-03
  2.963117e+00    4.480031e-01   5.700654e-03
  2.965327e+00    4.529066e-01   5.727881e-03
  2.967538e+00    4.506233e-01   5.710527e-03
  2.969748e+00    4.495090e-01   5.700654e-03
  2.971959e+00    4.504887e-01   5.703742e-03
  2.974169e+00    4.654077e-01   5.794806e-03
  2.976379e+00    4.517150e-01   5.706020e-03
  2.978590e+00    4.594569e-01   5.751544e-03
  2.980800e+00    4.634516e-01   5.773676e-03
  2.983011e+00    4.653010e-01   5.782356e-03
  2.985221e+00    4.546408e-01   5.712578e-03
  2.987432e+00    4.584047e-01   5.733042e-03
  2.989642e+00    4.541260e-01   5.703616e-03
  2.991853e+00    4.445055e-01   5.639614e-03
  2.994063e+00    4.510749e-01   5.678245e-03
  2.996274e+00    4.552161e-01   5.701048e-03
  2.998484e+00    4.676170e-01   5.775454e-03
  3.000694e+00    4.512095e-01   5.669779e-03
  3.002905e+00    4.498840e-01   5.658532e-03
  3.005115e+00    4.341264e-01   5.555615e-03
  3.007326e+00    4.529839e-01   5.671855e-03
  3.009536e+00    4.489725e-01   5.643434e-03
  3.011747e+00    4.499804e-01   5.646865e-03
  3.013957e+00    4.539796e-01   5.668726e-03
  3.016168e+00    4.413633e-01   5.586175e-03
  3.018378e+00    4.656495e-01   5.734729e-03
  3.020589e+00    4.548525e-01   5.664635e-03
  3.022799e+00    4.580149e-01   5.681124e-03
  3.025010e+00    4.462474e-01   5.604431e-03
  3.027220e+00    4.526269e-01   5.641245e-03
  3.029430e+00    4.672001e-01   5.728057e-03
  3.031641e+00    4.413026e-01   5.563920e-03
  3.033851e+00    4.445207e-01   5.580683e-03
  3.036062e+00    4.512881e-01   5.620221e-03
  3.038272e+00    4.459811e-01   5.583535e-03
  3.040483e+00    4.545585e-01   5.633733e-03
  3.042693e+00    4.449815e-01   5.570830e-03
  3.044904e+00    4.409466e-01   5.541535e-03
  3.047114e+00    4.424877e-01   5.546452e-03
  3.049325e+00    4.367369e-01   5.505957e-03
  3.051535e+00    4.485561e-01   5.575593e-03
  3.053745e+00    4.504426e-01   5.582541e-03
  3.055956e+00    4.593204e-01   5.632676e-03
  3.058166e+00    4.556558e-01   5.605889e-03
  3.060377e+00    4.591837e-01   5.622713e-03
  3.062587e+00    4.530177e-01   5.580202e-03
  3.064798e+00    4.385034e-01   5.485884e-03
  3.067008e+00    4.417899e-01   5.501706e-03
  3.069219e+00    4.461212e-01   5.524119e-03
  3.071429e+00    4.538774e-01   5.568396e-03
  3.073640e+00    4.412543e-01   5.487129e-03
  3.075850e+00    4.498870e-01   5.536946e-03
  3.078060e+00    4.533836e-01   5.555319e-03
  3.080271e+00    4.461676e-01   5.507450e-03
  3.082481e+00    4.421014e-01   5.478888e-03
  3.084692e+00    4.471618e-01   5.506775e-03
  3.086902e+00    4.379629e-01   5.446636e-03
  3.089113e+00    4.318371e-01   5.404907e-03
  3.091323e+00    4.463470e-01   5.491583e-03
  3.093534e+00    4.486196e-01   5.502176e-03
  3.095744e+00    4.443387e-01   5.472499e-03
  3.097955e+00    4.401831e-01   5.443334e-03
  3.100165e+00    4.321583e-01   5.390212e-03
  3.102375e+00    4.402508e-01   5.437040e-03
  3.104586e+00    4.438880e-01   5.455971e-03
  3.106796e+00    4.536842e-01   5.512307e-03
  3.109007e+00    4.553141e-01   5.518952e-03
  3.111217e+00    4.331061e-01   5.379031e-03
  3.113428e+00    4.444526e-01   5.445633e-03
  3.115638e+00    4.347479e-01   5.382651e-03
  3.117849e+00    4.511272e-01   5.479353e-03
  3.120059e+00    4.471092e-01   5.451447e-03
  3.122270e+00    4.401476e-01   5.405593e-03
  3.124480e+00    4.444139e-01   5.428038e-03
  3.126691e+00    4.451846e-01   5.429183e-03
  3.128901e+00    4.393085e-01   5.390133e-03
  3.131111e+00    4.412721e-01   5.398327e-03
  3.133322e+00    4.441889e-01   5.412696e-03
  3.135532e+00    4.560815e-01   5.481225e-03
  3.137743e+00    4.615279e-01   5.510321e-03
  3.139953e+00    4.521141e-01   5.450122e-03
  3.142164e+00    4.484192e-01   5.439875e-03
  3.144374e+00    4.471720e-01   5.460875e-03
  3.146585e+00    4.434594e-01   5.452751e-03
  3.148795e+00    4.443756e-01   5.469158e-03
  3.151006e+00    4.521870e-01   5.525664e-03
  3.153216e+00    4.353486e-01   5.428914e-03
  3.155426e+00    4.412697e-01   5.471999e-03
  3.157637e+00    4.407294e-01   5.474180e-03
  3.159847e+00    4.418591e-01   5.486064e-03
  3.162058e+00    4.735774e-01   5.684137e-03
  3.164268e+00    4.884285e-01   5.776882e-03
  3.166479e+00    4.559562e-01   5.585295e-03
  3.168689e+00    4.409875e-01   5.496187e-03
  3.170900e+00    4.392538e-01   5.488553e-03
  3.173110e+00    4.310976e-01   5.440196e-03
  3.175321e+00    4.381359e-01   5.486926e-03
  3.177531e+00    4.459901e-01   5.538642e-03
  3.179741e+00    4.465133e-01   5.544007e-03
  3.181952e+00    4.253307e-01   5.412965e-03
  3.184162e+00    4.332951e-01   5.465590e-03
  3.186373e+00    4.396024e-01   5.506838e-03
  3.188583e+00    4.297896e-01   5.446800e-03
  3.190794e+00    4.306942e-01   5.454261e-03
  3.193004e+00    4.536096e-01   5.598750e-03
  3.195215e+00    4.432433e-01   5.535945e-03
  3.197425e+00    4.230209e-01   5.409363e-03
  3.199636e+00    4.305044e-01   5.456235e-03
  3.201846e+00    4.351005e-01   5.484672e-03
  3.204056e+00    4.399218e-01   5.515879e-03
  3.206267e+00    4.397598e-01   5.515720e-03
  3.208477e+00    4.404844e-01   5.521183e-03
  3.210688e+00    4.323242e-01   5.470658e-03
  3.212898e+00    4.315220e-01   5.466149e-03
  3.215109e+00    4.273394e-01   5.440342e-03
  3.217319e+00    4.336623e-01   5.481079e-03
  3.219530e+00    4.201686e-01   5.395516e-03
  3.221740e+00    4.324112e-01   5.474125e-03
  3.223951e+00    4.268371e-01   5.439197e-03
  3.226161e+00    4.309393e-01   5.465445e-03
  3.228372e+00    4.274939e-01   5.444104e-03
  3.230582e+00    4.235984e-01   5.419373e-03
  3.232792e+00    4.245548e-01   5.425701e-03
  3.235003e+00    4.316590e-01   5.471158e-03
  3.237213e+00    4.215715e-01   5.406961e-03
  3.239424e+00    4.216363e-01   5.407366e-03
  3.241634e+00    4.437623e-01   5.547557e-03
  3.243845e+00    4.336664e-01   5.484165e-03
  3.246055e+00    4.325373e-01   5.476755e-03
  3.248266e+00    4.247224e-01   5.427248e-03
  3.250476e+00    4.202608e-01   5.398370e-03
  3.252687e+00    4.131952e-01   5.352710e-03
  3.254897e+00    4.267019e-01   5.439374e-03
  3.257107e+00    4.253613e-01   5.430512e-03
  3.259318e+00    4.369465e-01   5.503727e-03
  3.261528e+00    4.270126e-01   5.440681e-03
  3.263739e+00    4.271609e-01   5.441051e-03
  3.265949e+00    4.185565e-01   5.385865e-03
  3.268160e+00    4.199100e-01   5.394131e-03
  3.270370e+00    4.261822e-01   5.433778e-03
  3.272581e+00    4.191042e-01   5.388186e-03
  3.274791e+00    4.185535e-01   5.384118e-03
  3.277002e+00    4.250966e-01   5.425468e-03
  3.279212e+00    4.279225e-01   5.443106e-03
  3.281422e+00    4.181110e-01   5.379752e-03
  3.283633e+00    4.328028e-01   5.472783e-03
  3.285843e+00    4.223797e-01   5.406145e-03
  3.288054e+00    4.129101e-01   5.344271e-03
  3.290264e+00    4.242290e-01   5.416712e-03
  3.292475e+00    4.268745e-01   5.432739e-03
  3.294685e+00    4.191445e-01   5.382690e-03
  3.296896e+00    4.274645e-01   5.435103e-03
  3.299106e+00    4.155391e-01   5.358181e-03
  3.301317e+00    4.278246e-01   5.435800e-03
  3.303527e+00    4.214906e-01   5.394936e-03
  3.305737e+00    4.214660e-01   5.393730e-03
  3.307948e+00    4.243284e-01   5.411366e-03
  3.310158e+00    4.079351e-01   5.304952e-03
  3.312369e+00    4.172609e-01   5.364367e-03
  3.314579e+00    4.240142e-01   5.406712e-03
  3.316790e+00    4.098427e-01   5.314877e-03
  3.319000e+00    4.259943e-01   5.417414e-03
  3.321211e+00    4.189548e-01   5.371842e-03
  3.323421e+00    4.291510e-01   5.435631e-03
  3.325632e+00    4.337434e-01   5.463724e-03
  3.327842e+00    4.070109e-01   5.291794e-03
  3.330052e+00    4.190295e-01   5.368263e-03
  3.332263e+00    4.272679e-01   5.419773e-03
  3.334473e+00    4.218655e-01   5.384472e-03
  3.336684e+00    4.242773e-01   5.398599e-03
  3.338894e+00    4.111487e-01   5.313568e-03
  3.341105e+00    4.054079e-01   5.275170e-03
  3.343315e+00    4.138773e-01   5.328826e-03
  3.345526e+00    4.156830e-01   5.339571e-03
  3.347736e+00    4.232881e-01   5.386762e-03
  3.349947e+00    4.130467e-01   5.320284e-03
  3.352157e+00    4.211317e-01   5.370914e-03
  3.354368e+00    4.293766e-01   5.421941e-03
  3.356578e+00    4.217995e-01   5.372860e-03
  3.358788e+00    4.199108e-01   5.359489e-03
  3.360999e+00    4.077383e-01   5.280000e-03
  3.363209e+00    4.331083e-01   5.440758e-03
  3.365420e+00    4.153347e-01   5.326441e-03
  3.367630e+00    4.113616e-01   5.299892e-03
  3.369841e+00    4.179904e-01   5.340987e-03
  3.372051e+00    4.330123e-01   5.434091e-03
  3.374262e+00    4.268418e-01   5.392786e-03
  3.376472e+00    4.177494e-01   5.332601e-03
  3.378683e+00    4.139540e-01   5.305797e-03
  3.380893e+00    4.079391e-01   5.264814e-03
  3.383103e+00    4.040000e-01   5.236640e-03
  3.385314e+00    4.174585e-01   5.320920e-03
  3.387524e+00    4.194912e-01   5.331138e-03
  3.389735e+00    4.089985e-01   5.261411e-03
  3.391945e+00    4.214060e-01   5.336895e-03
  3.394156e+00    4.225704e-01   5.340022e-03
  3.396366e+00    4.110947e-01   5.263600e-03
  3.398577e+00    3.949963e-01   5.156525e-03
  3.400787e+00    3.963299e-01   5.176923e-03
  3.402998e+00    4.023265e-01   5.253631e-03
  3.405208e+00    3.964956e-01   5.235857e-03
  3.407418e+00    3.953791e-01   5.244175e-03
  3.409629e+00    3.813641e-01   5.163989e-03
  3.411839e+00    3.833767e-01   5.189121e-03
  3.414050e+00    3.868404e-01   5.223381e-03
  3.416260e+00    3.878117e-01   5.239483e-03
  3.418471e+00    3.809302e-01   5.202065e-03
  3.420681e+00    3.769763e-01   5.183302e-03
  3.422892e+00    3.925986e-01   5.297651e-03
  3.425102e+00    3.786027e-01   5.210077e-03
  3.427313e+00    3.675519e-01   5.140444e-03
  3.429523e+00    3.679875e-01   5.150397e-03
  3.431733e+00    3.707651e-01   5.176327e-03
  3.433944e+00    3.571010e-01   5.086284e-03
  3.436154e+00    3.832483e-01   5.275426e-03
  3.438365e+00    3.844784e-01   5.289898e-03
  3.440575e+00    3.808728e-01   5.270910e-03
  3.442786e+00    3.802824e-01   5.272478e-03
  3.444996e+00    3.806330e-01   5.280420e-03
  3.447207e+00    3.626781e-01   5.159594e-03
  3.449417e+00    3.636664e-01   5.206971e-03
  3.451628e+00    3.716128e-01   5.293105e-03
  3.453838e+00    3.862729e-01   5.418194e-03
  3.456049e+00    3.726290e-01   5.345765e-03
  3.458259e+00    3.622314e-01   5.292441e-03
  3.460469e+00    3.676914e-01   5.351983e-03
  3.462680e+00    3.600272e-01   5.314819e-03
  3.464890e+00    3.738571e-01   5.433911e-03
  3.467101e+00    3.606450e-01   5.354341e-03
  3.469311e+00    3.711301e-01   5.448172e-03
  3.471522e+00    3.739800e-01   5.485432e-03
  3.473732e+00    3.870735e-01   5.596741e-03
  3.475943e+00    4.093991e-01   5.772132e-03
  3.478153e+00    3.993459e-01   5.716512e-03
  3.480364e+00    4.024269e-01   5.753813e-03
  3.482574e+00    4.176269e-01   5.877096e-03
  3.484784e+00    4.157773e-01   5.879016e-03
  3.486995e+00    4.237700e-01   5.950500e-03
  3.489205e+00    4.386454e-01   6.068958e-03
  3.491416e+00    4.384567e-01   6.082780e-03
  3.493626e+00    4.361477e-01   6.081364e-03
  3.495837e+00    4.503593e-01   6.194545e-03
  3.498047e+00    4.370360e-01   6.116622e-03
  3.500258e+00    4.333211e-01   6.104823e-03
  3.502468e+00    4.667630e-01   6.350616e-03
  3.504679e+00    4.605405e-01   6.322692e-03
  3.506889e+00    4.604582e-01   6.336428e-03
  3.509099e+00    4.827929e-01   6.502834e-03
  3.511310e+00    4.806728e-01   6.503068e-03
  3.513520e+00    4.859821e-01   6.553375e-03
  3.515731e+00    5.017721e-01   6.673572e-03
  3.517941e+00    4.953822e-01   6.645420e-03
  3.520152e+00    4.993623e-01   6.686407e-03
  3.522362e+00    5.098550e-01   6.770923e-03
  3.524573e+00    5.150747e-01   6.819897e-03
  3.526783e+00    5.131935e-01   6.820819e-03
  3.528994e+00    5.180192e-01   6.865081e-03
  3.531204e+00    5.339507e-01   6.982406e-03
  3.533414e+00    5.320969e-01   6.982485e-03
  3.535625e+00    5.190663e-01   6.908702e-03
  3.537835e+00    5.318565e-01   7.005395e-03
  3.540046e+00    5.251064e-01   6.969674e-03
  3.542256e+00    5.201808e-01   6.944327e-03
  3.544467e+00    5.325816e-01   7.034175e-03
  3.546677e+00    5.478302e-01   7.141849e-03
  3.548888e+00    5.363340e-01   7.074021e-03
  3.551098e+00    5.301200e-01   7.040167e-03
  3.553309e+00    5.265320e-01   7.024393e-03
  3.555519e+00    5.410315e-01   7.131788e-03
  3.557729e+00    5.401592e-01   7.137822e-03
  3.559940e+00    5.417906e-01   7.160190e-03
  3.562150e+00    5.339326e-01   7.119797e-03
  3.564361e+00    5.294386e-01   7.102964e-03
  3.566571e+00    5.368459e-01   7.166340e-03
  3.568782e+00    5.434801e-01   7.224685e-03
  3.570992e+00    5.410911e-01   7.222635e-03
  3.573203e+00    5.447101e-01   7.260986e-03
  3.575413e+00    5.368151e-01   7.221967e-03
  3.577624e+00    5.415327e-01   7.267841e-03
  3.579834e+00    5.223381e-01   7.151554e-03
  3.582045e+00    5.339321e-01   7.244533e-03
  3.584255e+00    5.182127e-01   7.150889e-03
  3.586465e+00    5.020527e-01   7.051989e-03
  3.588676e+00    5.225312e-01   7.208362e-03
  3.590886e+00    5.183834e-01   7.193219e-03
  3.593097e+00    5.212915e-01   7.227653e-03
  3.595307e+00    5.324017e-01   7.318158e-03
  3.597518e+00    5.163877e-01   7.221216e-03
  3.599728e+00    5.269866e-01   7.308924e-03
  3.601939e+00    5.266714e-01   7.320687e-03
  3.604149e+00    5.369133e-01   7.405923e-03
  3.606360e+00    5.465090e-01   7.486145e-03
  3.608570e+00    5.460181e-01   7.497065e-03
  3.610780e+00    5.484720e-01   7.525106e-03
  3.612991e+00    5.341545e-01   7.436217e-03
  3.615201e+00    5.390841e-01   7.480322e-03
  3.617412e+00    5.128400e-01   7.303082e-03
  3.619622e+00    5.081351e-01   7.275296e-03
  3.621833e+00    5.361163e-01   7.479629e-03
  3.624043e+00    5.325306e-01   7.464090e-03
  3.626254e+00    5.276232e-01   7.439272e-03
  3.628464e+00    5.332733e-01   7.489934e-03
  3.630675e+00    5.400360e-01   7.551492e-03
  3.632885e+00    5.428301e-01   7.585566e-03
  3.635095e+00    5.107466e-01   7.372072e-03
  3.637306e+00    5.494578e-01   7.660910e-03
  3.639516e+00    5.189614e-01   7.459654e-03
  3.641727e+00    5.282369e-01   7.540459e-03
  3.643937e+00    5.390659e-01   7.632022e-03
  3.646148e+00    5.288888e-01   7.574192e-03
  3.648358e+00    5.394624e-01   7.664463e-03
  3.650569e+00    5.283620e-01   7.599887e-03
  3.652779e+00    5.245454e-01   7.587023e-03
  3.654990e+00    5.287359e-01   7.632138e-03
  3.657200e+00    5.155161e-01   7.550729e-03
  3.659410e+00    5.375742e-01   7.725657e-03
  3.661621e+00    5.361261e-01   7.730413e-03
  3.663831e+00    5.187620e-01   7.619116e-03
  3.666042e+00    5.315998e-01   7.727991e-03
  3.668252e+00    5.291483e-01   7.725311e-03
  3.670463e+00    5.364793e-01   7.794028e-03
  3.672673e+00    5.305554e-01   7.766258e-03
  3.674884e+00    5.147588e-01   7.664927e-03
  3.677094e+00    5.093923e-01   7.640087e-03
  3.679305e+00    5.281590e-01   7.795041e-03
  3.681515e+00    5.199985e-01   7.750093e-03
  3.683726e+00    5.204648e-01   7.769175e-03
  3.685936e+00    5.335717e-01   7.882209e-03
  3.688146e+00    5.358961e-01   7.915259e-03
  3.690357e+00    5.347413e-01   7.922759e-03
  3.692567e+00    5.265573e-01   7.878019e-03
  3.694778e+00    5.196813e-01   7.842363e-03
  3.696988e+00    5.230020e-01   7.883318e-03
  3.699199e+00    5.199134e-01   7.876142e-03
  3.701409e+00    5.184582e-01   7.881404e-03
  3.703620e+00    5.100462e-01   7.833258e-03
  3.705830e+00    5.118784e-01   7.863573e-03
  3.708041e+00    4.961436e-01   7.757843e-03
  3.710251e+00    5.269358e-01   8.011742e-03
  3.712461e+00    5.283191e-01   8.039099e-03
  3.714672e+00    5.273926e-01   8.048864e-03
  3.716882e+00    5.254826e-01   8.051096e-03
  3.719093e+00    5.165067e-01   7.999058e-03
  3.721303e+00    5.396771e-01   8.193814e-03
  3.723514e+00    5.207212e-01   8.065956e-03
  3.725724e+00    5.048324e-01   7.958789e-03
  3.727935e+00    5.139104e-01   8.047502e-03
  3.730145e+00    5.034474e-01   7.982218e-03
  3.732356e+00    5.140744e-01   8.083512e-03
  3.734566e+00    5.089717e-01   8.060773e-03
  3.736776e+00    4.858854e-01   7.893026e-03
  3.738987e+00    5.128032e-01   8.126470e-03
  3.741197e+00    5.108269e-01   8.128745e-03
  3.743408e+00    5.105937e-01   8.144888e-03
  3.745618e+00    5.298237e-01   8.315478e-03
  3.747829e+00    5.205162e-01   8.260343e-03
  3.750039e+00    5.171265e-01   8.251905e-03
  3.752250e+00    5.088991e-01   8.204428e-03
  3.754460e+00    4.875383e-01   8.048528e-03
  3.756671e+00    4.964634e-01   8.140408e-03
  3.758881e+00    5.047125e-01   8.226298e-03
  3.761091e+00    5.157705e-01   8.335228e-03
  3.763302e+00    5.154209e-01   8.351648e-03
  3.765512e+00    5.024529e-01   8.265046e-03
  3.767723e+00    5.086502e-01   8.335209e-03
  3.769933e+00    4.937503e-01   8.231386e-03
  3.772144e+00    4.967819e-01   8.275963e-03
  3.774354e+00    5.006568e-01   8.327913e-03
  3.776565e+00    4.817175e-01   8.188337e-03
  3.778775e+00    4.938916e-01   8.310748e-03
  3.780986e+00    5.167530e-01   8.521601e-03
  3.783196e+00    5.118873e-01   8.501776e-03
  3.785407e+00    5.079973e-01   8.489924e-03
  3.787617e+00    5.156040e-01   8.574266e-03
  3.789827e+00    5.099164e-01   8.547584e-03
  3.792038e+00    4.948390e-01   8.440898e-03
  3.794248e+00    5.158293e-01   8.639546e-03
  3.796459e+00    4.935395e-01   8.472024e-03
  3.798669e+00    4.975765e-01   8.527895e-03
  3.800880e+00    5.111888e-01   8.665428e-03
  3.803090e+00    5.218768e-01   8.777858e-03
  3.805301e+00    5.061438e-01   8.666710e-03
  3.807511e+00    5.043323e-01   8.673366e-03
  3.809722e+00    4.835035e-01   8.514151e-03
  3.811932e+00    4.933599e-01   8.622674e-03
  3.814142e+00    4.877008e-01   8.595580e-03
  3.816353e+00    5.089185e-01   8.803709e-03
  3.818563e+00    5.036884e-01   8.781523e-03
  3.820774e+00    5.084018e-01   8.845969e-03
  3.822984e+00    4.873137e-01   8.683683e-03
  3.825195e+00    5.027819e-01   8.844158e-03
  3.827405e+00    5.267125e-01   9.076900e-03
  3.829616e+00    4.905099e-01   8.783272e-03
  3.831826e+00    4.918310e-01   8.819094e-03
  3.834037e+00    4.845988e-01   8.778247e-03
  3.836247e+00    4.925094e-01   8.874076e-03
  3.838457e+00    5.031512e-01   8.994741e-03
  3.840668e+00    5.058250e-01   9.043985e-03
  3.842878e+00    5.060443e-01   9.071722e-03
  3.845089e+00    4.898700e-01   8.951060e-03
  3.847299e+00    5.014818e-01   9.082401e-03
  3.849510e+00    5.125603e-01   9.208485e-03
  3.851720e+00    5.193817e-01   9.291489e-03
  3.853931e+00    5.090397e-01   9.217860e-03
  3.856141e+00    4.996580e-01   9.151499e-03
  3.858352e+00    5.285795e-01   9.432652e-03
  3.860562e+00    4.875139e-01   9.077992e-03
  3.862772e+00    4.841763e-01   9.066267e-03
  3.864983e+00    4.722479e-01   8.973060e-03
  3.867193e+00    4.911774e-01   9.170887e-03
  3.869404e+00    5.091065e-01   9.356874e-03
  3.871614e+00    4.982540e-01   9.276735e-03
  3.873825e+00    4.806716e-01   9.131582e-03
  3.876035e+00    4.975500e-01   9.311198e-03
  3.878246e+00    5.274723e-01   9.613845e-03
  3.880456e+00    4.880806e-01   9.276721e-03
  3.882667e+00    4.806518e-01   9.234821e-03
  3.884877e+00    4.879592e-01   9.334399e-03
  3.887087e+00    4.618007e-01   9.109785e-03
  3.889298e+00    4.833961e-01   9.350454e-03
  3.891508e+00    4.889219e-01   9.434181e-03
  3.893719e+00    5.224639e-01   9.784494e-03
  3.895929e+00    4.872150e-01   9.479917e-03
  3.898140e+00    4.822569e-01   9.463067e-03
  3.900350e+00    4.750996e-01   9.424109e-03
  3.902561e+00    4.900156e-01   9.603281e-03
  3.904771e+00    4.985549e-01   9.719764e-03
  3.906982e+00    4.945609e-01   9.714030e-03
  3.909192e+00    4.942881e-01   9.745014e-03
  3.911403e+00    4.716195e-01   9.552378e-03
  3.913613e+00    5.150666e-01   1.001775e-02
  3.915823e+00    4.998517e-01   9.904002e-03
  3.918034e+00    4.932267e-01   9.873594e-03
  3.920244e+00    4.847117e-01   9.823468e-03
  3.922455e+00    5.024081e-01   1.003794e-02
  3.924665e+00    4.652351e-01   9.694932e-03
  3.926876e+00    4.804874e-01   9.889353e-03
  3.929086e+00    4.948849e-01   1.007413e-02
  3.931297e+00    5.087785e-01   1.025012e-02
  3.933507e+00    4.801556e-01   9.986372e-03
  3.935718e+00    4.886418e-01   1.010297e-02
  3.937928e+00    4.885518e-01   1.013153e-02
  3.940138e+00    4.843898e-01   1.011748e-02
  3.942349e+00    4.825027e-01   1.012751e-02
  3.944559e+00    5.216273e-01   1.056113e-02
  3.946770e+00    5.082038e-01   1.045530e-02
  3.948980e+00    4.635909e-01   1.001575e-02
  3.951191e+00    4.766715e-01   1.018662e-02
  3.953401e+00    4.846963e-01   1.030327e-02
  3.955612e+00    5.025014e-01   1.052301e-02
  3.957822e+00    4.689579e-01   1.019690e-02
  3.960033e+00    4.550816e-01   1.007636e-02
  3.962243e+00    4.820204e-01   1.040310e-02
  3.964453e+00    4.847140e-01   1.046520e-02
  3.966664e+00    4.942275e-01   1.060106e-02
  3.968874e+00    4.706947e-01   1.037361e-02
  3.971085e+00    5.044457e-01   1.076135e-02
  3.973295e+00    5.264011e-01   1.101551e-02
  3.975506e+00    5.004238e-01   1.076210e-02
  3.977716e+00    4.941034e-01   1.071621e-02
  3.979927e+00    4.892702e-01   1.068580e-02
  3.982137e+00    5.238189e-01   1.107984e-02
  3.984348e+00    5.241559e-01   1.110686e-02
  3.986558e+00    4.990715e-01   1.086050e-02
  3.988768e+00    4.754176e-01   1.062282e-02
  3.990979e+00    4.726869e-01   1.061457e-02
  3.993189e+00    5.095158e-01   1.104407e-02
  3.995400e+00    5.026581e-01   1.099341e-02
  3.997610e+00    5.142988e-01   1.115073e-02
  3.999821e+00    4.910229e-01   1.093328e-02
  4.002031e+00    4.875700e-01   1.093322e-02
  4.004242e+00    4.765811e-01   1.084743e-02
  4.006452e+00    4.741738e-01   1.085905e-02
  4.008663e+00    5.025137e-01   1.121945e-02
  4.010873e+00    4.912763e-01   1.113360e-02
  4.013084e+00    4.767686e-01   1.100861e-02
  4.015294e+00    4.583016e-01   1.083317e-02
  4.017504e+00    4.962482e-01   1.131499e-02
  4.019715e+00    4.998927e-01   1.139984e-02
  4.021925e+00    4.459604e-01   1.080845e-02
  4.024136e+00    4.772398e-01   1.122453e-02
  4.026346e+00    5.098899e-01   1.164735e-02
  4.028557e+00    4.785784e-01   1.132823e-02
  4.030767e+00    4.867759e-01   1.147052e-02
  4.032978e+00    5.007987e-01   1.168180e-02
  4.035188e+00    4.814948e-01   1.150052e-02
  4.037399e+00    4.763981e-01   1.148661e-02
  4.039609e+00    4.615700e-01   1.135314e-02
  4.041819e+00    4.667425e-01   1.146448e-02
  4.044030e+00    4.745957e-01   1.160993e-02
  4.046240e+00    4.680920e-01   1.157926e-02
  4.048451e+00    4.642018e-01   1.158101e-02
  4.050661e+00    4.555478e-01   1.152238e-02
  4.052872e+00    4.871457e-01   1.196840e-02
  4.055082e+00    4.794156e-01   1.192637e-02
  4.057293e+00    5.105700e-01   1.236296e-02
  4.059503e+00    5.260207e-01   1.260571e-02
  4.061714e+00    5.002818e-01   1.235115e-02
  4.063924e+00    4.905403e-01   1.228744e-02
  4.066134e+00    4.733822e-01   1.212755e-02
  4.068345e+00    4.966017e-01   1.248108e-02
  4.070555e+00    4.839196e-01   1.238034e-02
  4.072766e+00    4.959095e-01   1.259430e-02
  4.074976e+00    4.920302e-01   1.260761e-02
  4.077187e+00    4.617538e-01   1.227440e-02
  4.079397e+00    4.903253e-01   1.271274e-02
  4.081608e+00    5.145048e-01   1.309031e-02
  4.083818e+00    4.419349e-01   1.219524e-02
  4.086029e+00    4.472067e-01   1.233225e-02
  4.088239e+00    4.675437e-01   1.267759e-02
  4.090449e+00    4.919460e-01   1.307469e-02
  4.092660e+00    4.816344e-01   1.300809e-02
  4.094870e+00    4.879677e-01   1.316612e-02
  4.097081e+00    4.834615e-01   1.317707e-02
  4.099291e+00    4.948778e-01   1.338682e-02
  4.101502e+00    4.793971e-01   1.322495e-02
  4.103712e+00    5.002789e-01   1.356030e-02
  4.105923e+00    4.560254e-01   1.299672e-02
  4.108133e+00    4.633827e-01   1.315170e-02
  4.110344e+00    4.967470e-01   1.366897e-02
  4.112554e+00    4.945573e-01   1.369278e-02
  4.114764e+00    4.638605e-01   1.331417e-02
  4.116975e+00    5.183550e-01   1.413005e-02
  4.119185e+00    4.827944e-01   1.369238e-02
  4.121396e+00    4.608282e-01   1.343230e-02
  4.123606e+00    4.915563e-01   1.392980e-02
  4.125817e+00    4.878120e-01   1.393483e-02
  4.128027e+00    5.117059e-01   1.433222e-02
  4.130238e+00    4.783658e-01   1.391668e-02
  4.132448e+00    5.138649e-01   1.448654e-02
  4.134659e+00    5.026403e-01   1.438915e-02
  4.136869e+00    4.942489e-01   1.433217e-02
  4.139080e+00    4.734604e-01   1.409066e-02
  4.141290e+00    5.048056e-01   1.461408e-02
  4.143500e+00    4.829580e-01   1.436024e-02
  4.145711e+00    4.913985e-01   1.455292e-02
  4.147921e+00    4.585215e-01   1.412215e-02
  4.150132e+00    4.833417e-01   1.456851e-02
  4.152342e+00    5.392959e-01   1.546313e-02
  4.154553e+00    5.213370e-01   1.527600e-02
  4.156763e+00    4.654402e-01   1.450524e-02
  4.158974e+00    4.826252e-01   1.484465e-02
  4.161184e+00    4.672705e-01   1.467922e-02
  4.163395e+00    4.451936e-01   1.440131e-02
  4.165605e+00    4.996444e-01   1.533597e-02
  4.167815e+00    4.703477e-01   1.495728e-02
  4.170026e+00    4.880575e-01   1.531642e-02
  4.172236e+00    5.076923e-01   1.570600e-02
  4.174447e+00    5.130363e-01   1.587434e-02
  4.176657e+00    4.450975e-01   1.486686e-02
  4.178868e+00    5.037786e-01   1.590592e-02
  4.181078e+00    4.688118e-01   1.543052e-02
  4.183289e+00    4.764411e-01   1.564465e-02
  4.185499e+00    4.965044e-01   1.606473e-02
  4.187710e+00    4.678881e-01   1.568637e-02
  4.189920e+00    4.918689e-01   1.618020e-02
  4.192130e+00    4.997570e-01   1.640905e-02
  4.194341e+00    4.948736e-01   1.642880e-02
  4.196551e+00    4.414989e-01   1.561586e-02
  4.198762e+00    4.528567e-01   1.591589e-02
  4.200972e+00    4.655848e-01   1.624230e-02
  4.203183e+00    4.408214e-01   1.590888e-02
  4.205393e+00    4.545626e-01   1.626217e-02
  4.207604e+00    4.705795e-01   1.665927e-02
  4.209814e+00    4.905155e-01   1.712515e-02
  4.212025e+00    4.733242e-01   1.694170e-02
  4.214235e+00    4.328762e-01   1.631603e-02
  4.216445e+00    5.535571e-01   1.858455e-02
  4.218656e+00    4.936092e-01   1.768099e-02
  4.220866e+00    4.628104e-01   1.724737e-02
  4.223077e+00    4.777893e-01   1.765864e-02
  4.225287e+00    4.990649e-01   1.818961e-02
  4.227498e+00    4.611801e-01   1.762294e-02
  4.229708e+00    4.366104e-01   1.728643e-02
  4.231919e+00    5.223291e-01   1.906341e-02
  4.234129e+00    5.299954e-01   1.936425e-02
  4.236340e+00    4.828890e-01   1.864194e-02
  4.238550e+00    4.706637e-01   1.856672e-02
  4.240761e+00    4.599360e-01   1.851595e-02
  4.242971e+00    5.123116e-01   1.972086e-02
  4.245181e+00    4.588607e-01   1.883926e-02
  4.247392e+00    4.531423e-01   1.889628e-02
  4.249602e+00    4.561657e-01   1.914759e-02
  4.251813e+00    4.403792e-01   1.899901e-02
  4.254023e+00    4.615314e-01   1.964560e-02
  4.256234e+00    5.001650e-01   2.066987e-02
  4.258444e+00    4.486077e-01   1.978032e-02
  4.260655e+00    5.426900e-01   2.199525e-02
  4.262865e+00    5.322165e-01   2.202896e-02
  4.265076e+00    4.835354e-01   2.123631e-02
  4.267286e+00    5.479685e-01   2.287473e-02
  4.269496e+00    5.802872e-01   2.382714e-02
  4.271707e+00    4.828130e-01   2.200295e-02
  4.273917e+00    5.006232e-01   2.269362e-02
  4.276128e+00    4.961609e-01   2.289364e-02
  4.278338e+00    4.667408e-01   2.250015e-02
  4.280549e+00    5.085601e-01   2.382395e-02
  4.282759e+00    4.391654e-01   2.245677e-02
  4.284970e+00    5.181448e-01   2.475388e-02
  4.287180e+00    4.491101e-01   2.332208e-02
  4.289391e+00    4.129519e-01   2.253064e-02
  4.291601e+00    5.114197e-01   2.527437e-02
  4.293811e+00    5.328429e-01   2.600024e-02
  4.296022e+00    4.047062e-01   2.284126e-02
  4.298232e+00    5.246016e-01   2.622252e-02
  4.300443e+00    4.908990e-01   2.557678e-02
  4.302653e+00    5.126869e-01   2.636361e-02
  4.304864e+00    5.078984e-01   2.646809e-02
  4.307074e+00    4.932224e-01   2.631670e-02
  4.309285e+00    5.364481e-01   2.769522e-02
  4.311495e+00    4.577164e-01   2.582250e-02
  4.313706e+00    4.529790e-01   2.592857e-02
  4.315916e+00    3.968861e-01   2.450970e-02
  4.318126e+00    4.573479e-01   2.657061e-02
  4.320337e+00    4.881032e-01   2.772683e-02
  4.322547e+00    4.574394e-01   2.712684e-02
  4.324758e+00    5.914179e-01   3.116439e-02
  4.326968e+00    4.656803e-01   2.796646e-02
  4.329179e+00    4.599909e-01   2.810089e-02
  4.331389e+00    4.653420e-01   2.858983e-02
  4.333600e+00    3.935420e-01   2.660566e-02
  4.335810e+00    4.102100e-01   2.748584e-02
  4.338021e+00    4.101639e-01   2.783648e-02
  4.340231e+00    3.860643e-01   2.734561e-02
  4.342442e+00    5.154014e-01   3.201894e-02
  4.344652e+00    5.152858e-01   3.245077e-02
  4.346862e+00    4.059683e-01   2.920691e-02
  4.349073e+00    3.917167e-01   2.910698e-02
  4.351283e+00    3.896610e-01   2.946439e-02
  4.353494e+00    4.717131e-01   3.291883e-02
  4.355704e+00    4.990308e-01   3.440503e-02
  4.357915e+00    3.586576e-01   2.965179e-02
  4.360125e+00    5.312703e-01   3.670425e-02
  4.362336e+00    4.407773e-01   3.404168e-02
  4.364546e+00    5.915638e-01   4.015566e-02
  4.366757e+00    4.002854e-01   3.368995e-02
  4.368967e+00    4.780041e-01   3.754744e-02
  4.371177e+00    5.407524e-01   4.078539e-02
  4.373388e+00    5.264132e-01   4.114290e-02
  4.375598e+00    3.697130e-01   3.526592e-02
  4.377809e+00    4.062049e-01   3.789949e-02
  4.380019e+00    3.968764e-01   3.840427e-02
  4.382230e+00    4.238850e-01   4.079663e-02
  4.384440e+00    4.397950e-01   4.275206e-02
  4.386651e+00    5.032007e-01   4.714093e-02
  4.388861e+00    4.746303e-01   4.731802e-02
  4.391072e+00    3.114607e-01   3.967822e-02
  4.393282e+00    2.711526e-01   3.845378e-02
  4.395492e+00    3.759799e-01   4.716141e-02
  4.397703e+00    4.259732e-01   5.249412e-02
  4.399913e+00    3.264766e-01   4.827982e-02
  4.402124e+00    3.706904e-01   5.436284e-02
  4.404334e+00    3.734055e-01   5.800113e-02
  4.406545e+00    2.742074e-01   5.339792e-02
  4.408755e+00    4.941062e-01   7.774508e-02
  4.410966e+00    1.747753e-01   5.118011e-02
  4.413176e+00    2.875750e-01   7.429861e-02
  4.415387e+00   -3.595901e-01            nan
  4.417597e+00   -1.622269e+00            nan
  4.419807e+00    1.372970e-01   1.330704e-01
