# == pyFAI calibration ==
# Distance Sample to Detector: 0.216 m
# PONI: 1.166e-01, 1.308e-01 m
# Rotations: 0.000000 0.000000 0.000000 rad
# 
# == Fit2d calibration ==
# Distance Sample-beamCenter: 216.000 mm
# Center: x=1744.293, y=1555.000 pix
# Tilt: 0.000 deg  TiltPlanRot: 0.000 deg
# 
# Detector Eiger 9M	 PixelSize= 7.500e-05, 7.500e-05 m
#    Detector has a mask: True 
#    Detector has a dark current: False 
#    detector has a flat field: False 
# 
# Wavelength: 9.8e-11 m
# Mask applied: from detector
# Dark current applied: False
# Flat field applied: False
# Polarization factor: None
# Normalization factor: 1.0
# 
# Headers of the input frame:
# {
# "_array_data.header_convention": "SLS_1.0",
# "_array_data.header_contents": "# Detector: Dectris Eiger 9M, S/N E-18-0102\r\n# Pixel_size 75e-6 m x 75e-6 m\r\n# Silicon sensor, thickness 0.000450 m\r\n# Exposure_time 0.024997 s\r\n# Exposure_period 0.025000 s\r\n# Count_cutoff 62318 counts\r\n# Wavelength 0.980106 A\r\n# Detector_distance 0.215992 m\r\n# Beam_xy (1555, 1744) pixels\r\n# Start_angle 0.000000 deg.\r\n# Angle_increment 0.000000 deg.",
# "Content-Type": "application/octet-stream;",
# "conversions": "x-CBF_BYTE_OFFSET",
# "Content-Transfer-Encoding": "BINARY",
# "X-Binary-Size": "10166600",
# "X-Binary-ID": "1",
# "X-Binary-Element-Type": "signed 32-bit integer",
# "X-Binary-Element-Byte-Order": "LITTLE_ENDIAN",
# "Content-MD5": "wE20g2yeFbVUPawYs83hbg==",
# "X-Binary-Number-of-Elements": "10166590",
# "X-Binary-Size-Fastest-Dimension": "3110",
# "X-Binary-Size-Second-Dimension": "3269",
# "X-Binary-Size-Padding": "4095"
# }
# --> H:/Proxima2a_2019-04-05/RAW_DATA/C5_gel17_position5/C5_mesh_1_data.cbf/C5_mesh_1_data.cbf000130.dat
#        q_A^-1              I           sigma 
  1.105228e-03    2.621976e+00   8.761960e-01
  3.315685e-03    2.162594e+00   4.837633e-01
  5.526141e-03    1.621311e+00   3.238958e-01
  7.736597e-03    1.281339e+00   2.432497e-01
  9.947054e-03    1.539943e+00   2.350872e-01
  1.215751e-02    1.536848e+00   2.123655e-01
  1.436797e-02    1.514172e+00   1.938936e-01
  1.657842e-02    1.368479e+00   1.715787e-01
  1.878888e-02    1.326799e+00   1.586961e-01
  2.099934e-02    1.448920e+00   1.569005e-01
  2.320979e-02    1.658045e+00   1.596361e-01
  2.542025e-02    1.379485e+00   1.391452e-01
  2.763070e-02    1.515482e+00   1.398832e-01
  2.984116e-02    1.623965e+00   1.393365e-01
  3.205162e-02    1.534993e+00   1.307192e-01
  3.426207e-02    1.442388e+00   1.225507e-01
  3.647253e-02    1.452275e+00   1.191830e-01
  3.868299e-02    1.444143e+00   1.154119e-01
  4.089344e-02    1.439609e+00   1.120735e-01
  4.310390e-02    1.421559e+00   1.084692e-01
  4.531436e-02    1.455177e+00   1.070345e-01
  4.752481e-02    1.526398e+00   1.070416e-01
  4.973527e-02    1.459045e+00   1.023025e-01
  5.194572e-02    1.478866e+00   1.007784e-01
  5.415618e-02    1.595356e+00   1.025103e-01
  5.636664e-02    1.426183e+00   9.500640e-02
  5.857709e-02    1.461287e+00   9.433705e-02
  6.078755e-02    1.521415e+00   9.448897e-02
  6.299801e-02    1.448889e+00   9.057620e-02
  6.520846e-02    1.502463e+00   9.065934e-02
  6.741892e-02    1.389528e+00   8.574001e-02
  6.962938e-02    1.497616e+00   8.759243e-02
  7.183983e-02    1.560594e+00   8.802722e-02
  7.405029e-02    1.536688e+00   8.603478e-02
  7.626074e-02    1.548775e+00   8.511075e-02
  7.847120e-02    1.464678e+00   8.159154e-02
  8.068166e-02    1.450073e+00   8.006326e-02
  8.289211e-02    1.446896e+00   7.890152e-02
  8.510257e-02    1.469785e+00   7.848313e-02
  8.731303e-02    1.432061e+00   7.647960e-02
  8.952348e-02    1.439318e+00   7.572267e-02
  9.173394e-02    1.481655e+00   7.589399e-02
  9.394439e-02    1.510377e+00   7.571677e-02
  9.615485e-02    1.472480e+00   7.389490e-02
  9.836531e-02    1.525422e+00   7.435965e-02
  1.005758e-01    1.563806e+00   7.445791e-02
  1.027862e-01    1.551165e+00   7.335283e-02
  1.049967e-01    1.511878e+00   7.165036e-02
  1.072071e-01    1.515796e+00   7.099883e-02
  1.094176e-01    1.531425e+00   7.063830e-02
  1.116280e-01    1.573772e+00   7.089418e-02
  1.138385e-01    1.606845e+00   7.093495e-02
  1.160490e-01    1.573608e+00   6.952490e-02
  1.182594e-01    1.576132e+00   6.892578e-02
  1.204699e-01    1.598446e+00   6.877167e-02
  1.226803e-01    1.590051e+00   6.796729e-02
  1.248908e-01    1.507989e+00   6.560104e-02
  1.271012e-01    1.669022e+00   6.841072e-02
  1.293117e-01    1.724511e+00   6.894087e-02
  1.315222e-01    1.660086e+00   6.706850e-02
  1.337326e-01    1.616568e+00   6.563306e-02
  1.359431e-01    1.606598e+00   6.546866e-02
  1.381535e-01    1.575976e+00   6.571211e-02
  1.403640e-01    1.606694e+00   6.663591e-02
  1.425744e-01    1.645957e+00   6.755292e-02
  1.447849e-01    1.621803e+00   6.707089e-02
  1.469953e-01    1.583776e+00   6.623840e-02
  1.492058e-01    1.603326e+00   6.656850e-02
  1.514163e-01    1.604001e+00   6.647196e-02
  1.536267e-01    1.589383e+00   6.603916e-02
  1.558372e-01    1.659385e+00   6.732883e-02
  1.580476e-01    1.665680e+00   6.729273e-02
  1.602581e-01    1.660839e+00   6.702421e-02
  1.624685e-01    1.660994e+00   6.684384e-02
  1.646790e-01    1.679976e+00   6.703167e-02
  1.668895e-01    1.665980e+00   6.655906e-02
  1.690999e-01    1.734650e+00   6.771302e-02
  1.713104e-01    1.713392e+00   6.708799e-02
  1.735208e-01    1.724460e+00   6.709502e-02
  1.757313e-01    1.827554e+00   6.885502e-02
  1.779417e-01    1.867431e+00   6.937520e-02
  1.801522e-01    1.872766e+00   6.925293e-02
  1.823626e-01    1.899731e+00   6.951752e-02
  1.845731e-01    2.002404e+00   7.114020e-02
  1.867836e-01    1.947685e+00   6.992469e-02
  1.889940e-01    1.887357e+00   6.860826e-02
  1.912045e-01    2.078699e+00   7.176168e-02
  1.934149e-01    2.036652e+00   7.079449e-02
  1.956254e-01    1.948485e+00   6.901678e-02
  1.978358e-01    1.903976e+00   6.799019e-02
  2.000463e-01    1.876504e+00   6.727417e-02
  2.022568e-01    1.996204e+00   6.915894e-02
  2.044672e-01    2.025673e+00   6.942891e-02
  2.066777e-01    2.041948e+00   6.947587e-02
  2.088881e-01    2.013361e+00   6.876214e-02
  2.110986e-01    2.004958e+00   6.838318e-02
  2.133090e-01    2.003779e+00   6.814083e-02
  2.155195e-01    2.085109e+00   6.927936e-02
  2.177300e-01    2.093347e+00   6.887078e-02
  2.199404e-01    2.004501e+00   6.561761e-02
  2.221509e-01    1.983730e+00   6.420486e-02
  2.243613e-01    1.966090e+00   6.310845e-02
  2.265718e-01    2.017161e+00   6.321827e-02
  2.287822e-01    2.074180e+00   6.347105e-02
  2.309927e-01    2.128733e+00   6.371453e-02
  2.332031e-01    2.166193e+00   6.372259e-02
  2.354136e-01    2.122458e+00   6.256483e-02
  2.376241e-01    2.147480e+00   6.244406e-02
  2.398345e-01    2.192690e+00   6.263096e-02
  2.420450e-01    2.103017e+00   6.089856e-02
  2.442554e-01    2.094926e+00   6.036255e-02
  2.464659e-01    2.118663e+00   6.029601e-02
  2.486763e-01    2.061433e+00   5.908512e-02
  2.508868e-01    2.136001e+00   5.976484e-02
  2.530973e-01    2.186069e+00   6.008641e-02
  2.553077e-01    2.133435e+00   5.899859e-02
  2.575182e-01    2.075255e+00   5.784429e-02
  2.597286e-01    2.091620e+00   5.773433e-02
  2.619391e-01    2.064419e+00   5.702749e-02
  2.641495e-01    2.054567e+00   5.657637e-02
  2.663600e-01    2.066084e+00   5.642273e-02
  2.685704e-01    2.074560e+00   5.623186e-02
  2.707809e-01    2.081367e+00   5.602507e-02
  2.729914e-01    2.049353e+00   5.530283e-02
  2.752018e-01    2.032045e+00   5.478216e-02
  2.774123e-01    2.086387e+00   5.522630e-02
  2.796227e-01    2.070823e+00   5.474776e-02
  2.818332e-01    2.017175e+00   5.376441e-02
  2.840436e-01    2.014320e+00   5.346590e-02
  2.862541e-01    2.008123e+00   5.312699e-02
  2.884646e-01    1.928507e+00   5.181609e-02
  2.906750e-01    1.935711e+00   5.166661e-02
  2.928855e-01    1.932993e+00   5.139111e-02
  2.950959e-01    1.959463e+00   5.150411e-02
  2.973064e-01    2.004720e+00   5.186135e-02
  2.995168e-01    2.014790e+00   5.175598e-02
  3.017273e-01    1.972647e+00   5.098605e-02
  3.039377e-01    1.935368e+00   5.028085e-02
  3.061482e-01    1.905234e+00   4.967207e-02
  3.083587e-01    1.866672e+00   4.895399e-02
  3.105691e-01    1.887346e+00   4.901408e-02
  3.127796e-01    1.927049e+00   4.931872e-02
  3.149900e-01    1.943924e+00   4.932780e-02
  3.172005e-01    1.927163e+00   4.891384e-02
  3.194109e-01    1.935174e+00   4.881306e-02
  3.216214e-01    1.942669e+00   4.870795e-02
  3.238319e-01    1.937534e+00   4.845081e-02
  3.260423e-01    1.897801e+00   4.776045e-02
  3.282528e-01    1.894082e+00   4.752369e-02
  3.304632e-01    1.847758e+00   4.675709e-02
  3.326737e-01    1.876414e+00   4.693441e-02
  3.348841e-01    1.921164e+00   4.730662e-02
  3.370946e-01    1.931967e+00   4.726094e-02
  3.393050e-01    1.910156e+00   4.681543e-02
  3.415155e-01    1.787750e+00   4.512027e-02
  3.437260e-01    1.850723e+00   4.573792e-02
  3.459364e-01    1.847753e+00   4.553214e-02
  3.481469e-01    1.843342e+00   4.531178e-02
  3.503573e-01    1.802239e+00   4.464053e-02
  3.525678e-01    1.825829e+00   4.477160e-02
  3.547782e-01    1.860186e+00   4.502754e-02
  3.569887e-01    1.812731e+00   4.429200e-02
  3.591992e-01    1.809951e+00   4.410142e-02
  3.614096e-01    1.780884e+00   4.359419e-02
  3.636201e-01    1.798703e+00   4.365776e-02
  3.658305e-01    1.819817e+00   4.376347e-02
  3.680410e-01    1.825874e+00   4.368548e-02
  3.702514e-01    1.799216e+00   4.321956e-02
  3.724619e-01    1.798727e+00   4.306654e-02
  3.746724e-01    1.775711e+00   4.264733e-02
  3.768828e-01    1.785078e+00   4.261578e-02
  3.790933e-01    1.803540e+00   4.269601e-02
  3.813037e-01    1.803158e+00   4.255182e-02
  3.835142e-01    1.829729e+00   4.272339e-02
  3.857246e-01    1.795445e+00   4.218430e-02
  3.879351e-01    1.814822e+00   4.227404e-02
  3.901455e-01    1.771116e+00   4.162894e-02
  3.923560e-01    1.772265e+00   4.151009e-02
  3.945665e-01    1.778028e+00   4.144567e-02
  3.967769e-01    1.774855e+00   4.127899e-02
  3.989874e-01    1.776825e+00   4.117294e-02
  4.011978e-01    1.753129e+00   4.077170e-02
  4.034083e-01    1.774459e+00   4.089306e-02
  4.056187e-01    1.807853e+00   4.114890e-02
  4.078292e-01    1.773270e+00   4.063010e-02
  4.100397e-01    1.826027e+00   4.110416e-02
  4.122501e-01    1.830695e+00   4.103355e-02
  4.144606e-01    1.842233e+00   4.104060e-02
  4.166710e-01    1.797594e+00   4.041978e-02
  4.188815e-01    1.785789e+00   4.016784e-02
  4.210919e-01    1.780082e+00   3.998606e-02
  4.233024e-01    1.818756e+00   4.029920e-02
  4.255128e-01    1.842470e+00   4.044384e-02
  4.277233e-01    1.823837e+00   4.012321e-02
  4.299338e-01    1.724023e+00   3.889760e-02
  4.321442e-01    1.745861e+00   3.903115e-02
  4.343547e-01    1.765777e+00   3.914216e-02
  4.365651e-01    1.776907e+00   3.915375e-02
  4.387756e-01    1.790765e+00   3.919609e-02
  4.409860e-01    1.754431e+00   3.868892e-02
  4.431965e-01    1.788459e+00   3.895430e-02
  4.454070e-01    1.807257e+00   3.904956e-02
  4.476174e-01    1.739878e+00   3.820950e-02
  4.498279e-01    1.770547e+00   3.843993e-02
  4.520383e-01    1.727197e+00   3.786223e-02
  4.542488e-01    1.704851e+00   3.751508e-02
  4.564592e-01    1.704345e+00   3.740888e-02
  4.586697e-01    1.734599e+00   3.763928e-02
  4.608801e-01    1.662979e+00   3.675533e-02
  4.630906e-01    1.757370e+00   3.768398e-02
  4.653011e-01    1.796847e+00   3.800472e-02
  4.675115e-01    1.711125e+00   3.698942e-02
  4.697220e-01    1.700225e+00   3.677487e-02
  4.719324e-01    1.731194e+00   3.701229e-02
  4.741429e-01    1.768526e+00   3.731285e-02
  4.763533e-01    1.713411e+00   3.663269e-02
  4.785638e-01    1.672802e+00   3.610246e-02
  4.807743e-01    1.700095e+00   3.630321e-02
  4.829847e-01    1.729551e+00   3.652389e-02
  4.851952e-01    1.702924e+00   3.614992e-02
  4.874056e-01    1.674991e+00   3.576183e-02
  4.896161e-01    1.699226e+00   3.593027e-02
  4.918265e-01    1.715039e+00   3.600742e-02
  4.940370e-01    1.676926e+00   3.551719e-02
  4.962475e-01    1.700138e+00   3.567382e-02
  4.984579e-01    1.700122e+00   3.558576e-02
  5.006684e-01    1.679001e+00   3.527779e-02
  5.028788e-01    1.707899e+00   3.549386e-02
  5.050893e-01    1.699188e+00   3.531715e-02
  5.072997e-01    1.694324e+00   3.518138e-02
  5.095102e-01    1.687741e+00   3.502887e-02
  5.117206e-01    1.687694e+00   3.494509e-02
  5.139311e-01    1.712012e+00   3.511265e-02
  5.161416e-01    1.706536e+00   3.497362e-02
  5.183520e-01    1.685841e+00   3.467830e-02
  5.205625e-01    1.667388e+00   3.440720e-02
  5.227729e-01    1.685722e+00   3.451513e-02
  5.249834e-01    1.692060e+00   3.449969e-02
  5.271938e-01    1.720813e+00   3.471042e-02
  5.294043e-01    1.750950e+00   3.493220e-02
  5.316148e-01    1.768650e+00   3.502795e-02
  5.338252e-01    1.774029e+00   3.500098e-02
  5.360357e-01    1.736417e+00   3.454913e-02
  5.382461e-01    1.735256e+00   3.445951e-02
  5.404566e-01    1.768727e+00   3.471109e-02
  5.426670e-01    1.759619e+00   3.454359e-02
  5.448775e-01    1.776764e+00   3.463393e-02
  5.470879e-01    1.797291e+00   3.475572e-02
  5.492984e-01    1.799031e+00   3.469525e-02
  5.515089e-01    1.793395e+00   3.456400e-02
  5.537193e-01    1.794138e+00   3.449501e-02
  5.559298e-01    1.773599e+00   3.422176e-02
  5.581402e-01    1.798340e+00   3.438433e-02
  5.603507e-01    1.808951e+00   3.441057e-02
  5.625611e-01    1.860619e+00   3.482279e-02
  5.647716e-01    1.811321e+00   3.428380e-02
  5.669821e-01    1.807206e+00   3.417098e-02
  5.691925e-01    1.799738e+00   3.402714e-02
  5.714030e-01    1.749308e+00   3.347548e-02
  5.736134e-01    1.776383e+00   3.366179e-02
  5.758239e-01    1.759427e+00   3.342924e-02
  5.780343e-01    1.712210e+00   3.290790e-02
  5.802448e-01    1.626234e+00   3.200389e-02
  5.824552e-01    1.646871e+00   3.213874e-02
  5.846657e-01    1.631293e+00   3.191969e-02
  5.868762e-01    1.643762e+00   3.197476e-02
  5.890866e-01    1.639021e+00   3.186234e-02
  5.912971e-01    1.707698e+00   3.245571e-02
  5.935075e-01    1.700278e+00   3.231820e-02
  5.957180e-01    1.671471e+00   3.197750e-02
  5.979284e-01    1.633651e+00   3.154913e-02
  6.001389e-01    1.641399e+00   3.155945e-02
  6.023494e-01    1.633140e+00   3.141605e-02
  6.045598e-01    1.638770e+00   3.140606e-02
  6.067703e-01    1.678920e+00   3.172455e-02
  6.089807e-01    1.663516e+00   3.151518e-02
  6.111912e-01    1.682068e+00   3.162715e-02
  6.134016e-01    1.669304e+00   3.144408e-02
  6.156121e-01    1.735135e+00   3.199438e-02
  6.178226e-01    1.710195e+00   3.170074e-02
  6.200330e-01    1.712753e+00   3.166184e-02
  6.222435e-01    1.730739e+00   3.176460e-02
  6.244539e-01    1.735334e+00   3.174447e-02
  6.266644e-01    1.687270e+00   3.124072e-02
  6.288748e-01    1.689493e+00   3.120041e-02
  6.310853e-01    1.731692e+00   3.152636e-02
  6.332957e-01    1.694913e+00   3.112955e-02
  6.355062e-01    1.695143e+00   3.107117e-02
  6.377167e-01    1.706145e+00   3.111204e-02
  6.399271e-01    1.691016e+00   3.091444e-02
  6.421376e-01    1.723584e+00   3.115113e-02
  6.443480e-01    1.712647e+00   3.099309e-02
  6.465585e-01    1.711605e+00   3.092494e-02
  6.487689e-01    1.710867e+00   3.085992e-02
  6.509794e-01    1.674152e+00   3.046941e-02
  6.531899e-01    1.669872e+00   3.037322e-02
  6.554003e-01    1.658432e+00   3.021208e-02
  6.576108e-01    1.632244e+00   2.991679e-02
  6.598212e-01    1.647339e+00   2.999897e-02
  6.620317e-01    1.650368e+00   2.997088e-02
  6.642421e-01    1.642979e+00   2.984839e-02
  6.664526e-01    1.604556e+00   2.944295e-02
  6.686630e-01    1.597276e+00   2.932177e-02
  6.708735e-01    1.651780e+00   2.976314e-02
  6.730840e-01    1.614758e+00   2.937407e-02
  6.752944e-01    1.579699e+00   2.900060e-02
  6.775049e-01    1.592079e+00   2.906115e-02
  6.797153e-01    1.614223e+00   2.920956e-02
  6.819258e-01    1.621388e+00   2.922154e-02
  6.841362e-01    1.594691e+00   2.892783e-02
  6.863467e-01    1.622305e+00   2.912498e-02
  6.885572e-01    1.603530e+00   2.890405e-02
  6.907676e-01    1.617281e+00   2.897571e-02
  6.929781e-01    1.610047e+00   2.885946e-02
  6.951885e-01    1.618841e+00   2.888689e-02
  6.973990e-01    1.631236e+00   2.894602e-02
  6.996094e-01    1.588363e+00   2.851284e-02
  7.018199e-01    1.626638e+00   2.880370e-02
  7.040303e-01    1.575465e+00   2.829722e-02
  7.062408e-01    1.556150e+00   2.807394e-02
  7.084513e-01    1.565126e+00   2.810583e-02
  7.106617e-01    1.571318e+00   2.811243e-02
  7.128722e-01    1.569168e+00   2.804459e-02
  7.150826e-01    1.597686e+00   2.824950e-02
  7.172931e-01    1.584630e+00   2.808535e-02
  7.195035e-01    1.574671e+00   2.794881e-02
  7.217140e-01    1.595819e+00   2.818566e-02
  7.239245e-01    1.579649e+00   2.826959e-02
  7.261349e-01    1.565210e+00   2.824838e-02
  7.283454e-01    1.562869e+00   2.829937e-02
  7.305558e-01    1.595172e+00   2.864469e-02
  7.327663e-01    1.566580e+00   2.842920e-02
  7.349767e-01    1.571993e+00   2.849463e-02
  7.371872e-01    1.563009e+00   2.840195e-02
  7.393976e-01    1.552417e+00   2.829139e-02
  7.416081e-01    1.560060e+00   2.834487e-02
  7.438186e-01    1.568238e+00   2.827501e-02
  7.460290e-01    1.565775e+00   2.795940e-02
  7.482395e-01    1.561280e+00   2.774880e-02
  7.504499e-01    1.582554e+00   2.780059e-02
  7.526604e-01    1.595961e+00   2.780076e-02
  7.548708e-01    1.594210e+00   2.769556e-02
  7.570813e-01    1.537707e+00   2.714995e-02
  7.592918e-01    1.592508e+00   2.759410e-02
  7.615022e-01    1.631274e+00   2.789357e-02
  7.637127e-01    1.587210e+00   2.748134e-02
  7.659231e-01    1.601136e+00   2.756936e-02
  7.681336e-01    1.583812e+00   2.738813e-02
  7.703440e-01    1.582738e+00   2.734751e-02
  7.725545e-01    1.576592e+00   2.726348e-02
  7.747650e-01    1.656360e+00   2.790547e-02
  7.769754e-01    1.605581e+00   2.742123e-02
  7.791859e-01    1.577665e+00   2.712825e-02
  7.813963e-01    1.586779e+00   2.715378e-02
  7.836068e-01    1.556568e+00   2.684251e-02
  7.858172e-01    1.592206e+00   2.709728e-02
  7.880277e-01    1.603710e+00   2.714328e-02
  7.902381e-01    1.588096e+00   2.696174e-02
  7.924486e-01    1.610626e+00   2.710201e-02
  7.946591e-01    1.646413e+00   2.735247e-02
  7.968695e-01    1.628418e+00   2.715393e-02
  7.990800e-01    1.613580e+00   2.698160e-02
  8.012904e-01    1.620305e+00   2.699101e-02
  8.035009e-01    1.645676e+00   2.715310e-02
  8.057113e-01    1.619241e+00   2.688757e-02
  8.079218e-01    1.627321e+00   2.690804e-02
  8.101323e-01    1.649901e+00   2.704808e-02
  8.123427e-01    1.655889e+00   2.705092e-02
  8.145532e-01    1.664678e+00   2.707621e-02
  8.167636e-01    1.661768e+00   2.700706e-02
  8.189741e-01    1.614649e+00   2.657703e-02
  8.211845e-01    1.634013e+00   2.669109e-02
  8.233950e-01    1.657206e+00   2.683615e-02
  8.256054e-01    1.650439e+00   2.673692e-02
  8.278159e-01    1.686995e+00   2.698677e-02
  8.300264e-01    1.661536e+00   2.673899e-02
  8.322368e-01    1.645378e+00   2.656543e-02
  8.344473e-01    1.690268e+00   2.688132e-02
  8.366577e-01    1.644571e+00   2.647284e-02
  8.388682e-01    1.638330e+00   2.638029e-02
  8.410786e-01    1.629043e+00   2.626351e-02
  8.432891e-01    1.634331e+00   2.626431e-02
  8.454996e-01    1.652716e+00   2.636981e-02
  8.477100e-01    1.651399e+00   2.631748e-02
  8.499205e-01    1.625871e+00   2.607227e-02
  8.521309e-01    1.605697e+00   2.586959e-02
  8.543414e-01    1.628367e+00   2.601094e-02
  8.565518e-01    1.583824e+00   2.561278e-02
  8.587623e-01    1.617464e+00   2.584303e-02
  8.609727e-01    1.625971e+00   2.587074e-02
  8.631832e-01    1.638943e+00   2.593368e-02
  8.653937e-01    1.649154e+00   2.597438e-02
  8.676041e-01    1.631447e+00   2.579558e-02
  8.698146e-01    1.615712e+00   2.563164e-02
  8.720250e-01    1.598700e+00   2.545748e-02
  8.742355e-01    1.593370e+00   2.537632e-02
  8.764459e-01    1.620659e+00   2.555366e-02
  8.786564e-01    1.610469e+00   2.543523e-02
  8.808669e-01    1.613160e+00   2.541788e-02
  8.830773e-01    1.619674e+00   2.543078e-02
  8.852878e-01    1.619953e+00   2.539488e-02
  8.874982e-01    1.585384e+00   2.508597e-02
  8.897087e-01    1.627647e+00   2.538015e-02
  8.919191e-01    1.630887e+00   2.536730e-02
  8.941296e-01    1.637837e+00   2.538357e-02
  8.963401e-01    1.619731e+00   2.520623e-02
  8.985505e-01    1.589621e+00   2.493401e-02
  9.007610e-01    1.597469e+00   2.495875e-02
  9.029714e-01    1.593678e+00   2.489335e-02
  9.051819e-01    1.606364e+00   2.495495e-02
  9.073923e-01    1.613127e+00   2.497068e-02
  9.096028e-01    1.605247e+00   2.487467e-02
  9.118132e-01    1.639138e+00   2.509920e-02
  9.140237e-01    1.631262e+00   2.500187e-02
  9.162342e-01    1.626771e+00   2.493257e-02
  9.184446e-01    1.625063e+00   2.488345e-02
  9.206551e-01    1.589145e+00   2.457147e-02
  9.228655e-01    1.588350e+00   2.453016e-02
  9.250760e-01    1.626062e+00   2.478407e-02
  9.272864e-01    1.639583e+00   2.485223e-02
  9.294969e-01    1.649425e+00   2.489039e-02
  9.317074e-01    1.637289e+00   2.476362e-02
  9.339178e-01    1.619902e+00   2.459814e-02
  9.361283e-01    1.648036e+00   2.477424e-02
  9.383387e-01    1.649742e+00   2.475335e-02
  9.405492e-01    1.660103e+00   2.479629e-02
  9.427596e-01    1.656343e+00   2.473252e-02
  9.449701e-01    1.690169e+00   2.494985e-02
  9.471805e-01    1.687140e+00   2.489218e-02
  9.493910e-01    1.712405e+00   2.504344e-02
  9.516015e-01    1.796290e+00   2.561369e-02
  9.538119e-01    1.857183e+00   2.600854e-02
  9.560224e-01    1.864859e+00   2.602554e-02
  9.582328e-01    1.861830e+00   2.596953e-02
  9.604433e-01    1.839641e+00   2.577775e-02
  9.626537e-01    1.821583e+00   2.561643e-02
  9.648642e-01    1.830713e+00   2.564537e-02
  9.670747e-01    1.826583e+00   2.558110e-02
  9.692851e-01    1.844804e+00   2.567420e-02
  9.714956e-01    1.872302e+00   2.582837e-02
  9.737060e-01    1.939832e+00   2.625547e-02
  9.759165e-01    2.073613e+00   2.710746e-02
  9.781269e-01    2.089981e+00   2.717868e-02
  9.803374e-01    1.975597e+00   2.638793e-02
  9.825478e-01    1.883699e+00   2.573289e-02
  9.847583e-01    1.844032e+00   2.542593e-02
  9.869688e-01    1.815882e+00   2.519733e-02
  9.891792e-01    1.794712e+00   2.501673e-02
  9.913897e-01    1.803262e+00   2.504241e-02
  9.936001e-01    1.757398e+00   2.468954e-02
  9.958106e-01    1.739766e+00   2.453198e-02
  9.980210e-01    1.701397e+00   2.422847e-02
  1.000231e+00    1.691354e+00   2.428919e-02
  1.002442e+00    1.707455e+00   2.453418e-02
  1.004652e+00    1.732708e+00   2.478391e-02
  1.006863e+00    1.726595e+00   2.479148e-02
  1.009073e+00    1.687761e+00   2.454861e-02
  1.011284e+00    1.636405e+00   2.420458e-02
  1.013494e+00    1.569649e+00   2.372921e-02
  1.015705e+00    1.593308e+00   2.392997e-02
  1.017915e+00    1.636544e+00   2.426917e-02
  1.020126e+00    1.750746e+00   2.511863e-02
  1.022336e+00    2.016424e+00   2.697046e-02
  1.024547e+00    2.218507e+00   2.830318e-02
  1.026757e+00    2.107225e+00   2.759402e-02
  1.028967e+00    1.803171e+00   2.553404e-02
  1.031178e+00    1.615784e+00   2.417717e-02
  1.033388e+00    1.581244e+00   2.392246e-02
  1.035599e+00    1.583937e+00   2.394634e-02
  1.037809e+00    1.597130e+00   2.404916e-02
  1.040020e+00    1.651177e+00   2.445402e-02
  1.042230e+00    1.727241e+00   2.501297e-02
  1.044441e+00    1.847131e+00   2.586629e-02
  1.046651e+00    1.817104e+00   2.565541e-02
  1.048862e+00    1.702093e+00   2.482939e-02
  1.051072e+00    1.637573e+00   2.435178e-02
  1.053282e+00    1.592206e+00   2.401111e-02
  1.055493e+00    1.536103e+00   2.357992e-02
  1.057703e+00    1.517002e+00   2.343133e-02
  1.059914e+00    1.489080e+00   2.321041e-02
  1.062124e+00    1.539048e+00   2.359247e-02
  1.064335e+00    1.672093e+00   2.458746e-02
  1.066545e+00    1.589489e+00   2.396628e-02
  1.068756e+00    1.515311e+00   2.339656e-02
  1.070966e+00    1.518594e+00   2.341525e-02
  1.073177e+00    1.507774e+00   2.332557e-02
  1.075387e+00    1.479631e+00   2.310161e-02
  1.077597e+00    1.457866e+00   2.292384e-02
  1.079808e+00    1.441738e+00   2.266495e-02
  1.082018e+00    1.465379e+00   2.266081e-02
  1.084229e+00    1.444318e+00   2.238793e-02
  1.086439e+00    1.439377e+00   2.226264e-02
  1.088650e+00    1.452485e+00   2.228817e-02
  1.090860e+00    1.440466e+00   2.212846e-02
  1.093071e+00    1.456998e+00   2.219275e-02
  1.095281e+00    1.444553e+00   2.204056e-02
  1.097492e+00    1.387713e+00   2.154877e-02
  1.099702e+00    1.405906e+00   2.163877e-02
  1.101912e+00    1.435517e+00   2.181668e-02
  1.104123e+00    1.465809e+00   2.199696e-02
  1.106333e+00    1.412279e+00   2.154747e-02
  1.108544e+00    1.429531e+00   2.163441e-02
  1.110754e+00    1.411030e+00   2.145120e-02
  1.112965e+00    1.356128e+00   2.099013e-02
  1.115175e+00    1.408766e+00   2.135259e-02
  1.117386e+00    1.429912e+00   2.147281e-02
  1.119596e+00    1.369810e+00   2.097939e-02
  1.121807e+00    1.395700e+00   2.113808e-02
  1.124017e+00    1.391791e+00   2.107203e-02
  1.126228e+00    1.393115e+00   2.104642e-02
  1.128438e+00    1.408375e+00   2.112453e-02
  1.130648e+00    1.386072e+00   2.092243e-02
  1.132859e+00    1.400418e+00   2.099603e-02
  1.135069e+00    1.406023e+00   2.100310e-02
  1.137280e+00    1.401328e+00   2.093487e-02
  1.139490e+00    1.425353e+00   2.108006e-02
  1.141701e+00    1.431919e+00   2.109487e-02
  1.143911e+00    1.446202e+00   2.116724e-02
  1.146122e+00    1.420845e+00   2.094840e-02
  1.148332e+00    1.400686e+00   2.076712e-02
  1.150543e+00    1.392753e+00   2.067723e-02
  1.152753e+00    1.376084e+00   2.052228e-02
  1.154963e+00    1.371759e+00   2.045897e-02
  1.157174e+00    1.397772e+00   2.062163e-02
  1.159384e+00    1.373868e+00   2.041467e-02
  1.161595e+00    1.382198e+00   2.044648e-02
  1.163805e+00    1.371625e+00   2.033884e-02
  1.166016e+00    1.360978e+00   2.023040e-02
  1.168226e+00    1.364392e+00   2.022681e-02
  1.170437e+00    1.401798e+00   2.047319e-02
  1.172647e+00    1.395998e+00   2.040162e-02
  1.174858e+00    1.404109e+00   2.043226e-02
  1.177068e+00    1.383352e+00   2.025225e-02
  1.179278e+00    1.341869e+00   1.991789e-02
  1.181489e+00    1.354646e+00   1.998553e-02
  1.183699e+00    1.338730e+00   1.984041e-02
  1.185910e+00    1.340764e+00   1.982788e-02
  1.188120e+00    1.372191e+00   2.003206e-02
  1.190331e+00    1.382618e+00   2.008101e-02
  1.192541e+00    1.366073e+00   1.993301e-02
  1.194752e+00    1.356481e+00   1.983580e-02
  1.196962e+00    1.377704e+00   1.996440e-02
  1.199173e+00    1.375221e+00   1.991965e-02
  1.201383e+00    1.354331e+00   1.974059e-02
  1.203593e+00    1.345705e+00   1.965282e-02
  1.205804e+00    1.342241e+00   1.960169e-02
  1.208014e+00    1.341623e+00   1.957038e-02
  1.210225e+00    1.366924e+00   1.972858e-02
  1.212435e+00    1.340273e+00   1.951063e-02
  1.214646e+00    1.325765e+00   1.937884e-02
  1.216856e+00    1.352106e+00   1.954493e-02
  1.219067e+00    1.332954e+00   1.938170e-02
  1.221277e+00    1.325014e+00   1.929910e-02
  1.223488e+00    1.332620e+00   1.932882e-02
  1.225698e+00    1.341423e+00   1.936574e-02
  1.227909e+00    1.337025e+00   1.930395e-02
  1.230119e+00    1.349659e+00   1.936308e-02
  1.232329e+00    1.361159e+00   1.941456e-02
  1.234540e+00    1.345551e+00   1.927271e-02
  1.236750e+00    1.331826e+00   1.914408e-02
  1.238961e+00    1.314349e+00   1.899146e-02
  1.241171e+00    1.331478e+00   1.909078e-02
  1.243382e+00    1.361756e+00   1.928301e-02
  1.245592e+00    1.359675e+00   1.924410e-02
  1.247803e+00    1.341021e+00   1.908805e-02
  1.250013e+00    1.339008e+00   1.905026e-02
  1.252224e+00    1.355848e+00   1.914638e-02
  1.254434e+00    1.380221e+00   1.929370e-02
  1.256644e+00    1.355363e+00   1.909594e-02
  1.258855e+00    1.321103e+00   1.883001e-02
  1.261065e+00    1.336401e+00   1.891546e-02
  1.263276e+00    1.348111e+00   1.897522e-02
  1.265486e+00    1.351022e+00   1.897284e-02
  1.267697e+00    1.316815e+00   1.870836e-02
  1.269907e+00    1.334318e+00   1.880972e-02
  1.272118e+00    1.324879e+00   1.872071e-02
  1.274328e+00    1.370824e+00   1.901963e-02
  1.276539e+00    1.356468e+00   1.889695e-02
  1.278749e+00    1.373562e+00   1.899314e-02
  1.280959e+00    1.386216e+00   1.905762e-02
  1.283170e+00    1.348299e+00   1.877276e-02
  1.285380e+00    1.337844e+00   1.867747e-02
  1.287591e+00    1.346301e+00   1.871441e-02
  1.289801e+00    1.350258e+00   1.872067e-02
  1.292012e+00    1.361233e+00   1.877942e-02
  1.294222e+00    1.343377e+00   1.863966e-02
  1.296433e+00    1.341903e+00   1.861387e-02
  1.298643e+00    1.357955e+00   1.870835e-02
  1.300854e+00    1.345726e+00   1.860754e-02
  1.303064e+00    1.359025e+00   1.867996e-02
  1.305274e+00    1.348748e+00   1.858777e-02
  1.307485e+00    1.369020e+00   1.870525e-02
  1.309695e+00    1.355021e+00   1.858708e-02
  1.311906e+00    1.346752e+00   1.850861e-02
  1.314116e+00    1.347434e+00   1.849250e-02
  1.316327e+00    1.377414e+00   1.867520e-02
  1.318537e+00    1.353773e+00   1.849234e-02
  1.320748e+00    1.342590e+00   1.839428e-02
  1.322958e+00    1.365961e+00   1.853307e-02
  1.325169e+00    1.348061e+00   1.839024e-02
  1.327379e+00    1.344758e+00   1.834590e-02
  1.329589e+00    1.385594e+00   1.860105e-02
  1.331800e+00    1.379831e+00   1.854139e-02
  1.334010e+00    1.381299e+00   1.853037e-02
  1.336221e+00    1.369077e+00   1.842629e-02
  1.338431e+00    1.376056e+00   1.845214e-02
  1.340642e+00    1.356051e+00   1.838182e-02
  1.342852e+00    1.372829e+00   1.859670e-02
  1.345063e+00    1.371788e+00   1.863955e-02
  1.347273e+00    1.348913e+00   1.851870e-02
  1.349484e+00    1.367816e+00   1.867587e-02
  1.351694e+00    1.374248e+00   1.874265e-02
  1.353905e+00    1.351572e+00   1.860537e-02
  1.356115e+00    1.363562e+00   1.870282e-02
  1.358325e+00    1.341127e+00   1.856163e-02
  1.360536e+00    1.346062e+00   1.860732e-02
  1.362746e+00    1.362446e+00   1.872986e-02
  1.364957e+00    1.320217e+00   1.844488e-02
  1.367167e+00    1.332112e+00   1.853489e-02
  1.369378e+00    1.335985e+00   1.856782e-02
  1.371588e+00    1.316958e+00   1.844021e-02
  1.373799e+00    1.305881e+00   1.836611e-02
  1.376009e+00    1.311176e+00   1.840666e-02
  1.378220e+00    1.309107e+00   1.839465e-02
  1.380430e+00    1.321341e+00   1.848308e-02
  1.382640e+00    1.313139e+00   1.842656e-02
  1.384851e+00    1.288998e+00   1.825725e-02
  1.387061e+00    1.299345e+00   1.833066e-02
  1.389272e+00    1.306666e+00   1.838245e-02
  1.391482e+00    1.285369e+00   1.823135e-02
  1.393693e+00    1.274360e+00   1.815225e-02
  1.395903e+00    1.250928e+00   1.798311e-02
  1.398114e+00    1.288039e+00   1.824651e-02
  1.400324e+00    1.282125e+00   1.820247e-02
  1.402535e+00    1.282122e+00   1.820011e-02
  1.404745e+00    1.280528e+00   1.818643e-02
  1.406955e+00    1.275414e+00   1.814738e-02
  1.409166e+00    1.246393e+00   1.793647e-02
  1.411376e+00    1.249213e+00   1.795363e-02
  1.413587e+00    1.280223e+00   1.817129e-02
  1.415797e+00    1.254168e+00   1.798191e-02
  1.418008e+00    1.257962e+00   1.796742e-02
  1.420218e+00    1.241824e+00   1.770374e-02
  1.422429e+00    1.236001e+00   1.757801e-02
  1.424639e+00    1.296819e+00   1.793991e-02
  1.426850e+00    1.282538e+00   1.778591e-02
  1.429060e+00    1.254856e+00   1.754423e-02
  1.431270e+00    1.249800e+00   1.746487e-02
  1.433481e+00    1.275288e+00   1.760102e-02
  1.435691e+00    1.296597e+00   1.770863e-02
  1.437902e+00    1.284055e+00   1.758612e-02
  1.440112e+00    1.284309e+00   1.755231e-02
  1.442323e+00    1.281403e+00   1.749926e-02
  1.444533e+00    1.296145e+00   1.756674e-02
  1.446744e+00    1.289774e+00   1.749215e-02
  1.448954e+00    1.278376e+00   1.738440e-02
  1.451165e+00    1.273483e+00   1.732128e-02
  1.453375e+00    1.279132e+00   1.733151e-02
  1.455586e+00    1.296594e+00   1.742097e-02
  1.457796e+00    1.268559e+00   1.720409e-02
  1.460006e+00    1.285495e+00   1.729113e-02
  1.462217e+00    1.284681e+00   1.725929e-02
  1.464427e+00    1.276739e+00   1.718019e-02
  1.466638e+00    1.270250e+00   1.711113e-02
  1.468848e+00    1.271664e+00   1.709530e-02
  1.471059e+00    1.252034e+00   1.693792e-02
  1.473269e+00    1.259327e+00   1.696290e-02
  1.475480e+00    1.272203e+00   1.702559e-02
  1.477690e+00    1.267339e+00   1.696919e-02
  1.479901e+00    1.268403e+00   1.695247e-02
  1.482111e+00    1.286276e+00   1.704798e-02
  1.484321e+00    1.257011e+00   1.682992e-02
  1.486532e+00    1.263211e+00   1.684905e-02
  1.488742e+00    1.258099e+00   1.679237e-02
  1.490953e+00    1.259269e+00   1.677758e-02
  1.493163e+00    1.270205e+00   1.682795e-02
  1.495374e+00    1.272631e+00   1.682244e-02
  1.497584e+00    1.254524e+00   1.668075e-02
  1.499795e+00    1.288335e+00   1.688212e-02
  1.502005e+00    1.319043e+00   1.705998e-02
  1.504216e+00    1.287143e+00   1.683115e-02
  1.506426e+00    1.284366e+00   1.679195e-02
  1.508636e+00    1.258853e+00   1.660390e-02
  1.510847e+00    1.258999e+00   1.658300e-02
  1.513057e+00    1.243318e+00   1.645444e-02
  1.515268e+00    1.257683e+00   1.652348e-02
  1.517478e+00    1.265687e+00   1.655070e-02
  1.519689e+00    1.253300e+00   1.644458e-02
  1.521899e+00    1.270987e+00   1.653691e-02
  1.524110e+00    1.269598e+00   1.650743e-02
  1.526320e+00    1.260688e+00   1.642975e-02
  1.528531e+00    1.246756e+00   1.631898e-02
  1.530741e+00    1.264263e+00   1.641390e-02
  1.532951e+00    1.248321e+00   1.629052e-02
  1.535162e+00    1.235955e+00   1.629575e-02
  1.537372e+00    1.251962e+00   1.646791e-02
  1.539583e+00    1.237514e+00   1.640671e-02
  1.541793e+00    1.231497e+00   1.637366e-02
  1.544004e+00    1.244524e+00   1.646031e-02
  1.546214e+00    1.235727e+00   1.640052e-02
  1.548425e+00    1.250960e+00   1.650156e-02
  1.550635e+00    1.238274e+00   1.642733e-02
  1.552846e+00    1.246273e+00   1.648996e-02
  1.555056e+00    1.243893e+00   1.643274e-02
  1.557266e+00    1.244113e+00   1.632376e-02
  1.559477e+00    1.243532e+00   1.626085e-02
  1.561687e+00    1.243837e+00   1.623220e-02
  1.563898e+00    1.243007e+00   1.620962e-02
  1.566108e+00    1.235752e+00   1.614635e-02
  1.568319e+00    1.246862e+00   1.620311e-02
  1.570529e+00    1.250453e+00   1.620126e-02
  1.572740e+00    1.230858e+00   1.604636e-02
  1.574950e+00    1.211692e+00   1.589496e-02
  1.577161e+00    1.231688e+00   1.600023e-02
  1.579371e+00    1.229827e+00   1.596462e-02
  1.581582e+00    1.238212e+00   1.599921e-02
  1.583792e+00    1.259925e+00   1.612076e-02
  1.586002e+00    1.276182e+00   1.620659e-02
  1.588213e+00    1.267525e+00   1.613414e-02
  1.590423e+00    1.233486e+00   1.589603e-02
  1.592634e+00    1.238510e+00   1.590679e-02
  1.594844e+00    1.258501e+00   1.601312e-02
  1.597055e+00    1.260804e+00   1.600714e-02
  1.599265e+00    1.216803e+00   1.570481e-02
  1.601476e+00    1.236560e+00   1.581152e-02
  1.603686e+00    1.248716e+00   1.586923e-02
  1.605897e+00    1.252017e+00   1.586992e-02
  1.608107e+00    1.253677e+00   1.586075e-02
  1.610317e+00    1.235363e+00   1.572519e-02
  1.612528e+00    1.234229e+00   1.569880e-02
  1.614738e+00    1.214896e+00   1.555653e-02
  1.616949e+00    1.223867e+00   1.559491e-02
  1.619159e+00    1.216754e+00   1.553085e-02
  1.621370e+00    1.227428e+00   1.558030e-02
  1.623580e+00    1.212829e+00   1.546905e-02
  1.625791e+00    1.184773e+00   1.527101e-02
  1.628001e+00    1.173563e+00   1.518054e-02
  1.630212e+00    1.185916e+00   1.524253e-02
  1.632422e+00    1.175622e+00   1.515841e-02
  1.634632e+00    1.177269e+00   1.515177e-02
  1.636843e+00    1.168048e+00   1.507484e-02
  1.639053e+00    1.161979e+00   1.501842e-02
  1.641264e+00    1.146767e+00   1.490286e-02
  1.643474e+00    1.139455e+00   1.483805e-02
  1.645685e+00    1.142428e+00   1.484085e-02
  1.647895e+00    1.141745e+00   1.481991e-02
  1.650106e+00    1.140706e+00   1.479625e-02
  1.652316e+00    1.119431e+00   1.464134e-02
  1.654527e+00    1.105869e+00   1.453599e-02
  1.656737e+00    1.104736e+00   1.451218e-02
  1.658947e+00    1.145172e+00   1.475902e-02
  1.661158e+00    1.133730e+00   1.466881e-02
  1.663368e+00    1.116298e+00   1.453961e-02
  1.665579e+00    1.129959e+00   1.461208e-02
  1.667789e+00    1.115301e+00   1.450077e-02
  1.670000e+00    1.121009e+00   1.452229e-02
  1.672210e+00    1.089866e+00   1.430340e-02
  1.674421e+00    1.076861e+00   1.420269e-02
  1.676631e+00    1.062006e+00   1.408877e-02
  1.678842e+00    1.106775e+00   1.436685e-02
  1.681052e+00    1.077152e+00   1.415803e-02
  1.683263e+00    1.083429e+00   1.418410e-02
  1.685473e+00    1.085408e+00   1.418192e-02
  1.687683e+00    1.071078e+00   1.407265e-02
  1.689894e+00    1.068410e+00   1.403943e-02
  1.692104e+00    1.059402e+00   1.396531e-02
  1.694315e+00    1.056079e+00   1.392902e-02
  1.696525e+00    1.055387e+00   1.390938e-02
  1.698736e+00    1.034843e+00   1.375874e-02
  1.700946e+00    1.050246e+00   1.384568e-02
  1.703157e+00    1.058375e+00   1.388451e-02
  1.705367e+00    1.059224e+00   1.387555e-02
  1.707578e+00    1.044644e+00   1.376518e-02
  1.709788e+00    1.021077e+00   1.359508e-02
  1.711998e+00    1.007363e+00   1.348870e-02
  1.714209e+00    1.016285e+00   1.353404e-02
  1.716419e+00    1.016612e+00   1.352206e-02
  1.718630e+00    1.009428e+00   1.346009e-02
  1.720840e+00    1.030015e+00   1.358244e-02
  1.723051e+00    1.015950e+00   1.347562e-02
  1.725261e+00    9.986749e-01   1.334602e-02
  1.727472e+00    1.020406e+00   1.347624e-02
  1.729682e+00    1.025801e+00   1.349832e-02
  1.731893e+00    1.001894e+00   1.332625e-02
  1.734103e+00    9.858765e-01   1.320567e-02
  1.736313e+00    9.985241e-01   1.327613e-02
  1.738524e+00    9.866144e-01   1.318301e-02
  1.740734e+00    9.748802e-01   1.309084e-02
  1.742945e+00    9.957246e-01   1.321660e-02
  1.745155e+00    9.805998e-01   1.310248e-02
  1.747366e+00    9.799930e-01   1.308467e-02
  1.749576e+00    9.714199e-01   1.301374e-02
  1.751787e+00    9.621385e-01   1.293822e-02
  1.753997e+00    9.530436e-01   1.286372e-02
  1.756208e+00    9.740918e-01   1.299180e-02
  1.758418e+00    9.645517e-01   1.291496e-02
  1.760628e+00    9.732192e-01   1.295947e-02
  1.762839e+00    9.605268e-01   1.286152e-02
  1.765049e+00    9.417361e-01   1.272211e-02
  1.767260e+00    9.488456e-01   1.275730e-02
  1.769470e+00    9.478214e-01   1.273748e-02
  1.771681e+00    9.429561e-01   1.269167e-02
  1.773891e+00    9.484279e-01   1.271539e-02
  1.776102e+00    9.333301e-01   1.260103e-02
  1.778312e+00    9.248129e-01   1.253077e-02
  1.780523e+00    9.370658e-01   1.260082e-02
  1.782733e+00    9.435762e-01   1.263181e-02
  1.784944e+00    9.440472e-01   1.262200e-02
  1.787154e+00    9.280468e-01   1.250210e-02
  1.789364e+00    9.292496e-01   1.249771e-02
  1.791575e+00    9.078539e-01   1.234061e-02
  1.793785e+00    9.218996e-01   1.242327e-02
  1.795996e+00    9.338236e-01   1.249078e-02
  1.798206e+00    9.482375e-01   1.257408e-02
  1.800417e+00    9.462541e-01   1.254805e-02
  1.802627e+00    9.361341e-01   1.246868e-02
  1.804838e+00    9.457920e-01   1.252051e-02
  1.807048e+00    9.415904e-01   1.247960e-02
  1.809259e+00    9.393414e-01   1.245085e-02
  1.811469e+00    9.288309e-01   1.236583e-02
  1.813679e+00    9.324778e-01   1.237486e-02
  1.815890e+00    9.287235e-01   1.233492e-02
  1.818100e+00    9.225160e-01   1.227831e-02
  1.820311e+00    9.326052e-01   1.233017e-02
  1.822521e+00    9.179814e-01   1.221806e-02
  1.824732e+00    8.935022e-01   1.203920e-02
  1.826942e+00    8.812435e-01   1.194404e-02
  1.829153e+00    8.962480e-01   1.203352e-02
  1.831363e+00    8.867134e-01   1.195730e-02
  1.833574e+00    8.758731e-01   1.187233e-02
  1.835784e+00    8.857424e-01   1.192757e-02
  1.837994e+00    8.901253e-01   1.194524e-02
  1.840205e+00    9.148152e-01   1.209834e-02
  1.842415e+00    9.102861e-01   1.205635e-02
  1.844626e+00    9.080465e-01   1.202970e-02
  1.846836e+00    9.211490e-01   1.210440e-02
  1.849047e+00    9.129100e-01   1.203824e-02
  1.851257e+00    8.842286e-01   1.183794e-02
  1.853468e+00    8.925909e-01   1.188482e-02
  1.855678e+00    8.772729e-01   1.177344e-02
  1.857889e+00    8.588896e-01   1.164092e-02
  1.860099e+00    8.875058e-01   1.182447e-02
  1.862309e+00    8.762270e-01   1.174051e-02
  1.864520e+00    8.859603e-01   1.179679e-02
  1.866730e+00    8.639374e-01   1.163983e-02
  1.868941e+00    8.511850e-01   1.154267e-02
  1.871151e+00    8.360839e-01   1.142852e-02
  1.873362e+00    8.590505e-01   1.157302e-02
  1.875572e+00    8.422140e-01   1.144817e-02
  1.877783e+00    8.396275e-01   1.141920e-02
  1.879993e+00    8.480778e-01   1.146535e-02
  1.882204e+00    8.531033e-01   1.148831e-02
  1.884414e+00    8.701596e-01   1.159135e-02
  1.886624e+00    8.669938e-01   1.155904e-02
  1.888835e+00    8.606598e-01   1.150563e-02
  1.891045e+00    8.353732e-01   1.132452e-02
  1.893256e+00    8.164358e-01   1.118446e-02
  1.895466e+00    8.374894e-01   1.131657e-02
  1.897677e+00    8.194170e-01   1.118301e-02
  1.899887e+00    8.105987e-01   1.111183e-02
  1.902098e+00    8.332101e-01   1.125489e-02
  1.904308e+00    8.304027e-01   1.122535e-02
  1.906519e+00    8.289959e-01   1.120499e-02
  1.908729e+00    8.370677e-01   1.124876e-02
  1.910940e+00    8.198270e-01   1.112125e-02
  1.913150e+00    7.991779e-01   1.096987e-02
  1.915360e+00    8.044434e-01   1.099546e-02
  1.917571e+00    8.118095e-01   1.103488e-02
  1.919781e+00    8.175238e-01   1.106299e-02
  1.921992e+00    8.124253e-01   1.101788e-02
  1.924202e+00    8.109390e-01   1.099706e-02
  1.926413e+00    8.225431e-01   1.106513e-02
  1.928623e+00    8.132883e-01   1.099217e-02
  1.930834e+00    8.206522e-01   1.103134e-02
  1.933044e+00    8.162615e-01   1.099110e-02
  1.935255e+00    8.167115e-01   1.098376e-02
  1.937465e+00    7.937709e-01   1.081810e-02
  1.939675e+00    7.896894e-01   1.077951e-02
  1.941886e+00    7.839990e-01   1.073046e-02
  1.944096e+00    7.923993e-01   1.077766e-02
  1.946307e+00    8.089838e-01   1.087950e-02
  1.948517e+00    8.097546e-01   1.087416e-02
  1.950728e+00    7.961975e-01   1.077254e-02
  1.952938e+00    7.813145e-01   1.066137e-02
  1.955149e+00    7.974975e-01   1.076098e-02
  1.957359e+00    8.117036e-01   1.084627e-02
  1.959570e+00    7.984059e-01   1.074616e-02
  1.961780e+00    7.835583e-01   1.063592e-02
  1.963990e+00    7.833424e-01   1.062439e-02
  1.966201e+00    7.850791e-01   1.062613e-02
  1.968411e+00    7.849436e-01   1.061509e-02
  1.970622e+00    8.076082e-01   1.075704e-02
  1.972832e+00    7.797506e-01   1.055996e-02
  1.975043e+00    8.058768e-01   1.072524e-02
  1.977253e+00    7.907295e-01   1.061398e-02
  1.979464e+00    7.800606e-01   1.053213e-02
  1.981674e+00    7.894529e-01   1.058503e-02
  1.983885e+00    7.849460e-01   1.054474e-02
  1.986095e+00    7.715985e-01   1.044505e-02
  1.988305e+00    7.771785e-01   1.047287e-02
  1.990516e+00    7.851945e-01   1.051677e-02
  1.992726e+00    7.891396e-01   1.053343e-02
  1.994937e+00    7.754944e-01   1.043184e-02
  1.997147e+00    7.816263e-01   1.046324e-02
  1.999358e+00    7.750753e-01   1.040944e-02
  2.001568e+00    7.835308e-01   1.045519e-02
  2.003779e+00    7.639166e-01   1.031165e-02
  2.005989e+00    7.883765e-01   1.046327e-02
  2.008200e+00    7.679203e-01   1.031515e-02
  2.010410e+00    7.535658e-01   1.020664e-02
  2.012621e+00    7.552937e-01   1.020673e-02
  2.014831e+00    7.597420e-01   1.022532e-02
  2.017041e+00    7.517687e-01   1.016126e-02
  2.019252e+00    7.619003e-01   1.021955e-02
  2.021462e+00    7.652888e-01   1.023275e-02
  2.023673e+00    7.518198e-01   1.013300e-02
  2.025883e+00    7.557778e-01   1.015014e-02
  2.028094e+00    7.618346e-01   1.018112e-02
  2.030304e+00    7.588536e-01   1.015166e-02
  2.032515e+00    7.418066e-01   1.002781e-02
  2.034725e+00    7.430186e-01   1.002663e-02
  2.036936e+00    7.745792e-01   1.022794e-02
  2.039146e+00    7.561134e-01   1.009572e-02
  2.041356e+00    7.627484e-01   1.013024e-02
  2.043567e+00    7.422088e-01   9.983698e-03
  2.045777e+00    7.357727e-01   9.931185e-03
  2.047988e+00    7.521929e-01   1.003202e-02
  2.050198e+00    7.728923e-01   1.016059e-02
  2.052409e+00    7.720819e-01   1.014752e-02
  2.054619e+00    7.710227e-01   1.013307e-02
  2.056830e+00    7.728309e-01   1.013769e-02
  2.059040e+00    7.712168e-01   1.011947e-02
  2.061251e+00    7.677430e-01   1.008932e-02
  2.063461e+00    7.775485e-01   1.014581e-02
  2.065671e+00    7.789398e-01   1.014599e-02
  2.067882e+00    7.606249e-01   1.001694e-02
  2.070092e+00    7.578784e-01   9.989566e-03
  2.072303e+00    7.686005e-01   1.005070e-02
  2.074513e+00    7.657597e-01   1.002267e-02
  2.076724e+00    7.635975e-01   9.998925e-03
  2.078934e+00    7.624074e-01   9.982020e-03
  2.081145e+00    7.396328e-01   9.822729e-03
  2.083355e+00    7.451620e-01   9.850185e-03
  2.085566e+00    7.398613e-01   9.806185e-03
  2.087776e+00    7.325595e-01   9.748211e-03
  2.089986e+00    7.383826e-01   9.778088e-03
  2.092197e+00    7.512919e-01   9.854164e-03
  2.094407e+00    7.408746e-01   9.776357e-03
  2.096618e+00    7.221702e-01   9.643326e-03
  2.098828e+00    7.312914e-01   9.694757e-03
  2.101039e+00    7.183952e-01   9.599997e-03
  2.103249e+00    7.279106e-01   9.654706e-03
  2.105460e+00    7.359858e-01   9.699067e-03
  2.107670e+00    7.209285e-01   9.590662e-03
  2.109881e+00    7.145067e-01   9.538754e-03
  2.112091e+00    7.256864e-01   9.604107e-03
  2.114301e+00    7.173628e-01   9.540136e-03
  2.116512e+00    7.093082e-01   9.477712e-03
  2.118722e+00    7.051164e-01   9.440941e-03
  2.120933e+00    7.136744e-01   9.489243e-03
  2.123143e+00    7.165282e-01   9.499303e-03
  2.125354e+00    6.997904e-01   9.379292e-03
  2.127564e+00    6.929941e-01   9.325036e-03
  2.129775e+00    6.865660e-01   9.273141e-03
  2.131985e+00    6.952245e-01   9.322484e-03
  2.134196e+00    6.917278e-01   9.290557e-03
  2.136406e+00    7.193620e-01   9.465527e-03
  2.138617e+00    7.042503e-01   9.357179e-03
  2.140827e+00    7.006922e-01   9.349457e-03
  2.143037e+00    6.907304e-01   9.327711e-03
  2.145248e+00    6.962935e-01   9.387054e-03
  2.147458e+00    6.966105e-01   9.404235e-03
  2.149669e+00    7.048604e-01   9.471633e-03
  2.151879e+00    6.989143e-01   9.440801e-03
  2.154090e+00    6.897200e-01   9.385757e-03
  2.156300e+00    7.017848e-01   9.474083e-03
  2.158511e+00    7.089010e-01   9.527347e-03
  2.160721e+00    7.011709e-01   9.480081e-03
  2.162932e+00    7.123759e-01   9.559317e-03
  2.165142e+00    7.000182e-01   9.479064e-03
  2.167352e+00    6.918346e-01   9.426394e-03
  2.169563e+00    7.022501e-01   9.499053e-03
  2.171773e+00    6.881038e-01   9.405334e-03
  2.173984e+00    6.843811e-01   9.381250e-03
  2.176194e+00    6.886380e-01   9.411583e-03
  2.178405e+00    7.023360e-01   9.505410e-03
  2.180615e+00    6.857160e-01   9.392975e-03
  2.182826e+00    7.017754e-01   9.502998e-03
  2.185036e+00    6.744801e-01   9.316435e-03
  2.187247e+00    6.707427e-01   9.290494e-03
  2.189457e+00    6.960211e-01   9.463553e-03
  2.191667e+00    6.866540e-01   9.399493e-03
  2.193878e+00    6.928304e-01   9.441078e-03
  2.196088e+00    6.876688e-01   9.405188e-03
  2.198299e+00    6.856639e-01   9.390350e-03
  2.200509e+00    6.901997e-01   9.420306e-03
  2.202720e+00    6.942159e-01   9.446513e-03
  2.204930e+00    6.767190e-01   9.325488e-03
  2.207141e+00    6.790033e-01   9.340080e-03
  2.209351e+00    6.811418e-01   9.352896e-03
  2.211562e+00    6.717603e-01   9.286666e-03
  2.213772e+00    6.720615e-01   9.233441e-03
  2.215982e+00    6.847666e-01   9.275822e-03
  2.218193e+00    6.816557e-01   9.224964e-03
  2.220403e+00    6.826387e-01   9.206888e-03
  2.222614e+00    6.806203e-01   9.172202e-03
  2.224824e+00    6.816471e-01   9.159634e-03
  2.227035e+00    6.697568e-01   9.061979e-03
  2.229245e+00    6.816107e-01   9.124729e-03
  2.231456e+00    6.653001e-01   8.999363e-03
  2.233666e+00    6.380013e-01   8.798062e-03
  2.235877e+00    6.669269e-01   8.981057e-03
  2.238087e+00    6.701291e-01   8.989126e-03
  2.240298e+00    6.696151e-01   8.971893e-03
  2.242508e+00    6.779879e-01   9.012587e-03
  2.244718e+00    6.765841e-01   8.987347e-03
  2.246929e+00    6.742758e-01   8.957531e-03
  2.249139e+00    6.661015e-01   8.890701e-03
  2.251350e+00    6.629449e-01   8.857916e-03
  2.253560e+00    6.664732e-01   8.869906e-03
  2.255771e+00    6.737264e-01   8.906554e-03
  2.257981e+00    6.701846e-01   8.871908e-03
  2.260192e+00    6.559843e-01   8.766362e-03
  2.262402e+00    6.621472e-01   8.796615e-03
  2.264613e+00    6.780097e-01   8.890389e-03
  2.266823e+00    6.689941e-01   8.820673e-03
  2.269033e+00    6.524529e-01   8.700617e-03
  2.271244e+00    6.623596e-01   8.756045e-03
  2.273454e+00    6.641046e-01   8.757289e-03
  2.275665e+00    6.651933e-01   8.754148e-03
  2.277875e+00    6.628308e-01   8.728631e-03
  2.280086e+00    6.673495e-01   8.748243e-03
  2.282296e+00    6.726126e-01   8.773166e-03
  2.284507e+00    6.685069e-01   8.736158e-03
  2.286717e+00    6.725985e-01   8.753271e-03
  2.288928e+00    6.593904e-01   8.657020e-03
  2.291138e+00    6.598721e-01   8.650737e-03
  2.293348e+00    6.542646e-01   8.604367e-03
  2.295559e+00    6.474673e-01   8.550300e-03
  2.297769e+00    6.520175e-01   8.571055e-03
  2.299980e+00    6.592934e-01   8.609378e-03
  2.302190e+00    6.676555e-01   8.654573e-03
  2.304401e+00    6.639664e-01   8.621227e-03
  2.306611e+00    6.575586e-01   8.570301e-03
  2.308822e+00    6.366643e-01   8.424737e-03
  2.311032e+00    6.458163e-01   8.478636e-03
  2.313243e+00    6.500511e-01   8.500120e-03
  2.315453e+00    6.635005e-01   8.579955e-03
  2.317663e+00    6.383383e-01   8.406635e-03
  2.319874e+00    6.260213e-01   8.316536e-03
  2.322084e+00    6.257221e-01   8.305727e-03
  2.324295e+00    6.274917e-01   8.309339e-03
  2.326505e+00    6.445733e-01   8.412641e-03
  2.328716e+00    6.426216e-01   8.391342e-03
  2.330926e+00    6.436560e-01   8.389296e-03
  2.333137e+00    6.465738e-01   8.399890e-03
  2.335347e+00    6.350301e-01   8.315739e-03
  2.337558e+00    6.334905e-01   8.297469e-03
  2.339768e+00    6.465036e-01   8.373630e-03
  2.341979e+00    6.477972e-01   8.373599e-03
  2.344189e+00    6.252497e-01   8.218254e-03
  2.346399e+00    6.378845e-01   8.292368e-03
  2.348610e+00    6.379687e-01   8.284446e-03
  2.350820e+00    6.391471e-01   8.283882e-03
  2.353031e+00    6.289600e-01   8.209359e-03
  2.355241e+00    6.306746e-01   8.212492e-03
  2.357452e+00    6.222622e-01   8.149189e-03
  2.359662e+00    6.141579e-01   8.087832e-03
  2.361873e+00    6.359734e-01   8.221949e-03
  2.364083e+00    6.360351e-01   8.214330e-03
  2.366294e+00    6.290151e-01   8.160751e-03
  2.368504e+00    6.305485e-01   8.162599e-03
  2.370714e+00    6.167536e-01   8.064816e-03
  2.372925e+00    6.079230e-01   7.998924e-03
  2.375135e+00    6.239442e-01   8.095581e-03
  2.377346e+00    6.263855e-01   8.103454e-03
  2.379556e+00    6.273907e-01   8.102017e-03
  2.381767e+00    6.124064e-01   7.996889e-03
  2.383977e+00    6.302387e-01   8.104465e-03
  2.386188e+00    6.315109e-01   8.104664e-03
  2.388398e+00    6.200278e-01   8.022677e-03
  2.390609e+00    6.165252e-01   7.992265e-03
  2.392819e+00    6.122931e-01   7.957024e-03
  2.395029e+00    6.200485e-01   7.999567e-03
  2.397240e+00    6.200298e-01   7.991552e-03
  2.399450e+00    6.125957e-01   7.935701e-03
  2.401661e+00    6.195179e-01   7.972671e-03
  2.403871e+00    6.168935e-01   7.947992e-03
  2.406082e+00    6.015195e-01   7.840935e-03
  2.408292e+00    6.017031e-01   7.834390e-03
  2.410503e+00    6.128507e-01   7.899107e-03
  2.412713e+00    6.038051e-01   7.832827e-03
  2.414924e+00    6.112717e-01   7.873585e-03
  2.417134e+00    6.184220e-01   7.911781e-03
  2.419344e+00    6.222663e-01   7.928816e-03
  2.421555e+00    6.012528e-01   7.786295e-03
  2.423765e+00    5.955724e-01   7.742036e-03
  2.425976e+00    5.986401e-01   7.754161e-03
  2.428186e+00    5.839720e-01   7.651443e-03
  2.430397e+00    5.911043e-01   7.690570e-03
  2.432607e+00    5.971974e-01   7.722831e-03
  2.434818e+00    5.962379e-01   7.709078e-03
  2.437028e+00    6.082775e-01   7.779285e-03
  2.439239e+00    5.928733e-01   7.672510e-03
  2.441449e+00    5.893379e-01   7.642413e-03
  2.443659e+00    5.836542e-01   7.598165e-03
  2.445870e+00    5.775598e-01   7.570523e-03
  2.448080e+00    5.621580e-01   7.503079e-03
  2.450291e+00    5.581965e-01   7.492903e-03
  2.452501e+00    5.765753e-01   7.626446e-03
  2.454712e+00    5.725515e-01   7.608194e-03
  2.456922e+00    5.757444e-01   7.636053e-03
  2.459133e+00    5.637518e-01   7.561490e-03
  2.461343e+00    5.713091e-01   7.616398e-03
  2.463554e+00    5.682081e-01   7.599166e-03
  2.465764e+00    5.610829e-01   7.554513e-03
  2.467975e+00    5.507733e-01   7.487042e-03
  2.470185e+00    5.654099e-01   7.588138e-03
  2.472395e+00    5.611445e-01   7.560697e-03
  2.474606e+00    5.520888e-01   7.501005e-03
  2.476816e+00    5.444288e-01   7.449518e-03
  2.479027e+00    5.376853e-01   7.404065e-03
  2.481237e+00    5.466875e-01   7.466072e-03
  2.483448e+00    5.382338e-01   7.408428e-03
  2.485658e+00    5.563407e-01   7.531845e-03
  2.487869e+00    5.578064e-01   7.541805e-03
  2.490079e+00    5.558377e-01   7.527993e-03
  2.492290e+00    5.340840e-01   7.378756e-03
  2.494500e+00    5.331309e-01   7.371440e-03
  2.496710e+00    5.347165e-01   7.381708e-03
  2.498921e+00    5.190401e-01   7.271704e-03
  2.501131e+00    5.366271e-01   7.392929e-03
  2.503342e+00    5.134240e-01   7.230108e-03
  2.505552e+00    5.289477e-01   7.337429e-03
  2.507763e+00    5.242893e-01   7.303691e-03
  2.509973e+00    5.196719e-01   7.270031e-03
  2.512184e+00    5.197280e-01   7.268850e-03
  2.514394e+00    5.217249e-01   7.273472e-03
  2.516605e+00    5.283875e-01   7.272618e-03
  2.518815e+00    5.134755e-01   7.141295e-03
  2.521025e+00    5.099626e-01   7.096148e-03
  2.523236e+00    5.168594e-01   7.126144e-03
  2.525446e+00    5.267668e-01   7.178510e-03
  2.527657e+00    5.245870e-01   7.149030e-03
  2.529867e+00    5.211004e-01   7.111118e-03
  2.532078e+00    5.187314e-01   7.079983e-03
  2.534288e+00    5.239176e-01   7.101414e-03
  2.536499e+00    5.256876e-01   7.101441e-03
  2.538709e+00    5.378526e-01   7.172015e-03
  2.540920e+00    5.277047e-01   7.093351e-03
  2.543130e+00    5.130916e-01   6.984200e-03
  2.545340e+00    5.049006e-01   6.918340e-03
  2.547551e+00    5.293850e-01   7.074080e-03
  2.549761e+00    5.250916e-01   7.035750e-03
  2.551972e+00    5.202052e-01   6.993599e-03
  2.554182e+00    5.177758e-01   6.968090e-03
  2.556393e+00    5.267259e-01   7.018912e-03
  2.558603e+00    5.410019e-01   7.104146e-03
  2.560814e+00    5.349357e-01   7.055382e-03
  2.563024e+00    5.382448e-01   7.068433e-03
  2.565235e+00    5.230733e-01   6.958557e-03
  2.567445e+00    5.079730e-01   6.847956e-03
  2.569656e+00    5.100371e-01   6.852136e-03
  2.571866e+00    5.153534e-01   6.878455e-03
  2.574076e+00    5.125357e-01   6.850380e-03
  2.576287e+00    5.156695e-01   6.862976e-03
  2.578497e+00    4.993996e-01   6.746116e-03
  2.580708e+00    5.036530e-01   6.766806e-03
  2.582918e+00    5.013111e-01   6.743383e-03
  2.585129e+00    5.091661e-01   6.788295e-03
  2.587339e+00    5.139081e-01   6.812165e-03
  2.589550e+00    5.097549e-01   6.777047e-03
  2.591760e+00    5.061234e-01   6.745183e-03
  2.593971e+00    5.046276e-01   6.727719e-03
  2.596181e+00    5.143932e-01   6.786266e-03
  2.598391e+00    5.188669e-01   6.810492e-03
  2.600602e+00    5.036559e-01   6.704045e-03
  2.602812e+00    5.121138e-01   6.752529e-03
  2.605023e+00    5.107757e-01   6.736537e-03
  2.607233e+00    5.163445e-01   6.765942e-03
  2.609444e+00    5.177012e-01   6.767543e-03
  2.611654e+00    5.115243e-01   6.719691e-03
  2.613865e+00    4.973940e-01   6.619244e-03
  2.616075e+00    5.033612e-01   6.651727e-03
  2.618286e+00    5.023284e-01   6.637910e-03
  2.620496e+00    5.019811e-01   6.628943e-03
  2.622706e+00    5.041188e-01   6.637310e-03
  2.624917e+00    4.940535e-01   6.564924e-03
  2.627127e+00    5.026439e-01   6.616014e-03
  2.629338e+00    5.035310e-01   6.615875e-03
  2.631548e+00    5.180957e-01   6.704619e-03
  2.633759e+00    5.044504e-01   6.608585e-03
  2.635969e+00    5.074449e-01   6.621426e-03
  2.638180e+00    5.018327e-01   6.577748e-03
  2.640390e+00    4.997308e-01   6.557350e-03
  2.642601e+00    5.068955e-01   6.597475e-03
  2.644811e+00    5.074345e-01   6.593875e-03
  2.647021e+00    4.982441e-01   6.527334e-03
  2.649232e+00    4.964777e-01   6.509045e-03
  2.651442e+00    4.901902e-01   6.461264e-03
  2.653653e+00    4.992869e-01   6.514137e-03
  2.655863e+00    4.963612e-01   6.488360e-03
  2.658074e+00    5.070191e-01   6.550967e-03
  2.660284e+00    5.127088e-01   6.581173e-03
  2.662495e+00    5.091515e-01   6.551473e-03
  2.664705e+00    5.127621e-01   6.567985e-03
  2.666916e+00    5.176566e-01   6.592667e-03
  2.669126e+00    5.060661e-01   6.511924e-03
  2.671337e+00    4.990161e-01   6.459792e-03
  2.673547e+00    5.107412e-01   6.528750e-03
  2.675757e+00    5.132375e-01   6.538143e-03
  2.677968e+00    5.060686e-01   6.485704e-03
  2.680178e+00    5.049990e-01   6.472374e-03
  2.682389e+00    4.958543e-01   6.407106e-03
  2.684599e+00    4.927249e-01   6.380658e-03
  2.686810e+00    4.933710e-01   6.378224e-03
  2.689020e+00    5.036095e-01   6.437700e-03
  2.691231e+00    4.963278e-01   6.384672e-03
  2.693441e+00    4.963519e-01   6.378636e-03
  2.695652e+00    4.923462e-01   6.346326e-03
  2.697862e+00    5.058947e-01   6.426590e-03
  2.700072e+00    4.991297e-01   6.377358e-03
  2.702283e+00    4.923092e-01   6.327396e-03
  2.704493e+00    4.784980e-01   6.231780e-03
  2.706704e+00    4.915049e-01   6.309491e-03
  2.708914e+00    4.855462e-01   6.265173e-03
  2.711125e+00    4.951937e-01   6.320820e-03
  2.713335e+00    4.803673e-01   6.219442e-03
  2.715546e+00    4.765466e-01   6.188246e-03
  2.717756e+00    4.921065e-01   6.282547e-03
  2.719967e+00    4.831100e-01   6.218672e-03
  2.722177e+00    4.839109e-01   6.217697e-03
  2.724387e+00    4.863191e-01   6.227050e-03
  2.726598e+00    4.843569e-01   6.208417e-03
  2.728808e+00    4.835888e-01   6.197359e-03
  2.731019e+00    4.732433e-01   6.124646e-03
  2.733229e+00    4.973478e-01   6.272808e-03
  2.735440e+00    4.806205e-01   6.160188e-03
  2.737650e+00    4.779854e-01   6.137284e-03
  2.739861e+00    4.839512e-01   6.169389e-03
  2.742071e+00    4.866668e-01   6.180918e-03
  2.744282e+00    4.780270e-01   6.119582e-03
  2.746492e+00    4.924227e-01   6.204950e-03
  2.748702e+00    4.914063e-01   6.192577e-03
  2.750913e+00    4.871759e-01   6.160052e-03
  2.753123e+00    4.744808e-01   6.073181e-03
  2.755334e+00    4.826037e-01   6.118863e-03
  2.757544e+00    4.805498e-01   6.100076e-03
  2.759755e+00    4.899444e-01   6.153478e-03
  2.761965e+00    4.964141e-01   6.187892e-03
  2.764176e+00    4.929253e-01   6.160055e-03
  2.766386e+00    4.710177e-01   6.015865e-03
  2.768597e+00    4.821413e-01   6.080608e-03
  2.770807e+00    4.694512e-01   5.994233e-03
  2.773017e+00    4.830965e-01   6.074730e-03
  2.775228e+00    4.747740e-01   6.016413e-03
  2.777438e+00    4.827533e-01   6.060940e-03
  2.779649e+00    4.882714e-01   6.089511e-03
  2.781859e+00    4.867025e-01   6.073907e-03
  2.784070e+00    4.974152e-01   6.134408e-03
  2.786280e+00    4.794388e-01   6.016773e-03
  2.788491e+00    4.758642e-01   5.988458e-03
  2.790701e+00    4.772969e-01   5.991809e-03
  2.792912e+00    4.750016e-01   5.971436e-03
  2.795122e+00    4.812945e-01   6.005097e-03
  2.797333e+00    4.752059e-01   5.961433e-03
  2.799543e+00    4.725444e-01   5.938876e-03
  2.801753e+00    4.773763e-01   5.963284e-03
  2.803964e+00    4.730387e-01   5.930481e-03
  2.806174e+00    4.864103e-01   6.007512e-03
  2.808385e+00    4.808508e-01   5.966238e-03
  2.810595e+00    4.712105e-01   5.899280e-03
  2.812806e+00    4.750159e-01   5.916442e-03
  2.815016e+00    4.607117e-01   5.822020e-03
  2.817227e+00    4.645277e-01   5.871716e-03
  2.819437e+00    4.736850e-01   5.940407e-03
  2.821648e+00    4.742162e-01   5.946029e-03
  2.823858e+00    4.762074e-01   5.963843e-03
  2.826068e+00    4.740762e-01   5.955482e-03
  2.828279e+00    4.877649e-01   6.044944e-03
  2.830489e+00    4.788464e-01   5.992800e-03
  2.832700e+00    4.814516e-01   6.011643e-03
  2.834910e+00    4.913456e-01   6.075219e-03
  2.837121e+00    4.751740e-01   5.976138e-03
  2.839331e+00    4.713314e-01   5.953125e-03
  2.841542e+00    4.801932e-01   6.009878e-03
  2.843752e+00    4.657987e-01   5.919885e-03
  2.845963e+00    4.750868e-01   5.979013e-03
  2.848173e+00    4.728976e-01   5.965314e-03
  2.850383e+00    4.761348e-01   5.985988e-03
  2.852594e+00    4.779310e-01   5.997197e-03
  2.854804e+00    4.723652e-01   5.961661e-03
  2.857015e+00    4.764015e-01   5.986643e-03
  2.859225e+00    4.829389e-01   6.027316e-03
  2.861436e+00    4.811548e-01   6.015515e-03
  2.863646e+00    4.733672e-01   5.966683e-03
  2.865857e+00    4.630861e-01   5.901858e-03
  2.868067e+00    4.654233e-01   5.916959e-03
  2.870278e+00    4.562403e-01   5.857951e-03
  2.872488e+00    4.508371e-01   5.822002e-03
  2.874698e+00    4.609125e-01   5.885666e-03
  2.876909e+00    4.613636e-01   5.887211e-03
  2.879119e+00    4.633863e-01   5.898496e-03
  2.881330e+00    4.651889e-01   5.908470e-03
  2.883540e+00    4.591313e-01   5.868491e-03
  2.885751e+00    4.662416e-01   5.912114e-03
  2.887961e+00    4.622031e-01   5.884560e-03
  2.890172e+00    4.664511e-01   5.909933e-03
  2.892382e+00    4.579258e-01   5.853878e-03
  2.894593e+00    4.588237e-01   5.857801e-03
  2.896803e+00    4.716967e-01   5.937396e-03
  2.899014e+00    4.555605e-01   5.833073e-03
  2.901224e+00    4.489452e-01   5.788580e-03
  2.903434e+00    4.651037e-01   5.889886e-03
  2.905645e+00    4.653707e-01   5.889334e-03
  2.907855e+00    4.681281e-01   5.904638e-03
  2.910066e+00    4.528965e-01   5.805735e-03
  2.912276e+00    4.452676e-01   5.754519e-03
  2.914487e+00    4.492596e-01   5.777839e-03
  2.916697e+00    4.503524e-01   5.782639e-03
  2.918908e+00    4.608932e-01   5.847920e-03
  2.921118e+00    4.548079e-01   5.806519e-03
  2.923329e+00    4.390953e-01   5.703054e-03
  2.925539e+00    4.389875e-01   5.700122e-03
  2.927749e+00    4.489618e-01   5.762223e-03
  2.929960e+00    4.503994e-01   5.768669e-03
  2.932170e+00    4.658631e-01   5.864535e-03
  2.934381e+00    4.449885e-01   5.729223e-03
  2.936591e+00    4.513401e-01   5.767403e-03
  2.938802e+00    4.547373e-01   5.786350e-03
  2.941012e+00    4.654137e-01   5.851526e-03
  2.943223e+00    4.668554e-01   5.857866e-03
  2.945433e+00    4.474510e-01   5.731141e-03
  2.947644e+00    4.524800e-01   5.759120e-03
  2.949854e+00    4.491158e-01   5.733442e-03
  2.952064e+00    4.537564e-01   5.758742e-03
  2.954275e+00    4.593107e-01   5.789482e-03
  2.956485e+00    4.562623e-01   5.766026e-03
  2.958696e+00    4.620463e-01   5.798062e-03
  2.960906e+00    4.537636e-01   5.741677e-03
  2.963117e+00    4.573579e-01   5.759868e-03
  2.965327e+00    4.644533e-01   5.800443e-03
  2.967538e+00    4.523630e-01   5.721542e-03
  2.969748e+00    4.512568e-01   5.711738e-03
  2.971959e+00    4.545061e-01   5.729104e-03
  2.974169e+00    4.699961e-01   5.823305e-03
  2.976379e+00    4.583188e-01   5.747577e-03
  2.978590e+00    4.590555e-01   5.749040e-03
  2.980800e+00    4.511887e-01   5.696783e-03
  2.983011e+00    4.561162e-01   5.724982e-03
  2.985221e+00    4.540449e-01   5.708842e-03
  2.987432e+00    4.574492e-01   5.727062e-03
  2.989642e+00    4.514352e-01   5.686678e-03
  2.991853e+00    4.577771e-01   5.723196e-03
  2.994063e+00    4.525376e-01   5.687437e-03
  2.996274e+00    4.640533e-01   5.756128e-03
  2.998484e+00    4.623994e-01   5.743142e-03
  3.000694e+00    4.558601e-01   5.698923e-03
  3.002905e+00    4.488819e-01   5.652225e-03
  3.005115e+00    4.380023e-01   5.580370e-03
  3.007326e+00    4.530489e-01   5.672250e-03
  3.009536e+00    4.526859e-01   5.666729e-03
  3.011747e+00    4.494122e-01   5.643299e-03
  3.013957e+00    4.578674e-01   5.692955e-03
  3.016168e+00    4.531412e-01   5.660217e-03
  3.018378e+00    4.544952e-01   5.665631e-03
  3.020589e+00    4.677953e-01   5.744660e-03
  3.022799e+00    4.452673e-01   5.601512e-03
  3.025010e+00    4.431343e-01   5.584842e-03
  3.027220e+00    4.546519e-01   5.653860e-03
  3.029430e+00    4.496822e-01   5.619634e-03
  3.031641e+00    4.452787e-01   5.588921e-03
  3.033851e+00    4.515470e-01   5.624622e-03
  3.036062e+00    4.490601e-01   5.606330e-03
  3.038272e+00    4.590888e-01   5.664996e-03
  3.040483e+00    4.489743e-01   5.599017e-03
  3.042693e+00    4.571257e-01   5.646337e-03
  3.044904e+00    4.552565e-01   5.630724e-03
  3.047114e+00    4.652488e-01   5.687323e-03
  3.049325e+00    4.561286e-01   5.626869e-03
  3.051535e+00    4.578845e-01   5.633262e-03
  3.053745e+00    4.528823e-01   5.597664e-03
  3.055956e+00    4.453178e-01   5.546156e-03
  3.058166e+00    4.587029e-01   5.624580e-03
  3.060377e+00    4.475098e-01   5.550796e-03
  3.062587e+00    4.521121e-01   5.574609e-03
  3.064798e+00    4.575640e-01   5.603846e-03
  3.067008e+00    4.410011e-01   5.496793e-03
  3.069219e+00    4.467564e-01   5.528048e-03
  3.071429e+00    4.603373e-01   5.607885e-03
  3.073640e+00    4.592413e-01   5.597835e-03
  3.075850e+00    4.493974e-01   5.533959e-03
  3.078060e+00    4.489931e-01   5.528331e-03
  3.080271e+00    4.541835e-01   5.556712e-03
  3.082481e+00    4.494297e-01   5.524106e-03
  3.084692e+00    4.512038e-01   5.531607e-03
  3.086902e+00    4.514720e-01   5.530003e-03
  3.089113e+00    4.462269e-01   5.494208e-03
  3.091323e+00    4.459154e-01   5.488945e-03
  3.093534e+00    4.426146e-01   5.465217e-03
  3.095744e+00    4.534852e-01   5.528535e-03
  3.097955e+00    4.483408e-01   5.493548e-03
  3.100165e+00    4.499038e-01   5.499752e-03
  3.102375e+00    4.434720e-01   5.456903e-03
  3.104586e+00    4.469464e-01   5.474745e-03
  3.106796e+00    4.394250e-01   5.424982e-03
  3.109007e+00    4.537921e-01   5.509714e-03
  3.111217e+00    4.470271e-01   5.464810e-03
  3.113428e+00    4.420882e-01   5.431117e-03
  3.115638e+00    4.379215e-01   5.402259e-03
  3.117849e+00    4.591021e-01   5.527582e-03
  3.120059e+00    4.430851e-01   5.426858e-03
  3.122270e+00    4.550441e-01   5.496289e-03
  3.124480e+00    4.688374e-01   5.575198e-03
  3.126691e+00    4.651787e-01   5.549760e-03
  3.128901e+00    4.707040e-01   5.579412e-03
  3.131111e+00    4.612989e-01   5.519474e-03
  3.133322e+00    4.616746e-01   5.518207e-03
  3.135532e+00    4.557341e-01   5.479152e-03
  3.137743e+00    4.425142e-01   5.395629e-03
  3.139953e+00    4.337305e-01   5.338149e-03
  3.142164e+00    4.476500e-01   5.435220e-03
  3.144374e+00    4.412505e-01   5.424589e-03
  3.146585e+00    4.442188e-01   5.457411e-03
  3.148795e+00    4.492299e-01   5.498953e-03
  3.151006e+00    4.442561e-01   5.477000e-03
  3.153216e+00    4.475815e-01   5.504646e-03
  3.155426e+00    4.400108e-01   5.464201e-03
  3.157637e+00    4.423172e-01   5.484024e-03
  3.159847e+00    4.368105e-01   5.454642e-03
  3.162058e+00    4.451402e-01   5.510859e-03
  3.164268e+00    4.355712e-01   5.455363e-03
  3.166479e+00    4.404597e-01   5.489513e-03
  3.168689e+00    4.391596e-01   5.484794e-03
  3.170900e+00    4.340585e-01   5.455997e-03
  3.173110e+00    4.347236e-01   5.463029e-03
  3.175321e+00    4.407973e-01   5.503565e-03
  3.177531e+00    4.266494e-01   5.417236e-03
  3.179741e+00    4.277736e-01   5.426409e-03
  3.181952e+00    4.251953e-01   5.412092e-03
  3.184162e+00    4.339401e-01   5.469661e-03
  3.186373e+00    4.359768e-01   5.484086e-03
  3.188583e+00    4.371125e-01   5.492996e-03
  3.190794e+00    4.496978e-01   5.573303e-03
  3.193004e+00    4.329743e-01   5.469936e-03
  3.195215e+00    4.214033e-01   5.397824e-03
  3.197425e+00    4.303922e-01   5.456285e-03
  3.199636e+00    4.398738e-01   5.515278e-03
  3.201846e+00    4.319920e-01   5.465071e-03
  3.204056e+00    4.311053e-01   5.460323e-03
  3.206267e+00    4.356163e-01   5.489666e-03
  3.208477e+00    4.350499e-01   5.487014e-03
  3.210688e+00    4.436768e-01   5.542012e-03
  3.212898e+00    4.454889e-01   5.553909e-03
  3.215109e+00    4.396928e-01   5.518427e-03
  3.217319e+00    4.427947e-01   5.538482e-03
  3.219530e+00    4.353963e-01   5.492426e-03
  3.221740e+00    4.242937e-01   5.422497e-03
  3.223951e+00    4.351858e-01   5.492124e-03
  3.226161e+00    4.419720e-01   5.534971e-03
  3.228372e+00    4.348301e-01   5.490620e-03
  3.230582e+00    4.275280e-01   5.444454e-03
  3.232792e+00    4.210393e-01   5.403193e-03
  3.235003e+00    4.289781e-01   5.454142e-03
  3.237213e+00    4.226955e-01   5.414165e-03
  3.239424e+00    4.276798e-01   5.445975e-03
  3.241634e+00    4.266997e-01   5.439864e-03
  3.243845e+00    4.314725e-01   5.470278e-03
  3.246055e+00    4.325489e-01   5.476829e-03
  3.248266e+00    4.322615e-01   5.475194e-03
  3.250476e+00    4.288498e-01   5.453252e-03
  3.252687e+00    4.361150e-01   5.499173e-03
  3.254897e+00    4.274954e-01   5.444424e-03
  3.257107e+00    4.347560e-01   5.490160e-03
  3.259318e+00    4.234383e-01   5.417995e-03
  3.261528e+00    4.301700e-01   5.460747e-03
  3.263739e+00    4.309924e-01   5.465401e-03
  3.265949e+00    4.155025e-01   5.366182e-03
  3.268160e+00    4.238918e-01   5.419646e-03
  3.270370e+00    4.319348e-01   5.470323e-03
  3.272581e+00    4.277788e-01   5.443658e-03
  3.274791e+00    4.323376e-01   5.472043e-03
  3.277002e+00    4.349754e-01   5.488175e-03
  3.279212e+00    4.160203e-01   5.366860e-03
  3.281422e+00    4.399526e-01   5.518473e-03
  3.283633e+00    4.387799e-01   5.510441e-03
  3.285843e+00    4.354762e-01   5.489324e-03
  3.288054e+00    4.384750e-01   5.507222e-03
  3.290264e+00    4.378302e-01   5.502869e-03
  3.292475e+00    4.215063e-01   5.398478e-03
  3.294685e+00    4.171064e-01   5.369589e-03
  3.296896e+00    4.127111e-01   5.340470e-03
  3.299106e+00    4.176638e-01   5.371873e-03
  3.301317e+00    4.220765e-01   5.399147e-03
  3.303527e+00    4.222381e-01   5.399731e-03
  3.305737e+00    4.119593e-01   5.332553e-03
  3.307948e+00    4.273648e-01   5.430671e-03
  3.310158e+00    4.234893e-01   5.405159e-03
  3.312369e+00    4.177316e-01   5.367393e-03
  3.314579e+00    4.240945e-01   5.407208e-03
  3.316790e+00    4.285459e-01   5.434806e-03
  3.319000e+00    4.200097e-01   5.379239e-03
  3.321211e+00    4.118107e-01   5.325848e-03
  3.323421e+00    4.207877e-01   5.382393e-03
  3.325632e+00    4.222503e-01   5.390858e-03
  3.327842e+00    4.196289e-01   5.373180e-03
  3.330052e+00    4.172980e-01   5.357165e-03
  3.332263e+00    4.225681e-01   5.389873e-03
  3.334473e+00    4.249905e-01   5.404401e-03
  3.336684e+00    4.194233e-01   5.367611e-03
  3.338894e+00    4.130719e-01   5.325981e-03
  3.341105e+00    4.191085e-01   5.363544e-03
  3.343315e+00    4.194578e-01   5.364656e-03
  3.345526e+00    4.264470e-01   5.408242e-03
  3.347736e+00    4.198774e-01   5.365042e-03
  3.349947e+00    4.185757e-01   5.355755e-03
  3.352157e+00    4.254243e-01   5.398229e-03
  3.354368e+00    4.202039e-01   5.363707e-03
  3.356578e+00    4.219639e-01   5.373911e-03
  3.358788e+00    4.233838e-01   5.381598e-03
  3.360999e+00    4.179218e-01   5.345542e-03
  3.363209e+00    4.226001e-01   5.374334e-03
  3.365420e+00    4.256235e-01   5.392015e-03
  3.367630e+00    4.260159e-01   5.393459e-03
  3.369841e+00    4.193117e-01   5.349446e-03
  3.372051e+00    3.997371e-01   5.221128e-03
  3.374262e+00    4.178981e-01   5.335977e-03
  3.376472e+00    4.304322e-01   5.412929e-03
  3.378683e+00    4.048962e-01   5.247444e-03
  3.380893e+00    4.165285e-01   5.319932e-03
  3.383103e+00    4.270290e-01   5.383832e-03
  3.385314e+00    4.182174e-01   5.325781e-03
  3.387524e+00    4.058425e-01   5.243669e-03
  3.389735e+00    4.143851e-01   5.295953e-03
  3.391945e+00    4.057203e-01   5.236636e-03
  3.394156e+00    4.079317e-01   5.246698e-03
  3.396366e+00    4.097505e-01   5.254986e-03
  3.398577e+00    4.060935e-01   5.228446e-03
  3.400787e+00    4.277445e-01   5.378182e-03
  3.402998e+00    4.132169e-01   5.324270e-03
  3.405208e+00    3.943928e-01   5.221971e-03
  3.407418e+00    3.911356e-01   5.215941e-03
  3.409629e+00    3.983766e-01   5.277897e-03
  3.411839e+00    3.979247e-01   5.286683e-03
  3.414050e+00    3.933100e-01   5.266869e-03
  3.416260e+00    3.876379e-01   5.238316e-03
  3.418471e+00    3.849699e-01   5.229571e-03
  3.420681e+00    3.741147e-01   5.163613e-03
  3.422892e+00    3.772037e-01   5.192727e-03
  3.425102e+00    3.911393e-01   5.295616e-03
  3.427313e+00    3.746583e-01   5.189912e-03
  3.429523e+00    3.953506e-01   5.338440e-03
  3.431733e+00    3.854442e-01   5.277786e-03
  3.433944e+00    3.957115e-01   5.354200e-03
  3.436154e+00    4.059833e-01   5.429689e-03
  3.438365e+00    3.827058e-01   5.277668e-03
  3.440575e+00    3.711034e-01   5.202902e-03
  3.442786e+00    3.809128e-01   5.276824e-03
  3.444996e+00    3.786623e-01   5.266739e-03
  3.447207e+00    3.669654e-01   5.189992e-03
  3.449417e+00    3.656074e-01   5.220849e-03
  3.451628e+00    3.675639e-01   5.264200e-03
  3.453838e+00    3.811121e-01   5.381867e-03
  3.456049e+00    3.776519e-01   5.381673e-03
  3.458259e+00    3.609524e-01   5.283070e-03
  3.460469e+00    3.780458e-01   5.426825e-03
  3.462680e+00    3.806773e-01   5.465106e-03
  3.464890e+00    3.820836e-01   5.493377e-03
  3.467101e+00    3.710999e-01   5.431407e-03
  3.469311e+00    3.818596e-01   5.526356e-03
  3.471522e+00    3.880152e-01   5.587419e-03
  3.473732e+00    3.917170e-01   5.630216e-03
  3.475943e+00    4.050837e-01   5.741636e-03
  3.478153e+00    4.129240e-01   5.812855e-03
  3.480364e+00    4.178116e-01   5.862802e-03
  3.482574e+00    4.080440e-01   5.809265e-03
  3.484784e+00    4.078671e-01   5.822823e-03
  3.486995e+00    4.196293e-01   5.921367e-03
  3.489205e+00    4.209873e-01   5.945540e-03
  3.491416e+00    4.456701e-01   6.132619e-03
  3.493626e+00    4.367484e-01   6.085532e-03
  3.495837e+00    4.423863e-01   6.139476e-03
  3.498047e+00    4.561540e-01   6.248949e-03
  3.500258e+00    4.747725e-01   6.390143e-03
  3.502468e+00    4.648010e-01   6.337303e-03
  3.504679e+00    4.789660e-01   6.447880e-03
  3.506889e+00    4.707586e-01   6.406942e-03
  3.509099e+00    4.958955e-01   6.590466e-03
  3.511310e+00    4.985481e-01   6.622895e-03
  3.513520e+00    4.874360e-01   6.563167e-03
  3.515731e+00    4.960633e-01   6.635521e-03
  3.517941e+00    5.012351e-01   6.684534e-03
  3.520152e+00    5.001494e-01   6.691695e-03
  3.522362e+00    4.940345e-01   6.665045e-03
  3.524573e+00    5.149668e-01   6.819168e-03
  3.526783e+00    5.158909e-01   6.838724e-03
  3.528994e+00    5.069343e-01   6.791229e-03
  3.531204e+00    5.194961e-01   6.887276e-03
  3.533414e+00    5.262260e-01   6.943828e-03
  3.535625e+00    5.402175e-01   7.048053e-03
  3.537835e+00    5.485673e-01   7.114605e-03
  3.540046e+00    5.569366e-01   7.177791e-03
  3.542256e+00    5.438194e-01   7.100361e-03
  3.544467e+00    5.280036e-01   7.003895e-03
  3.546677e+00    5.386072e-01   7.081470e-03
  3.548888e+00    5.335084e-01   7.055348e-03
  3.551098e+00    5.330021e-01   7.059284e-03
  3.553309e+00    5.382898e-01   7.102385e-03
  3.555519e+00    5.322679e-01   7.073815e-03
  3.557729e+00    5.348350e-01   7.102527e-03
  3.559940e+00    5.463678e-01   7.190379e-03
  3.562150e+00    5.520867e-01   7.239791e-03
  3.564361e+00    5.465789e-01   7.217070e-03
  3.566571e+00    5.398843e-01   7.186574e-03
  3.568782e+00    5.609380e-01   7.339821e-03
  3.570992e+00    5.394704e-01   7.211810e-03
  3.573203e+00    5.511924e-01   7.304042e-03
  3.575413e+00    5.448911e-01   7.276123e-03
  3.577624e+00    5.414011e-01   7.266954e-03
  3.579834e+00    5.371204e-01   7.252023e-03
  3.582045e+00    5.413978e-01   7.294994e-03
  3.584255e+00    5.348402e-01   7.264715e-03
  3.586465e+00    5.468824e-01   7.360092e-03
  3.588676e+00    5.169656e-01   7.169926e-03
  3.590886e+00    5.324963e-01   7.290429e-03
  3.593097e+00    5.360150e-01   7.329025e-03
  3.595307e+00    5.401519e-01   7.371207e-03
  3.597518e+00    5.415390e-01   7.395004e-03
  3.599728e+00    5.380463e-01   7.385219e-03
  3.601939e+00    5.423019e-01   7.428520e-03
  3.604149e+00    5.406159e-01   7.431440e-03
  3.606360e+00    5.465600e-01   7.486502e-03
  3.608570e+00    5.185255e-01   7.305880e-03
  3.610780e+00    5.376080e-01   7.450192e-03
  3.612991e+00    5.321620e-01   7.422353e-03
  3.615201e+00    5.286967e-01   7.407882e-03
  3.617412e+00    5.490781e-01   7.556680e-03
  3.619622e+00    5.380821e-01   7.486633e-03
  3.621833e+00    5.341384e-01   7.465832e-03
  3.624043e+00    5.385420e-01   7.506080e-03
  3.626254e+00    5.499349e-01   7.594934e-03
  3.628464e+00    5.372130e-01   7.517562e-03
  3.630675e+00    5.448774e-01   7.585264e-03
  3.632885e+00    5.215192e-01   7.435184e-03
  3.635095e+00    5.439740e-01   7.608087e-03
  3.637306e+00    5.485069e-01   7.654277e-03
  3.639516e+00    5.549272e-01   7.713804e-03
  3.641727e+00    5.399986e-01   7.623982e-03
  3.643937e+00    5.256106e-01   7.536177e-03
  3.646148e+00    5.291435e-01   7.575979e-03
  3.648358e+00    5.351432e-01   7.633734e-03
  3.650569e+00    5.484475e-01   7.742967e-03
  3.652779e+00    5.428048e-01   7.717970e-03
  3.654990e+00    5.359988e-01   7.684345e-03
  3.657200e+00    5.479087e-01   7.784354e-03
  3.659410e+00    5.281317e-01   7.657532e-03
  3.661621e+00    5.363459e-01   7.731974e-03
  3.663831e+00    5.549417e-01   7.880315e-03
  3.666042e+00    5.542924e-01   7.891200e-03
  3.668252e+00    5.360404e-01   7.775520e-03
  3.670463e+00    5.264577e-01   7.720838e-03
  3.672673e+00    5.376663e-01   7.818123e-03
  3.674884e+00    5.212690e-01   7.713275e-03
  3.677094e+00    5.287846e-01   7.784121e-03
  3.679305e+00    5.552695e-01   7.992619e-03
  3.681515e+00    5.376483e-01   7.880503e-03
  3.683726e+00    5.394156e-01   7.909396e-03
  3.685936e+00    5.321012e-01   7.871357e-03
  3.688146e+00    5.328443e-01   7.892680e-03
  3.690357e+00    5.297045e-01   7.885348e-03
  3.692567e+00    5.348505e-01   7.939815e-03
  3.694778e+00    5.246559e-01   7.879812e-03
  3.696988e+00    5.492699e-01   8.078847e-03
  3.699199e+00    5.206489e-01   7.881743e-03
  3.701409e+00    5.048851e-01   7.777544e-03
  3.703620e+00    5.260308e-01   7.955057e-03
  3.705830e+00    5.184686e-01   7.914013e-03
  3.708041e+00    5.089936e-01   7.857684e-03
  3.710251e+00    5.265093e-01   8.008495e-03
  3.712461e+00    5.168255e-01   7.951183e-03
  3.714672e+00    5.108679e-01   7.921791e-03
  3.716882e+00    5.232105e-01   8.033606e-03
  3.719093e+00    5.305073e-01   8.106779e-03
  3.721303e+00    5.139325e-01   7.995997e-03
  3.723514e+00    5.160435e-01   8.029595e-03
  3.725724e+00    5.064277e-01   7.971423e-03
  3.727935e+00    5.019326e-01   7.953113e-03
  3.730145e+00    5.243269e-01   8.146059e-03
  3.732356e+00    5.040613e-01   8.004432e-03
  3.734566e+00    5.137876e-01   8.098776e-03
  3.736776e+00    5.268146e-01   8.218757e-03
  3.738987e+00    5.338562e-01   8.291626e-03
  3.741197e+00    5.195146e-01   8.197572e-03
  3.743408e+00    5.282645e-01   8.284640e-03
  3.745618e+00    5.044059e-01   8.113570e-03
  3.747829e+00    4.943785e-01   8.050289e-03
  3.750039e+00    5.054798e-01   8.158407e-03
  3.752250e+00    5.316271e-01   8.385675e-03
  3.754460e+00    4.880162e-01   8.052455e-03
  3.756671e+00    5.010186e-01   8.177657e-03
  3.758881e+00    5.026812e-01   8.209755e-03
  3.761091e+00    5.105021e-01   8.292526e-03
  3.763302e+00    5.264161e-01   8.440258e-03
  3.765512e+00    5.171710e-01   8.385211e-03
  3.767723e+00    5.261167e-01   8.477138e-03
  3.769933e+00    5.061157e-01   8.333784e-03
  3.772144e+00    5.152642e-01   8.428499e-03
  3.774354e+00    5.189217e-01   8.478472e-03
  3.776565e+00    5.165868e-01   8.479462e-03
  3.778775e+00    5.185211e-01   8.515552e-03
  3.780986e+00    5.181186e-01   8.532837e-03
  3.783196e+00    5.058461e-01   8.451471e-03
  3.785407e+00    4.958878e-01   8.388093e-03
  3.787617e+00    5.320815e-01   8.710213e-03
  3.789827e+00    5.011339e-01   8.473651e-03
  3.792038e+00    5.156095e-01   8.616225e-03
  3.794248e+00    4.971482e-01   8.481662e-03
  3.796459e+00    5.067165e-01   8.584365e-03
  3.798669e+00    5.207767e-01   8.724424e-03
  3.800880e+00    5.270829e-01   8.799115e-03
  3.803090e+00    5.170863e-01   8.737483e-03
  3.805301e+00    4.998727e-01   8.612880e-03
  3.807511e+00    5.045192e-01   8.674903e-03
  3.809722e+00    5.070079e-01   8.718706e-03
  3.811932e+00    4.951678e-01   8.638397e-03
  3.814142e+00    5.018908e-01   8.719784e-03
  3.816353e+00    4.968760e-01   8.698915e-03
  3.818563e+00    5.114105e-01   8.848605e-03
  3.820774e+00    4.874557e-01   8.661820e-03
  3.822984e+00    5.079656e-01   8.865707e-03
  3.825195e+00    5.165854e-01   8.964828e-03
  3.827405e+00    5.217773e-01   9.034219e-03
  3.829616e+00    5.267241e-01   9.101694e-03
  3.831826e+00    5.202677e-01   9.070478e-03
  3.834037e+00    5.107548e-01   9.012007e-03
  3.836247e+00    5.094408e-01   9.025397e-03
  3.838457e+00    5.084815e-01   9.042221e-03
  3.840668e+00    5.198268e-01   9.168336e-03
  3.842878e+00    4.878061e-01   8.906772e-03
  3.845089e+00    4.904706e-01   8.956515e-03
  3.847299e+00    5.114573e-01   9.172285e-03
  3.849510e+00    4.903037e-01   9.006358e-03
  3.851720e+00    5.144496e-01   9.247271e-03
  3.853931e+00    5.034370e-01   9.166955e-03
  3.856141e+00    5.070274e-01   9.218819e-03
  3.858352e+00    4.960832e-01   9.138050e-03
  3.860562e+00    4.966893e-01   9.163014e-03
  3.862772e+00    4.930005e-01   9.148510e-03
  3.864983e+00    5.107207e-01   9.331393e-03
  3.867193e+00    5.112954e-01   9.356857e-03
  3.869404e+00    4.917702e-01   9.196173e-03
  3.871614e+00    4.819356e-01   9.123527e-03
  3.873825e+00    4.910946e-01   9.230105e-03
  3.876035e+00    5.052075e-01   9.382577e-03
  3.878246e+00    4.990505e-01   9.351220e-03
  3.880456e+00    4.880498e-01   9.276424e-03
  3.882667e+00    4.985699e-01   9.405352e-03
  3.884877e+00    5.111326e-01   9.553486e-03
  3.887087e+00    5.082497e-01   9.556931e-03
  3.889298e+00    4.853688e-01   9.369576e-03
  3.891508e+00    4.908277e-01   9.452568e-03
  3.893719e+00    4.919913e-01   9.494805e-03
  3.895929e+00    5.113956e-01   9.712340e-03
  3.898140e+00    5.149134e-01   9.778167e-03
  3.900350e+00    4.971045e-01   9.639945e-03
  3.902561e+00    5.081558e-01   9.779416e-03
  3.904771e+00    4.974033e-01   9.708514e-03
  3.906982e+00    4.811975e-01   9.581919e-03
  3.909192e+00    4.946870e-01   9.748898e-03
  3.911403e+00    5.031080e-01   9.866117e-03
  3.913613e+00    4.898116e-01   9.769136e-03
  3.915823e+00    4.901676e-01   9.807582e-03
  3.918034e+00    5.040718e-01   9.981463e-03
  3.920244e+00    5.064921e-01   1.004183e-02
  3.922455e+00    4.959673e-01   9.973306e-03
  3.924665e+00    4.945074e-01   9.995347e-03
  3.926876e+00    4.654542e-01   9.733457e-03
  3.929086e+00    5.170453e-01   1.029716e-02
  3.931297e+00    5.140487e-01   1.030307e-02
  3.933507e+00    4.785590e-01   9.969725e-03
  3.935718e+00    5.084224e-01   1.030541e-02
  3.937928e+00    4.950009e-01   1.019823e-02
  3.940138e+00    4.673033e-01   9.937488e-03
  3.942349e+00    4.664561e-01   9.957664e-03
  3.944559e+00    4.741726e-01   1.006934e-02
  3.946770e+00    4.991588e-01   1.036173e-02
  3.948980e+00    4.774356e-01   1.016427e-02
  3.951191e+00    4.814889e-01   1.023789e-02
  3.953401e+00    4.827855e-01   1.028301e-02
  3.955612e+00    5.086924e-01   1.058760e-02
  3.957822e+00    4.956704e-01   1.048329e-02
  3.960033e+00    4.734807e-01   1.027811e-02
  3.962243e+00    4.926047e-01   1.051671e-02
  3.964453e+00    4.584814e-01   1.017808e-02
  3.966664e+00    4.734239e-01   1.037552e-02
  3.968874e+00    4.855834e-01   1.053637e-02
  3.971085e+00    4.993640e-01   1.070702e-02
  3.973295e+00    4.875053e-01   1.060070e-02
  3.975506e+00    4.912298e-01   1.066284e-02
  3.977716e+00    4.929603e-01   1.070372e-02
  3.979927e+00    4.787938e-01   1.057088e-02
  3.982137e+00    4.904737e-01   1.072136e-02
  3.984348e+00    4.807876e-01   1.063746e-02
  3.986558e+00    4.777752e-01   1.062624e-02
  3.988768e+00    4.905025e-01   1.078992e-02
  3.990979e+00    5.074311e-01   1.099783e-02
  3.993189e+00    4.796269e-01   1.071532e-02
  3.995400e+00    4.864264e-01   1.081446e-02
  3.997610e+00    4.654123e-01   1.060754e-02
  3.999821e+00    4.799744e-01   1.080953e-02
  4.002031e+00    4.874383e-01   1.093172e-02
  4.004242e+00    5.071410e-01   1.118982e-02
  4.006452e+00    4.967412e-01   1.111442e-02
  4.008663e+00    5.205207e-01   1.141867e-02
  4.010873e+00    5.247336e-01   1.150655e-02
  4.013084e+00    4.970013e-01   1.123977e-02
  4.015294e+00    5.086148e-01   1.141225e-02
  4.017504e+00    4.970592e-01   1.132441e-02
  4.019715e+00    4.768730e-01   1.113410e-02
  4.021925e+00    4.797235e-01   1.121022e-02
  4.024136e+00    4.780930e-01   1.123456e-02
  4.026346e+00    4.788766e-01   1.128762e-02
  4.028557e+00    4.799322e-01   1.134416e-02
  4.030767e+00    4.948440e-01   1.156532e-02
  4.032978e+00    4.617698e-01   1.121741e-02
  4.035188e+00    4.387332e-01   1.097785e-02
  4.037399e+00    5.038452e-01   1.181286e-02
  4.039609e+00    4.767399e-01   1.153823e-02
  4.041819e+00    4.869638e-01   1.171009e-02
  4.044030e+00    4.881185e-01   1.177430e-02
  4.046240e+00    4.645450e-01   1.153532e-02
  4.048451e+00    4.839621e-01   1.182482e-02
  4.050661e+00    4.981616e-01   1.204936e-02
  4.052872e+00    4.781519e-01   1.185735e-02
  4.055082e+00    4.875830e-01   1.202752e-02
  4.057293e+00    4.712276e-01   1.187723e-02
  4.059503e+00    4.824173e-01   1.207195e-02
  4.061714e+00    4.994922e-01   1.234133e-02
  4.063924e+00    4.819271e-01   1.217908e-02
  4.066134e+00    5.099560e-01   1.258722e-02
  4.068345e+00    5.065448e-01   1.260563e-02
  4.070555e+00    4.809740e-01   1.234250e-02
  4.072766e+00    5.011851e-01   1.266111e-02
  4.074976e+00    5.071646e-01   1.280008e-02
  4.077187e+00    5.014182e-01   1.279057e-02
  4.079397e+00    4.669236e-01   1.240585e-02
  4.081608e+00    5.109466e-01   1.304485e-02
  4.083818e+00    4.773144e-01   1.267391e-02
  4.086029e+00    4.804284e-01   1.278225e-02
  4.088239e+00    4.549823e-01   1.250620e-02
  4.090449e+00    4.411833e-01   1.238160e-02
  4.092660e+00    5.041576e-01   1.330858e-02
  4.094870e+00    5.177359e-01   1.356188e-02
  4.097081e+00    4.841053e-01   1.318587e-02
  4.099291e+00    4.965940e-01   1.340999e-02
  4.101502e+00    5.241133e-01   1.382797e-02
  4.103712e+00    5.329501e-01   1.399601e-02
  4.105923e+00    5.124964e-01   1.377804e-02
  4.108133e+00    5.260701e-01   1.401300e-02
  4.110344e+00    5.023553e-01   1.374611e-02
  4.112554e+00    4.600455e-01   1.320624e-02
  4.114764e+00    4.776992e-01   1.351148e-02
  4.116975e+00    5.192560e-01   1.414243e-02
  4.119185e+00    4.618764e-01   1.339223e-02
  4.121396e+00    4.687643e-01   1.354744e-02
  4.123606e+00    5.041448e-01   1.410708e-02
  4.125817e+00    5.026901e-01   1.414581e-02
  4.128027e+00    4.470742e-01   1.339651e-02
  4.130238e+00    4.933867e-01   1.413358e-02
  4.132448e+00    5.139934e-01   1.448843e-02
  4.134659e+00    4.767355e-01   1.401340e-02
  4.136869e+00    4.794225e-01   1.411552e-02
  4.139080e+00    4.654355e-01   1.397060e-02
  4.141290e+00    5.250283e-01   1.490401e-02
  4.143500e+00    4.997131e-01   1.460728e-02
  4.145711e+00    4.441660e-01   1.383580e-02
  4.147921e+00    5.015716e-01   1.477019e-02
  4.150132e+00    4.913497e-01   1.468863e-02
  4.152342e+00    5.561248e-01   1.570262e-02
  4.154553e+00    4.959406e-01   1.489926e-02
  4.156763e+00    4.877900e-01   1.484949e-02
  4.158974e+00    5.262796e-01   1.550136e-02
  4.161184e+00    4.908502e-01   1.504507e-02
  4.163395e+00    5.549239e-01   1.607842e-02
  4.165605e+00    4.859993e-01   1.512537e-02
  4.167815e+00    4.982256e-01   1.539396e-02
  4.170026e+00    5.210381e-01   1.582558e-02
  4.172236e+00    5.500471e-01   1.634790e-02
  4.174447e+00    5.163963e-01   1.592628e-02
  4.176657e+00    4.996491e-01   1.575155e-02
  4.178868e+00    5.063990e-01   1.594731e-02
  4.181078e+00    4.906043e-01   1.578508e-02
  4.183289e+00    4.639935e-01   1.543874e-02
  4.185499e+00    4.833878e-01   1.585113e-02
  4.187710e+00    5.269832e-01   1.664746e-02
  4.189920e+00    4.778421e-01   1.594798e-02
  4.192130e+00    4.930384e-01   1.629829e-02
  4.194341e+00    4.931881e-01   1.640078e-02
  4.196551e+00    5.005435e-01   1.662734e-02
  4.198762e+00    5.140574e-01   1.695714e-02
  4.200972e+00    5.256780e-01   1.725891e-02
  4.203183e+00    5.314986e-01   1.746841e-02
  4.205393e+00    5.639212e-01   1.811317e-02
  4.207604e+00    4.993339e-01   1.716085e-02
  4.209814e+00    4.968877e-01   1.723593e-02
  4.212025e+00    4.936541e-01   1.730173e-02
  4.214235e+00    4.841117e-01   1.725472e-02
  4.216445e+00    5.616435e-01   1.871981e-02
  4.218656e+00    4.642871e-01   1.714779e-02
  4.220866e+00    4.594636e-01   1.718489e-02
  4.223077e+00    4.270581e-01   1.669515e-02
  4.225287e+00    4.586085e-01   1.743670e-02
  4.227498e+00    5.300380e-01   1.889259e-02
  4.229708e+00    4.924465e-01   1.835845e-02
  4.231919e+00    5.015325e-01   1.868049e-02
  4.234129e+00    4.524735e-01   1.789181e-02
  4.236340e+00    4.778249e-01   1.854388e-02
  4.238550e+00    4.808402e-01   1.876643e-02
  4.240761e+00    4.720123e-01   1.875776e-02
  4.242971e+00    4.113985e-01   1.767201e-02
  4.245181e+00    4.637242e-01   1.893872e-02
  4.247392e+00    5.222574e-01   2.028637e-02
  4.249602e+00    4.798672e-01   1.963874e-02
  4.251813e+00    4.495605e-01   1.919603e-02
  4.254023e+00    4.929090e-01   2.030236e-02
  4.256234e+00    4.600253e-01   1.982334e-02
  4.258444e+00    4.537572e-01   1.989336e-02
  4.260655e+00    4.676713e-01   2.041879e-02
  4.262865e+00    4.559136e-01   2.038840e-02
  4.265076e+00    5.118578e-01   2.184936e-02
  4.267286e+00    5.404938e-01   2.271832e-02
  4.269496e+00    4.316517e-01   2.055037e-02
  4.271707e+00    4.226488e-01   2.058605e-02
  4.273917e+00    4.351739e-01   2.115872e-02
  4.276128e+00    4.448242e-01   2.167637e-02
  4.278338e+00    5.323051e-01   2.402853e-02
  4.280549e+00    4.796469e-01   2.313664e-02
  4.282759e+00    5.246845e-01   2.454627e-02
  4.284970e+00    5.072466e-01   2.449195e-02
  4.287180e+00    4.621748e-01   2.365868e-02
  4.289391e+00    5.617812e-01   2.627952e-02
  4.291601e+00    4.620748e-01   2.402455e-02
  4.293811e+00    4.094464e-01   2.279130e-02
  4.296022e+00    4.644910e-01   2.447001e-02
  4.298232e+00    4.914012e-01   2.537981e-02
  4.300443e+00    4.978580e-01   2.575684e-02
  4.302653e+00    4.279234e-01   2.408640e-02
  4.304864e+00    4.887078e-01   2.596285e-02
  4.307074e+00    4.155301e-01   2.415561e-02
  4.309285e+00    5.147972e-01   2.713026e-02
  4.311495e+00    4.310933e-01   2.505954e-02
  4.313706e+00    5.267556e-01   2.796094e-02
  4.315916e+00    5.678877e-01   2.931800e-02
  4.318126e+00    4.376253e-01   2.599216e-02
  4.320337e+00    4.447376e-01   2.646565e-02
  4.322547e+00    4.283601e-01   2.625036e-02
  4.324758e+00    5.356602e-01   2.965985e-02
  4.326968e+00    6.247188e-01   3.239141e-02
  4.329179e+00    4.054198e-01   2.638139e-02
  4.331389e+00    4.960382e-01   2.951753e-02
  4.333600e+00    4.843834e-01   2.951703e-02
  4.335810e+00    4.822935e-01   2.980311e-02
  4.338021e+00    5.403833e-01   3.195143e-02
  4.340231e+00    4.781508e-01   3.043264e-02
  4.342442e+00    4.747092e-01   3.072988e-02
  4.344652e+00    3.333466e-01   2.609978e-02
  4.346862e+00    4.755611e-01   3.161143e-02
  4.349073e+00    3.901201e-01   2.904800e-02
  4.351283e+00    4.354159e-01   3.114580e-02
  4.353494e+00    5.017719e-01   3.395164e-02
  4.355704e+00    5.192857e-01   3.509598e-02
  4.357915e+00    4.431987e-01   3.296111e-02
  4.360125e+00    4.572824e-01   3.405362e-02
  4.362336e+00    4.576324e-01   3.468680e-02
  4.364546e+00    4.801979e-01   3.617936e-02
  4.366757e+00    4.443644e-01   3.549549e-02
  4.368967e+00    3.426627e-01   3.179101e-02
  4.371177e+00    4.237565e-01   3.610690e-02
  4.373388e+00    3.670019e-01   3.435108e-02
  4.375598e+00    3.940101e-01   3.640457e-02
  4.377809e+00    5.185903e-01   4.282371e-02
  4.380019e+00    4.026391e-01   3.868245e-02
  4.382230e+00    3.663799e-01   3.792818e-02
  4.384440e+00    3.837570e-01   3.993565e-02
  4.386651e+00    4.971029e-01   4.685422e-02
  4.388861e+00    3.719155e-01   4.188626e-02
  4.391072e+00    4.629605e-01   4.837359e-02
  4.393282e+00    6.091191e-01   5.763393e-02
  4.395492e+00    5.779275e-01   5.847130e-02
  4.397703e+00    2.158804e-01   3.737243e-02
  4.399913e+00    3.675146e-01   5.122710e-02
  4.402124e+00    3.784356e-01   5.492430e-02
  4.404334e+00    5.051912e-01   6.746449e-02
  4.406545e+00    4.315405e-01   6.699298e-02
  4.408755e+00    4.456800e-01   7.383098e-02
  4.410966e+00    4.235041e-01   7.966348e-02
  4.413176e+00    2.664535e-01   7.152552e-02
  4.415387e+00   -3.610185e-01            nan
  4.417597e+00   -1.757999e+00            nan
  4.419807e+00   -3.766224e-01            nan
