# == pyFAI calibration ==
# Distance Sample to Detector: 0.216 m
# PONI: 1.166e-01, 1.308e-01 m
# Rotations: 0.000000 0.000000 0.000000 rad
# 
# == Fit2d calibration ==
# Distance Sample-beamCenter: 216.000 mm
# Center: x=1744.293, y=1555.000 pix
# Tilt: 0.000 deg  TiltPlanRot: 0.000 deg
# 
# Detector Eiger 9M	 PixelSize= 7.500e-05, 7.500e-05 m
#    Detector has a mask: True 
#    Detector has a dark current: False 
#    detector has a flat field: False 
# 
# Wavelength: 9.8e-11 m
# Mask applied: from detector
# Dark current applied: False
# Flat field applied: False
# Polarization factor: None
# Normalization factor: 1.0
# 
# Headers of the input frame:
# {
# "_array_data.header_convention": "SLS_1.0",
# "_array_data.header_contents": "# Detector: Dectris Eiger 9M, S/N E-18-0102\r\n# Pixel_size 75e-6 m x 75e-6 m\r\n# Silicon sensor, thickness 0.000450 m\r\n# Exposure_time 0.024997 s\r\n# Exposure_period 0.025000 s\r\n# Count_cutoff 62318 counts\r\n# Wavelength 0.980106 A\r\n# Detector_distance 0.215992 m\r\n# Beam_xy (1555, 1744) pixels\r\n# Start_angle 0.000000 deg.\r\n# Angle_increment 0.000000 deg.",
# "Content-Type": "application/octet-stream;",
# "conversions": "x-CBF_BYTE_OFFSET",
# "Content-Transfer-Encoding": "BINARY",
# "X-Binary-Size": "10166590",
# "X-Binary-ID": "1",
# "X-Binary-Element-Type": "signed 32-bit integer",
# "X-Binary-Element-Byte-Order": "LITTLE_ENDIAN",
# "Content-MD5": "jdZOox6Y6cSNgQusjwsoCQ==",
# "X-Binary-Number-of-Elements": "10166590",
# "X-Binary-Size-Fastest-Dimension": "3110",
# "X-Binary-Size-Second-Dimension": "3269",
# "X-Binary-Size-Padding": "4095"
# }
# --> H:/Proxima2a_2019-04-05/RAW_DATA/C5_gel17_position5/C5_mesh_1_data.cbf/C5_mesh_1_data.cbf000070.dat
#        q_A^-1              I           sigma 
  1.105228e-03    1.279945e+00   6.121848e-01
  3.315685e-03    1.113146e+00   3.470735e-01
  5.526141e-03    1.431543e+00   3.043506e-01
  7.736597e-03    1.331764e+00   2.479898e-01
  9.947054e-03    1.374380e+00   2.220905e-01
  1.215751e-02    1.477059e+00   2.081936e-01
  1.436797e-02    1.201808e+00   1.727402e-01
  1.657842e-02    1.233287e+00   1.628833e-01
  1.878888e-02    1.633320e+00   1.760756e-01
  2.099934e-02    1.509073e+00   1.601243e-01
  2.320979e-02    1.418941e+00   1.476777e-01
  2.542025e-02    1.473815e+00   1.438238e-01
  2.763070e-02    1.669302e+00   1.468107e-01
  2.984116e-02    1.531484e+00   1.353109e-01
  3.205162e-02    1.386995e+00   1.242578e-01
  3.426207e-02    1.627864e+00   1.301918e-01
  3.647253e-02    1.598883e+00   1.250542e-01
  3.868299e-02    1.425152e+00   1.146506e-01
  4.089344e-02    1.489930e+00   1.140154e-01
  4.310390e-02    1.406074e+00   1.078768e-01
  4.531436e-02    1.321152e+00   1.019864e-01
  4.752481e-02    1.297649e+00   9.869557e-02
  4.973527e-02    1.450249e+00   1.019936e-01
  5.194572e-02    1.430726e+00   9.912453e-02
  5.415618e-02    1.487927e+00   9.899873e-02
  5.636664e-02    1.410354e+00   9.447770e-02
  5.857709e-02    1.404093e+00   9.247246e-02
  6.078755e-02    1.398694e+00   9.059800e-02
  6.299801e-02    1.483052e+00   9.163781e-02
  6.520846e-02    1.352664e+00   8.602121e-02
  6.741892e-02    1.446163e+00   8.746988e-02
  6.962938e-02    1.477201e+00   8.699337e-02
  7.183983e-02    1.494688e+00   8.614843e-02
  7.405029e-02    1.563277e+00   8.677593e-02
  7.626074e-02    1.464732e+00   8.276933e-02
  7.847120e-02    1.437324e+00   8.082605e-02
  8.068166e-02    1.478566e+00   8.084603e-02
  8.289211e-02    1.519098e+00   8.084618e-02
  8.510257e-02    1.612799e+00   8.221281e-02
  8.731303e-02    1.612666e+00   8.115903e-02
  8.952348e-02    1.629676e+00   8.057462e-02
  9.173394e-02    1.486141e+00   7.600881e-02
  9.394439e-02    1.430481e+00   7.368692e-02
  9.615485e-02    1.562714e+00   7.612536e-02
  9.836531e-02    1.586480e+00   7.583325e-02
  1.005758e-01    1.578510e+00   7.480716e-02
  1.027862e-01    1.463132e+00   7.124094e-02
  1.049967e-01    1.594361e+00   7.357890e-02
  1.072071e-01    1.568888e+00   7.223153e-02
  1.094176e-01    1.557584e+00   7.123905e-02
  1.116280e-01    1.527608e+00   6.984665e-02
  1.138385e-01    1.554226e+00   6.976385e-02
  1.160490e-01    1.485578e+00   6.755223e-02
  1.182594e-01    1.553460e+00   6.842823e-02
  1.204699e-01    1.481665e+00   6.621183e-02
  1.226803e-01    1.587046e+00   6.790302e-02
  1.248908e-01    1.537409e+00   6.623786e-02
  1.271012e-01    1.573593e+00   6.642620e-02
  1.293117e-01    1.570891e+00   6.579863e-02
  1.315222e-01    1.543195e+00   6.466416e-02
  1.337326e-01    1.534119e+00   6.393741e-02
  1.359431e-01    1.617345e+00   6.568725e-02
  1.381535e-01    1.678710e+00   6.782010e-02
  1.403640e-01    1.593114e+00   6.635369e-02
  1.425744e-01    1.622404e+00   6.706785e-02
  1.447849e-01    1.555847e+00   6.569289e-02
  1.469953e-01    1.564513e+00   6.583432e-02
  1.492058e-01    1.610405e+00   6.671529e-02
  1.514163e-01    1.546587e+00   6.527147e-02
  1.536267e-01    1.586393e+00   6.597703e-02
  1.558372e-01    1.639975e+00   6.693389e-02
  1.580476e-01    1.600909e+00   6.597142e-02
  1.602581e-01    1.499221e+00   6.367967e-02
  1.624685e-01    1.567989e+00   6.494545e-02
  1.646790e-01    1.699803e+00   6.742606e-02
  1.668895e-01    1.693450e+00   6.710558e-02
  1.690999e-01    1.749090e+00   6.799427e-02
  1.713104e-01    1.767388e+00   6.813692e-02
  1.735208e-01    1.696619e+00   6.655121e-02
  1.757313e-01    1.745475e+00   6.729104e-02
  1.779417e-01    1.855372e+00   6.915081e-02
  1.801522e-01    1.837063e+00   6.858965e-02
  1.823626e-01    1.877812e+00   6.911530e-02
  1.845731e-01    1.959576e+00   7.037531e-02
  1.867836e-01    1.966962e+00   7.026985e-02
  1.889940e-01    1.967822e+00   7.005553e-02
  1.912045e-01    2.013050e+00   7.061940e-02
  1.934149e-01    1.914879e+00   6.864545e-02
  1.956254e-01    1.854600e+00   6.733350e-02
  1.978358e-01    1.862575e+00   6.724689e-02
  2.000463e-01    1.918301e+00   6.801927e-02
  2.022568e-01    2.059636e+00   7.024916e-02
  2.044672e-01    2.005276e+00   6.907848e-02
  2.066777e-01    1.956996e+00   6.801532e-02
  2.088881e-01    1.982402e+00   6.823141e-02
  2.110986e-01    2.032095e+00   6.884442e-02
  2.133090e-01    1.925513e+00   6.679685e-02
  2.155195e-01    1.981373e+00   6.753402e-02
  2.177300e-01    1.976671e+00   6.692394e-02
  2.199404e-01    1.928169e+00   6.435610e-02
  2.221509e-01    1.984791e+00   6.422204e-02
  2.243613e-01    1.955162e+00   6.293283e-02
  2.265718e-01    2.068359e+00   6.401552e-02
  2.287822e-01    2.165062e+00   6.484663e-02
  2.309927e-01    2.199305e+00   6.476206e-02
  2.332031e-01    2.172883e+00   6.382093e-02
  2.354136e-01    2.127681e+00   6.264175e-02
  2.376241e-01    2.171672e+00   6.279480e-02
  2.398345e-01    2.161405e+00   6.218255e-02
  2.420450e-01    2.176275e+00   6.195018e-02
  2.442554e-01    2.136224e+00   6.095461e-02
  2.464659e-01    2.180737e+00   6.117294e-02
  2.486763e-01    2.175033e+00   6.069130e-02
  2.508868e-01    2.160383e+00   6.010498e-02
  2.530973e-01    2.176406e+00   5.995347e-02
  2.553077e-01    2.077197e+00   5.821579e-02
  2.575182e-01    2.143798e+00   5.879177e-02
  2.597286e-01    2.158801e+00   5.865420e-02
  2.619391e-01    2.095169e+00   5.745063e-02
  2.641495e-01    2.057536e+00   5.661724e-02
  2.663600e-01    2.021193e+00   5.580640e-02
  2.685704e-01    2.007524e+00   5.531587e-02
  2.707809e-01    2.058229e+00   5.571281e-02
  2.729914e-01    2.071683e+00   5.560329e-02
  2.752018e-01    2.041540e+00   5.491000e-02
  2.774123e-01    2.079235e+00   5.513156e-02
  2.796227e-01    1.985906e+00   5.361352e-02
  2.818332e-01    1.981068e+00   5.328104e-02
  2.840436e-01    1.876598e+00   5.160579e-02
  2.862541e-01    1.901477e+00   5.169701e-02
  2.884646e-01    1.968833e+00   5.235502e-02
  2.906750e-01    1.991799e+00   5.240982e-02
  2.928855e-01    1.995691e+00   5.221790e-02
  2.950959e-01    1.987076e+00   5.186573e-02
  2.973064e-01    2.009636e+00   5.192491e-02
  2.995168e-01    2.025751e+00   5.189656e-02
  3.017273e-01    1.948649e+00   5.067499e-02
  3.039377e-01    1.932354e+00   5.024165e-02
  3.061482e-01    1.987502e+00   5.073316e-02
  3.083587e-01    1.873712e+00   4.904622e-02
  3.105691e-01    1.884118e+00   4.897213e-02
  3.127796e-01    1.980373e+00   4.999642e-02
  3.149900e-01    1.960740e+00   4.954070e-02
  3.172005e-01    1.862993e+00   4.809261e-02
  3.194109e-01    1.846776e+00   4.768516e-02
  3.216214e-01    1.844493e+00   4.746121e-02
  3.238319e-01    1.852164e+00   4.737137e-02
  3.260423e-01    1.876424e+00   4.749069e-02
  3.282528e-01    1.866114e+00   4.717149e-02
  3.304632e-01    1.955042e+00   4.809534e-02
  3.326737e-01    1.868154e+00   4.683100e-02
  3.348841e-01    1.868665e+00   4.665578e-02
  3.370946e-01    1.852800e+00   4.628251e-02
  3.393050e-01    1.811024e+00   4.558443e-02
  3.415155e-01    1.784627e+00   4.508085e-02
  3.437260e-01    1.851673e+00   4.574965e-02
  3.459364e-01    1.836182e+00   4.538937e-02
  3.481469e-01    1.780159e+00   4.452844e-02
  3.503573e-01    1.792239e+00   4.451651e-02
  3.525678e-01    1.832511e+00   4.485343e-02
  3.547782e-01    1.873597e+00   4.518957e-02
  3.569887e-01    1.865647e+00   4.493382e-02
  3.591992e-01    1.836600e+00   4.442490e-02
  3.614096e-01    1.755476e+00   4.328210e-02
  3.636201e-01    1.800211e+00   4.367606e-02
  3.658305e-01    1.834988e+00   4.394551e-02
  3.680410e-01    1.827831e+00   4.370888e-02
  3.702514e-01    1.842745e+00   4.373923e-02
  3.724619e-01    1.817918e+00   4.329567e-02
  3.746724e-01    1.713045e+00   4.188807e-02
  3.768828e-01    1.743117e+00   4.211192e-02
  3.790933e-01    1.754488e+00   4.211140e-02
  3.813037e-01    1.739422e+00   4.179301e-02
  3.835142e-01    1.756505e+00   4.185979e-02
  3.857246e-01    1.797675e+00   4.221049e-02
  3.879351e-01    1.717769e+00   4.112814e-02
  3.901455e-01    1.756798e+00   4.146032e-02
  3.923560e-01    1.797565e+00   4.180535e-02
  3.945665e-01    1.804677e+00   4.175511e-02
  3.967769e-01    1.758686e+00   4.109055e-02
  3.989874e-01    1.803200e+00   4.147737e-02
  4.011978e-01    1.838840e+00   4.175650e-02
  4.034083e-01    1.785532e+00   4.102044e-02
  4.056187e-01    1.850481e+00   4.163120e-02
  4.078292e-01    1.781389e+00   4.072303e-02
  4.100397e-01    1.743490e+00   4.016447e-02
  4.122501e-01    1.794887e+00   4.063026e-02
  4.144606e-01    1.805914e+00   4.063403e-02
  4.166710e-01    1.810453e+00   4.056408e-02
  4.188815e-01    1.837424e+00   4.074440e-02
  4.210919e-01    1.800702e+00   4.021700e-02
  4.233024e-01    1.806379e+00   4.016185e-02
  4.255128e-01    1.819578e+00   4.019181e-02
  4.277233e-01    1.818914e+00   4.006900e-02
  4.299338e-01    1.835152e+00   4.013167e-02
  4.321442e-01    1.746348e+00   3.903660e-02
  4.343547e-01    1.794516e+00   3.945939e-02
  4.365651e-01    1.800948e+00   3.941775e-02
  4.387756e-01    1.767529e+00   3.894096e-02
  4.409860e-01    1.757340e+00   3.872099e-02
  4.431965e-01    1.752450e+00   3.856017e-02
  4.454070e-01    1.735978e+00   3.827174e-02
  4.476174e-01    1.722675e+00   3.802013e-02
  4.498279e-01    1.775874e+00   3.849769e-02
  4.520383e-01    1.801396e+00   3.866696e-02
  4.542488e-01    1.688846e+00   3.733857e-02
  4.564592e-01    1.728044e+00   3.766806e-02
  4.586697e-01    1.763077e+00   3.794701e-02
  4.608801e-01    1.701331e+00   3.717675e-02
  4.630906e-01    1.680915e+00   3.685515e-02
  4.653011e-01    1.705461e+00   3.702565e-02
  4.675115e-01    1.694077e+00   3.680468e-02
  4.697220e-01    1.730649e+00   3.710243e-02
  4.719324e-01    1.724723e+00   3.694306e-02
  4.741429e-01    1.717480e+00   3.677042e-02
  4.763533e-01    1.727244e+00   3.678026e-02
  4.785638e-01    1.705229e+00   3.645070e-02
  4.807743e-01    1.704851e+00   3.635398e-02
  4.829847e-01    1.717017e+00   3.639128e-02
  4.851952e-01    1.697274e+00   3.608992e-02
  4.874056e-01    1.685184e+00   3.587046e-02
  4.896161e-01    1.695877e+00   3.589486e-02
  4.918265e-01    1.708427e+00   3.593795e-02
  4.940370e-01    1.688212e+00   3.563652e-02
  4.962475e-01    1.663557e+00   3.528797e-02
  4.984579e-01    1.706008e+00   3.564729e-02
  5.006684e-01    1.721231e+00   3.571868e-02
  5.028788e-01    1.730232e+00   3.572520e-02
  5.050893e-01    1.693448e+00   3.525744e-02
  5.072997e-01    1.700144e+00   3.524175e-02
  5.095102e-01    1.705774e+00   3.521552e-02
  5.117206e-01    1.644256e+00   3.449244e-02
  5.139311e-01    1.668374e+00   3.466228e-02
  5.161416e-01    1.615796e+00   3.403110e-02
  5.183520e-01    1.640119e+00   3.420481e-02
  5.205625e-01    1.631619e+00   3.403614e-02
  5.227729e-01    1.653918e+00   3.418801e-02
  5.249834e-01    1.670262e+00   3.427675e-02
  5.271938e-01    1.712941e+00   3.463092e-02
  5.294043e-01    1.764679e+00   3.506890e-02
  5.316148e-01    1.791040e+00   3.524895e-02
  5.338252e-01    1.783702e+00   3.509630e-02
  5.360357e-01    1.732075e+00   3.450590e-02
  5.382461e-01    1.777246e+00   3.487393e-02
  5.404566e-01    1.788651e+00   3.490604e-02
  5.426670e-01    1.739644e+00   3.434698e-02
  5.448775e-01    1.743351e+00   3.430671e-02
  5.470879e-01    1.813589e+00   3.491296e-02
  5.492984e-01    1.763106e+00   3.434707e-02
  5.515089e-01    1.770411e+00   3.434180e-02
  5.537193e-01    1.769042e+00   3.425291e-02
  5.559298e-01    1.741185e+00   3.390761e-02
  5.581402e-01    1.757347e+00   3.399016e-02
  5.603507e-01    1.777450e+00   3.410965e-02
  5.625611e-01    1.806898e+00   3.431640e-02
  5.647716e-01    1.761527e+00   3.380926e-02
  5.669821e-01    1.808689e+00   3.418500e-02
  5.691925e-01    1.807652e+00   3.410185e-02
  5.714030e-01    1.804972e+00   3.400391e-02
  5.736134e-01    1.760703e+00   3.351289e-02
  5.758239e-01    1.763149e+00   3.346460e-02
  5.780343e-01    1.708442e+00   3.287164e-02
  5.802448e-01    1.709697e+00   3.281488e-02
  5.824552e-01    1.687582e+00   3.253355e-02
  5.846657e-01    1.650213e+00   3.210428e-02
  5.868762e-01    1.636451e+00   3.190355e-02
  5.890866e-01    1.626030e+00   3.173585e-02
  5.912971e-01    1.623409e+00   3.164459e-02
  5.935075e-01    1.644278e+00   3.178152e-02
  5.957180e-01    1.632577e+00   3.160326e-02
  5.979284e-01    1.649167e+00   3.169858e-02
  6.001389e-01    1.679463e+00   3.192328e-02
  6.023494e-01    1.691619e+00   3.197356e-02
  6.045598e-01    1.689874e+00   3.189200e-02
  6.067703e-01    1.677148e+00   3.170779e-02
  6.089807e-01    1.704764e+00   3.190352e-02
  6.111912e-01    1.681631e+00   3.162304e-02
  6.134016e-01    1.693935e+00   3.167521e-02
  6.156121e-01    1.714303e+00   3.180174e-02
  6.178226e-01    1.698731e+00   3.159432e-02
  6.200330e-01    1.664829e+00   3.121574e-02
  6.222435e-01    1.705410e+00   3.153133e-02
  6.244539e-01    1.687380e+00   3.130278e-02
  6.266644e-01    1.728556e+00   3.162060e-02
  6.288748e-01    1.718524e+00   3.146736e-02
  6.310853e-01    1.715121e+00   3.137514e-02
  6.332957e-01    1.710453e+00   3.127193e-02
  6.355062e-01    1.697033e+00   3.108849e-02
  6.377167e-01    1.721344e+00   3.125030e-02
  6.399271e-01    1.724163e+00   3.121598e-02
  6.421376e-01    1.687527e+00   3.082358e-02
  6.443480e-01    1.706847e+00   3.094055e-02
  6.465585e-01    1.670578e+00   3.055207e-02
  6.487689e-01    1.696261e+00   3.072789e-02
  6.509794e-01    1.693379e+00   3.064387e-02
  6.531899e-01    1.684003e+00   3.050148e-02
  6.554003e-01    1.640827e+00   3.005129e-02
  6.576108e-01    1.615165e+00   2.975987e-02
  6.598212e-01    1.615041e+00   2.970343e-02
  6.620317e-01    1.606091e+00   2.956611e-02
  6.642421e-01    1.634061e+00   2.976724e-02
  6.664526e-01    1.606337e+00   2.945930e-02
  6.686630e-01    1.622896e+00   2.955599e-02
  6.708735e-01    1.583059e+00   2.913744e-02
  6.730840e-01    1.598458e+00   2.922542e-02
  6.752944e-01    1.616448e+00   2.933598e-02
  6.775049e-01    1.646610e+00   2.955466e-02
  6.797153e-01    1.612539e+00   2.919433e-02
  6.819258e-01    1.631805e+00   2.931524e-02
  6.841362e-01    1.601357e+00   2.898826e-02
  6.863467e-01    1.607171e+00   2.898879e-02
  6.885572e-01    1.607527e+00   2.894006e-02
  6.907676e-01    1.606682e+00   2.888060e-02
  6.929781e-01    1.604392e+00   2.880874e-02
  6.951885e-01    1.619338e+00   2.889133e-02
  6.973990e-01    1.575391e+00   2.844623e-02
  6.996094e-01    1.569782e+00   2.834557e-02
  7.018199e-01    1.617677e+00   2.872425e-02
  7.040303e-01    1.560401e+00   2.816161e-02
  7.062408e-01    1.559353e+00   2.810282e-02
  7.084513e-01    1.563287e+00   2.808930e-02
  7.106617e-01    1.586020e+00   2.824364e-02
  7.128722e-01    1.592267e+00   2.825025e-02
  7.150826e-01    1.603086e+00   2.829721e-02
  7.172931e-01    1.590809e+00   2.814007e-02
  7.195035e-01    1.554152e+00   2.776613e-02
  7.217140e-01    1.558130e+00   2.785082e-02
  7.239245e-01    1.572404e+00   2.820468e-02
  7.261349e-01    1.603376e+00   2.859072e-02
  7.283454e-01    1.570549e+00   2.836883e-02
  7.305558e-01    1.539499e+00   2.814039e-02
  7.327663e-01    1.521718e+00   2.801919e-02
  7.349767e-01    1.562648e+00   2.840980e-02
  7.371872e-01    1.558572e+00   2.836160e-02
  7.393976e-01    1.557154e+00   2.833452e-02
  7.416081e-01    1.607270e+00   2.877053e-02
  7.438186e-01    1.593951e+00   2.850589e-02
  7.460290e-01    1.548509e+00   2.780482e-02
  7.482395e-01    1.584565e+00   2.795495e-02
  7.504499e-01    1.620035e+00   2.812788e-02
  7.526604e-01    1.618162e+00   2.799347e-02
  7.548708e-01    1.584437e+00   2.761053e-02
  7.570813e-01    1.552151e+00   2.727716e-02
  7.592918e-01    1.569719e+00   2.739596e-02
  7.615022e-01    1.588131e+00   2.752223e-02
  7.637127e-01    1.579933e+00   2.741827e-02
  7.659231e-01    1.566188e+00   2.726683e-02
  7.681336e-01    1.561807e+00   2.719719e-02
  7.703440e-01    1.574813e+00   2.727898e-02
  7.725545e-01    1.562325e+00   2.713983e-02
  7.747650e-01    1.618320e+00   2.758318e-02
  7.769754e-01    1.614875e+00   2.750046e-02
  7.791859e-01    1.623288e+00   2.751770e-02
  7.813963e-01    1.611943e+00   2.736824e-02
  7.836068e-01    1.589589e+00   2.712574e-02
  7.858172e-01    1.591454e+00   2.709088e-02
  7.880277e-01    1.646538e+00   2.750331e-02
  7.902381e-01    1.684721e+00   2.776986e-02
  7.924486e-01    1.645312e+00   2.739231e-02
  7.946591e-01    1.636158e+00   2.726715e-02
  7.968695e-01    1.638880e+00   2.724101e-02
  7.990800e-01    1.655346e+00   2.732856e-02
  8.012904e-01    1.634356e+00   2.710781e-02
  8.035009e-01    1.602813e+00   2.679715e-02
  8.057113e-01    1.631348e+00   2.698790e-02
  8.079218e-01    1.626373e+00   2.690021e-02
  8.101323e-01    1.624738e+00   2.684102e-02
  8.123427e-01    1.634869e+00   2.687868e-02
  8.145532e-01    1.620306e+00   2.671292e-02
  8.167636e-01    1.606829e+00   2.655685e-02
  8.189741e-01    1.662836e+00   2.697067e-02
  8.211845e-01    1.669212e+00   2.697706e-02
  8.233950e-01    1.665775e+00   2.690544e-02
  8.256054e-01    1.642772e+00   2.667476e-02
  8.278159e-01    1.662718e+00   2.679187e-02
  8.300264e-01    1.676096e+00   2.685589e-02
  8.322368e-01    1.670659e+00   2.676875e-02
  8.344473e-01    1.629357e+00   2.639255e-02
  8.366577e-01    1.603451e+00   2.613976e-02
  8.388682e-01    1.619661e+00   2.622957e-02
  8.410786e-01    1.609092e+00   2.610217e-02
  8.432891e-01    1.638382e+00   2.629683e-02
  8.454996e-01    1.681859e+00   2.660129e-02
  8.477100e-01    1.642249e+00   2.624448e-02
  8.499205e-01    1.620879e+00   2.603220e-02
  8.521309e-01    1.603339e+00   2.585060e-02
  8.543414e-01    1.606254e+00   2.583371e-02
  8.565518e-01    1.623729e+00   2.593342e-02
  8.587623e-01    1.645044e+00   2.606245e-02
  8.609727e-01    1.615850e+00   2.579010e-02
  8.631832e-01    1.636819e+00   2.591687e-02
  8.653937e-01    1.641778e+00   2.591622e-02
  8.676041e-01    1.611900e+00   2.564058e-02
  8.698146e-01    1.605915e+00   2.555380e-02
  8.720250e-01    1.659747e+00   2.593898e-02
  8.742355e-01    1.635450e+00   2.570923e-02
  8.764459e-01    1.594339e+00   2.534533e-02
  8.786564e-01    1.605016e+00   2.539212e-02
  8.808669e-01    1.591057e+00   2.524315e-02
  8.830773e-01    1.579365e+00   2.511235e-02
  8.852878e-01    1.588683e+00   2.514856e-02
  8.874982e-01    1.572811e+00   2.498632e-02
  8.897087e-01    1.561288e+00   2.485740e-02
  8.919191e-01    1.576659e+00   2.494198e-02
  8.941296e-01    1.592894e+00   2.503289e-02
  8.963401e-01    1.564376e+00   2.477176e-02
  8.985505e-01    1.560590e+00   2.470527e-02
  9.007610e-01    1.572283e+00   2.476121e-02
  9.029714e-01    1.604226e+00   2.497560e-02
  9.051819e-01    1.602302e+00   2.492337e-02
  9.073923e-01    1.611626e+00   2.495907e-02
  9.096028e-01    1.618873e+00   2.498003e-02
  9.118132e-01    1.587333e+00   2.469939e-02
  9.140237e-01    1.633458e+00   2.501868e-02
  9.162342e-01    1.589753e+00   2.464727e-02
  9.184446e-01    1.576995e+00   2.451267e-02
  9.206551e-01    1.629094e+00   2.487837e-02
  9.228655e-01    1.613186e+00   2.472123e-02
  9.250760e-01    1.615959e+00   2.470695e-02
  9.272864e-01    1.585553e+00   2.443934e-02
  9.294969e-01    1.597361e+00   2.449440e-02
  9.317074e-01    1.608740e+00   2.454677e-02
  9.339178e-01    1.615639e+00   2.456574e-02
  9.361283e-01    1.652250e+00   2.480589e-02
  9.383387e-01    1.635079e+00   2.464311e-02
  9.405492e-01    1.643466e+00   2.467171e-02
  9.427596e-01    1.681018e+00   2.491607e-02
  9.449701e-01    1.673471e+00   2.482630e-02
  9.471805e-01    1.706849e+00   2.503714e-02
  9.493910e-01    1.724572e+00   2.513226e-02
  9.516015e-01    1.725976e+00   2.510738e-02
  9.538119e-01    1.713438e+00   2.498175e-02
  9.560224e-01    1.727886e+00   2.505154e-02
  9.582328e-01    1.743888e+00   2.513351e-02
  9.604433e-01    1.743681e+00   2.509643e-02
  9.626537e-01    1.777456e+00   2.530424e-02
  9.648642e-01    1.795671e+00   2.539874e-02
  9.670747e-01    1.813375e+00   2.548843e-02
  9.692851e-01    1.847080e+00   2.569003e-02
  9.714956e-01    1.906376e+00   2.606233e-02
  9.737060e-01    1.930201e+00   2.619023e-02
  9.759165e-01    1.974456e+00   2.645142e-02
  9.781269e-01    2.028523e+00   2.677607e-02
  9.803374e-01    1.942509e+00   2.616603e-02
  9.825478e-01    1.865363e+00   2.560734e-02
  9.847583e-01    1.826225e+00   2.530286e-02
  9.869688e-01    1.803654e+00   2.511234e-02
  9.891792e-01    1.791434e+00   2.499388e-02
  9.913897e-01    1.774959e+00   2.484510e-02
  9.936001e-01    1.785576e+00   2.488667e-02
  9.958106e-01    1.784600e+00   2.484607e-02
  9.980210e-01    1.724234e+00   2.439053e-02
  1.000231e+00    1.715989e+00   2.446543e-02
  1.002442e+00    1.749419e+00   2.483384e-02
  1.004652e+00    1.753539e+00   2.493245e-02
  1.006863e+00    1.704203e+00   2.463021e-02
  1.009073e+00    1.657684e+00   2.432891e-02
  1.011284e+00    1.619607e+00   2.407999e-02
  1.013494e+00    1.598135e+00   2.394358e-02
  1.015705e+00    1.596614e+00   2.395478e-02
  1.017915e+00    1.634566e+00   2.425451e-02
  1.020126e+00    1.682848e+00   2.462676e-02
  1.022336e+00    1.775453e+00   2.530771e-02
  1.024547e+00    1.806255e+00   2.553846e-02
  1.026757e+00    1.720389e+00   2.493287e-02
  1.028967e+00    1.637516e+00   2.433284e-02
  1.031178e+00    1.589423e+00   2.397911e-02
  1.033388e+00    1.642195e+00   2.437917e-02
  1.035599e+00    1.627111e+00   2.427050e-02
  1.037809e+00    1.575597e+00   2.388651e-02
  1.040020e+00    1.606270e+00   2.411918e-02
  1.042230e+00    1.673221e+00   2.461874e-02
  1.044441e+00    1.785324e+00   2.542984e-02
  1.046651e+00    1.723272e+00   2.498425e-02
  1.048862e+00    1.621924e+00   2.423758e-02
  1.051072e+00    1.553240e+00   2.371645e-02
  1.053282e+00    1.518517e+00   2.344888e-02
  1.055493e+00    1.486514e+00   2.319619e-02
  1.057703e+00    1.508330e+00   2.336423e-02
  1.059914e+00    1.507877e+00   2.335646e-02
  1.062124e+00    1.519074e+00   2.343891e-02
  1.064335e+00    1.500014e+00   2.328797e-02
  1.066545e+00    1.474886e+00   2.308608e-02
  1.068756e+00    1.474713e+00   2.308100e-02
  1.070966e+00    1.447738e+00   2.286248e-02
  1.073177e+00    1.445694e+00   2.284030e-02
  1.075387e+00    1.471102e+00   2.303492e-02
  1.077597e+00    1.495168e+00   2.321526e-02
  1.079808e+00    1.474330e+00   2.291972e-02
  1.082018e+00    1.443632e+00   2.249203e-02
  1.084229e+00    1.416484e+00   2.217116e-02
  1.086439e+00    1.437574e+00   2.224869e-02
  1.088650e+00    1.450460e+00   2.227263e-02
  1.090860e+00    1.431874e+00   2.206236e-02
  1.093071e+00    1.431722e+00   2.199942e-02
  1.095281e+00    1.429493e+00   2.192536e-02
  1.097492e+00    1.416429e+00   2.177058e-02
  1.099702e+00    1.415305e+00   2.171100e-02
  1.101912e+00    1.407082e+00   2.159955e-02
  1.104123e+00    1.422898e+00   2.167257e-02
  1.106333e+00    1.424288e+00   2.163889e-02
  1.108544e+00    1.402695e+00   2.143039e-02
  1.110754e+00    1.430456e+00   2.159834e-02
  1.112965e+00    1.439322e+00   2.162439e-02
  1.115175e+00    1.412373e+00   2.137994e-02
  1.117386e+00    1.399934e+00   2.124652e-02
  1.119596e+00    1.356134e+00   2.087440e-02
  1.121807e+00    1.364059e+00   2.089709e-02
  1.124017e+00    1.407286e+00   2.118899e-02
  1.126228e+00    1.396233e+00   2.106997e-02
  1.128438e+00    1.398008e+00   2.104665e-02
  1.130648e+00    1.346751e+00   2.062355e-02
  1.132859e+00    1.368663e+00   2.075659e-02
  1.135069e+00    1.399270e+00   2.095262e-02
  1.137280e+00    1.371662e+00   2.071210e-02
  1.139490e+00    1.352844e+00   2.053688e-02
  1.141701e+00    1.370345e+00   2.063633e-02
  1.143911e+00    1.359448e+00   2.052255e-02
  1.146122e+00    1.343363e+00   2.036919e-02
  1.148332e+00    1.371901e+00   2.055261e-02
  1.150543e+00    1.375297e+00   2.054724e-02
  1.152753e+00    1.341203e+00   2.026051e-02
  1.154963e+00    1.354467e+00   2.032960e-02
  1.157174e+00    1.367884e+00   2.039997e-02
  1.159384e+00    1.347363e+00   2.021679e-02
  1.161595e+00    1.353467e+00   2.023286e-02
  1.163805e+00    1.358377e+00   2.024037e-02
  1.166016e+00    1.377211e+00   2.035069e-02
  1.168226e+00    1.368851e+00   2.025985e-02
  1.170437e+00    1.358007e+00   2.015089e-02
  1.172647e+00    1.382632e+00   2.030368e-02
  1.174858e+00    1.360288e+00   2.011094e-02
  1.177068e+00    1.355287e+00   2.004573e-02
  1.179278e+00    1.363329e+00   2.007653e-02
  1.181489e+00    1.381307e+00   2.018124e-02
  1.183699e+00    1.397956e+00   2.027452e-02
  1.185910e+00    1.379169e+00   2.010986e-02
  1.188120e+00    1.376281e+00   2.006190e-02
  1.190331e+00    1.366421e+00   1.996305e-02
  1.192541e+00    1.369939e+00   1.996118e-02
  1.194752e+00    1.359636e+00   1.985889e-02
  1.196962e+00    1.343762e+00   1.971693e-02
  1.199173e+00    1.343012e+00   1.968499e-02
  1.201383e+00    1.365597e+00   1.982250e-02
  1.203593e+00    1.377383e+00   1.988281e-02
  1.205804e+00    1.353413e+00   1.968309e-02
  1.208014e+00    1.332765e+00   1.950568e-02
  1.210225e+00    1.338840e+00   1.952486e-02
  1.212435e+00    1.360111e+00   1.965447e-02
  1.214646e+00    1.346968e+00   1.953321e-02
  1.216856e+00    1.316348e+00   1.928475e-02
  1.219067e+00    1.325916e+00   1.933045e-02
  1.221277e+00    1.331357e+00   1.934524e-02
  1.223488e+00    1.342307e+00   1.939894e-02
  1.225698e+00    1.324069e+00   1.924007e-02
  1.227909e+00    1.326243e+00   1.922596e-02
  1.230119e+00    1.338064e+00   1.927973e-02
  1.232329e+00    1.368540e+00   1.946712e-02
  1.234540e+00    1.391810e+00   1.960118e-02
  1.236750e+00    1.378736e+00   1.947833e-02
  1.238961e+00    1.393640e+00   1.955591e-02
  1.241171e+00    1.376657e+00   1.941198e-02
  1.243382e+00    1.374786e+00   1.937505e-02
  1.245592e+00    1.393366e+00   1.948104e-02
  1.247803e+00    1.348504e+00   1.914125e-02
  1.250013e+00    1.341414e+00   1.906737e-02
  1.252224e+00    1.345813e+00   1.907540e-02
  1.254434e+00    1.365675e+00   1.919176e-02
  1.256644e+00    1.378564e+00   1.925867e-02
  1.258855e+00    1.345538e+00   1.900334e-02
  1.261065e+00    1.376977e+00   1.920048e-02
  1.263276e+00    1.361354e+00   1.906822e-02
  1.265486e+00    1.353942e+00   1.899330e-02
  1.267697e+00    1.366634e+00   1.905897e-02
  1.269907e+00    1.364324e+00   1.902005e-02
  1.272118e+00    1.361169e+00   1.897537e-02
  1.274328e+00    1.389892e+00   1.915145e-02
  1.276539e+00    1.387958e+00   1.911504e-02
  1.278749e+00    1.336011e+00   1.873174e-02
  1.280959e+00    1.348861e+00   1.879908e-02
  1.283170e+00    1.342326e+00   1.873112e-02
  1.285380e+00    1.350080e+00   1.876269e-02
  1.287591e+00    1.337129e+00   1.865055e-02
  1.289801e+00    1.349463e+00   1.871515e-02
  1.292012e+00    1.352447e+00   1.871872e-02
  1.294222e+00    1.394449e+00   1.899066e-02
  1.296433e+00    1.375546e+00   1.884577e-02
  1.298643e+00    1.377515e+00   1.884260e-02
  1.300854e+00    1.363823e+00   1.873223e-02
  1.303064e+00    1.350969e+00   1.862452e-02
  1.305274e+00    1.371275e+00   1.874235e-02
  1.307485e+00    1.350872e+00   1.858086e-02
  1.309695e+00    1.341061e+00   1.849109e-02
  1.311906e+00    1.351928e+00   1.854413e-02
  1.314116e+00    1.339493e+00   1.843794e-02
  1.316327e+00    1.335088e+00   1.838603e-02
  1.318537e+00    1.346775e+00   1.844446e-02
  1.320748e+00    1.353662e+00   1.846998e-02
  1.322958e+00    1.360042e+00   1.849287e-02
  1.325169e+00    1.353571e+00   1.842777e-02
  1.327379e+00    1.382567e+00   1.860202e-02
  1.329589e+00    1.379571e+00   1.856058e-02
  1.331800e+00    1.353796e+00   1.836564e-02
  1.334010e+00    1.377295e+00   1.850348e-02
  1.336221e+00    1.374219e+00   1.846086e-02
  1.338431e+00    1.390970e+00   1.855185e-02
  1.340642e+00    1.406379e+00   1.871982e-02
  1.342852e+00    1.399177e+00   1.877433e-02
  1.345063e+00    1.394502e+00   1.879322e-02
  1.347273e+00    1.385966e+00   1.877134e-02
  1.349484e+00    1.377617e+00   1.874266e-02
  1.351694e+00    1.377028e+00   1.876157e-02
  1.353905e+00    1.439265e+00   1.919944e-02
  1.356115e+00    1.487942e+00   1.953722e-02
  1.358325e+00    1.465366e+00   1.940233e-02
  1.360536e+00    1.446660e+00   1.929012e-02
  1.362746e+00    1.402446e+00   1.900282e-02
  1.364957e+00    1.358467e+00   1.871019e-02
  1.367167e+00    1.339510e+00   1.858629e-02
  1.369378e+00    1.342922e+00   1.861596e-02
  1.371588e+00    1.323730e+00   1.848756e-02
  1.373799e+00    1.303128e+00   1.834675e-02
  1.376009e+00    1.285182e+00   1.822329e-02
  1.378220e+00    1.319733e+00   1.846914e-02
  1.380430e+00    1.323313e+00   1.849690e-02
  1.382640e+00    1.309418e+00   1.840041e-02
  1.384851e+00    1.319261e+00   1.847033e-02
  1.387061e+00    1.299707e+00   1.833322e-02
  1.389272e+00    1.280978e+00   1.820086e-02
  1.391482e+00    1.282622e+00   1.821185e-02
  1.393693e+00    1.293074e+00   1.828503e-02
  1.395903e+00    1.291729e+00   1.827403e-02
  1.398114e+00    1.265443e+00   1.808577e-02
  1.400324e+00    1.281511e+00   1.819810e-02
  1.402535e+00    1.279612e+00   1.818229e-02
  1.404745e+00    1.253749e+00   1.799528e-02
  1.406955e+00    1.259578e+00   1.803436e-02
  1.409166e+00    1.252715e+00   1.798190e-02
  1.411376e+00    1.253800e+00   1.798657e-02
  1.413587e+00    1.269278e+00   1.809344e-02
  1.415797e+00    1.273940e+00   1.812310e-02
  1.418008e+00    1.274714e+00   1.808664e-02
  1.420218e+00    1.279460e+00   1.797001e-02
  1.422429e+00    1.258518e+00   1.773741e-02
  1.424639e+00    1.265104e+00   1.771918e-02
  1.426850e+00    1.278161e+00   1.775553e-02
  1.429060e+00    1.256065e+00   1.755267e-02
  1.431270e+00    1.260600e+00   1.754018e-02
  1.433481e+00    1.259635e+00   1.749267e-02
  1.435691e+00    1.261535e+00   1.746757e-02
  1.437902e+00    1.257825e+00   1.740556e-02
  1.440112e+00    1.271645e+00   1.746558e-02
  1.442323e+00    1.228684e+00   1.713549e-02
  1.444533e+00    1.270680e+00   1.739332e-02
  1.446744e+00    1.263209e+00   1.731106e-02
  1.448954e+00    1.278661e+00   1.738633e-02
  1.451165e+00    1.278599e+00   1.735604e-02
  1.453375e+00    1.293688e+00   1.742986e-02
  1.455586e+00    1.252841e+00   1.712452e-02
  1.457796e+00    1.244999e+00   1.704359e-02
  1.460006e+00    1.265053e+00   1.715309e-02
  1.462217e+00    1.275282e+00   1.719605e-02
  1.464427e+00    1.278332e+00   1.719088e-02
  1.466638e+00    1.268704e+00   1.710072e-02
  1.468848e+00    1.280829e+00   1.715679e-02
  1.471059e+00    1.263070e+00   1.701241e-02
  1.473269e+00    1.270101e+00   1.703530e-02
  1.475480e+00    1.261600e+00   1.695450e-02
  1.477690e+00    1.258773e+00   1.691175e-02
  1.479901e+00    1.245510e+00   1.679879e-02
  1.482111e+00    1.281109e+00   1.701369e-02
  1.484321e+00    1.278070e+00   1.697033e-02
  1.486532e+00    1.239290e+00   1.668878e-02
  1.488742e+00    1.249539e+00   1.673511e-02
  1.490953e+00    1.254630e+00   1.674668e-02
  1.493163e+00    1.252137e+00   1.670784e-02
  1.495374e+00    1.244404e+00   1.663484e-02
  1.497584e+00    1.260590e+00   1.672103e-02
  1.499795e+00    1.256079e+00   1.666947e-02
  1.502005e+00    1.239728e+00   1.653912e-02
  1.504216e+00    1.234293e+00   1.648198e-02
  1.506426e+00    1.256038e+00   1.660574e-02
  1.508636e+00    1.260341e+00   1.661368e-02
  1.510847e+00    1.264836e+00   1.662141e-02
  1.513057e+00    1.260762e+00   1.656947e-02
  1.515268e+00    1.266622e+00   1.658211e-02
  1.517478e+00    1.251571e+00   1.645815e-02
  1.519689e+00    1.277377e+00   1.660177e-02
  1.521899e+00    1.268082e+00   1.651803e-02
  1.524110e+00    1.240581e+00   1.631769e-02
  1.526320e+00    1.269476e+00   1.648690e-02
  1.528531e+00    1.273904e+00   1.649570e-02
  1.530741e+00    1.233608e+00   1.621370e-02
  1.532951e+00    1.212626e+00   1.605592e-02
  1.535162e+00    1.192365e+00   1.600580e-02
  1.537372e+00    1.220147e+00   1.625730e-02
  1.539583e+00    1.237648e+00   1.640760e-02
  1.541793e+00    1.220679e+00   1.630159e-02
  1.544004e+00    1.214543e+00   1.626083e-02
  1.546214e+00    1.226819e+00   1.634129e-02
  1.548425e+00    1.243500e+00   1.645227e-02
  1.550635e+00    1.248181e+00   1.649293e-02
  1.552846e+00    1.221303e+00   1.632395e-02
  1.555056e+00    1.212685e+00   1.622529e-02
  1.557266e+00    1.225977e+00   1.620433e-02
  1.559477e+00    1.230691e+00   1.617669e-02
  1.561687e+00    1.223369e+00   1.609807e-02
  1.563898e+00    1.236599e+00   1.616779e-02
  1.566108e+00    1.248832e+00   1.623156e-02
  1.568319e+00    1.251777e+00   1.623504e-02
  1.570529e+00    1.233824e+00   1.609317e-02
  1.572740e+00    1.239665e+00   1.610365e-02
  1.574950e+00    1.228936e+00   1.600766e-02
  1.577161e+00    1.260928e+00   1.618904e-02
  1.579371e+00    1.248511e+00   1.608543e-02
  1.581582e+00    1.222457e+00   1.589712e-02
  1.583792e+00    1.242309e+00   1.600767e-02
  1.586002e+00    1.220093e+00   1.584646e-02
  1.588213e+00    1.237252e+00   1.594028e-02
  1.590423e+00    1.220312e+00   1.581093e-02
  1.592634e+00    1.228006e+00   1.583919e-02
  1.594844e+00    1.235704e+00   1.586743e-02
  1.597055e+00    1.245828e+00   1.591178e-02
  1.599265e+00    1.225435e+00   1.576043e-02
  1.601476e+00    1.217274e+00   1.568773e-02
  1.603686e+00    1.248685e+00   1.586902e-02
  1.605897e+00    1.256232e+00   1.589661e-02
  1.608107e+00    1.238462e+00   1.576422e-02
  1.610317e+00    1.243665e+00   1.577793e-02
  1.612528e+00    1.239019e+00   1.572924e-02
  1.614738e+00    1.223164e+00   1.560938e-02
  1.616949e+00    1.216585e+00   1.554845e-02
  1.619159e+00    1.216076e+00   1.552652e-02
  1.621370e+00    1.207438e+00   1.545291e-02
  1.623580e+00    1.196814e+00   1.536658e-02
  1.625791e+00    1.213153e+00   1.545280e-02
  1.628001e+00    1.199070e+00   1.534464e-02
  1.630212e+00    1.181190e+00   1.521213e-02
  1.632422e+00    1.172078e+00   1.513555e-02
  1.634632e+00    1.178566e+00   1.516011e-02
  1.636843e+00    1.155321e+00   1.499247e-02
  1.639053e+00    1.164122e+00   1.503225e-02
  1.641264e+00    1.137033e+00   1.483949e-02
  1.643474e+00    1.123393e+00   1.473309e-02
  1.645685e+00    1.137967e+00   1.481184e-02
  1.647895e+00    1.138557e+00   1.479921e-02
  1.650106e+00    1.165856e+00   1.495845e-02
  1.652316e+00    1.155887e+00   1.487786e-02
  1.654527e+00    1.129778e+00   1.469227e-02
  1.656737e+00    1.103526e+00   1.450426e-02
  1.658947e+00    1.118514e+00   1.458623e-02
  1.661158e+00    1.124861e+00   1.461130e-02
  1.663368e+00    1.138427e+00   1.468302e-02
  1.665579e+00    1.121253e+00   1.455570e-02
  1.667789e+00    1.097076e+00   1.438180e-02
  1.670000e+00    1.098146e+00   1.437344e-02
  1.672210e+00    1.091577e+00   1.431462e-02
  1.674421e+00    1.095968e+00   1.432811e-02
  1.676631e+00    1.099108e+00   1.433278e-02
  1.678842e+00    1.090695e+00   1.426211e-02
  1.681052e+00    1.068506e+00   1.410109e-02
  1.683263e+00    1.043020e+00   1.391709e-02
  1.685473e+00    1.053291e+00   1.397051e-02
  1.687683e+00    1.052217e+00   1.394819e-02
  1.689894e+00    1.051864e+00   1.393030e-02
  1.692104e+00    1.042712e+00   1.385487e-02
  1.694315e+00    1.042663e+00   1.384024e-02
  1.696525e+00    1.052946e+00   1.389330e-02
  1.698736e+00    1.045424e+00   1.382889e-02
  1.700946e+00    1.029720e+00   1.370973e-02
  1.703157e+00    1.017003e+00   1.361044e-02
  1.705367e+00    1.025959e+00   1.365594e-02
  1.707578e+00    1.016858e+00   1.358086e-02
  1.709788e+00    1.024997e+00   1.362115e-02
  1.711998e+00    1.003646e+00   1.346381e-02
  1.714209e+00    1.006262e+00   1.346712e-02
  1.716419e+00    1.009327e+00   1.347353e-02
  1.718630e+00    1.005333e+00   1.343276e-02
  1.720840e+00    1.028016e+00   1.356926e-02
  1.723051e+00    1.006822e+00   1.341494e-02
  1.725261e+00    9.855239e-01   1.325786e-02
  1.727472e+00    9.712763e-01   1.314783e-02
  1.729682e+00    9.806139e-01   1.319766e-02
  1.731893e+00    9.832289e-01   1.320152e-02
  1.734103e+00    9.909783e-01   1.323979e-02
  1.736313e+00    9.807504e-01   1.315746e-02
  1.738524e+00    9.661641e-01   1.304566e-02
  1.740734e+00    9.725171e-01   1.307497e-02
  1.742945e+00    9.733813e-01   1.306748e-02
  1.745155e+00    9.784479e-01   1.308807e-02
  1.747366e+00    9.869554e-01   1.313109e-02
  1.749576e+00    9.455504e-01   1.283928e-02
  1.751787e+00    9.666176e-01   1.296829e-02
  1.753997e+00    9.682314e-01   1.296583e-02
  1.756208e+00    9.482815e-01   1.281852e-02
  1.758418e+00    9.745796e-01   1.298192e-02
  1.760628e+00    9.618403e-01   1.288351e-02
  1.762839e+00    9.468601e-01   1.276968e-02
  1.765049e+00    9.539263e-01   1.280420e-02
  1.767260e+00    9.245738e-01   1.259308e-02
  1.769470e+00    9.397758e-01   1.268329e-02
  1.771681e+00    9.272472e-01   1.258552e-02
  1.773891e+00    9.294221e-01   1.258734e-02
  1.776102e+00    9.180043e-01   1.249714e-02
  1.778312e+00    9.301233e-01   1.256671e-02
  1.780523e+00    9.384711e-01   1.261027e-02
  1.782733e+00    9.328395e-01   1.255974e-02
  1.784944e+00    9.313798e-01   1.253704e-02
  1.787154e+00    9.401691e-01   1.258346e-02
  1.789364e+00    9.458420e-01   1.260881e-02
  1.791575e+00    9.219509e-01   1.243603e-02
  1.793785e+00    9.279212e-01   1.246380e-02
  1.795996e+00    9.269478e-01   1.244470e-02
  1.798206e+00    9.310622e-01   1.245968e-02
  1.800417e+00    9.282598e-01   1.242817e-02
  1.802627e+00    9.293959e-01   1.242371e-02
  1.804838e+00    9.622797e-01   1.262917e-02
  1.807048e+00    9.751589e-01   1.270009e-02
  1.809259e+00    1.008543e+00   1.290131e-02
  1.811469e+00    1.057343e+00   1.319359e-02
  1.813679e+00    1.016272e+00   1.291893e-02
  1.815890e+00    9.503387e-01   1.247764e-02
  1.818100e+00    9.724240e-01   1.260605e-02
  1.820311e+00    9.898703e-01   1.270309e-02
  1.822521e+00    9.659115e-01   1.253297e-02
  1.824732e+00    9.255604e-01   1.225328e-02
  1.826942e+00    9.112561e-01   1.214572e-02
  1.829153e+00    9.044015e-01   1.208814e-02
  1.831363e+00    9.065270e-01   1.209014e-02
  1.833574e+00    9.080333e-01   1.208833e-02
  1.835784e+00    9.140009e-01   1.211632e-02
  1.837994e+00    9.474507e-01   1.232389e-02
  1.840205e+00    9.390817e-01   1.225776e-02
  1.842415e+00    9.401451e-01   1.225249e-02
  1.844626e+00    9.013650e-01   1.198539e-02
  1.846836e+00    8.699170e-01   1.176297e-02
  1.849047e+00    8.717008e-01   1.176339e-02
  1.851257e+00    8.929958e-01   1.189646e-02
  1.853468e+00    9.223496e-01   1.208132e-02
  1.855678e+00    9.074826e-01   1.197444e-02
  1.857889e+00    8.859429e-01   1.182285e-02
  1.860099e+00    8.753297e-01   1.174308e-02
  1.862309e+00    8.828056e-01   1.178448e-02
  1.864520e+00    8.641706e-01   1.165085e-02
  1.866730e+00    8.378180e-01   1.146252e-02
  1.868941e+00    8.464621e-01   1.151059e-02
  1.871151e+00    8.495274e-01   1.152004e-02
  1.873362e+00    8.485103e-01   1.150181e-02
  1.875572e+00    8.435752e-01   1.145741e-02
  1.877783e+00    8.412226e-01   1.143004e-02
  1.879993e+00    8.473039e-01   1.146012e-02
  1.882204e+00    8.422722e-01   1.141516e-02
  1.884414e+00    8.327627e-01   1.133954e-02
  1.886624e+00    8.410950e-01   1.138508e-02
  1.888835e+00    8.207749e-01   1.123588e-02
  1.891045e+00    8.325974e-01   1.130566e-02
  1.893256e+00    8.394245e-01   1.134083e-02
  1.895466e+00    8.442645e-01   1.136226e-02
  1.897677e+00    8.323487e-01   1.127090e-02
  1.899887e+00    8.221459e-01   1.119070e-02
  1.902098e+00    8.282716e-01   1.122149e-02
  1.904308e+00    8.245486e-01   1.118569e-02
  1.906519e+00    8.391880e-01   1.127367e-02
  1.908729e+00    8.131969e-01   1.108721e-02
  1.910940e+00    8.318598e-01   1.120254e-02
  1.913150e+00    8.132482e-01   1.106603e-02
  1.915360e+00    8.213831e-01   1.111062e-02
  1.917571e+00    8.295547e-01   1.115484e-02
  1.919781e+00    8.248660e-01   1.111256e-02
  1.921992e+00    8.095641e-01   1.099847e-02
  1.924202e+00    8.013409e-01   1.093178e-02
  1.926413e+00    8.147631e-01   1.101269e-02
  1.928623e+00    7.901598e-01   1.083474e-02
  1.930834e+00    8.113834e-01   1.096886e-02
  1.933044e+00    8.140108e-01   1.097593e-02
  1.935255e+00    8.210551e-01   1.101293e-02
  1.937465e+00    8.154577e-01   1.096487e-02
  1.939675e+00    8.029962e-01   1.086997e-02
  1.941886e+00    7.915336e-01   1.078189e-02
  1.944096e+00    7.998629e-01   1.082832e-02
  1.946307e+00    8.035133e-01   1.084263e-02
  1.948517e+00    8.114660e-01   1.088566e-02
  1.950728e+00    7.878328e-01   1.071580e-02
  1.952938e+00    7.700641e-01   1.058436e-02
  1.955149e+00    7.710072e-01   1.058074e-02
  1.957359e+00    7.693805e-01   1.055971e-02
  1.959570e+00    7.910672e-01   1.069665e-02
  1.961780e+00    7.932364e-01   1.070140e-02
  1.963990e+00    7.997222e-01   1.073488e-02
  1.966201e+00    7.943805e-01   1.068890e-02
  1.968411e+00    7.913833e-01   1.065855e-02
  1.970622e+00    7.832975e-01   1.059390e-02
  1.972832e+00    7.777545e-01   1.054643e-02
  1.975043e+00    7.882945e-01   1.060759e-02
  1.977253e+00    7.807779e-01   1.054698e-02
  1.979464e+00    7.933776e-01   1.062165e-02
  1.981674e+00    7.661465e-01   1.042763e-02
  1.983885e+00    7.693084e-01   1.043915e-02
  1.986095e+00    7.842246e-01   1.053016e-02
  1.988305e+00    7.848918e-01   1.052472e-02
  1.990516e+00    7.728634e-01   1.043387e-02
  1.992726e+00    7.771098e-01   1.045283e-02
  1.994937e+00    7.667621e-01   1.037295e-02
  1.997147e+00    7.765074e-01   1.042891e-02
  1.999358e+00    7.788534e-01   1.043479e-02
  2.001568e+00    7.655454e-01   1.033450e-02
  2.003779e+00    7.673348e-01   1.033468e-02
  2.005989e+00    7.665972e-01   1.031775e-02
  2.008200e+00    7.830446e-01   1.041620e-02
  2.010410e+00    7.781499e-01   1.037181e-02
  2.012621e+00    7.712972e-01   1.031429e-02
  2.014831e+00    7.758425e-01   1.033312e-02
  2.017041e+00    7.585037e-01   1.020667e-02
  2.019252e+00    7.535473e-01   1.016338e-02
  2.021462e+00    7.644968e-01   1.022745e-02
  2.023673e+00    7.588357e-01   1.018016e-02
  2.025883e+00    7.662324e-01   1.022011e-02
  2.028094e+00    7.561463e-01   1.014303e-02
  2.030304e+00    7.520784e-01   1.010623e-02
  2.032515e+00    7.563521e-01   1.012564e-02
  2.034725e+00    7.514144e-01   1.008313e-02
  2.036936e+00    7.632198e-01   1.015266e-02
  2.039146e+00    7.549658e-01   1.008807e-02
  2.041356e+00    7.501696e-01   1.004636e-02
  2.043567e+00    7.687783e-01   1.016081e-02
  2.045777e+00    7.489056e-01   1.001944e-02
  2.047988e+00    7.475343e-01   1.000091e-02
  2.050198e+00    7.710419e-01   1.014843e-02
  2.052409e+00    7.712631e-01   1.014212e-02
  2.054619e+00    7.746655e-01   1.015700e-02
  2.056830e+00    7.610762e-01   1.006029e-02
  2.059040e+00    7.764570e-01   1.015380e-02
  2.061251e+00    7.826951e-01   1.018708e-02
  2.063461e+00    7.881078e-01   1.021447e-02
  2.065671e+00    7.718679e-01   1.009985e-02
  2.067882e+00    7.548798e-01   9.979019e-03
  2.070092e+00    7.592043e-01   9.998301e-03
  2.072303e+00    7.597698e-01   9.992810e-03
  2.074513e+00    7.281838e-01   9.773677e-03
  2.076724e+00    7.307068e-01   9.781207e-03
  2.078934e+00    7.398187e-01   9.833018e-03
  2.081145e+00    7.416297e-01   9.835987e-03
  2.083355e+00    7.272543e-01   9.731100e-03
  2.085566e+00    7.386347e-01   9.798047e-03
  2.087776e+00    7.309631e-01   9.737590e-03
  2.089986e+00    7.380404e-01   9.775829e-03
  2.092197e+00    7.250751e-01   9.680696e-03
  2.094407e+00    7.096918e-01   9.568413e-03
  2.096618e+00    7.121439e-01   9.576138e-03
  2.098828e+00    7.369186e-01   9.731978e-03
  2.101039e+00    7.176315e-01   9.594899e-03
  2.103249e+00    7.148007e-01   9.567383e-03
  2.105460e+00    7.011576e-01   9.466803e-03
  2.107670e+00    6.917458e-01   9.394532e-03
  2.109881e+00    7.197389e-01   9.573609e-03
  2.112091e+00    7.165747e-01   9.543628e-03
  2.114301e+00    7.243979e-01   9.586788e-03
  2.116512e+00    7.267991e-01   9.593866e-03
  2.118722e+00    7.033063e-01   9.428828e-03
  2.120933e+00    7.118961e-01   9.477404e-03
  2.123143e+00    7.131541e-01   9.476908e-03
  2.125354e+00    7.054566e-01   9.417184e-03
  2.127564e+00    6.943302e-01   9.334018e-03
  2.129775e+00    7.051800e-01   9.398000e-03
  2.131985e+00    6.892492e-01   9.282347e-03
  2.134196e+00    6.917117e-01   9.290447e-03
  2.136406e+00    6.923097e-01   9.285843e-03
  2.138617e+00    7.188579e-01   9.453700e-03
  2.140827e+00    7.170697e-01   9.458098e-03
  2.143037e+00    7.266140e-01   9.566928e-03
  2.145248e+00    7.058658e-01   9.451362e-03
  2.147458e+00    7.122792e-01   9.509411e-03
  2.149669e+00    6.951199e-01   9.405969e-03
  2.151879e+00    6.928301e-01   9.399625e-03
  2.154090e+00    6.865880e-01   9.364408e-03
  2.156300e+00    7.172993e-01   9.578235e-03
  2.158511e+00    7.044523e-01   9.497417e-03
  2.160721e+00    6.831185e-01   9.357257e-03
  2.162932e+00    6.956301e-01   9.446279e-03
  2.165142e+00    6.956427e-01   9.449388e-03
  2.167352e+00    6.917678e-01   9.425944e-03
  2.169563e+00    7.091925e-01   9.545881e-03
  2.171773e+00    7.057343e-01   9.525056e-03
  2.173984e+00    7.079369e-01   9.541333e-03
  2.176194e+00    6.969280e-01   9.468080e-03
  2.178405e+00    6.778653e-01   9.338352e-03
  2.180615e+00    6.848117e-01   9.386774e-03
  2.182826e+00    6.742997e-01   9.315114e-03
  2.185036e+00    6.804019e-01   9.357221e-03
  2.187247e+00    6.907324e-01   9.427944e-03
  2.189457e+00    6.760482e-01   9.326776e-03
  2.191667e+00    6.888530e-01   9.414523e-03
  2.193878e+00    6.817798e-01   9.365493e-03
  2.196088e+00    6.813364e-01   9.361777e-03
  2.198299e+00    6.724911e-01   9.299710e-03
  2.200509e+00    6.900117e-01   9.419031e-03
  2.202720e+00    6.828781e-01   9.369059e-03
  2.204930e+00    6.800688e-01   9.348527e-03
  2.207141e+00    6.794748e-01   9.343326e-03
  2.209351e+00    6.934798e-01   9.437224e-03
  2.211562e+00    6.846194e-01   9.375120e-03
  2.213772e+00    6.744232e-01   9.249669e-03
  2.215982e+00    6.669219e-01   9.154159e-03
  2.218193e+00    6.733864e-01   9.168843e-03
  2.220403e+00    6.750349e-01   9.155462e-03
  2.222614e+00    6.697150e-01   9.098439e-03
  2.224824e+00    6.669145e-01   9.060093e-03
  2.227035e+00    6.659835e-01   9.036422e-03
  2.229245e+00    6.797419e-01   9.112210e-03
  2.231456e+00    6.684718e-01   9.020774e-03
  2.233666e+00    6.812168e-01   9.091147e-03
  2.235877e+00    6.790320e-01   9.062218e-03
  2.238087e+00    6.630912e-01   8.941800e-03
  2.240298e+00    6.646578e-01   8.938624e-03
  2.242508e+00    6.532570e-01   8.846697e-03
  2.244718e+00    6.532896e-01   8.831274e-03
  2.246929e+00    6.583725e-01   8.851242e-03
  2.249139e+00    6.596498e-01   8.847545e-03
  2.251350e+00    6.621068e-01   8.852311e-03
  2.253560e+00    6.638688e-01   8.852554e-03
  2.255771e+00    6.658291e-01   8.854218e-03
  2.257981e+00    6.524140e-01   8.753478e-03
  2.260192e+00    6.637340e-01   8.817983e-03
  2.262402e+00    6.876301e-01   8.964285e-03
  2.264613e+00    6.712414e-01   8.845924e-03
  2.266823e+00    6.635336e-01   8.784590e-03
  2.269033e+00    6.576651e-01   8.735303e-03
  2.271244e+00    6.545335e-01   8.704163e-03
  2.273454e+00    6.627163e-01   8.748124e-03
  2.275665e+00    6.643373e-01   8.748516e-03
  2.277875e+00    6.669894e-01   8.755962e-03
  2.280086e+00    6.876122e-01   8.880057e-03
  2.282296e+00    6.749421e-01   8.788365e-03
  2.284507e+00    6.745059e-01   8.775255e-03
  2.286717e+00    6.750792e-01   8.769404e-03
  2.288928e+00    6.646615e-01   8.691558e-03
  2.291138e+00    6.636659e-01   8.675562e-03
  2.293348e+00    6.651467e-01   8.675627e-03
  2.295559e+00    6.495621e-01   8.564129e-03
  2.297769e+00    6.420421e-01   8.505245e-03
  2.299980e+00    6.548338e-01   8.580199e-03
  2.302190e+00    6.501775e-01   8.540556e-03
  2.304401e+00    6.363347e-01   8.439925e-03
  2.306611e+00    6.573977e-01   8.569232e-03
  2.308822e+00    6.500896e-01   8.513102e-03
  2.311032e+00    6.497552e-01   8.504462e-03
  2.313243e+00    6.394304e-01   8.430393e-03
  2.315453e+00    6.510757e-01   8.499238e-03
  2.317663e+00    6.527511e-01   8.500996e-03
  2.319874e+00    6.558714e-01   8.512501e-03
  2.322084e+00    6.442398e-01   8.427739e-03
  2.324295e+00    6.407260e-01   8.396518e-03
  2.326505e+00    6.392166e-01   8.377605e-03
  2.328716e+00    6.479388e-01   8.425987e-03
  2.330926e+00    6.406842e-01   8.369913e-03
  2.333137e+00    6.391015e-01   8.351207e-03
  2.335347e+00    6.358837e-01   8.321323e-03
  2.337558e+00    6.554032e-01   8.439749e-03
  2.339768e+00    6.481813e-01   8.384502e-03
  2.341979e+00    6.365413e-01   8.300519e-03
  2.344189e+00    6.352493e-01   8.283720e-03
  2.346399e+00    6.251875e-01   8.209419e-03
  2.348610e+00    6.500071e-01   8.362240e-03
  2.350820e+00    6.306961e-01   8.228942e-03
  2.353031e+00    6.338559e-01   8.241236e-03
  2.355241e+00    6.307651e-01   8.213079e-03
  2.357452e+00    6.333745e-01   8.221640e-03
  2.359662e+00    6.221635e-01   8.140377e-03
  2.361873e+00    6.221551e-01   8.132147e-03
  2.364083e+00    6.208489e-01   8.115677e-03
  2.366294e+00    6.224828e-01   8.118254e-03
  2.368504e+00    6.285667e-01   8.149760e-03
  2.370714e+00    6.299748e-01   8.150794e-03
  2.372925e+00    6.143732e-01   8.041256e-03
  2.375135e+00    6.128237e-01   8.023123e-03
  2.377346e+00    6.154146e-01   8.032161e-03
  2.379556e+00    6.239154e-01   8.079559e-03
  2.381767e+00    6.162429e-01   8.021882e-03
  2.383977e+00    6.328649e-01   8.121348e-03
  2.386188e+00    6.139117e-01   7.990941e-03
  2.388398e+00    6.004596e-01   7.895052e-03
  2.390609e+00    6.088132e-01   7.942116e-03
  2.392819e+00    6.164864e-01   7.984226e-03
  2.395029e+00    6.029224e-01   7.888334e-03
  2.397240e+00    6.064768e-01   7.903720e-03
  2.399450e+00    6.070084e-01   7.899424e-03
  2.401661e+00    5.988324e-01   7.838455e-03
  2.403871e+00    6.132898e-01   7.924721e-03
  2.406082e+00    6.172129e-01   7.942555e-03
  2.408292e+00    6.139335e-01   7.913624e-03
  2.410503e+00    6.133776e-01   7.902492e-03
  2.412713e+00    6.088226e-01   7.865322e-03
  2.414924e+00    5.889455e-01   7.728455e-03
  2.417134e+00    5.900120e-01   7.727925e-03
  2.419344e+00    5.971499e-01   7.767133e-03
  2.421555e+00    6.120782e-01   7.856071e-03
  2.423765e+00    5.959526e-01   7.744513e-03
  2.425976e+00    5.972599e-01   7.745212e-03
  2.428186e+00    5.999441e-01   7.755368e-03
  2.430397e+00    5.985625e-01   7.738953e-03
  2.432607e+00    5.900725e-01   7.676621e-03
  2.434818e+00    5.896092e-01   7.666109e-03
  2.437028e+00    5.997405e-01   7.724504e-03
  2.439239e+00    5.879434e-01   7.640535e-03
  2.441449e+00    5.835105e-01   7.604547e-03
  2.443659e+00    5.877900e-01   7.625034e-03
  2.445870e+00    5.753006e-01   7.555699e-03
  2.448080e+00    5.836074e-01   7.644867e-03
  2.450291e+00    5.742668e-01   7.600029e-03
  2.452501e+00    5.469431e-01   7.427870e-03
  2.454712e+00    5.716393e-01   7.602134e-03
  2.456922e+00    5.627164e-01   7.549162e-03
  2.459133e+00    5.459689e-01   7.441287e-03
  2.461343e+00    5.559426e-01   7.513252e-03
  2.463554e+00    5.569306e-01   7.523388e-03
  2.465764e+00    5.510484e-01   7.486653e-03
  2.467975e+00    5.520377e-01   7.495624e-03
  2.470185e+00    5.488174e-01   7.475976e-03
  2.472395e+00    5.464683e-01   7.461172e-03
  2.474606e+00    5.517035e-01   7.498374e-03
  2.476816e+00    5.550795e-01   7.522032e-03
  2.479027e+00    5.470718e-01   7.468413e-03
  2.481237e+00    5.503542e-01   7.491075e-03
  2.483448e+00    5.244051e-01   7.312640e-03
  2.485658e+00    5.358954e-01   7.392156e-03
  2.487869e+00    5.548499e-01   7.521794e-03
  2.490079e+00    5.467689e-01   7.466314e-03
  2.492290e+00    5.417482e-01   7.431508e-03
  2.494500e+00    5.366768e-01   7.395917e-03
  2.496710e+00    5.340376e-01   7.377009e-03
  2.498921e+00    5.319281e-01   7.361444e-03
  2.501131e+00    5.219070e-01   7.290832e-03
  2.503342e+00    5.264043e-01   7.320916e-03
  2.505552e+00    5.210647e-01   7.282580e-03
  2.507763e+00    5.092145e-01   7.197887e-03
  2.509973e+00    5.260943e-01   7.314842e-03
  2.512184e+00    5.220079e-01   7.284754e-03
  2.514394e+00    5.181214e-01   7.248330e-03
  2.516605e+00    5.082436e-01   7.132637e-03
  2.518815e+00    5.340161e-01   7.282706e-03
  2.521025e+00    5.290040e-01   7.227432e-03
  2.523236e+00    5.247213e-01   7.180139e-03
  2.525446e+00    5.313763e-01   7.209844e-03
  2.527657e+00    5.207434e-01   7.122805e-03
  2.529867e+00    5.283720e-01   7.160548e-03
  2.532078e+00    5.273079e-01   7.138275e-03
  2.534288e+00    5.079677e-01   6.992490e-03
  2.536499e+00    5.109873e-01   7.001455e-03
  2.538709e+00    5.223134e-01   7.067640e-03
  2.540920e+00    5.295041e-01   7.105425e-03
  2.543130e+00    5.239412e-01   7.057657e-03
  2.545340e+00    5.146001e-01   6.984478e-03
  2.547551e+00    5.244406e-01   7.040975e-03
  2.549761e+00    5.136310e-01   6.958548e-03
  2.551972e+00    5.174480e-01   6.975029e-03
  2.554182e+00    5.208822e-01   6.988965e-03
  2.556393e+00    5.260501e-01   7.014415e-03
  2.558603e+00    5.191339e-01   6.959083e-03
  2.560814e+00    5.238211e-01   6.981708e-03
  2.563024e+00    5.065621e-01   6.857246e-03
  2.565235e+00    5.073555e-01   6.853207e-03
  2.567445e+00    5.225888e-01   6.945744e-03
  2.569656e+00    5.112603e-01   6.860374e-03
  2.571866e+00    5.202358e-01   6.910954e-03
  2.574076e+00    5.027062e-01   6.784384e-03
  2.576287e+00    5.148069e-01   6.857217e-03
  2.578497e+00    5.182737e-01   6.872423e-03
  2.580708e+00    5.172890e-01   6.857798e-03
  2.582918e+00    4.940605e-01   6.694441e-03
  2.585129e+00    5.042442e-01   6.755410e-03
  2.587339e+00    5.112448e-01   6.794481e-03
  2.589550e+00    5.058406e-01   6.750986e-03
  2.591760e+00    4.973391e-01   6.686382e-03
  2.593971e+00    5.103478e-01   6.765743e-03
  2.596181e+00    4.962924e-01   6.665807e-03
  2.598391e+00    5.016388e-01   6.696471e-03
  2.600602e+00    4.936886e-01   6.637373e-03
  2.602812e+00    4.966806e-01   6.650005e-03
  2.605023e+00    5.157951e-01   6.769534e-03
  2.607233e+00    5.141419e-01   6.751522e-03
  2.609444e+00    5.016128e-01   6.661545e-03
  2.611654e+00    5.164921e-01   6.752241e-03
  2.613865e+00    4.968667e-01   6.615737e-03
  2.616075e+00    5.105003e-01   6.698710e-03
  2.618286e+00    5.157791e-01   6.726203e-03
  2.620496e+00    4.958016e-01   6.588025e-03
  2.622706e+00    5.015404e-01   6.620309e-03
  2.624917e+00    4.834789e-01   6.494285e-03
  2.627127e+00    5.029789e-01   6.618226e-03
  2.629338e+00    4.920006e-01   6.539687e-03
  2.631548e+00    4.972214e-01   6.568169e-03
  2.633759e+00    4.903780e-01   6.515746e-03
  2.635969e+00    5.038820e-01   6.598143e-03
  2.638180e+00    5.027834e-01   6.583969e-03
  2.640390e+00    4.995102e-01   6.555904e-03
  2.642601e+00    4.965637e-01   6.529899e-03
  2.644811e+00    5.002152e-01   6.546793e-03
  2.647021e+00    4.994960e-01   6.535522e-03
  2.649232e+00    5.062141e-01   6.572562e-03
  2.651442e+00    5.014865e-01   6.535291e-03
  2.653653e+00    4.884535e-01   6.443081e-03
  2.655863e+00    5.033395e-01   6.533800e-03
  2.658074e+00    4.993216e-01   6.501060e-03
  2.660284e+00    5.035084e-01   6.521856e-03
  2.662495e+00    5.031353e-01   6.512660e-03
  2.664705e+00    5.006715e-01   6.490092e-03
  2.666916e+00    4.962445e-01   6.454882e-03
  2.669126e+00    4.758413e-01   6.314468e-03
  2.671337e+00    4.786830e-01   6.326805e-03
  2.673547e+00    4.866100e-01   6.372665e-03
  2.675757e+00    5.010111e-01   6.459778e-03
  2.677968e+00    4.985183e-01   6.437147e-03
  2.680178e+00    4.944450e-01   6.404382e-03
  2.682389e+00    5.061770e-01   6.473442e-03
  2.684599e+00    4.926904e-01   6.380447e-03
  2.686810e+00    4.906392e-01   6.360538e-03
  2.689020e+00    4.883034e-01   6.339121e-03
  2.691231e+00    4.789132e-01   6.271660e-03
  2.693441e+00    4.904886e-01   6.340844e-03
  2.695652e+00    4.937347e-01   6.355266e-03
  2.697862e+00    4.934979e-01   6.347370e-03
  2.700072e+00    4.905596e-01   6.322368e-03
  2.702283e+00    4.886688e-01   6.303942e-03
  2.704493e+00    4.823740e-01   6.256988e-03
  2.706704e+00    4.894924e-01   6.296547e-03
  2.708914e+00    4.889729e-01   6.287242e-03
  2.711125e+00    4.992041e-01   6.346371e-03
  2.713335e+00    4.716251e-01   6.162586e-03
  2.715546e+00    4.683039e-01   6.134504e-03
  2.717756e+00    4.712593e-01   6.148033e-03
  2.719967e+00    4.803244e-01   6.200708e-03
  2.722177e+00    4.809469e-01   6.198631e-03
  2.724387e+00    4.910817e-01   6.257455e-03
  2.726598e+00    4.868108e-01   6.224135e-03
  2.728808e+00    4.748444e-01   6.141063e-03
  2.731019e+00    4.813083e-01   6.176631e-03
  2.733229e+00    4.731014e-01   6.117992e-03
  2.735440e+00    4.752927e-01   6.125941e-03
  2.737650e+00    4.763720e-01   6.126922e-03
  2.739861e+00    4.772557e-01   6.126567e-03
  2.742071e+00    4.706766e-01   6.078525e-03
  2.744282e+00    4.789294e-01   6.125364e-03
  2.746492e+00    4.703394e-01   6.064210e-03
  2.748702e+00    4.850169e-01   6.152194e-03
  2.750913e+00    4.669362e-01   6.030726e-03
  2.753123e+00    4.887898e-01   6.164064e-03
  2.755334e+00    4.807432e-01   6.107070e-03
  2.757544e+00    4.783713e-01   6.086237e-03
  2.759755e+00    4.792587e-01   6.086006e-03
  2.761965e+00    4.878590e-01   6.134331e-03
  2.764176e+00    5.006198e-01   6.207947e-03
  2.766386e+00    4.772704e-01   6.055666e-03
  2.768597e+00    4.714616e-01   6.012886e-03
  2.770807e+00    4.804228e-01   6.063871e-03
  2.773017e+00    4.794470e-01   6.051745e-03
  2.775228e+00    4.792276e-01   6.044563e-03
  2.777438e+00    4.779623e-01   6.030794e-03
  2.779649e+00    4.766415e-01   6.016558e-03
  2.781859e+00    4.663216e-01   5.945381e-03
  2.784070e+00    4.782141e-01   6.014832e-03
  2.786280e+00    4.855059e-01   6.054704e-03
  2.788491e+00    4.781424e-01   6.002795e-03
  2.790701e+00    4.720266e-01   5.958631e-03
  2.792912e+00    4.749907e-01   5.971368e-03
  2.795122e+00    4.742540e-01   5.961015e-03
  2.797333e+00    4.708987e-01   5.934352e-03
  2.799543e+00    4.719216e-01   5.934955e-03
  2.801753e+00    4.804223e-01   5.982286e-03
  2.803964e+00    4.794394e-01   5.970466e-03
  2.806174e+00    4.849509e-01   5.998484e-03
  2.808385e+00    4.739609e-01   5.923357e-03
  2.810595e+00    4.719540e-01   5.903919e-03
  2.812806e+00    4.776779e-01   5.933002e-03
  2.815016e+00    4.721014e-01   5.893530e-03
  2.817227e+00    4.740196e-01   5.931419e-03
  2.819437e+00    4.718560e-01   5.928935e-03
  2.821648e+00    4.684866e-01   5.909993e-03
  2.823858e+00    4.709145e-01   5.930617e-03
  2.826068e+00    4.715443e-01   5.939553e-03
  2.828279e+00    4.783248e-01   5.986161e-03
  2.830489e+00    4.543565e-01   5.837548e-03
  2.832700e+00    4.626684e-01   5.893216e-03
  2.834910e+00    4.622670e-01   5.892703e-03
  2.837121e+00    4.577211e-01   5.865356e-03
  2.839331e+00    4.640920e-01   5.907234e-03
  2.841542e+00    4.692637e-01   5.941081e-03
  2.843752e+00    4.725796e-01   5.962821e-03
  2.845963e+00    4.624237e-01   5.898797e-03
  2.848173e+00    4.628294e-01   5.901473e-03
  2.850383e+00    4.520655e-01   5.832734e-03
  2.852594e+00    4.689931e-01   5.940833e-03
  2.854804e+00    4.634089e-01   5.904885e-03
  2.857015e+00    4.659046e-01   5.920312e-03
  2.859225e+00    4.671553e-01   5.928011e-03
  2.861436e+00    4.633531e-01   5.903181e-03
  2.863646e+00    4.800294e-01   6.008513e-03
  2.865857e+00    4.700845e-01   5.946281e-03
  2.868067e+00    4.846644e-01   6.038034e-03
  2.870278e+00    4.630031e-01   5.901202e-03
  2.872488e+00    4.724166e-01   5.959717e-03
  2.874698e+00    4.547844e-01   5.846424e-03
  2.876909e+00    4.562154e-01   5.854261e-03
  2.879119e+00    4.780258e-01   5.990942e-03
  2.881330e+00    4.681794e-01   5.927443e-03
  2.883540e+00    4.536515e-01   5.833354e-03
  2.885751e+00    4.646587e-01   5.902074e-03
  2.887961e+00    4.590549e-01   5.864484e-03
  2.890172e+00    4.552718e-01   5.838693e-03
  2.892382e+00    4.641958e-01   5.893804e-03
  2.894593e+00    4.581310e-01   5.853390e-03
  2.896803e+00    4.500211e-01   5.799379e-03
  2.899014e+00    4.563860e-01   5.838339e-03
  2.901224e+00    4.459077e-01   5.768972e-03
  2.903434e+00    4.637257e-01   5.881141e-03
  2.905645e+00    4.586189e-01   5.846469e-03
  2.907855e+00    4.547446e-01   5.819616e-03
  2.910066e+00    4.619145e-01   5.863236e-03
  2.912276e+00    4.620894e-01   5.862218e-03
  2.914487e+00    4.666746e-01   5.888758e-03
  2.916697e+00    4.565289e-01   5.822163e-03
  2.918908e+00    4.591101e-01   5.836606e-03
  2.921118e+00    4.524713e-01   5.791574e-03
  2.923329e+00    4.454871e-01   5.744411e-03
  2.925539e+00    4.537173e-01   5.794963e-03
  2.927749e+00    4.563278e-01   5.809297e-03
  2.929960e+00    4.565313e-01   5.807818e-03
  2.932170e+00    4.620248e-01   5.840313e-03
  2.934381e+00    4.533446e-01   5.782775e-03
  2.936591e+00    4.455605e-01   5.730355e-03
  2.938802e+00    4.554895e-01   5.791144e-03
  2.941012e+00    4.438642e-01   5.714462e-03
  2.943223e+00    4.487996e-01   5.743451e-03
  2.945433e+00    4.645226e-01   5.839446e-03
  2.947644e+00    4.444878e-01   5.708030e-03
  2.949854e+00    4.542598e-01   5.766180e-03
  2.952064e+00    4.544297e-01   5.763023e-03
  2.954275e+00    4.539678e-01   5.755697e-03
  2.956485e+00    4.575208e-01   5.773984e-03
  2.958696e+00    4.555463e-01   5.757131e-03
  2.960906e+00    4.530190e-01   5.736966e-03
  2.963117e+00    4.502269e-01   5.714792e-03
  2.965327e+00    4.676877e-01   5.820595e-03
  2.967538e+00    4.586858e-01   5.761390e-03
  2.969748e+00    4.652956e-01   5.799897e-03
  2.971959e+00    4.530934e-01   5.720214e-03
  2.974169e+00    4.518617e-01   5.709847e-03
  2.976379e+00    4.551812e-01   5.727873e-03
  2.978590e+00    4.513863e-01   5.700817e-03
  2.980800e+00    4.372540e-01   5.608122e-03
  2.983011e+00    4.473206e-01   5.669514e-03
  2.985221e+00    4.505699e-01   5.686952e-03
  2.987432e+00    4.607224e-01   5.747509e-03
  2.989642e+00    4.555125e-01   5.712307e-03
  2.991853e+00    4.599870e-01   5.736994e-03
  2.994063e+00    4.431361e-01   5.628050e-03
  2.996274e+00    4.490667e-01   5.662426e-03
  2.998484e+00    4.462303e-01   5.641836e-03
  3.000694e+00    4.462331e-01   5.638424e-03
  3.002905e+00    4.532425e-01   5.679600e-03
  3.005115e+00    4.404567e-01   5.595988e-03
  3.007326e+00    4.533494e-01   5.674122e-03
  3.009536e+00    4.571362e-01   5.694514e-03
  3.011747e+00    4.616278e-01   5.719484e-03
  3.013957e+00    4.544222e-01   5.671490e-03
  3.016168e+00    4.453411e-01   5.611305e-03
  3.018378e+00    4.501863e-01   5.638710e-03
  3.020589e+00    4.401591e-01   5.572387e-03
  3.022799e+00    4.477589e-01   5.617144e-03
  3.025010e+00    4.483490e-01   5.617619e-03
  3.027220e+00    4.619480e-01   5.699038e-03
  3.029430e+00    4.563654e-01   5.661230e-03
  3.031641e+00    4.636030e-01   5.702769e-03
  3.033851e+00    4.637731e-01   5.700277e-03
  3.036062e+00    4.462469e-01   5.588734e-03
  3.038272e+00    4.647382e-01   5.699730e-03
  3.040483e+00    4.585030e-01   5.658132e-03
  3.042693e+00    4.622816e-01   5.678080e-03
  3.044904e+00    4.598324e-01   5.658973e-03
  3.047114e+00    4.499092e-01   5.592763e-03
  3.049325e+00    4.489813e-01   5.582626e-03
  3.051535e+00    4.508268e-01   5.589675e-03
  3.053745e+00    4.551438e-01   5.611618e-03
  3.055956e+00    4.319334e-01   5.462168e-03
  3.058166e+00    4.492736e-01   5.566481e-03
  3.060377e+00    4.534389e-01   5.587439e-03
  3.062587e+00    4.440215e-01   5.524504e-03
  3.064798e+00    4.499682e-01   5.557147e-03
  3.067008e+00    4.399567e-01   5.490270e-03
  3.069219e+00    4.471683e-01   5.530583e-03
  3.071429e+00    4.590496e-01   5.600051e-03
  3.073640e+00    4.546123e-01   5.569560e-03
  3.075850e+00    4.441379e-01   5.501464e-03
  3.078060e+00    4.559379e-01   5.570930e-03
  3.080271e+00    4.595944e-01   5.589711e-03
  3.082481e+00    4.581994e-01   5.577750e-03
  3.084692e+00    4.570848e-01   5.567536e-03
  3.086902e+00    4.497048e-01   5.519174e-03
  3.089113e+00    4.498484e-01   5.516455e-03
  3.091323e+00    4.596362e-01   5.572744e-03
  3.093534e+00    4.547846e-01   5.539852e-03
  3.095744e+00    4.490920e-01   5.501694e-03
  3.097955e+00    4.493710e-01   5.499850e-03
  3.100165e+00    4.381906e-01   5.427685e-03
  3.102375e+00    4.527624e-01   5.513772e-03
  3.104586e+00    4.520301e-01   5.505787e-03
  3.106796e+00    4.427028e-01   5.445188e-03
  3.109007e+00    4.434353e-01   5.446484e-03
  3.111217e+00    4.414850e-01   5.430803e-03
  3.113428e+00    4.419778e-01   5.430464e-03
  3.115638e+00    4.444294e-01   5.442238e-03
  3.117849e+00    4.402618e-01   5.412984e-03
  3.120059e+00    4.547729e-01   5.497944e-03
  3.122270e+00    4.555373e-01   5.499293e-03
  3.124480e+00    4.394679e-01   5.397748e-03
  3.126691e+00    4.476822e-01   5.444380e-03
  3.128901e+00    4.577532e-01   5.502126e-03
  3.131111e+00    4.468991e-01   5.432648e-03
  3.133322e+00    4.462264e-01   5.425096e-03
  3.135532e+00    4.537712e-01   5.467329e-03
  3.137743e+00    4.507659e-01   5.445692e-03
  3.139953e+00    4.435013e-01   5.397957e-03
  3.142164e+00    4.399230e-01   5.388100e-03
  3.144374e+00    4.419007e-01   5.428595e-03
  3.146585e+00    4.439198e-01   5.455562e-03
  3.148795e+00    4.345925e-01   5.408642e-03
  3.151006e+00    4.359947e-01   5.425835e-03
  3.153216e+00    4.415071e-01   5.467163e-03
  3.155426e+00    4.440338e-01   5.489118e-03
  3.157637e+00    4.230320e-01   5.363151e-03
  3.159847e+00    4.280551e-01   5.399705e-03
  3.162058e+00    4.346947e-01   5.445803e-03
  3.164268e+00    4.294444e-01   5.416851e-03
  3.166479e+00    4.283789e-01   5.413715e-03
  3.168689e+00    4.377789e-01   5.476160e-03
  3.170900e+00    4.357751e-01   5.466769e-03
  3.173110e+00    4.380066e-01   5.483629e-03
  3.175321e+00    4.377529e-01   5.484517e-03
  3.177531e+00    4.513541e-01   5.571859e-03
  3.179741e+00    4.354357e-01   5.474788e-03
  3.181952e+00    4.355431e-01   5.477558e-03
  3.184162e+00    4.400124e-01   5.507814e-03
  3.186373e+00    4.223143e-01   5.397474e-03
  3.188583e+00    4.363791e-01   5.488372e-03
  3.190794e+00    4.332957e-01   5.470730e-03
  3.193004e+00    4.446361e-01   5.543101e-03
  3.195215e+00    4.398004e-01   5.514388e-03
  3.197425e+00    4.321085e-01   5.467166e-03
  3.199636e+00    4.290594e-01   5.447067e-03
  3.201846e+00    4.344203e-01   5.480386e-03
  3.204056e+00    4.401516e-01   5.517318e-03
  3.206267e+00    4.456569e-01   5.552574e-03
  3.208477e+00    4.368015e-01   5.498069e-03
  3.210688e+00    4.389615e-01   5.512479e-03
  3.212898e+00    4.422434e-01   5.533639e-03
  3.215109e+00    4.269584e-01   5.437917e-03
  3.217319e+00    4.381108e-01   5.509114e-03
  3.219530e+00    4.341761e-01   5.484721e-03
  3.221740e+00    4.308828e-01   5.464447e-03
  3.223951e+00    4.118286e-01   5.342723e-03
  3.226161e+00    4.162289e-01   5.371360e-03
  3.228372e+00    4.238323e-01   5.420716e-03
  3.230582e+00    4.276185e-01   5.445035e-03
  3.232792e+00    4.233606e-01   5.418060e-03
  3.235003e+00    4.419236e-01   5.535819e-03
  3.237213e+00    4.293592e-01   5.456683e-03
  3.239424e+00    4.199229e-01   5.396371e-03
  3.241634e+00    4.256913e-01   5.433436e-03
  3.243845e+00    4.242196e-01   5.424104e-03
  3.246055e+00    4.232918e-01   5.417891e-03
  3.248266e+00    4.175460e-01   5.381207e-03
  3.250476e+00    4.213592e-01   5.405415e-03
  3.252687e+00    4.197350e-01   5.394903e-03
  3.254897e+00    4.314404e-01   5.469503e-03
  3.257107e+00    4.118874e-01   5.343814e-03
  3.259318e+00    4.101969e-01   5.332607e-03
  3.261528e+00    4.183493e-01   5.385191e-03
  3.263739e+00    4.261647e-01   5.434704e-03
  3.265949e+00    4.227753e-01   5.412936e-03
  3.268160e+00    4.251260e-01   5.427535e-03
  3.270370e+00    4.215042e-01   5.403869e-03
  3.272581e+00    4.152567e-01   5.363404e-03
  3.274791e+00    4.120436e-01   5.342065e-03
  3.277002e+00    4.359146e-01   5.494074e-03
  3.279212e+00    4.350195e-01   5.488044e-03
  3.281422e+00    4.289890e-01   5.449316e-03
  3.283633e+00    4.253232e-01   5.425270e-03
  3.285843e+00    4.230550e-01   5.410478e-03
  3.288054e+00    4.247131e-01   5.420096e-03
  3.290264e+00    4.233080e-01   5.410845e-03
  3.292475e+00    4.093999e-01   5.320376e-03
  3.294685e+00    4.159963e-01   5.362437e-03
  3.296896e+00    4.199451e-01   5.387078e-03
  3.299106e+00    4.260505e-01   5.425542e-03
  3.301317e+00    4.052763e-01   5.290613e-03
  3.303527e+00    4.191266e-01   5.379775e-03
  3.305737e+00    4.262636e-01   5.424345e-03
  3.307948e+00    4.268952e-01   5.427696e-03
  3.310158e+00    4.080074e-01   5.305435e-03
  3.312369e+00    4.260463e-01   5.420548e-03
  3.314579e+00    4.137776e-01   5.341040e-03
  3.316790e+00    4.222791e-01   5.394918e-03
  3.319000e+00    4.438416e-01   5.529714e-03
  3.321211e+00    4.315897e-01   5.452271e-03
  3.323421e+00    4.287160e-01   5.432860e-03
  3.325632e+00    4.168556e-01   5.356308e-03
  3.327842e+00    4.269671e-01   5.419944e-03
  3.330052e+00    4.262292e-01   5.414205e-03
  3.332263e+00    4.186539e-01   5.364866e-03
  3.334473e+00    4.196415e-01   5.370259e-03
  3.336684e+00    4.275480e-01   5.419352e-03
  3.338894e+00    4.300116e-01   5.434103e-03
  3.341105e+00    4.048644e-01   5.271616e-03
  3.343315e+00    4.075158e-01   5.287741e-03
  3.345526e+00    4.205661e-01   5.370811e-03
  3.347736e+00    4.257026e-01   5.402119e-03
  3.349947e+00    4.214588e-01   5.374182e-03
  3.352157e+00    4.178903e-01   5.350228e-03
  3.354368e+00    4.114638e-01   5.307627e-03
  3.356578e+00    4.259059e-01   5.398946e-03
  3.358788e+00    4.133179e-01   5.317270e-03
  3.360999e+00    4.027220e-01   5.247405e-03
  3.363209e+00    4.163933e-01   5.334735e-03
  3.365420e+00    4.146933e-01   5.322322e-03
  3.367630e+00    4.094552e-01   5.287601e-03
  3.369841e+00    4.125439e-01   5.306070e-03
  3.372051e+00    4.228851e-01   5.370185e-03
  3.374262e+00    4.147592e-01   5.315911e-03
  3.376472e+00    4.165280e-01   5.324782e-03
  3.378683e+00    4.077259e-01   5.265739e-03
  3.380893e+00    4.079305e-01   5.264747e-03
  3.383103e+00    4.071922e-01   5.257295e-03
  3.385314e+00    4.161384e-01   5.312515e-03
  3.387524e+00    4.202045e-01   5.335650e-03
  3.389735e+00    4.217179e-01   5.342595e-03
  3.391945e+00    4.153779e-01   5.298605e-03
  3.394156e+00    4.117247e-01   5.271027e-03
  3.396366e+00    4.148269e-01   5.287433e-03
  3.398577e+00    4.078665e-01   5.239862e-03
  3.400787e+00    4.060008e-01   5.239700e-03
  3.402998e+00    3.936779e-01   5.196869e-03
  3.405208e+00    4.038293e-01   5.284065e-03
  3.407418e+00    3.916556e-01   5.219405e-03
  3.409629e+00    3.980672e-01   5.275863e-03
  3.411839e+00    3.965360e-01   5.277429e-03
  3.414050e+00    3.912011e-01   5.252743e-03
  3.416260e+00    3.804505e-01   5.189532e-03
  3.418471e+00    3.782642e-01   5.183819e-03
  3.420681e+00    3.866414e-01   5.249340e-03
  3.422892e+00    3.855975e-01   5.250188e-03
  3.425102e+00    3.904727e-01   5.291121e-03
  3.427313e+00    3.705610e-01   5.161452e-03
  3.429523e+00    3.715670e-01   5.175360e-03
  3.431733e+00    3.877549e-01   5.293604e-03
  3.433944e+00    3.826904e-01   5.265376e-03
  3.436154e+00    3.713064e-01   5.192608e-03
  3.438365e+00    3.846086e-01   5.290749e-03
  3.440575e+00    3.804454e-01   5.267993e-03
  3.442786e+00    3.850650e-01   5.305502e-03
  3.444996e+00    3.878679e-01   5.330380e-03
  3.447207e+00    3.630931e-01   5.162545e-03
  3.449417e+00    3.614235e-01   5.190879e-03
  3.451628e+00    3.753643e-01   5.319767e-03
  3.453838e+00    3.838857e-01   5.401433e-03
  3.456049e+00    3.769911e-01   5.376943e-03
  3.458259e+00    3.622040e-01   5.292238e-03
  3.460469e+00    3.612245e-01   5.304741e-03
  3.462680e+00    3.528725e-01   5.261734e-03
  3.464890e+00    3.496564e-01   5.255094e-03
  3.467101e+00    3.772075e-01   5.475878e-03
  3.469311e+00    3.905100e-01   5.588620e-03
  3.471522e+00    3.884129e-01   5.590289e-03
  3.473732e+00    3.822902e-01   5.562065e-03
  3.475943e+00    3.951896e-01   5.671075e-03
  3.478153e+00    4.011668e-01   5.729539e-03
  3.480364e+00    4.050904e-01   5.772798e-03
  3.482574e+00    4.235751e-01   5.918804e-03
  3.484784e+00    4.160111e-01   5.880672e-03
  3.486995e+00    4.270434e-01   5.973434e-03
  3.489205e+00    4.290074e-01   6.001924e-03
  3.491416e+00    4.523428e-01   6.178326e-03
  3.493626e+00    4.494411e-01   6.173353e-03
  3.495837e+00    4.540697e-01   6.220015e-03
  3.498047e+00    4.532065e-01   6.228738e-03
  3.500258e+00    4.612839e-01   6.298734e-03
  3.502468e+00    4.426875e-01   6.184699e-03
  3.504679e+00    4.461805e-01   6.223292e-03
  3.506889e+00    4.639288e-01   6.360286e-03
  3.509099e+00    4.752901e-01   6.452087e-03
  3.511310e+00    4.834335e-01   6.521735e-03
  3.513520e+00    4.747720e-01   6.477359e-03
  3.515731e+00    4.719385e-01   6.472137e-03
  3.517941e+00    4.820266e-01   6.555216e-03
  3.520152e+00    4.984153e-01   6.680059e-03
  3.522362e+00    4.959103e-01   6.677703e-03
  3.524573e+00    5.180685e-01   6.839671e-03
  3.526783e+00    5.243353e-01   6.894460e-03
  3.528994e+00    5.178708e-01   6.864102e-03
  3.531204e+00    5.313466e-01   6.965382e-03
  3.533414e+00    5.333446e-01   6.990639e-03
  3.535625e+00    5.334747e-01   7.003960e-03
  3.537835e+00    5.224257e-01   6.943008e-03
  3.540046e+00    5.441524e-01   7.094897e-03
  3.542256e+00    5.536784e-01   7.164449e-03
  3.544467e+00    5.346795e-01   7.048028e-03
  3.546677e+00    5.388398e-01   7.083013e-03
  3.548888e+00    5.377240e-01   7.083173e-03
  3.551098e+00    5.380307e-01   7.092483e-03
  3.553309e+00    5.332573e-01   7.069119e-03
  3.555519e+00    5.349612e-01   7.091687e-03
  3.557729e+00    5.357227e-01   7.108420e-03
  3.559940e+00    5.504995e-01   7.217514e-03
  3.562150e+00    5.565860e-01   7.269237e-03
  3.564361e+00    5.478293e-01   7.225306e-03
  3.566571e+00    5.446323e-01   7.218106e-03
  3.568782e+00    5.472800e-01   7.249922e-03
  3.570992e+00    5.526728e-01   7.299494e-03
  3.573203e+00    5.522130e-01   7.310837e-03
  3.575413e+00    5.477556e-01   7.295184e-03
  3.577624e+00    5.592611e-01   7.385840e-03
  3.579834e+00    5.369329e-01   7.250814e-03
  3.582045e+00    5.233381e-01   7.172267e-03
  3.584255e+00    5.321046e-01   7.246099e-03
  3.586465e+00    5.481020e-01   7.368304e-03
  3.588676e+00    5.562717e-01   7.437469e-03
  3.590886e+00    5.389867e-01   7.334779e-03
  3.593097e+00    5.341577e-01   7.316285e-03
  3.595307e+00    5.428467e-01   7.389614e-03
  3.597518e+00    5.253751e-01   7.283767e-03
  3.599728e+00    5.444738e-01   7.429204e-03
  3.601939e+00    5.402601e-01   7.414549e-03
  3.604149e+00    5.360512e-01   7.399973e-03
  3.606360e+00    5.435317e-01   7.465717e-03
  3.608570e+00    5.447108e-01   7.488085e-03
  3.610780e+00    5.463156e-01   7.510296e-03
  3.612991e+00    5.435441e-01   7.501313e-03
  3.615201e+00    5.381409e-01   7.473742e-03
  3.617412e+00    5.358830e-01   7.465368e-03
  3.619622e+00    5.306262e-01   7.434537e-03
  3.621833e+00    5.503693e-01   7.578447e-03
  3.624043e+00    5.289393e-01   7.438867e-03
  3.626254e+00    5.307932e-01   7.461580e-03
  3.628464e+00    5.286395e-01   7.457338e-03
  3.630675e+00    5.258358e-01   7.451538e-03
  3.632885e+00    5.378682e-01   7.550800e-03
  3.635095e+00    5.545434e-01   7.681650e-03
  3.637306e+00    5.364896e-01   7.569997e-03
  3.639516e+00    5.354552e-01   7.577230e-03
  3.641727e+00    5.384559e-01   7.613075e-03
  3.643937e+00    5.468474e-01   7.686886e-03
  3.646148e+00    5.621319e-01   7.808613e-03
  3.648358e+00    5.271182e-01   7.576273e-03
  3.650569e+00    5.125477e-01   7.485299e-03
  3.652779e+00    5.272279e-01   7.606397e-03
  3.654990e+00    5.399556e-01   7.712642e-03
  3.657200e+00    5.470862e-01   7.778534e-03
  3.659410e+00    5.357576e-01   7.712582e-03
  3.661621e+00    5.412112e-01   7.766966e-03
  3.663831e+00    5.341049e-01   7.730977e-03
  3.666042e+00    5.442941e-01   7.819709e-03
  3.668252e+00    5.498651e-01   7.875108e-03
  3.670463e+00    5.418169e-01   7.832702e-03
  3.672673e+00    5.147327e-01   7.649580e-03
  3.674884e+00    5.051860e-01   7.593325e-03
  3.677094e+00    5.336677e-01   7.819969e-03
  3.679305e+00    5.405086e-01   7.885687e-03
  3.681515e+00    5.184631e-01   7.738644e-03
  3.683726e+00    5.124549e-01   7.709189e-03
  3.685936e+00    5.300582e-01   7.856215e-03
  3.688146e+00    5.101534e-01   7.722800e-03
  3.690357e+00    5.216154e-01   7.824899e-03
  3.692567e+00    5.395672e-01   7.974762e-03
  3.694778e+00    5.304412e-01   7.923125e-03
  3.696988e+00    5.336605e-01   7.963242e-03
  3.699199e+00    5.254272e-01   7.917792e-03
  3.701409e+00    5.167195e-01   7.868196e-03
  3.703620e+00    4.988385e-01   7.746718e-03
  3.705830e+00    5.321223e-01   8.017522e-03
  3.708041e+00    5.149866e-01   7.903819e-03
  3.710251e+00    5.317228e-01   8.048088e-03
  3.712461e+00    4.984823e-01   7.808772e-03
  3.714672e+00    5.178890e-01   7.976009e-03
  3.716882e+00    5.277942e-01   8.068751e-03
  3.719093e+00    5.167190e-01   8.000703e-03
  3.721303e+00    5.236229e-01   8.071061e-03
  3.723514e+00    4.983825e-01   7.891027e-03
  3.725724e+00    4.883816e-01   7.828065e-03
  3.727935e+00    4.992446e-01   7.931820e-03
  3.730145e+00    5.134028e-01   8.060733e-03
  3.732356e+00    5.037248e-01   8.001756e-03
  3.734566e+00    4.921394e-01   7.926331e-03
  3.736776e+00    5.012506e-01   8.016886e-03
  3.738987e+00    4.894956e-01   7.939650e-03
  3.741197e+00    5.078936e-01   8.105359e-03
  3.743408e+00    5.185797e-01   8.208331e-03
  3.745618e+00    5.242607e-01   8.271726e-03
  3.747829e+00    5.082090e-01   8.162103e-03
  3.750039e+00    5.225056e-01   8.294729e-03
  3.752250e+00    5.080428e-01   8.197473e-03
  3.754460e+00    5.242261e-01   8.345881e-03
  3.756671e+00    4.913769e-01   8.098640e-03
  3.758881e+00    4.954722e-01   8.150632e-03
  3.761091e+00    5.165260e-01   8.341332e-03
  3.763302e+00    5.002690e-01   8.227984e-03
  3.765512e+00    5.009287e-01   8.252503e-03
  3.767723e+00    5.098839e-01   8.345321e-03
  3.769933e+00    5.125036e-01   8.386174e-03
  3.772144e+00    5.248792e-01   8.506771e-03
  3.774354e+00    5.284913e-01   8.556322e-03
  3.776565e+00    5.101924e-01   8.426836e-03
  3.778775e+00    5.019506e-01   8.378346e-03
  3.780986e+00    5.180467e-01   8.532234e-03
  3.783196e+00    5.243765e-01   8.604852e-03
  3.785407e+00    5.079495e-01   8.489577e-03
  3.787617e+00    5.123169e-01   8.546880e-03
  3.789827e+00    5.084536e-01   8.535267e-03
  3.792038e+00    5.323494e-01   8.754981e-03
  3.794248e+00    5.133053e-01   8.618417e-03
  3.796459e+00    4.836715e-01   8.386915e-03
  3.798669e+00    5.062585e-01   8.601964e-03
  3.800880e+00    4.839068e-01   8.431022e-03
  3.803090e+00    5.068123e-01   8.650208e-03
  3.805301e+00    5.038064e-01   8.646664e-03
  3.807511e+00    5.132517e-01   8.749716e-03
  3.809722e+00    5.216460e-01   8.843628e-03
  3.811932e+00    5.283938e-01   8.923499e-03
  3.814142e+00    5.089955e-01   8.781347e-03
  3.816353e+00    5.043609e-01   8.764151e-03
  3.818563e+00    4.896148e-01   8.657994e-03
  3.820774e+00    5.002431e-01   8.774712e-03
  3.822984e+00    4.851475e-01   8.664322e-03
  3.825195e+00    4.792254e-01   8.634565e-03
  3.827405e+00    5.131031e-01   8.958752e-03
  3.829616e+00    5.154743e-01   9.004051e-03
  3.831826e+00    4.980022e-01   8.874205e-03
  3.834037e+00    5.144434e-01   9.044521e-03
  3.836247e+00    5.197636e-01   9.116380e-03
  3.838457e+00    5.046948e-01   9.008503e-03
  3.840668e+00    5.214621e-01   9.182733e-03
  3.842878e+00    4.974502e-01   8.994377e-03
  3.845089e+00    4.972980e-01   9.018599e-03
  3.847299e+00    4.977321e-01   9.048444e-03
  3.849510e+00    4.848877e-01   8.956459e-03
  3.851720e+00    4.916178e-01   9.039778e-03
  3.853931e+00    4.770319e-01   8.923288e-03
  3.856141e+00    4.906820e-01   9.068957e-03
  3.858352e+00    4.961975e-01   9.139111e-03
  3.860562e+00    4.992634e-01   9.186719e-03
  3.862772e+00    4.943895e-01   9.161331e-03
  3.864983e+00    4.743393e-01   8.992982e-03
  3.867193e+00    4.884314e-01   9.145197e-03
  3.869404e+00    4.826668e-01   9.110664e-03
  3.871614e+00    5.042754e-01   9.332594e-03
  3.873825e+00    4.843126e-01   9.166152e-03
  3.876035e+00    4.642179e-01   8.993926e-03
  3.878246e+00    5.061656e-01   9.417605e-03
  3.880456e+00    4.753522e-01   9.154960e-03
  3.882667e+00    5.091820e-01   9.504925e-03
  3.884877e+00    5.094897e-01   9.538139e-03
  3.887087e+00    4.801046e-01   9.288589e-03
  3.889298e+00    5.012274e-01   9.521316e-03
  3.891508e+00    5.301788e-01   9.824201e-03
  3.893719e+00    5.131740e-01   9.697082e-03
  3.895929e+00    4.870111e-01   9.477950e-03
  3.898140e+00    5.299815e-01   9.920190e-03
  3.900350e+00    5.247231e-01   9.904102e-03
  3.902561e+00    4.924957e-01   9.627610e-03
  3.904771e+00    4.682648e-01   9.419869e-03
  3.906982e+00    5.082101e-01   9.847111e-03
  3.909192e+00    4.963195e-01   9.765076e-03
  3.911403e+00    4.985027e-01   9.820801e-03
  3.913613e+00    4.948341e-01   9.819132e-03
  3.915823e+00    4.712458e-01   9.616330e-03
  3.918034e+00    4.924021e-01   9.865310e-03
  3.920244e+00    4.773745e-01   9.748910e-03
  3.922455e+00    4.925805e-01   9.939243e-03
  3.924665e+00    4.858553e-01   9.907438e-03
  3.926876e+00    4.828965e-01   9.914202e-03
  3.929086e+00    4.701090e-01   9.818700e-03
  3.931297e+00    4.853559e-01   1.001136e-02
  3.933507e+00    5.202711e-01   1.039510e-02
  3.935718e+00    4.926026e-01   1.014390e-02
  3.937928e+00    4.926711e-01   1.017413e-02
  3.940138e+00    5.231852e-01   1.051485e-02
  3.942349e+00    4.950481e-01   1.025838e-02
  3.944559e+00    5.091696e-01   1.043428e-02
  3.946770e+00    4.970971e-01   1.034034e-02
  3.948980e+00    4.963406e-01   1.036351e-02
  3.951191e+00    4.793998e-01   1.021577e-02
  3.953401e+00    4.819785e-01   1.027440e-02
  3.955612e+00    4.758611e-01   1.024028e-02
  3.957822e+00    5.005885e-01   1.053500e-02
  3.960033e+00    4.883046e-01   1.043787e-02
  3.962243e+00    4.695214e-01   1.026730e-02
  3.964453e+00    4.774797e-01   1.038679e-02
  3.966664e+00    4.903668e-01   1.055960e-02
  3.968874e+00    5.037452e-01   1.073152e-02
  3.971085e+00    5.120091e-01   1.084183e-02
  3.973295e+00    4.935946e-01   1.066673e-02
  3.975506e+00    4.623539e-01   1.034466e-02
  3.977716e+00    4.806796e-01   1.056961e-02
  3.979927e+00    4.870869e-01   1.066194e-02
  3.982137e+00    4.779046e-01   1.058316e-02
  3.984348e+00    4.751453e-01   1.057479e-02
  3.986558e+00    5.064214e-01   1.094010e-02
  3.988768e+00    4.864299e-01   1.074514e-02
  3.990979e+00    4.436701e-01   1.028382e-02
  3.993189e+00    4.388420e-01   1.024942e-02
  3.995400e+00    5.127201e-01   1.110288e-02
  3.997610e+00    4.893435e-01   1.087687e-02
  3.999821e+00    4.817423e-01   1.082943e-02
  4.002031e+00    5.182549e-01   1.127196e-02
  4.004242e+00    4.863560e-01   1.095822e-02
  4.006452e+00    4.879304e-01   1.101532e-02
  4.008663e+00    5.114064e-01   1.131834e-02
  4.010873e+00    4.855974e-01   1.106907e-02
  4.013084e+00    4.971324e-01   1.124127e-02
  4.015294e+00    5.058399e-01   1.138111e-02
  4.017504e+00    4.788466e-01   1.111497e-02
  4.019715e+00    4.817615e-01   1.119098e-02
  4.021925e+00    5.289944e-01   1.177180e-02
  4.024136e+00    5.090676e-01   1.159279e-02
  4.026346e+00    4.992866e-01   1.152559e-02
  4.028557e+00    5.085188e-01   1.167715e-02
  4.030767e+00    5.294079e-01   1.196236e-02
  4.032978e+00    5.036399e-01   1.171490e-02
  4.035188e+00    4.720325e-01   1.138694e-02
  4.037399e+00    4.644298e-01   1.134144e-02
  4.039609e+00    4.543017e-01   1.126338e-02
  4.041819e+00    4.685538e-01   1.148665e-02
  4.044030e+00    5.169097e-01   1.211648e-02
  4.046240e+00    4.980503e-01   1.194408e-02
  4.048451e+00    4.758303e-01   1.172512e-02
  4.050661e+00    5.013414e-01   1.208768e-02
  4.052872e+00    4.833513e-01   1.192167e-02
  4.055082e+00    4.942743e-01   1.210977e-02
  4.057293e+00    4.614415e-01   1.175322e-02
  4.059503e+00    4.599824e-01   1.178789e-02
  4.061714e+00    4.992594e-01   1.233851e-02
  4.063924e+00    4.650981e-01   1.196442e-02
  4.066134e+00    4.897742e-01   1.233571e-02
  4.068345e+00    5.059641e-01   1.259827e-02
  4.070555e+00    5.088959e-01   1.269573e-02
  4.072766e+00    4.686815e-01   1.224376e-02
  4.074976e+00    4.783093e-01   1.243053e-02
  4.077187e+00    4.856071e-01   1.258723e-02
  4.079397e+00    4.880906e-01   1.268395e-02
  4.081608e+00    4.791238e-01   1.263212e-02
  4.083818e+00    4.601203e-01   1.244368e-02
  4.086029e+00    4.336499e-01   1.214384e-02
  4.088239e+00    4.620768e-01   1.260330e-02
  4.090449e+00    4.802079e-01   1.291757e-02
  4.092660e+00    4.758401e-01   1.292970e-02
  4.094870e+00    4.711749e-01   1.293761e-02
  4.097081e+00    4.826957e-01   1.316656e-02
  4.099291e+00    5.039696e-01   1.350931e-02
  4.101502e+00    4.601189e-01   1.295645e-02
  4.103712e+00    4.538079e-01   1.291495e-02
  4.105923e+00    4.915894e-01   1.349412e-02
  4.108133e+00    4.350448e-01   1.274323e-02
  4.110344e+00    4.493091e-01   1.299988e-02
  4.112554e+00    4.464610e-01   1.300988e-02
  4.114764e+00    4.872601e-01   1.364590e-02
  4.116975e+00    5.109136e-01   1.402837e-02
  4.119185e+00    4.528164e-01   1.326022e-02
  4.121396e+00    4.718378e-01   1.359185e-02
  4.123606e+00    4.529600e-01   1.337181e-02
  4.125817e+00    5.289636e-01   1.451056e-02
  4.128027e+00    5.009120e-01   1.418033e-02
  4.130238e+00    4.771154e-01   1.389858e-02
  4.132448e+00    4.833729e-01   1.405023e-02
  4.134659e+00    5.061462e-01   1.443904e-02
  4.136869e+00    5.061581e-01   1.450386e-02
  4.139080e+00    4.718269e-01   1.406639e-02
  4.141290e+00    5.080718e-01   1.466132e-02
  4.143500e+00    5.331835e-01   1.508836e-02
  4.145711e+00    5.104554e-01   1.483252e-02
  4.147921e+00    4.661920e-01   1.423964e-02
  4.150132e+00    4.979725e-01   1.478741e-02
  4.152342e+00    4.712728e-01   1.445523e-02
  4.154553e+00    4.697059e-01   1.449975e-02
  4.156763e+00    4.873409e-01   1.484236e-02
  4.158974e+00    5.427341e-01   1.574213e-02
  4.161184e+00    5.084198e-01   1.531190e-02
  4.163395e+00    4.865142e-01   1.505487e-02
  4.165605e+00    4.829980e-01   1.507843e-02
  4.167815e+00    4.720009e-01   1.498334e-02
  4.170026e+00    4.911421e-01   1.536483e-02
  4.172236e+00    5.140635e-01   1.580437e-02
  4.174447e+00    4.398124e-01   1.469784e-02
  4.176657e+00    4.739227e-01   1.534063e-02
  4.178868e+00    4.783229e-01   1.549888e-02
  4.181078e+00    5.165185e-01   1.619660e-02
  4.183289e+00    5.203568e-01   1.634964e-02
  4.185499e+00    4.510758e-01   1.531249e-02
  4.187710e+00    4.350446e-01   1.512557e-02
  4.189920e+00    5.058678e-01   1.640860e-02
  4.192130e+00    4.631185e-01   1.579642e-02
  4.194341e+00    4.904176e-01   1.635451e-02
  4.196551e+00    5.114825e-01   1.680784e-02
  4.198762e+00    4.828294e-01   1.643427e-02
  4.200972e+00    4.772123e-01   1.644415e-02
  4.203183e+00    4.485005e-01   1.604646e-02
  4.205393e+00    4.487733e-01   1.615848e-02
  4.207604e+00    4.335127e-01   1.598971e-02
  4.209814e+00    4.448258e-01   1.630794e-02
  4.212025e+00    5.021896e-01   1.745047e-02
  4.214235e+00    4.815983e-01   1.721000e-02
  4.216445e+00    4.870289e-01   1.743216e-02
  4.218656e+00    4.625982e-01   1.711655e-02
  4.220866e+00    5.279221e-01   1.842040e-02
  4.223077e+00    4.829158e-01   1.775332e-02
  4.225287e+00    4.573477e-01   1.741316e-02
  4.227498e+00    4.924762e-01   1.821065e-02
  4.229708e+00    5.066709e-01   1.862189e-02
  4.231919e+00    5.563927e-01   1.967555e-02
  4.234129e+00    5.395402e-01   1.953767e-02
  4.236340e+00    4.635089e-01   1.826417e-02
  4.238550e+00    4.319997e-01   1.778765e-02
  4.240761e+00    5.425009e-01   2.010936e-02
  4.242971e+00    5.328691e-01   2.011262e-02
  4.245181e+00    4.808627e-01   1.928569e-02
  4.247392e+00    4.644998e-01   1.913174e-02
  4.249602e+00    4.689139e-01   1.941345e-02
  4.251813e+00    4.319393e-01   1.881569e-02
  4.254023e+00    4.956028e-01   2.035788e-02
  4.256234e+00    5.094959e-01   2.086185e-02
  4.258444e+00    4.882240e-01   2.063557e-02
  4.260655e+00    4.465365e-01   1.995201e-02
  4.262865e+00    4.824844e-01   2.097420e-02
  4.265076e+00    4.610519e-01   2.073693e-02
  4.267286e+00    4.413060e-01   2.052784e-02
  4.269496e+00    4.604494e-01   2.122481e-02
  4.271707e+00    4.666885e-01   2.163188e-02
  4.273917e+00    4.785261e-01   2.218754e-02
  4.276128e+00    4.611987e-01   2.207153e-02
  4.278338e+00    5.318493e-01   2.401846e-02
  4.280549e+00    4.311906e-01   2.193735e-02
  4.282759e+00    4.323533e-01   2.228184e-02
  4.284970e+00    4.247704e-01   2.241213e-02
  4.287180e+00    4.335210e-01   2.291418e-02
  4.289391e+00    4.001276e-01   2.217862e-02
  4.291601e+00    4.514023e-01   2.374448e-02
  4.293811e+00    4.907537e-01   2.495272e-02
  4.296022e+00    4.287151e-01   2.350825e-02
  4.298232e+00    5.479522e-01   2.680043e-02
  4.300443e+00    4.818536e-01   2.533969e-02
  4.302653e+00    5.332770e-01   2.688795e-02
  4.304864e+00    4.763050e-01   2.563161e-02
  4.307074e+00    4.039399e-01   2.381658e-02
  4.309285e+00    5.291833e-01   2.750688e-02
  4.311495e+00    3.987274e-01   2.410084e-02
  4.313706e+00    3.829616e-01   2.384057e-02
  4.315916e+00    5.524603e-01   2.891712e-02
  4.318126e+00    4.059889e-01   2.503451e-02
  4.320337e+00    4.286708e-01   2.598411e-02
  4.322547e+00    4.313026e-01   2.633997e-02
  4.324758e+00    3.358918e-01   2.348649e-02
  4.326968e+00    4.403770e-01   2.719533e-02
  4.329179e+00    4.712223e-01   2.844173e-02
  4.331389e+00    4.122626e-01   2.690981e-02
  4.333600e+00    4.219705e-01   2.754954e-02
  4.335810e+00    5.058437e-01   3.052242e-02
  4.338021e+00    5.340642e-01   3.176354e-02
  4.340231e+00    4.724216e-01   3.025014e-02
  4.342442e+00    4.455577e-01   2.977034e-02
  4.344652e+00    4.082458e-01   2.888488e-02
  4.346862e+00    3.869632e-01   2.851457e-02
  4.349073e+00    5.423188e-01   3.424807e-02
  4.351283e+00    5.016277e-01   3.343071e-02
  4.353494e+00    4.318218e-01   3.149752e-02
  4.355704e+00    3.059745e-01   2.693980e-02
  4.357915e+00    3.219359e-01   2.809256e-02
  4.360125e+00    4.564577e-01   3.402112e-02
  4.362336e+00    4.599580e-01   3.477664e-02
  4.364546e+00    5.763422e-01   3.963467e-02
  4.366757e+00    4.838178e-01   3.703777e-02
  4.368967e+00    4.424085e-01   3.612363e-02
  4.371177e+00    5.802653e-01   4.224994e-02
  4.373388e+00    5.983728e-01   4.386387e-02
  4.375598e+00    4.057865e-01   3.694418e-02
  4.377809e+00    4.139973e-01   3.826471e-02
  4.380019e+00    2.768340e-01   3.207337e-02
  4.382230e+00    3.669730e-01   3.795884e-02
  4.384440e+00    3.463481e-01   3.793864e-02
  4.386651e+00    4.388426e-01   4.402399e-02
  4.388861e+00    3.691432e-01   4.172832e-02
  4.391072e+00    4.881477e-01   4.967332e-02
  4.393282e+00    4.414804e-01   4.906433e-02
  4.395492e+00    4.812843e-01   5.336130e-02
  4.397703e+00    2.815128e-01   4.267572e-02
  4.399913e+00    2.157824e-01   3.924974e-02
  4.402124e+00    5.345910e-01   6.528793e-02
  4.404334e+00    5.866122e-01   7.269351e-02
  4.406545e+00    1.968429e-01   4.525249e-02
  4.408755e+00    2.834220e-01   5.887802e-02
  4.410966e+00    1.469702e-01   4.692057e-02
  4.413176e+00    1.174278e-01   4.749208e-02
  4.415387e+00   -7.194123e-01            nan
  4.417597e+00   -2.029266e+00            nan
  4.419807e+00    2.807437e-01   1.902519e-01
