# == pyFAI calibration ==
# Distance Sample to Detector: 0.216 m
# PONI: 1.166e-01, 1.308e-01 m
# Rotations: 0.000000 0.000000 0.000000 rad
# 
# == Fit2d calibration ==
# Distance Sample-beamCenter: 216.000 mm
# Center: x=1744.293, y=1555.000 pix
# Tilt: 0.000 deg  TiltPlanRot: 0.000 deg
# 
# Detector Eiger 9M	 PixelSize= 7.500e-05, 7.500e-05 m
#    Detector has a mask: True 
#    Detector has a dark current: False 
#    detector has a flat field: False 
# 
# Wavelength: 9.8e-11 m
# Mask applied: from detector
# Dark current applied: False
# Flat field applied: False
# Polarization factor: None
# Normalization factor: 1.0
# 
# Headers of the input frame:
# {
# "_array_data.header_convention": "SLS_1.0",
# "_array_data.header_contents": "# Detector: Dectris Eiger 9M, S/N E-18-0102\r\n# Pixel_size 75e-6 m x 75e-6 m\r\n# Silicon sensor, thickness 0.000450 m\r\n# Exposure_time 0.024997 s\r\n# Exposure_period 0.025000 s\r\n# Count_cutoff 62318 counts\r\n# Wavelength 0.980106 A\r\n# Detector_distance 0.215992 m\r\n# Beam_xy (1555, 1744) pixels\r\n# Start_angle 0.000000 deg.\r\n# Angle_increment 0.000000 deg.",
# "Content-Type": "application/octet-stream;",
# "conversions": "x-CBF_BYTE_OFFSET",
# "Content-Transfer-Encoding": "BINARY",
# "X-Binary-Size": "10166602",
# "X-Binary-ID": "1",
# "X-Binary-Element-Type": "signed 32-bit integer",
# "X-Binary-Element-Byte-Order": "LITTLE_ENDIAN",
# "Content-MD5": "sxvE7MaNT3NfOBWfkfvulA==",
# "X-Binary-Number-of-Elements": "10166590",
# "X-Binary-Size-Fastest-Dimension": "3110",
# "X-Binary-Size-Second-Dimension": "3269",
# "X-Binary-Size-Padding": "4095"
# }
# --> H:/Proxima2a_2019-04-05/RAW_DATA/C5_gel17_position5/C5_mesh_1_data.cbf/C5_mesh_1_data.cbf000097.dat
#        q_A^-1              I           sigma 
  1.105228e-03    2.259235e+00   8.133316e-01
  3.315685e-03    1.092451e+00   3.438321e-01
  5.526141e-03    1.037948e+00   2.591552e-01
  7.736597e-03    1.480763e+00   2.614948e-01
  9.947054e-03    1.307948e+00   2.166565e-01
  1.215751e-02    1.375429e+00   2.009036e-01
  1.436797e-02    1.593333e+00   1.988974e-01
  1.657842e-02    1.566448e+00   1.835703e-01
  1.878888e-02    1.418428e+00   1.640844e-01
  2.099934e-02    1.457827e+00   1.573820e-01
  2.320979e-02    1.352967e+00   1.442037e-01
  2.542025e-02    1.340537e+00   1.371668e-01
  2.763070e-02    1.396189e+00   1.342649e-01
  2.984116e-02    1.473737e+00   1.327353e-01
  3.205162e-02    1.474114e+00   1.281008e-01
  3.426207e-02    1.255268e+00   1.143255e-01
  3.647253e-02    1.395319e+00   1.168225e-01
  3.868299e-02    1.454414e+00   1.158216e-01
  4.089344e-02    1.340369e+00   1.081416e-01
  4.310390e-02    1.412227e+00   1.081126e-01
  4.531436e-02    1.444236e+00   1.066313e-01
  4.752481e-02    1.536407e+00   1.073920e-01
  4.973527e-02    1.547783e+00   1.053676e-01
  5.194572e-02    1.344711e+00   9.609866e-02
  5.415618e-02    1.422149e+00   9.678572e-02
  5.636664e-02    1.511787e+00   9.781614e-02
  5.857709e-02    1.403217e+00   9.244363e-02
  6.078755e-02    1.347842e+00   8.893582e-02
  6.299801e-02    1.434830e+00   9.013566e-02
  6.520846e-02    1.500435e+00   9.059814e-02
  6.741892e-02    1.448601e+00   8.754355e-02
  6.962938e-02    1.492443e+00   8.744100e-02
  7.183983e-02    1.610983e+00   8.943706e-02
  7.405029e-02    1.501963e+00   8.505715e-02
  7.626074e-02    1.443971e+00   8.218068e-02
  7.847120e-02    1.416983e+00   8.025207e-02
  8.068166e-02    1.438958e+00   7.975580e-02
  8.289211e-02    1.484150e+00   7.991082e-02
  8.510257e-02    1.502992e+00   7.936478e-02
  8.731303e-02    1.581383e+00   8.036803e-02
  8.952348e-02    1.553690e+00   7.867374e-02
  9.173394e-02    1.441100e+00   7.484815e-02
  9.394439e-02    1.454553e+00   7.430432e-02
  9.615485e-02    1.559723e+00   7.605249e-02
  9.836531e-02    1.589856e+00   7.591391e-02
  1.005758e-01    1.608440e+00   7.551304e-02
  1.027862e-01    1.538704e+00   7.305762e-02
  1.049967e-01    1.540231e+00   7.231906e-02
  1.072071e-01    1.560827e+00   7.204572e-02
  1.094176e-01    1.504573e+00   7.001628e-02
  1.116280e-01    1.453040e+00   6.812062e-02
  1.138385e-01    1.501092e+00   6.856096e-02
  1.160490e-01    1.624706e+00   7.064465e-02
  1.182594e-01    1.575302e+00   6.890764e-02
  1.204699e-01    1.531849e+00   6.732379e-02
  1.226803e-01    1.530984e+00   6.669293e-02
  1.248908e-01    1.511910e+00   6.568626e-02
  1.271012e-01    1.571498e+00   6.638198e-02
  1.293117e-01    1.592635e+00   6.625244e-02
  1.315222e-01    1.571325e+00   6.525087e-02
  1.337326e-01    1.639382e+00   6.609455e-02
  1.359431e-01    1.634301e+00   6.603070e-02
  1.381535e-01    1.594110e+00   6.608908e-02
  1.403640e-01    1.580329e+00   6.608692e-02
  1.425744e-01    1.630538e+00   6.723576e-02
  1.447849e-01    1.597242e+00   6.656108e-02
  1.469953e-01    1.591602e+00   6.640185e-02
  1.492058e-01    1.636482e+00   6.725328e-02
  1.514163e-01    1.589314e+00   6.616696e-02
  1.536267e-01    1.627356e+00   6.682340e-02
  1.558372e-01    1.639377e+00   6.692169e-02
  1.580476e-01    1.771829e+00   6.940380e-02
  1.602581e-01    1.736673e+00   6.853730e-02
  1.624685e-01    1.723067e+00   6.808138e-02
  1.646790e-01    1.756433e+00   6.854003e-02
  1.668895e-01    1.772387e+00   6.865175e-02
  1.690999e-01    1.778134e+00   6.855649e-02
  1.713104e-01    1.785794e+00   6.849078e-02
  1.735208e-01    1.812731e+00   6.879080e-02
  1.757313e-01    1.885333e+00   6.993499e-02
  1.779417e-01    1.934673e+00   7.061315e-02
  1.801522e-01    1.914299e+00   7.001667e-02
  1.823626e-01    1.879146e+00   6.913985e-02
  1.845731e-01    1.957439e+00   7.033691e-02
  1.867836e-01    2.011597e+00   7.106267e-02
  1.889940e-01    1.949657e+00   6.973147e-02
  1.912045e-01    1.928097e+00   6.911322e-02
  1.934149e-01    2.037284e+00   7.080545e-02
  1.956254e-01    2.007729e+00   7.005814e-02
  1.978358e-01    2.010038e+00   6.985822e-02
  2.000463e-01    2.029695e+00   6.996633e-02
  2.022568e-01    2.092379e+00   7.080535e-02
  2.044672e-01    2.041198e+00   6.969445e-02
  2.066777e-01    2.082360e+00   7.016000e-02
  2.088881e-01    2.074396e+00   6.979662e-02
  2.110986e-01    2.003872e+00   6.836466e-02
  2.133090e-01    2.009696e+00   6.824137e-02
  2.155195e-01    2.081896e+00   6.922597e-02
  2.177300e-01    2.045760e+00   6.808347e-02
  2.199404e-01    2.007586e+00   6.566808e-02
  2.221509e-01    1.964919e+00   6.389973e-02
  2.243613e-01    1.977636e+00   6.329348e-02
  2.265718e-01    2.053125e+00   6.377934e-02
  2.287822e-01    2.160518e+00   6.477854e-02
  2.309927e-01    2.191847e+00   6.465218e-02
  2.332031e-01    2.196738e+00   6.417029e-02
  2.354136e-01    2.169661e+00   6.325670e-02
  2.376241e-01    2.171968e+00   6.279909e-02
  2.398345e-01    2.198051e+00   6.270748e-02
  2.420450e-01    2.141528e+00   6.145362e-02
  2.442554e-01    2.134403e+00   6.092862e-02
  2.464659e-01    2.224008e+00   6.177685e-02
  2.486763e-01    2.237885e+00   6.156197e-02
  2.508868e-01    2.153848e+00   6.001402e-02
  2.530973e-01    2.100841e+00   5.890346e-02
  2.553077e-01    2.173519e+00   5.955023e-02
  2.575182e-01    2.202810e+00   5.959547e-02
  2.597286e-01    2.167412e+00   5.877107e-02
  2.619391e-01    2.088510e+00   5.735927e-02
  2.641495e-01    2.045223e+00   5.644755e-02
  2.663600e-01    2.129822e+00   5.728642e-02
  2.685704e-01    2.108646e+00   5.669194e-02
  2.707809e-01    2.053344e+00   5.564665e-02
  2.729914e-01    2.056531e+00   5.539959e-02
  2.752018e-01    1.977609e+00   5.404341e-02
  2.774123e-01    2.083333e+00   5.518586e-02
  2.796227e-01    2.077774e+00   5.483956e-02
  2.818332e-01    2.078958e+00   5.458155e-02
  2.840436e-01    2.043746e+00   5.385502e-02
  2.862541e-01    1.967309e+00   5.258432e-02
  2.884646e-01    1.952019e+00   5.213099e-02
  2.906750e-01    1.954466e+00   5.191632e-02
  2.928855e-01    1.976080e+00   5.196072e-02
  2.950959e-01    1.928271e+00   5.109252e-02
  2.973064e-01    1.902247e+00   5.051850e-02
  2.995168e-01    1.921170e+00   5.053921e-02
  3.017273e-01    1.865860e+00   4.958680e-02
  3.039377e-01    1.975105e+00   5.079439e-02
  3.061482e-01    1.966449e+00   5.046374e-02
  3.083587e-01    1.975575e+00   5.036176e-02
  3.105691e-01    1.967159e+00   5.003970e-02
  3.127796e-01    1.972703e+00   4.989952e-02
  3.149900e-01    1.881216e+00   4.852567e-02
  3.172005e-01    1.898038e+00   4.854282e-02
  3.194109e-01    1.936172e+00   4.882566e-02
  3.216214e-01    1.913380e+00   4.833937e-02
  3.238319e-01    1.941423e+00   4.849940e-02
  3.260423e-01    1.965804e+00   4.860860e-02
  3.282528e-01    1.937038e+00   4.805955e-02
  3.304632e-01    1.878027e+00   4.713852e-02
  3.326737e-01    1.875036e+00   4.691717e-02
  3.348841e-01    1.917331e+00   4.725941e-02
  3.370946e-01    1.891886e+00   4.676815e-02
  3.393050e-01    1.926821e+00   4.701919e-02
  3.415155e-01    1.881384e+00   4.628680e-02
  3.437260e-01    1.857417e+00   4.582056e-02
  3.459364e-01    1.914414e+00   4.634620e-02
  3.481469e-01    1.823588e+00   4.506833e-02
  3.503573e-01    1.855814e+00   4.529918e-02
  3.525678e-01    1.859219e+00   4.517913e-02
  3.547782e-01    1.867141e+00   4.511165e-02
  3.569887e-01    1.861832e+00   4.488785e-02
  3.591992e-01    1.893503e+00   4.510784e-02
  3.614096e-01    1.843889e+00   4.435864e-02
  3.636201e-01    1.810518e+00   4.380092e-02
  3.658305e-01    1.806604e+00   4.360433e-02
  3.680410e-01    1.820975e+00   4.362681e-02
  3.702514e-01    1.834242e+00   4.363823e-02
  3.724619e-01    1.778912e+00   4.282866e-02
  3.746724e-01    1.838345e+00   4.339295e-02
  3.768828e-01    1.875632e+00   4.368333e-02
  3.790933e-01    1.880019e+00   4.359189e-02
  3.813037e-01    1.853215e+00   4.313841e-02
  3.835142e-01    1.786470e+00   4.221535e-02
  3.857246e-01    1.792875e+00   4.215409e-02
  3.879351e-01    1.778819e+00   4.185261e-02
  3.901455e-01    1.767390e+00   4.158513e-02
  3.923560e-01    1.775966e+00   4.155341e-02
  3.945665e-01    1.763909e+00   4.128079e-02
  3.967769e-01    1.811689e+00   4.170513e-02
  3.989874e-01    1.841758e+00   4.191852e-02
  4.011978e-01    1.818988e+00   4.153047e-02
  4.034083e-01    1.830900e+00   4.153832e-02
  4.056187e-01    1.848943e+00   4.161391e-02
  4.078292e-01    1.811971e+00   4.107108e-02
  4.100397e-01    1.830067e+00   4.114962e-02
  4.122501e-01    1.893905e+00   4.173594e-02
  4.144606e-01    1.879774e+00   4.145665e-02
  4.166710e-01    1.859375e+00   4.110850e-02
  4.188815e-01    1.810355e+00   4.044316e-02
  4.210919e-01    1.843894e+00   4.069647e-02
  4.233024e-01    1.806564e+00   4.016392e-02
  4.255128e-01    1.833954e+00   4.035026e-02
  4.277233e-01    1.862081e+00   4.054168e-02
  4.299338e-01    1.834829e+00   4.012815e-02
  4.321442e-01    1.768135e+00   3.927935e-02
  4.343547e-01    1.795605e+00   3.947138e-02
  4.365651e-01    1.730958e+00   3.864423e-02
  4.387756e-01    1.771222e+00   3.898161e-02
  4.409860e-01    1.776650e+00   3.893314e-02
  4.431965e-01    1.776457e+00   3.882340e-02
  4.454070e-01    1.766550e+00   3.860725e-02
  4.476174e-01    1.788106e+00   3.873545e-02
  4.498279e-01    1.770447e+00   3.843885e-02
  4.520383e-01    1.761121e+00   3.823224e-02
  4.542488e-01    1.821559e+00   3.877789e-02
  4.564592e-01    1.806801e+00   3.851690e-02
  4.586697e-01    1.771620e+00   3.803882e-02
  4.608801e-01    1.739948e+00   3.759630e-02
  4.630906e-01    1.742281e+00   3.752186e-02
  4.653011e-01    1.803318e+00   3.807308e-02
  4.675115e-01    1.791899e+00   3.785240e-02
  4.697220e-01    1.704192e+00   3.681776e-02
  4.719324e-01    1.683804e+00   3.650220e-02
  4.741429e-01    1.678592e+00   3.635173e-02
  4.763533e-01    1.733205e+00   3.684366e-02
  4.785638e-01    1.705696e+00   3.645569e-02
  4.807743e-01    1.738676e+00   3.671283e-02
  4.829847e-01    1.767825e+00   3.692579e-02
  4.851952e-01    1.739166e+00   3.653258e-02
  4.874056e-01    1.734345e+00   3.638992e-02
  4.896161e-01    1.710029e+00   3.604431e-02
  4.918265e-01    1.689176e+00   3.573490e-02
  4.940370e-01    1.695731e+00   3.571576e-02
  4.962475e-01    1.735979e+00   3.604792e-02
  4.984579e-01    1.675754e+00   3.532982e-02
  5.006684e-01    1.648054e+00   3.495117e-02
  5.028788e-01    1.661462e+00   3.500801e-02
  5.050893e-01    1.694991e+00   3.527349e-02
  5.072997e-01    1.667081e+00   3.489738e-02
  5.095102e-01    1.706167e+00   3.521957e-02
  5.117206e-01    1.692635e+00   3.499620e-02
  5.139311e-01    1.690014e+00   3.488634e-02
  5.161416e-01    1.688478e+00   3.478808e-02
  5.183520e-01    1.715812e+00   3.498519e-02
  5.205625e-01    1.693199e+00   3.467248e-02
  5.227729e-01    1.666388e+00   3.431666e-02
  5.249834e-01    1.703559e+00   3.461671e-02
  5.271938e-01    1.752314e+00   3.502666e-02
  5.294043e-01    1.772060e+00   3.514217e-02
  5.316148e-01    1.788092e+00   3.521994e-02
  5.338252e-01    1.775179e+00   3.501234e-02
  5.360357e-01    1.787043e+00   3.504916e-02
  5.382461e-01    1.761138e+00   3.471555e-02
  5.404566e-01    1.786899e+00   3.488894e-02
  5.426670e-01    1.789980e+00   3.484033e-02
  5.448775e-01    1.805420e+00   3.491209e-02
  5.470879e-01    1.842002e+00   3.518538e-02
  5.492984e-01    1.828446e+00   3.497773e-02
  5.515089e-01    1.787816e+00   3.451021e-02
  5.537193e-01    1.787640e+00   3.443249e-02
  5.559298e-01    1.837375e+00   3.483160e-02
  5.581402e-01    1.807625e+00   3.447299e-02
  5.603507e-01    1.832103e+00   3.463007e-02
  5.625611e-01    1.820355e+00   3.444396e-02
  5.647716e-01    1.824739e+00   3.441052e-02
  5.669821e-01    1.806767e+00   3.416685e-02
  5.691925e-01    1.785830e+00   3.389538e-02
  5.714030e-01    1.762180e+00   3.359842e-02
  5.736134e-01    1.762814e+00   3.353298e-02
  5.758239e-01    1.797543e+00   3.378941e-02
  5.780343e-01    1.753921e+00   3.330630e-02
  5.802448e-01    1.696411e+00   3.268712e-02
  5.824552e-01    1.679426e+00   3.245484e-02
  5.846657e-01    1.646201e+00   3.206522e-02
  5.868762e-01    1.639900e+00   3.193715e-02
  5.890866e-01    1.684091e+00   3.229747e-02
  5.912971e-01    1.688651e+00   3.227420e-02
  5.935075e-01    1.658807e+00   3.192163e-02
  5.957180e-01    1.653787e+00   3.180790e-02
  5.979284e-01    1.626476e+00   3.147976e-02
  6.001389e-01    1.659792e+00   3.173578e-02
  6.023494e-01    1.652416e+00   3.160090e-02
  6.045598e-01    1.665535e+00   3.166149e-02
  6.067703e-01    1.682571e+00   3.175903e-02
  6.089807e-01    1.681475e+00   3.168483e-02
  6.111912e-01    1.686780e+00   3.167142e-02
  6.134016e-01    1.699865e+00   3.173061e-02
  6.156121e-01    1.705842e+00   3.172317e-02
  6.178226e-01    1.698854e+00   3.159545e-02
  6.200330e-01    1.668386e+00   3.124908e-02
  6.222435e-01    1.652391e+00   3.103731e-02
  6.244539e-01    1.683673e+00   3.126837e-02
  6.266644e-01    1.699537e+00   3.135406e-02
  6.288748e-01    1.740535e+00   3.166823e-02
  6.310853e-01    1.704007e+00   3.127334e-02
  6.332957e-01    1.698187e+00   3.115958e-02
  6.355062e-01    1.747182e+00   3.154451e-02
  6.377167e-01    1.667966e+00   3.076196e-02
  6.399271e-01    1.727780e+00   3.124867e-02
  6.421376e-01    1.718552e+00   3.110563e-02
  6.443480e-01    1.725770e+00   3.111160e-02
  6.465585e-01    1.714416e+00   3.095034e-02
  6.487689e-01    1.696655e+00   3.073147e-02
  6.509794e-01    1.677796e+00   3.050255e-02
  6.531899e-01    1.648739e+00   3.018041e-02
  6.554003e-01    1.670180e+00   3.031889e-02
  6.576108e-01    1.656590e+00   3.013908e-02
  6.598212e-01    1.613142e+00   2.968598e-02
  6.620317e-01    1.614799e+00   2.964613e-02
  6.642421e-01    1.613715e+00   2.958139e-02
  6.664526e-01    1.602188e+00   2.942121e-02
  6.686630e-01    1.628430e+00   2.960634e-02
  6.708735e-01    1.624138e+00   2.951306e-02
  6.730840e-01    1.636162e+00   2.956811e-02
  6.752944e-01    1.615771e+00   2.932984e-02
  6.775049e-01    1.606498e+00   2.919246e-02
  6.797153e-01    1.629957e+00   2.935157e-02
  6.819258e-01    1.649021e+00   2.946948e-02
  6.841362e-01    1.666769e+00   2.957437e-02
  6.863467e-01    1.635254e+00   2.924098e-02
  6.885572e-01    1.633378e+00   2.917182e-02
  6.907676e-01    1.648842e+00   2.925707e-02
  6.929781e-01    1.655175e+00   2.926111e-02
  6.951885e-01    1.624844e+00   2.894043e-02
  6.973990e-01    1.566788e+00   2.836846e-02
  6.996094e-01    1.604858e+00   2.866049e-02
  7.018199e-01    1.657940e+00   2.907952e-02
  7.040303e-01    1.640805e+00   2.887804e-02
  7.062408e-01    1.630651e+00   2.873813e-02
  7.084513e-01    1.592063e+00   2.834665e-02
  7.106617e-01    1.598222e+00   2.835209e-02
  7.128722e-01    1.602216e+00   2.833837e-02
  7.150826e-01    1.612862e+00   2.838336e-02
  7.172931e-01    1.612500e+00   2.833125e-02
  7.195035e-01    1.578320e+00   2.798119e-02
  7.217140e-01    1.588347e+00   2.811958e-02
  7.239245e-01    1.606096e+00   2.850527e-02
  7.261349e-01    1.580024e+00   2.838173e-02
  7.283454e-01    1.618438e+00   2.879809e-02
  7.305558e-01    1.605872e+00   2.874060e-02
  7.327663e-01    1.611687e+00   2.883558e-02
  7.349767e-01    1.611302e+00   2.884872e-02
  7.371872e-01    1.591602e+00   2.866055e-02
  7.393976e-01    1.605886e+00   2.877447e-02
  7.416081e-01    1.611230e+00   2.880598e-02
  7.438186e-01    1.603203e+00   2.858848e-02
  7.460290e-01    1.608940e+00   2.834217e-02
  7.482395e-01    1.589653e+00   2.799981e-02
  7.504499e-01    1.586489e+00   2.783513e-02
  7.526604e-01    1.585686e+00   2.771114e-02
  7.548708e-01    1.594492e+00   2.769799e-02
  7.570813e-01    1.596464e+00   2.766379e-02
  7.592918e-01    1.591038e+00   2.758137e-02
  7.615022e-01    1.626504e+00   2.785274e-02
  7.637127e-01    1.643815e+00   2.796708e-02
  7.659231e-01    1.579350e+00   2.738118e-02
  7.681336e-01    1.569198e+00   2.726147e-02
  7.703440e-01    1.570964e+00   2.724562e-02
  7.725545e-01    1.616415e+00   2.760563e-02
  7.747650e-01    1.646095e+00   2.781890e-02
  7.769754e-01    1.574562e+00   2.715504e-02
  7.791859e-01    1.595106e+00   2.727778e-02
  7.813963e-01    1.602903e+00   2.729139e-02
  7.836068e-01    1.567003e+00   2.693234e-02
  7.858172e-01    1.601575e+00   2.717688e-02
  7.880277e-01    1.649034e+00   2.752416e-02
  7.902381e-01    1.709388e+00   2.797238e-02
  7.924486e-01    1.739110e+00   2.816230e-02
  7.946591e-01    1.683408e+00   2.765809e-02
  7.968695e-01    1.633294e+00   2.719455e-02
  7.990800e-01    1.632159e+00   2.713650e-02
  8.012904e-01    1.644285e+00   2.719000e-02
  8.035009e-01    1.675505e+00   2.739808e-02
  8.057113e-01    1.678949e+00   2.737880e-02
  8.079218e-01    1.651934e+00   2.711078e-02
  8.101323e-01    1.629623e+00   2.688137e-02
  8.123427e-01    1.599144e+00   2.658338e-02
  8.145532e-01    1.621901e+00   2.672606e-02
  8.167636e-01    1.675163e+00   2.711566e-02
  8.189741e-01    1.674271e+00   2.706327e-02
  8.211845e-01    1.687182e+00   2.712187e-02
  8.233950e-01    1.683386e+00   2.704730e-02
  8.256054e-01    1.673339e+00   2.692178e-02
  8.278159e-01    1.655234e+00   2.673153e-02
  8.300264e-01    1.656976e+00   2.670226e-02
  8.322368e-01    1.677406e+00   2.682273e-02
  8.344473e-01    1.676347e+00   2.677041e-02
  8.366577e-01    1.666574e+00   2.664933e-02
  8.388682e-01    1.664270e+00   2.658831e-02
  8.410786e-01    1.662401e+00   2.653104e-02
  8.432891e-01    1.665343e+00   2.651232e-02
  8.454996e-01    1.671475e+00   2.651904e-02
  8.477100e-01    1.661792e+00   2.640017e-02
  8.499205e-01    1.630694e+00   2.611091e-02
  8.521309e-01    1.612485e+00   2.592422e-02
  8.543414e-01    1.645958e+00   2.615105e-02
  8.565518e-01    1.631358e+00   2.599429e-02
  8.587623e-01    1.664645e+00   2.621724e-02
  8.609727e-01    1.698590e+00   2.644216e-02
  8.631832e-01    1.610607e+00   2.570854e-02
  8.653937e-01    1.622605e+00   2.576444e-02
  8.676041e-01    1.616802e+00   2.567953e-02
  8.698146e-01    1.620562e+00   2.567009e-02
  8.720250e-01    1.629693e+00   2.570305e-02
  8.742355e-01    1.621495e+00   2.559931e-02
  8.764459e-01    1.611136e+00   2.547848e-02
  8.786564e-01    1.617420e+00   2.549006e-02
  8.808669e-01    1.583972e+00   2.518688e-02
  8.830773e-01    1.596467e+00   2.524796e-02
  8.852878e-01    1.594301e+00   2.519299e-02
  8.874982e-01    1.563037e+00   2.490856e-02
  8.897087e-01    1.584000e+00   2.503754e-02
  8.919191e-01    1.601628e+00   2.513872e-02
  8.941296e-01    1.587843e+00   2.499316e-02
  8.963401e-01    1.590448e+00   2.497734e-02
  8.985505e-01    1.612717e+00   2.511448e-02
  9.007610e-01    1.612622e+00   2.507685e-02
  9.029714e-01    1.616244e+00   2.506898e-02
  9.051819e-01    1.617009e+00   2.503750e-02
  9.073923e-01    1.607229e+00   2.492499e-02
  9.096028e-01    1.667287e+00   2.535078e-02
  9.118132e-01    1.636478e+00   2.507886e-02
  9.140237e-01    1.606337e+00   2.481011e-02
  9.162342e-01    1.628271e+00   2.494407e-02
  9.184446e-01    1.596351e+00   2.466264e-02
  9.206551e-01    1.644215e+00   2.499355e-02
  9.228655e-01    1.672935e+00   2.517487e-02
  9.250760e-01    1.621606e+00   2.475010e-02
  9.272864e-01    1.593149e+00   2.449780e-02
  9.294969e-01    1.631731e+00   2.475652e-02
  9.317074e-01    1.645059e+00   2.482231e-02
  9.339178e-01    1.649461e+00   2.482154e-02
  9.361283e-01    1.644443e+00   2.474723e-02
  9.383387e-01    1.649806e+00   2.475383e-02
  9.405492e-01    1.655144e+00   2.475921e-02
  9.427596e-01    1.689682e+00   2.498018e-02
  9.449701e-01    1.683520e+00   2.490074e-02
  9.471805e-01    1.666410e+00   2.473877e-02
  9.493910e-01    1.680949e+00   2.481237e-02
  9.516015e-01    1.716894e+00   2.504123e-02
  9.538119e-01    1.740834e+00   2.518067e-02
  9.560224e-01    1.747063e+00   2.519017e-02
  9.582328e-01    1.746277e+00   2.515072e-02
  9.604433e-01    1.782622e+00   2.537512e-02
  9.626537e-01    1.780825e+00   2.532822e-02
  9.648642e-01    1.804388e+00   2.546031e-02
  9.670747e-01    1.828833e+00   2.559684e-02
  9.692851e-01    1.820046e+00   2.550136e-02
  9.714956e-01    1.840458e+00   2.560777e-02
  9.737060e-01    1.857873e+00   2.569486e-02
  9.759165e-01    1.829001e+00   2.545847e-02
  9.781269e-01    1.864691e+00   2.567204e-02
  9.803374e-01    1.868218e+00   2.566076e-02
  9.825478e-01    1.846146e+00   2.547509e-02
  9.847583e-01    1.827089e+00   2.530885e-02
  9.869688e-01    1.802711e+00   2.510578e-02
  9.891792e-01    1.793983e+00   2.501165e-02
  9.913897e-01    1.770221e+00   2.481193e-02
  9.936001e-01    1.761627e+00   2.471921e-02
  9.958106e-01    1.718413e+00   2.438099e-02
  9.980210e-01    1.656823e+00   2.390898e-02
  1.000231e+00    1.675660e+00   2.417623e-02
  1.002442e+00    1.648737e+00   2.410866e-02
  1.004652e+00    1.606544e+00   2.386455e-02
  1.006863e+00    1.618536e+00   2.400315e-02
  1.009073e+00    1.611646e+00   2.398870e-02
  1.011284e+00    1.568595e+00   2.369773e-02
  1.013494e+00    1.598690e+00   2.394773e-02
  1.015705e+00    1.587322e+00   2.388498e-02
  1.017915e+00    1.603241e+00   2.402099e-02
  1.020126e+00    1.564874e+00   2.374789e-02
  1.022336e+00    1.520543e+00   2.342062e-02
  1.024547e+00    1.525178e+00   2.346740e-02
  1.026757e+00    1.556110e+00   2.371257e-02
  1.028967e+00    1.565043e+00   2.378827e-02
  1.031178e+00    1.549043e+00   2.367256e-02
  1.033388e+00    1.547877e+00   2.366872e-02
  1.035599e+00    1.557679e+00   2.374700e-02
  1.037809e+00    1.542859e+00   2.363705e-02
  1.040020e+00    1.544160e+00   2.364829e-02
  1.042230e+00    1.549738e+00   2.369293e-02
  1.044441e+00    1.535833e+00   2.358617e-02
  1.046651e+00    1.535372e+00   2.358280e-02
  1.048862e+00    1.528895e+00   2.353221e-02
  1.051072e+00    1.544011e+00   2.364586e-02
  1.053282e+00    1.596218e+00   2.404131e-02
  1.055493e+00    1.561987e+00   2.377776e-02
  1.057703e+00    1.543482e+00   2.363494e-02
  1.059914e+00    1.545824e+00   2.364851e-02
  1.062124e+00    1.536935e+00   2.357631e-02
  1.064335e+00    1.528798e+00   2.351033e-02
  1.066545e+00    1.531187e+00   2.352260e-02
  1.068756e+00    1.486922e+00   2.317636e-02
  1.070966e+00    1.471366e+00   2.304829e-02
  1.073177e+00    1.460852e+00   2.295973e-02
  1.075387e+00    1.482449e+00   2.312360e-02
  1.077597e+00    1.461206e+00   2.295008e-02
  1.079808e+00    1.442084e+00   2.266769e-02
  1.082018e+00    1.436901e+00   2.243953e-02
  1.084229e+00    1.429205e+00   2.227049e-02
  1.086439e+00    1.468613e+00   2.248759e-02
  1.088650e+00    1.476449e+00   2.247129e-02
  1.090860e+00    1.471900e+00   2.236860e-02
  1.093071e+00    1.444201e+00   2.209508e-02
  1.095281e+00    1.440753e+00   2.201154e-02
  1.097492e+00    1.434992e+00   2.191276e-02
  1.099702e+00    1.442463e+00   2.191832e-02
  1.101912e+00    1.417656e+00   2.168056e-02
  1.104123e+00    1.394339e+00   2.145397e-02
  1.106333e+00    1.418261e+00   2.159305e-02
  1.108544e+00    1.444187e+00   2.174503e-02
  1.110754e+00    1.445376e+00   2.171068e-02
  1.112965e+00    1.453881e+00   2.173349e-02
  1.115175e+00    1.425165e+00   2.147654e-02
  1.117386e+00    1.415826e+00   2.136676e-02
  1.119596e+00    1.401024e+00   2.121708e-02
  1.121807e+00    1.370688e+00   2.094783e-02
  1.124017e+00    1.419633e+00   2.128173e-02
  1.126228e+00    1.380430e+00   2.095040e-02
  1.128438e+00    1.402448e+00   2.108002e-02
  1.130648e+00    1.379945e+00   2.087615e-02
  1.132859e+00    1.392196e+00   2.093428e-02
  1.135069e+00    1.393114e+00   2.090648e-02
  1.137280e+00    1.381054e+00   2.078288e-02
  1.139490e+00    1.401026e+00   2.089939e-02
  1.141701e+00    1.390929e+00   2.079075e-02
  1.143911e+00    1.413441e+00   2.092611e-02
  1.146122e+00    1.391445e+00   2.073053e-02
  1.148332e+00    1.375108e+00   2.057664e-02
  1.150543e+00    1.363576e+00   2.045950e-02
  1.152753e+00    1.354035e+00   2.035720e-02
  1.154963e+00    1.366971e+00   2.042324e-02
  1.157174e+00    1.364161e+00   2.037219e-02
  1.159384e+00    1.367849e+00   2.036989e-02
  1.161595e+00    1.407531e+00   2.063300e-02
  1.163805e+00    1.422233e+00   2.071065e-02
  1.166016e+00    1.410350e+00   2.059408e-02
  1.168226e+00    1.397872e+00   2.047347e-02
  1.170437e+00    1.382256e+00   2.033001e-02
  1.172647e+00    1.384227e+00   2.031540e-02
  1.174858e+00    1.405102e+00   2.043949e-02
  1.177068e+00    1.413812e+00   2.047398e-02
  1.179278e+00    1.381415e+00   2.020927e-02
  1.181489e+00    1.380233e+00   2.017339e-02
  1.183699e+00    1.400626e+00   2.029389e-02
  1.185910e+00    1.395957e+00   2.023188e-02
  1.188120e+00    1.344946e+00   1.983222e-02
  1.190331e+00    1.332142e+00   1.971104e-02
  1.192541e+00    1.366249e+00   1.993427e-02
  1.194752e+00    1.392449e+00   2.009708e-02
  1.196962e+00    1.360691e+00   1.984075e-02
  1.199173e+00    1.358223e+00   1.979615e-02
  1.201383e+00    1.386089e+00   1.997068e-02
  1.203593e+00    1.358926e+00   1.974914e-02
  1.205804e+00    1.349788e+00   1.965670e-02
  1.208014e+00    1.372543e+00   1.979462e-02
  1.210225e+00    1.370818e+00   1.975665e-02
  1.212435e+00    1.441149e+00   2.023150e-02
  1.214646e+00    1.462247e+00   2.035192e-02
  1.216856e+00    1.405248e+00   1.992532e-02
  1.219067e+00    1.398733e+00   1.985417e-02
  1.221277e+00    1.361411e+00   1.956237e-02
  1.223488e+00    1.347253e+00   1.943466e-02
  1.225698e+00    1.380053e+00   1.964260e-02
  1.227909e+00    1.378401e+00   1.960037e-02
  1.230119e+00    1.389828e+00   1.964912e-02
  1.232329e+00    1.399829e+00   1.968842e-02
  1.234540e+00    1.353035e+00   1.932622e-02
  1.236750e+00    1.373659e+00   1.944241e-02
  1.238961e+00    1.383140e+00   1.948211e-02
  1.241171e+00    1.361802e+00   1.930695e-02
  1.243382e+00    1.374302e+00   1.937162e-02
  1.245592e+00    1.455310e+00   1.990934e-02
  1.247803e+00    1.532197e+00   2.040332e-02
  1.250013e+00    1.555428e+00   2.053214e-02
  1.252224e+00    1.589284e+00   2.072917e-02
  1.254434e+00    1.585053e+00   2.067586e-02
  1.256644e+00    1.501734e+00   2.010064e-02
  1.258855e+00    1.431710e+00   1.960244e-02
  1.261065e+00    1.400673e+00   1.936499e-02
  1.263276e+00    1.396037e+00   1.930957e-02
  1.265486e+00    1.396992e+00   1.929290e-02
  1.267697e+00    1.399696e+00   1.928813e-02
  1.269907e+00    1.396928e+00   1.924597e-02
  1.272118e+00    1.372897e+00   1.905694e-02
  1.274328e+00    1.387318e+00   1.913371e-02
  1.276539e+00    1.422238e+00   1.934963e-02
  1.278749e+00    1.482612e+00   1.973268e-02
  1.280959e+00    1.585502e+00   2.038148e-02
  1.283170e+00    1.570303e+00   2.025943e-02
  1.285380e+00    1.482959e+00   1.966439e-02
  1.287591e+00    1.416018e+00   1.919287e-02
  1.289801e+00    1.358717e+00   1.877922e-02
  1.292012e+00    1.355112e+00   1.873717e-02
  1.294222e+00    1.342467e+00   1.863332e-02
  1.296433e+00    1.376118e+00   1.884969e-02
  1.298643e+00    1.376901e+00   1.883840e-02
  1.300854e+00    1.384076e+00   1.887082e-02
  1.303064e+00    1.370800e+00   1.876072e-02
  1.305274e+00    1.340472e+00   1.853066e-02
  1.307485e+00    1.361455e+00   1.865348e-02
  1.309695e+00    1.380812e+00   1.876314e-02
  1.311906e+00    1.355469e+00   1.856841e-02
  1.314116e+00    1.367477e+00   1.862954e-02
  1.316327e+00    1.376524e+00   1.866917e-02
  1.318537e+00    1.368244e+00   1.859090e-02
  1.320748e+00    1.373178e+00   1.860265e-02
  1.322958e+00    1.362916e+00   1.851240e-02
  1.325169e+00    1.371883e+00   1.855200e-02
  1.327379e+00    1.366130e+00   1.849112e-02
  1.329589e+00    1.383348e+00   1.858595e-02
  1.331800e+00    1.385349e+00   1.857844e-02
  1.334010e+00    1.372926e+00   1.847411e-02
  1.336221e+00    1.382866e+00   1.851885e-02
  1.338431e+00    1.360486e+00   1.834746e-02
  1.340642e+00    1.377379e+00   1.852580e-02
  1.342852e+00    1.378882e+00   1.863767e-02
  1.345063e+00    1.360968e+00   1.856589e-02
  1.347273e+00    1.364059e+00   1.862238e-02
  1.349484e+00    1.363589e+00   1.864699e-02
  1.351694e+00    1.360350e+00   1.864762e-02
  1.353905e+00    1.357269e+00   1.864455e-02
  1.356115e+00    1.341309e+00   1.854960e-02
  1.358325e+00    1.344988e+00   1.858830e-02
  1.360536e+00    1.364017e+00   1.873104e-02
  1.362746e+00    1.336437e+00   1.855021e-02
  1.364957e+00    1.378064e+00   1.884463e-02
  1.367167e+00    1.369489e+00   1.879312e-02
  1.369378e+00    1.344713e+00   1.862838e-02
  1.371588e+00    1.336961e+00   1.857970e-02
  1.373799e+00    1.377388e+00   1.886226e-02
  1.376009e+00    1.347674e+00   1.866110e-02
  1.378220e+00    1.342072e+00   1.862481e-02
  1.380430e+00    1.321540e+00   1.848449e-02
  1.382640e+00    1.313806e+00   1.843121e-02
  1.384851e+00    1.338267e+00   1.860289e-02
  1.387061e+00    1.317789e+00   1.846032e-02
  1.389272e+00    1.328392e+00   1.853462e-02
  1.391482e+00    1.320954e+00   1.848201e-02
  1.393693e+00    1.293207e+00   1.828597e-02
  1.395903e+00    1.302913e+00   1.835296e-02
  1.398114e+00    1.293706e+00   1.828662e-02
  1.400324e+00    1.307500e+00   1.838170e-02
  1.402535e+00    1.311918e+00   1.841037e-02
  1.404745e+00    1.297452e+00   1.830623e-02
  1.406955e+00    1.286775e+00   1.822803e-02
  1.409166e+00    1.273075e+00   1.812743e-02
  1.411376e+00    1.273313e+00   1.812598e-02
  1.413587e+00    1.315558e+00   1.842036e-02
  1.415797e+00    1.269147e+00   1.808899e-02
  1.418008e+00    1.261643e+00   1.799368e-02
  1.420218e+00    1.270817e+00   1.790920e-02
  1.422429e+00    1.251191e+00   1.768572e-02
  1.424639e+00    1.258747e+00   1.767461e-02
  1.426850e+00    1.295438e+00   1.787511e-02
  1.429060e+00    1.295062e+00   1.782307e-02
  1.431270e+00    1.310900e+00   1.788670e-02
  1.433481e+00    1.294777e+00   1.773500e-02
  1.435691e+00    1.271114e+00   1.753376e-02
  1.437902e+00    1.274810e+00   1.752268e-02
  1.440112e+00    1.291465e+00   1.760114e-02
  1.442323e+00    1.303404e+00   1.764884e-02
  1.444533e+00    1.306715e+00   1.763823e-02
  1.446744e+00    1.297835e+00   1.754674e-02
  1.448954e+00    1.266462e+00   1.730319e-02
  1.451165e+00    1.280923e+00   1.737182e-02
  1.453375e+00    1.280394e+00   1.734005e-02
  1.455586e+00    1.303047e+00   1.746426e-02
  1.457796e+00    1.276058e+00   1.725488e-02
  1.460006e+00    1.269338e+00   1.718213e-02
  1.462217e+00    1.285620e+00   1.726559e-02
  1.464427e+00    1.281128e+00   1.720969e-02
  1.466638e+00    1.270584e+00   1.711338e-02
  1.468848e+00    1.245587e+00   1.691911e-02
  1.471059e+00    1.278261e+00   1.711439e-02
  1.473269e+00    1.286639e+00   1.714586e-02
  1.475480e+00    1.258829e+00   1.693587e-02
  1.477690e+00    1.277546e+00   1.703738e-02
  1.479901e+00    1.268339e+00   1.695205e-02
  1.482111e+00    1.262924e+00   1.689254e-02
  1.484321e+00    1.253883e+00   1.680896e-02
  1.486532e+00    1.246226e+00   1.673541e-02
  1.488742e+00    1.242333e+00   1.668680e-02
  1.490953e+00    1.260410e+00   1.678520e-02
  1.493163e+00    1.264599e+00   1.679077e-02
  1.495374e+00    1.275280e+00   1.683995e-02
  1.497584e+00    1.286197e+00   1.688999e-02
  1.499795e+00    1.298159e+00   1.694639e-02
  1.502005e+00    1.274789e+00   1.677136e-02
  1.504216e+00    1.247180e+00   1.656781e-02
  1.506426e+00    1.263301e+00   1.665367e-02
  1.508636e+00    1.250800e+00   1.655068e-02
  1.510847e+00    1.267258e+00   1.663730e-02
  1.513057e+00    1.248283e+00   1.648727e-02
  1.515268e+00    1.255073e+00   1.650631e-02
  1.517478e+00    1.282438e+00   1.665987e-02
  1.519689e+00    1.282142e+00   1.663272e-02
  1.521899e+00    1.267576e+00   1.651472e-02
  1.524110e+00    1.266870e+00   1.648967e-02
  1.526320e+00    1.274243e+00   1.651784e-02
  1.528531e+00    1.277636e+00   1.651984e-02
  1.530741e+00    1.279565e+00   1.651293e-02
  1.532951e+00    1.258116e+00   1.635430e-02
  1.535162e+00    1.252653e+00   1.640546e-02
  1.537372e+00    1.230171e+00   1.632397e-02
  1.539583e+00    1.266019e+00   1.659457e-02
  1.541793e+00    1.261387e+00   1.657118e-02
  1.544004e+00    1.287778e+00   1.674390e-02
  1.546214e+00    1.246579e+00   1.647239e-02
  1.548425e+00    1.232113e+00   1.637679e-02
  1.550635e+00    1.245513e+00   1.647527e-02
  1.552846e+00    1.259757e+00   1.657892e-02
  1.555056e+00    1.277111e+00   1.665072e-02
  1.557266e+00    1.268895e+00   1.648555e-02
  1.559477e+00    1.246537e+00   1.628049e-02
  1.561687e+00    1.259061e+00   1.633122e-02
  1.563898e+00    1.252135e+00   1.626903e-02
  1.566108e+00    1.247350e+00   1.622194e-02
  1.568319e+00    1.257478e+00   1.627195e-02
  1.570529e+00    1.270351e+00   1.632965e-02
  1.572740e+00    1.266654e+00   1.627800e-02
  1.574950e+00    1.264433e+00   1.623720e-02
  1.577161e+00    1.266480e+00   1.622464e-02
  1.579371e+00    1.273852e+00   1.624785e-02
  1.581582e+00    1.252293e+00   1.608996e-02
  1.583792e+00    1.259430e+00   1.611759e-02
  1.586002e+00    1.263535e+00   1.612609e-02
  1.588213e+00    1.274376e+00   1.617766e-02
  1.590423e+00    1.283707e+00   1.621640e-02
  1.592634e+00    1.289515e+00   1.623103e-02
  1.594844e+00    1.264429e+00   1.605081e-02
  1.597055e+00    1.243918e+00   1.589958e-02
  1.599265e+00    1.240548e+00   1.585730e-02
  1.601476e+00    1.261934e+00   1.597293e-02
  1.603686e+00    1.251481e+00   1.588679e-02
  1.605897e+00    1.227799e+00   1.571569e-02
  1.608107e+00    1.248019e+00   1.582490e-02
  1.610317e+00    1.307114e+00   1.617538e-02
  1.612528e+00    1.352803e+00   1.643559e-02
  1.614738e+00    1.406371e+00   1.673758e-02
  1.616949e+00    1.439136e+00   1.691091e-02
  1.619159e+00    1.362164e+00   1.643272e-02
  1.621370e+00    1.294663e+00   1.600136e-02
  1.623580e+00    1.256196e+00   1.574319e-02
  1.625791e+00    1.218650e+00   1.548779e-02
  1.628001e+00    1.223641e+00   1.550106e-02
  1.630212e+00    1.199008e+00   1.532644e-02
  1.632422e+00    1.178337e+00   1.517591e-02
  1.634632e+00    1.191714e+00   1.524442e-02
  1.636843e+00    1.196266e+00   1.525584e-02
  1.639053e+00    1.199946e+00   1.526180e-02
  1.641264e+00    1.201946e+00   1.525719e-02
  1.643474e+00    1.180704e+00   1.510425e-02
  1.645685e+00    1.158009e+00   1.494171e-02
  1.647895e+00    1.133603e+00   1.476698e-02
  1.650106e+00    1.155170e+00   1.488975e-02
  1.652316e+00    1.138944e+00   1.476841e-02
  1.654527e+00    1.137271e+00   1.474091e-02
  1.656737e+00    1.149893e+00   1.480583e-02
  1.658947e+00    1.126370e+00   1.463738e-02
  1.661158e+00    1.121115e+00   1.458695e-02
  1.663368e+00    1.126845e+00   1.460813e-02
  1.665579e+00    1.137198e+00   1.465881e-02
  1.667789e+00    1.151588e+00   1.473476e-02
  1.670000e+00    1.186842e+00   1.494262e-02
  1.672210e+00    1.230873e+00   1.520053e-02
  1.674421e+00    1.258379e+00   1.535311e-02
  1.676631e+00    1.235141e+00   1.519388e-02
  1.678842e+00    1.207784e+00   1.500814e-02
  1.681052e+00    1.180452e+00   1.482136e-02
  1.683263e+00    1.122658e+00   1.443865e-02
  1.685473e+00    1.128999e+00   1.446387e-02
  1.687683e+00    1.183012e+00   1.478973e-02
  1.689894e+00    1.166691e+00   1.467095e-02
  1.692104e+00    1.176898e+00   1.471939e-02
  1.694315e+00    1.124410e+00   1.437258e-02
  1.696525e+00    1.063306e+00   1.396148e-02
  1.698736e+00    1.093524e+00   1.414345e-02
  1.700946e+00    1.067908e+00   1.396163e-02
  1.703157e+00    1.050151e+00   1.383048e-02
  1.705367e+00    1.041015e+00   1.375576e-02
  1.707578e+00    1.038836e+00   1.372685e-02
  1.709788e+00    1.022993e+00   1.360782e-02
  1.711998e+00    1.032733e+00   1.365750e-02
  1.714209e+00    1.046728e+00   1.373524e-02
  1.716419e+00    1.046449e+00   1.371906e-02
  1.718630e+00    1.051969e+00   1.374080e-02
  1.720840e+00    1.046050e+00   1.368778e-02
  1.723051e+00    1.037623e+00   1.361858e-02
  1.725261e+00    1.009478e+00   1.341803e-02
  1.727472e+00    9.860905e-01   1.324772e-02
  1.729682e+00    1.010447e+00   1.339690e-02
  1.731893e+00    1.011840e+00   1.339223e-02
  1.734103e+00    1.011180e+00   1.337405e-02
  1.736313e+00    9.982249e-01   1.327415e-02
  1.738524e+00    9.900131e-01   1.320569e-02
  1.740734e+00    9.756274e-01   1.309586e-02
  1.742945e+00    9.941087e-01   1.320587e-02
  1.745155e+00    9.989808e-01   1.322470e-02
  1.747366e+00    9.873493e-01   1.313370e-02
  1.749576e+00    9.798128e-01   1.306984e-02
  1.751787e+00    9.757773e-01   1.302959e-02
  1.753997e+00    9.714789e-01   1.298754e-02
  1.756208e+00    9.694136e-01   1.296058e-02
  1.758418e+00    9.690049e-01   1.294473e-02
  1.760628e+00    9.757934e-01   1.297662e-02
  1.762839e+00    9.599054e-01   1.285735e-02
  1.765049e+00    9.399727e-01   1.271019e-02
  1.767260e+00    9.622862e-01   1.284734e-02
  1.769470e+00    9.263573e-01   1.259244e-02
  1.771681e+00    9.376794e-01   1.265611e-02
  1.773891e+00    9.389021e-01   1.265138e-02
  1.776102e+00    9.253295e-01   1.254689e-02
  1.778312e+00    9.412581e-01   1.264171e-02
  1.780523e+00    9.349504e-01   1.258659e-02
  1.782733e+00    9.426372e-01   1.262551e-02
  1.784944e+00    9.488856e-01   1.265431e-02
  1.787154e+00    9.343284e-01   1.254435e-02
  1.789364e+00    9.092685e-01   1.236262e-02
  1.791575e+00    9.176810e-01   1.240720e-02
  1.793785e+00    9.344351e-01   1.250746e-02
  1.795996e+00    9.126558e-01   1.234841e-02
  1.798206e+00    9.144115e-01   1.234777e-02
  1.800417e+00    8.979926e-01   1.222388e-02
  1.802627e+00    9.041317e-01   1.225369e-02
  1.804838e+00    9.284960e-01   1.240550e-02
  1.807048e+00    9.205251e-01   1.233920e-02
  1.809259e+00    9.316106e-01   1.239951e-02
  1.811469e+00    9.168225e-01   1.228565e-02
  1.813679e+00    8.932438e-01   1.211172e-02
  1.815890e+00    8.916769e-01   1.208639e-02
  1.818100e+00    8.943142e-01   1.208918e-02
  1.820311e+00    8.980365e-01   1.209950e-02
  1.822521e+00    8.777543e-01   1.194735e-02
  1.824732e+00    8.967220e-01   1.206086e-02
  1.826942e+00    9.271448e-01   1.225114e-02
  1.829153e+00    9.445608e-01   1.235360e-02
  1.831363e+00    9.387882e-01   1.230341e-02
  1.833574e+00    9.148786e-01   1.213382e-02
  1.835784e+00    8.936685e-01   1.198083e-02
  1.837994e+00    8.655098e-01   1.177892e-02
  1.840205e+00    8.596569e-01   1.172796e-02
  1.842415e+00    8.602389e-01   1.172022e-02
  1.844626e+00    8.764070e-01   1.181827e-02
  1.846836e+00    8.712082e-01   1.177171e-02
  1.849047e+00    8.598607e-01   1.168324e-02
  1.851257e+00    8.544652e-01   1.163699e-02
  1.853468e+00    8.609303e-01   1.167214e-02
  1.855678e+00    8.475170e-01   1.157204e-02
  1.857889e+00    8.604327e-01   1.165138e-02
  1.860099e+00    8.558405e-01   1.161162e-02
  1.862309e+00    8.531127e-01   1.158460e-02
  1.864520e+00    8.630350e-01   1.164318e-02
  1.866730e+00    8.568707e-01   1.159212e-02
  1.868941e+00    8.477163e-01   1.151912e-02
  1.871151e+00    8.441379e-01   1.148344e-02
  1.873362e+00    8.517357e-01   1.152364e-02
  1.875572e+00    8.579103e-01   1.155436e-02
  1.877783e+00    8.491784e-01   1.148396e-02
  1.879993e+00    8.439628e-01   1.143751e-02
  1.882204e+00    8.373362e-01   1.138167e-02
  1.884414e+00    8.479303e-01   1.144232e-02
  1.886624e+00    8.578281e-01   1.149778e-02
  1.888835e+00    8.284572e-01   1.128834e-02
  1.891045e+00    8.171254e-01   1.120012e-02
  1.893256e+00    8.202886e-01   1.121082e-02
  1.895466e+00    8.410113e-01   1.134035e-02
  1.897677e+00    8.339014e-01   1.128141e-02
  1.899887e+00    8.347338e-01   1.127604e-02
  1.902098e+00    8.331149e-01   1.125426e-02
  1.904308e+00    8.146739e-01   1.111852e-02
  1.906519e+00    8.251795e-01   1.117916e-02
  1.908729e+00    8.315917e-01   1.121190e-02
  1.910940e+00    8.368074e-01   1.123581e-02
  1.913150e+00    8.322367e-01   1.119446e-02
  1.915360e+00    8.306655e-01   1.117322e-02
  1.917571e+00    8.468164e-01   1.127030e-02
  1.919781e+00    8.335683e-01   1.117104e-02
  1.921992e+00    8.173782e-01   1.105140e-02
  1.924202e+00    8.200747e-01   1.105885e-02
  1.926413e+00    8.057241e-01   1.095142e-02
  1.928623e+00    8.134212e-01   1.099306e-02
  1.930834e+00    8.175631e-01   1.101056e-02
  1.933044e+00    8.232316e-01   1.103792e-02
  1.935255e+00    8.347286e-01   1.110425e-02
  1.937465e+00    8.192297e-01   1.099021e-02
  1.939675e+00    8.093883e-01   1.091314e-02
  1.941886e+00    8.039072e-01   1.086584e-02
  1.944096e+00    7.966996e-01   1.080688e-02
  1.946307e+00    8.057993e-01   1.085805e-02
  1.948517e+00    7.934816e-01   1.076436e-02
  1.950728e+00    8.045644e-01   1.082897e-02
  1.952938e+00    8.035492e-01   1.081202e-02
  1.955149e+00    8.032221e-01   1.079955e-02
  1.957359e+00    7.798640e-01   1.063141e-02
  1.959570e+00    7.995971e-01   1.075416e-02
  1.961780e+00    7.816169e-01   1.062275e-02
  1.963990e+00    7.829987e-01   1.062205e-02
  1.966201e+00    7.920648e-01   1.067329e-02
  1.968411e+00    8.075503e-01   1.076687e-02
  1.970622e+00    8.197329e-01   1.083747e-02
  1.972832e+00    8.052664e-01   1.073136e-02
  1.975043e+00    7.965744e-01   1.066315e-02
  1.977253e+00    7.970318e-01   1.065620e-02
  1.979464e+00    8.094714e-01   1.072882e-02
  1.981674e+00    7.970687e-01   1.063598e-02
  1.983885e+00    7.812458e-01   1.051986e-02
  1.986095e+00    7.650666e-01   1.040074e-02
  1.988305e+00    8.003395e-01   1.062775e-02
  1.990516e+00    8.116848e-01   1.069271e-02
  1.992726e+00    8.360363e-01   1.084189e-02
  1.994937e+00    8.341761e-01   1.081934e-02
  1.997147e+00    8.231713e-01   1.073771e-02
  1.999358e+00    8.347317e-01   1.080261e-02
  2.001568e+00    8.554471e-01   1.092445e-02
  2.003779e+00    8.481594e-01   1.086537e-02
  2.005989e+00    8.217691e-01   1.068258e-02
  2.008200e+00    8.071726e-01   1.057547e-02
  2.010410e+00    8.033291e-01   1.053826e-02
  2.012621e+00    7.986740e-01   1.049576e-02
  2.014831e+00    7.745346e-01   1.032439e-02
  2.017041e+00    7.631104e-01   1.023762e-02
  2.019252e+00    7.797775e-01   1.033876e-02
  2.021462e+00    7.707005e-01   1.026888e-02
  2.023673e+00    7.636653e-01   1.021251e-02
  2.025883e+00    7.638106e-01   1.020395e-02
  2.028094e+00    7.686486e-01   1.022653e-02
  2.030304e+00    7.813210e-01   1.030084e-02
  2.032515e+00    7.836575e-01   1.030678e-02
  2.034725e+00    7.830654e-01   1.029333e-02
  2.036936e+00    7.586423e-01   1.012217e-02
  2.039146e+00    7.643300e-01   1.015044e-02
  2.041356e+00    7.738231e-01   1.020351e-02
  2.043567e+00    7.760538e-01   1.020878e-02
  2.045777e+00    7.720572e-01   1.017312e-02
  2.047988e+00    7.575721e-01   1.006784e-02
  2.050198e+00    7.583400e-01   1.006448e-02
  2.052409e+00    7.658892e-01   1.010674e-02
  2.054619e+00    7.662296e-01   1.010153e-02
  2.056830e+00    7.664573e-01   1.009580e-02
  2.059040e+00    7.654892e-01   1.008182e-02
  2.061251e+00    7.798059e-01   1.016826e-02
  2.063461e+00    8.132814e-01   1.037632e-02
  2.065671e+00    7.823721e-01   1.016834e-02
  2.067882e+00    7.724405e-01   1.009443e-02
  2.070092e+00    7.448661e-01   9.903448e-03
  2.072303e+00    7.491755e-01   9.922888e-03
  2.074513e+00    7.350947e-01   9.819939e-03
  2.076724e+00    7.487682e-01   9.901348e-03
  2.078934e+00    7.585934e-01   9.957013e-03
  2.081145e+00    7.540192e-01   9.917802e-03
  2.083355e+00    7.520868e-01   9.895834e-03
  2.085566e+00    7.808835e-01   1.007436e-02
  2.087776e+00    7.797921e-01   1.005757e-02
  2.089986e+00    8.196361e-01   1.030203e-02
  2.092197e+00    8.546587e-01   1.051021e-02
  2.094407e+00    8.270555e-01   1.032935e-02
  2.096618e+00    7.758633e-01   9.995405e-03
  2.098828e+00    7.548824e-01   9.849891e-03
  2.101039e+00    7.349217e-01   9.709801e-03
  2.103249e+00    7.311856e-01   9.676406e-03
  2.105460e+00    7.218937e-01   9.605766e-03
  2.107670e+00    7.224972e-01   9.601083e-03
  2.109881e+00    7.236934e-01   9.599873e-03
  2.112091e+00    7.323385e-01   9.648026e-03
  2.114301e+00    7.285339e-01   9.614130e-03
  2.116512e+00    7.257102e-01   9.586663e-03
  2.118722e+00    7.254457e-01   9.576071e-03
  2.120933e+00    7.250517e-01   9.564584e-03
  2.123143e+00    7.132103e-01   9.477298e-03
  2.125354e+00    7.031079e-01   9.401482e-03
  2.127564e+00    7.083870e-01   9.428017e-03
  2.129775e+00    7.294791e-01   9.558546e-03
  2.131985e+00    7.309759e-01   9.559186e-03
  2.134196e+00    7.194279e-01   9.474761e-03
  2.136406e+00    7.202806e-01   9.471571e-03
  2.138617e+00    7.105290e-01   9.398786e-03
  2.140827e+00    7.062793e-01   9.386666e-03
  2.143037e+00    6.979282e-01   9.376179e-03
  2.145248e+00    7.001984e-01   9.413335e-03
  2.147458e+00    7.107351e-01   9.499100e-03
  2.149669e+00    7.054523e-01   9.475609e-03
  2.151879e+00    7.021599e-01   9.462695e-03
  2.154090e+00    7.044041e-01   9.485132e-03
  2.156300e+00    7.119070e-01   9.542174e-03
  2.158511e+00    7.055746e-01   9.504972e-03
  2.160721e+00    7.026459e-01   9.490048e-03
  2.162932e+00    7.039964e-01   9.502924e-03
  2.165142e+00    7.017832e-01   9.491012e-03
  2.167352e+00    6.966969e-01   9.459458e-03
  2.169563e+00    7.018920e-01   9.496632e-03
  2.171773e+00    6.997266e-01   9.484425e-03
  2.173984e+00    7.077122e-01   9.539819e-03
  2.176194e+00    7.037475e-01   9.514267e-03
  2.178405e+00    7.073757e-01   9.539474e-03
  2.180615e+00    6.814339e-01   9.363595e-03
  2.182826e+00    6.926340e-01   9.440900e-03
  2.185036e+00    6.979370e-01   9.477024e-03
  2.187247e+00    7.048372e-01   9.523713e-03
  2.189457e+00    6.936474e-01   9.447414e-03
  2.191667e+00    6.725578e-01   9.302494e-03
  2.193878e+00    7.071239e-01   9.537962e-03
  2.196088e+00    7.041526e-01   9.517249e-03
  2.198299e+00    6.825792e-01   9.369217e-03
  2.200509e+00    6.852005e-01   9.386127e-03
  2.202720e+00    6.877704e-01   9.402554e-03
  2.204930e+00    7.069504e-01   9.531496e-03
  2.207141e+00    6.837705e-01   9.372830e-03
  2.209351e+00    6.759260e-01   9.317017e-03
  2.211562e+00    6.890345e-01   9.405289e-03
  2.213772e+00    6.961777e-01   9.397660e-03
  2.215982e+00    6.965572e-01   9.355335e-03
  2.218193e+00    6.934462e-01   9.304406e-03
  2.220403e+00    6.869299e-01   9.235781e-03
  2.222614e+00    6.851962e-01   9.202989e-03
  2.224824e+00    6.655995e-01   9.051175e-03
  2.227035e+00    6.800246e-01   9.131172e-03
  2.229245e+00    6.618231e-01   8.991319e-03
  2.231456e+00    6.668305e-01   9.009683e-03
  2.233666e+00    6.761859e-01   9.057530e-03
  2.235877e+00    6.676153e-01   8.985686e-03
  2.238087e+00    6.861219e-01   9.095752e-03
  2.240298e+00    6.750174e-01   9.008030e-03
  2.242508e+00    6.731220e-01   8.980184e-03
  2.244718e+00    6.799250e-01   9.009505e-03
  2.246929e+00    6.901159e-01   9.062128e-03
  2.249139e+00    6.870731e-01   9.029567e-03
  2.251350e+00    6.840062e-01   8.997534e-03
  2.253560e+00    6.755225e-01   8.929917e-03
  2.255771e+00    6.774560e-01   8.931181e-03
  2.257981e+00    6.777584e-01   8.921882e-03
  2.260192e+00    6.740699e-01   8.886393e-03
  2.262402e+00    6.787805e-01   8.906413e-03
  2.264613e+00    6.708656e-01   8.843449e-03
  2.266823e+00    6.661612e-01   8.801965e-03
  2.269033e+00    6.704971e-01   8.820104e-03
  2.271244e+00    6.761566e-01   8.846771e-03
  2.273454e+00    6.812238e-01   8.869428e-03
  2.275665e+00    6.935228e-01   8.938615e-03
  2.277875e+00    7.030735e-01   8.989697e-03
  2.280086e+00    6.806642e-01   8.835102e-03
  2.282296e+00    6.604713e-01   8.693633e-03
  2.284507e+00    6.634020e-01   8.702734e-03
  2.286717e+00    6.561808e-01   8.645781e-03
  2.288928e+00    6.455929e-01   8.565972e-03
  2.291138e+00    6.390626e-01   8.513238e-03
  2.293348e+00    6.615971e-01   8.652438e-03
  2.295559e+00    6.620533e-01   8.646071e-03
  2.297769e+00    6.599553e-01   8.623071e-03
  2.299980e+00    6.715240e-01   8.688865e-03
  2.302190e+00    6.564414e-01   8.581596e-03
  2.304401e+00    6.585761e-01   8.586147e-03
  2.306611e+00    6.660278e-01   8.625311e-03
  2.308822e+00    6.502815e-01   8.514357e-03
  2.311032e+00    6.434187e-01   8.462896e-03
  2.313243e+00    6.489730e-01   8.493068e-03
  2.315453e+00    6.547984e-01   8.523498e-03
  2.317663e+00    6.436769e-01   8.441702e-03
  2.319874e+00    6.602966e-01   8.541172e-03
  2.322084e+00    6.466831e-01   8.443704e-03
  2.324295e+00    6.517749e-01   8.468603e-03
  2.326505e+00    6.496806e-01   8.445904e-03
  2.328716e+00    6.542739e-01   8.467067e-03
  2.330926e+00    6.687543e-01   8.551303e-03
  2.333137e+00    6.516511e-01   8.432801e-03
  2.335347e+00    6.418342e-01   8.360179e-03
  2.337558e+00    6.467075e-01   8.383581e-03
  2.339768e+00    6.243376e-01   8.228842e-03
  2.341979e+00    6.339013e-01   8.283277e-03
  2.344189e+00    6.356717e-01   8.286476e-03
  2.346399e+00    6.293485e-01   8.236691e-03
  2.348610e+00    6.368598e-01   8.277237e-03
  2.350820e+00    6.428897e-01   8.308115e-03
  2.353031e+00    6.233763e-01   8.172829e-03
  2.355241e+00    6.401088e-01   8.273688e-03
  2.357452e+00    6.295338e-01   8.196662e-03
  2.359662e+00    6.290778e-01   8.185494e-03
  2.361873e+00    6.304672e-01   8.186277e-03
  2.364083e+00    6.383266e-01   8.229125e-03
  2.366294e+00    6.149601e-01   8.069057e-03
  2.368504e+00    6.167725e-01   8.072941e-03
  2.370714e+00    6.204364e-01   8.088845e-03
  2.372925e+00    6.189350e-01   8.071053e-03
  2.375135e+00    6.321237e-01   8.148466e-03
  2.377346e+00    6.260002e-01   8.100973e-03
  2.379556e+00    6.345776e-01   8.148273e-03
  2.381767e+00    6.303295e-01   8.113069e-03
  2.383977e+00    6.288681e-01   8.095658e-03
  2.386188e+00    6.280145e-01   8.082204e-03
  2.388398e+00    6.149424e-01   7.989697e-03
  2.390609e+00    6.198527e-01   8.013795e-03
  2.392819e+00    6.277475e-01   8.056820e-03
  2.395029e+00    6.177612e-01   7.984818e-03
  2.397240e+00    6.008515e-01   7.866985e-03
  2.399450e+00    6.127939e-01   7.936970e-03
  2.401661e+00    6.087598e-01   7.903165e-03
  2.403871e+00    6.046270e-01   7.868564e-03
  2.406082e+00    6.097794e-01   7.894580e-03
  2.408292e+00    6.065659e-01   7.865981e-03
  2.410503e+00    6.009022e-01   7.821732e-03
  2.412713e+00    6.082786e-01   7.861784e-03
  2.414924e+00    6.139675e-01   7.890937e-03
  2.417134e+00    6.142033e-01   7.884749e-03
  2.419344e+00    6.138120e-01   7.874773e-03
  2.421555e+00    5.929756e-01   7.732514e-03
  2.423765e+00    5.818616e-01   7.652396e-03
  2.425976e+00    5.895551e-01   7.695102e-03
  2.428186e+00    5.968294e-01   7.735196e-03
  2.430397e+00    5.954089e-01   7.718540e-03
  2.432607e+00    5.986565e-01   7.732257e-03
  2.434818e+00    5.979548e-01   7.720169e-03
  2.437028e+00    5.987200e-01   7.717925e-03
  2.439239e+00    6.057358e-01   7.755285e-03
  2.441449e+00    6.082340e-01   7.763965e-03
  2.443659e+00    6.003318e-01   7.705958e-03
  2.445870e+00    6.024845e-01   7.732149e-03
  2.448080e+00    5.837912e-01   7.646083e-03
  2.450291e+00    5.706624e-01   7.576128e-03
  2.452501e+00    5.757208e-01   7.620783e-03
  2.454712e+00    5.656735e-01   7.562368e-03
  2.456922e+00    5.655135e-01   7.567888e-03
  2.459133e+00    5.657552e-01   7.574921e-03
  2.461343e+00    5.731382e-01   7.628574e-03
  2.463554e+00    5.585645e-01   7.534411e-03
  2.465764e+00    5.631093e-01   7.568140e-03
  2.467975e+00    5.625243e-01   7.566478e-03
  2.470185e+00    5.619170e-01   7.564673e-03
  2.472395e+00    5.625915e-01   7.570436e-03
  2.474606e+00    5.559944e-01   7.527489e-03
  2.476816e+00    5.412823e-01   7.427961e-03
  2.479027e+00    5.431325e-01   7.441469e-03
  2.481237e+00    5.488046e-01   7.480520e-03
  2.483448e+00    5.388026e-01   7.412341e-03
  2.485658e+00    5.434834e-01   7.444307e-03
  2.487869e+00    5.621321e-01   7.571002e-03
  2.490079e+00    5.379906e-01   7.406144e-03
  2.492290e+00    5.299404e-01   7.350069e-03
  2.494500e+00    5.354670e-01   7.387571e-03
  2.496710e+00    5.433786e-01   7.441237e-03
  2.498921e+00    5.489260e-01   7.478138e-03
  2.501131e+00    5.434905e-01   7.440060e-03
  2.503342e+00    5.446034e-01   7.446398e-03
  2.505552e+00    5.390429e-01   7.407137e-03
  2.507763e+00    5.422916e-01   7.427998e-03
  2.509973e+00    5.506883e-01   7.483855e-03
  2.512184e+00    5.369739e-01   7.388464e-03
  2.514394e+00    5.261053e-01   7.303956e-03
  2.516605e+00    5.249830e-01   7.249148e-03
  2.518815e+00    5.206110e-01   7.190741e-03
  2.521025e+00    5.184525e-01   7.154976e-03
  2.523236e+00    5.232930e-01   7.170368e-03
  2.525446e+00    5.248824e-01   7.165639e-03
  2.527657e+00    5.282541e-01   7.173985e-03
  2.529867e+00    5.398392e-01   7.237845e-03
  2.532078e+00    5.283564e-01   7.145368e-03
  2.534288e+00    5.314931e-01   7.152568e-03
  2.536499e+00    5.272279e-01   7.111850e-03
  2.538709e+00    5.185150e-01   7.041904e-03
  2.540920e+00    5.183905e-01   7.030472e-03
  2.543130e+00    5.149725e-01   6.996976e-03
  2.545340e+00    5.219324e-01   7.034063e-03
  2.547551e+00    5.188482e-01   7.003335e-03
  2.549761e+00    5.226275e-01   7.019215e-03
  2.551972e+00    5.231670e-01   7.013473e-03
  2.554182e+00    5.261932e-01   7.024501e-03
  2.556393e+00    5.376496e-01   7.091328e-03
  2.558603e+00    5.308829e-01   7.037393e-03
  2.560814e+00    5.314422e-01   7.032310e-03
  2.563024e+00    5.219263e-01   6.960456e-03
  2.565235e+00    5.285033e-01   6.994583e-03
  2.567445e+00    5.369576e-01   7.040592e-03
  2.569656e+00    5.186238e-01   6.909610e-03
  2.571866e+00    4.994021e-01   6.771157e-03
  2.574076e+00    5.032064e-01   6.787754e-03
  2.576287e+00    5.134928e-01   6.848458e-03
  2.578497e+00    5.066539e-01   6.794953e-03
  2.580708e+00    5.087577e-01   6.800995e-03
  2.582918e+00    5.133747e-01   6.824034e-03
  2.585129e+00    5.220837e-01   6.873872e-03
  2.587339e+00    5.151982e-01   6.820717e-03
  2.589550e+00    5.039694e-01   6.738476e-03
  2.591760e+00    5.132560e-01   6.792527e-03
  2.593971e+00    5.188471e-01   6.821867e-03
  2.596181e+00    5.152866e-01   6.792150e-03
  2.598391e+00    5.167519e-01   6.796608e-03
  2.600602e+00    5.004494e-01   6.682658e-03
  2.602812e+00    5.236471e-01   6.828144e-03
  2.605023e+00    5.136064e-01   6.755179e-03
  2.607233e+00    5.049548e-01   6.690916e-03
  2.609444e+00    5.060395e-01   6.690873e-03
  2.611654e+00    5.181075e-01   6.762789e-03
  2.613865e+00    4.975588e-01   6.620362e-03
  2.616075e+00    4.873856e-01   6.545305e-03
  2.618286e+00    5.094149e-01   6.684554e-03
  2.620496e+00    5.135247e-01   6.704732e-03
  2.622706e+00    5.128627e-01   6.694624e-03
  2.624917e+00    5.053734e-01   6.639700e-03
  2.627127e+00    5.175055e-01   6.713113e-03
  2.629338e+00    5.245320e-01   6.752431e-03
  2.631548e+00    5.158070e-01   6.689795e-03
  2.633759e+00    5.110680e-01   6.651794e-03
  2.635969e+00    5.052629e-01   6.607178e-03
  2.638180e+00    5.018266e-01   6.577706e-03
  2.640390e+00    5.028180e-01   6.577567e-03
  2.642601e+00    5.019739e-01   6.565379e-03
  2.644811e+00    5.135036e-01   6.633182e-03
  2.647021e+00    5.034359e-01   6.561256e-03
  2.649232e+00    5.007449e-01   6.536962e-03
  2.651442e+00    4.973841e-01   6.508499e-03
  2.653653e+00    4.960282e-01   6.492847e-03
  2.655863e+00    4.959902e-01   6.485931e-03
  2.658074e+00    5.111656e-01   6.577701e-03
  2.660284e+00    5.099820e-01   6.563662e-03
  2.662495e+00    4.888857e-01   6.419769e-03
  2.664705e+00    5.065951e-01   6.528358e-03
  2.666916e+00    5.144476e-01   6.572195e-03
  2.669126e+00    5.021822e-01   6.486890e-03
  2.671337e+00    4.919845e-01   6.414119e-03
  2.673547e+00    5.021223e-01   6.473433e-03
  2.675757e+00    5.043722e-01   6.481432e-03
  2.677968e+00    4.907535e-01   6.386810e-03
  2.680178e+00    5.003361e-01   6.442427e-03
  2.682389e+00    4.886764e-01   6.360560e-03
  2.684599e+00    4.830503e-01   6.317705e-03
  2.686810e+00    4.867030e-01   6.334971e-03
  2.689020e+00    4.952036e-01   6.383755e-03
  2.691231e+00    4.940119e-01   6.369749e-03
  2.693441e+00    4.923446e-01   6.352836e-03
  2.695652e+00    4.975556e-01   6.379808e-03
  2.697862e+00    4.881654e-01   6.312986e-03
  2.700072e+00    5.023488e-01   6.397871e-03
  2.702283e+00    4.995445e-01   6.373720e-03
  2.704493e+00    4.885020e-01   6.296593e-03
  2.706704e+00    4.974402e-01   6.347469e-03
  2.708914e+00    4.890833e-01   6.287971e-03
  2.711125e+00    4.828464e-01   6.241516e-03
  2.713335e+00    4.904346e-01   6.284260e-03
  2.715546e+00    4.867286e-01   6.254021e-03
  2.717756e+00    4.851862e-01   6.238218e-03
  2.719967e+00    4.875425e-01   6.247119e-03
  2.722177e+00    5.040259e-01   6.345615e-03
  2.724387e+00    5.009640e-01   6.320114e-03
  2.726598e+00    4.887424e-01   6.236468e-03
  2.728808e+00    4.920557e-01   6.251363e-03
  2.731019e+00    4.981310e-01   6.283635e-03
  2.733229e+00    4.910340e-01   6.232876e-03
  2.735440e+00    4.803534e-01   6.158481e-03
  2.737650e+00    4.730169e-01   6.105291e-03
  2.739861e+00    4.921461e-01   6.221403e-03
  2.742071e+00    4.984682e-01   6.255400e-03
  2.744282e+00    4.991542e-01   6.253367e-03
  2.746492e+00    4.947027e-01   6.219300e-03
  2.748702e+00    4.806732e-01   6.124584e-03
  2.750913e+00    4.761115e-01   6.089692e-03
  2.753123e+00    4.839706e-01   6.133596e-03
  2.755334e+00    4.909929e-01   6.171829e-03
  2.757544e+00    4.884136e-01   6.149787e-03
  2.759755e+00    4.833612e-01   6.112003e-03
  2.761965e+00    4.780063e-01   6.072090e-03
  2.764176e+00    4.787751e-01   6.070977e-03
  2.766386e+00    4.848643e-01   6.103647e-03
  2.768597e+00    4.867989e-01   6.109911e-03
  2.770807e+00    4.736434e-01   6.020937e-03
  2.773017e+00    4.685400e-01   5.982524e-03
  2.775228e+00    4.808584e-01   6.054822e-03
  2.777438e+00    4.878054e-01   6.092569e-03
  2.779649e+00    4.839174e-01   6.062317e-03
  2.781859e+00    4.747173e-01   5.998660e-03
  2.784070e+00    4.755287e-01   5.997919e-03
  2.786280e+00    4.841769e-01   6.046418e-03
  2.788491e+00    4.865814e-01   6.055512e-03
  2.790701e+00    4.841557e-01   6.034723e-03
  2.792912e+00    4.703270e-01   5.941980e-03
  2.795122e+00    4.776737e-01   5.982458e-03
  2.797333e+00    4.725389e-01   5.944693e-03
  2.799543e+00    4.681900e-01   5.911442e-03
  2.801753e+00    4.823592e-01   5.994332e-03
  2.803964e+00    4.744732e-01   5.939467e-03
  2.806174e+00    4.769151e-01   5.948579e-03
  2.808385e+00    4.678561e-01   5.885076e-03
  2.810595e+00    4.746898e-01   5.921012e-03
  2.812806e+00    4.762955e-01   5.924413e-03
  2.815016e+00    4.678723e-01   5.867073e-03
  2.817227e+00    4.742115e-01   5.932611e-03
  2.819437e+00    4.783470e-01   5.969577e-03
  2.821648e+00    4.898425e-01   6.043173e-03
  2.823858e+00    4.975422e-01   6.095996e-03
  2.826068e+00    4.803161e-01   5.994552e-03
  2.828279e+00    4.757974e-01   5.970328e-03
  2.830489e+00    4.709135e-01   5.942942e-03
  2.832700e+00    4.789100e-01   5.995767e-03
  2.834910e+00    4.710171e-01   5.948212e-03
  2.837121e+00    4.763984e-01   5.983820e-03
  2.839331e+00    4.776081e-01   5.992645e-03
  2.841542e+00    4.755228e-01   5.980568e-03
  2.843752e+00    4.847904e-01   6.039368e-03
  2.845963e+00    4.753903e-01   5.980931e-03
  2.848173e+00    4.769470e-01   5.990795e-03
  2.850383e+00    4.633634e-01   5.905171e-03
  2.852594e+00    4.786795e-01   6.001874e-03
  2.854804e+00    4.750479e-01   5.978566e-03
  2.857015e+00    4.793162e-01   6.004937e-03
  2.859225e+00    4.639859e-01   5.907863e-03
  2.861436e+00    4.745285e-01   5.973948e-03
  2.863646e+00    4.676875e-01   5.930774e-03
  2.865857e+00    4.648010e-01   5.912775e-03
  2.868067e+00    4.563936e-01   5.859283e-03
  2.870278e+00    4.520148e-01   5.830758e-03
  2.872488e+00    4.574360e-01   5.864453e-03
  2.874698e+00    4.614315e-01   5.888982e-03
  2.876909e+00    4.728664e-01   5.960150e-03
  2.879119e+00    4.942662e-01   6.091843e-03
  2.881330e+00    4.772664e-01   5.984703e-03
  2.883540e+00    4.605503e-01   5.877562e-03
  2.885751e+00    4.539910e-01   5.833907e-03
  2.887961e+00    4.789209e-01   5.990041e-03
  2.890172e+00    4.760525e-01   5.970445e-03
  2.892382e+00    4.584110e-01   5.856987e-03
  2.894593e+00    4.661493e-01   5.904378e-03
  2.896803e+00    4.651534e-01   5.896077e-03
  2.899014e+00    4.727532e-01   5.942101e-03
  2.901224e+00    4.762601e-01   5.962081e-03
  2.903434e+00    4.718395e-01   5.932387e-03
  2.905645e+00    4.744723e-01   5.946654e-03
  2.907855e+00    4.479585e-01   5.776042e-03
  2.910066e+00    4.749284e-01   5.945234e-03
  2.912276e+00    4.685961e-01   5.903372e-03
  2.914487e+00    4.586169e-01   5.837682e-03
  2.916697e+00    4.651750e-01   5.877038e-03
  2.918908e+00    4.750937e-01   5.937341e-03
  2.921118e+00    4.621685e-01   5.853299e-03
  2.923329e+00    4.698392e-01   5.899330e-03
  2.925539e+00    4.644621e-01   5.863180e-03
  2.927749e+00    4.716186e-01   5.905820e-03
  2.929960e+00    4.630068e-01   5.848871e-03
  2.932170e+00    4.547358e-01   5.794065e-03
  2.934381e+00    4.589383e-01   5.818334e-03
  2.936591e+00    4.603468e-01   5.824646e-03
  2.938802e+00    4.650462e-01   5.851589e-03
  2.941012e+00    4.620951e-01   5.830633e-03
  2.943223e+00    4.692110e-01   5.872626e-03
  2.945433e+00    4.517128e-01   5.758351e-03
  2.947644e+00    4.670948e-01   5.851397e-03
  2.949854e+00    4.558366e-01   5.776167e-03
  2.952064e+00    4.620264e-01   5.811008e-03
  2.954275e+00    4.579638e-01   5.780977e-03
  2.956485e+00    4.755492e-01   5.886627e-03
  2.958696e+00    4.786458e-01   5.901289e-03
  2.960906e+00    4.781532e-01   5.893968e-03
  2.963117e+00    4.678399e-01   5.825515e-03
  2.965327e+00    4.599311e-01   5.772129e-03
  2.967538e+00    4.616902e-01   5.780213e-03
  2.969748e+00    4.634216e-01   5.788217e-03
  2.971959e+00    4.817835e-01   5.898509e-03
  2.974169e+00    5.073427e-01   6.050237e-03
  2.976379e+00    5.015352e-01   6.012462e-03
  2.978590e+00    4.821084e-01   5.891633e-03
  2.980800e+00    4.757083e-01   5.849533e-03
  2.983011e+00    4.662680e-01   5.788346e-03
  2.985221e+00    4.643123e-01   5.773020e-03
  2.987432e+00    4.731017e-01   5.824229e-03
  2.989642e+00    4.527779e-01   5.695133e-03
  2.991853e+00    4.625502e-01   5.752948e-03
  2.994063e+00    4.619503e-01   5.746287e-03
  2.996274e+00    4.541572e-01   5.694429e-03
  2.998484e+00    4.582885e-01   5.717554e-03
  3.000694e+00    4.506894e-01   5.666513e-03
  3.002905e+00    4.633695e-01   5.742698e-03
  3.005115e+00    4.534365e-01   5.677838e-03
  3.007326e+00    4.644019e-01   5.742880e-03
  3.009536e+00    4.547564e-01   5.679684e-03
  3.011747e+00    4.561393e-01   5.685375e-03
  3.013957e+00    4.588083e-01   5.698794e-03
  3.016168e+00    4.444769e-01   5.605852e-03
  3.018378e+00    4.621528e-01   5.713147e-03
  3.020589e+00    4.590429e-01   5.690673e-03
  3.022799e+00    4.623617e-01   5.708011e-03
  3.025010e+00    4.567249e-01   5.669856e-03
  3.027220e+00    4.592308e-01   5.682242e-03
  3.029430e+00    4.717000e-01   5.755564e-03
  3.031641e+00    4.672131e-01   5.724943e-03
  3.033851e+00    4.583712e-01   5.666954e-03
  3.036062e+00    4.597570e-01   5.672729e-03
  3.038272e+00    4.434484e-01   5.567653e-03
  3.040483e+00    4.549451e-01   5.636114e-03
  3.042693e+00    4.586826e-01   5.655949e-03
  3.044904e+00    4.555883e-01   5.632780e-03
  3.047114e+00    4.677836e-01   5.702797e-03
  3.049325e+00    4.512470e-01   5.596676e-03
  3.051535e+00    4.479728e-01   5.571974e-03
  3.053745e+00    4.466470e-01   5.558970e-03
  3.055956e+00    4.595788e-01   5.634258e-03
  3.058166e+00    4.645709e-01   5.660458e-03
  3.060377e+00    4.632505e-01   5.647556e-03
  3.062587e+00    4.584061e-01   5.613299e-03
  3.064798e+00    4.428693e-01   5.513118e-03
  3.067008e+00    4.556171e-01   5.587137e-03
  3.069219e+00    4.750437e-01   5.700361e-03
  3.071429e+00    4.685347e-01   5.657618e-03
  3.073640e+00    4.516004e-01   5.551076e-03
  3.075850e+00    4.553632e-01   5.570557e-03
  3.078060e+00    4.606698e-01   5.599759e-03
  3.080271e+00    4.590692e-01   5.586523e-03
  3.082481e+00    4.552754e-01   5.559921e-03
  3.084692e+00    4.473020e-01   5.507641e-03
  3.086902e+00    4.528690e-01   5.538538e-03
  3.089113e+00    4.521438e-01   5.530538e-03
  3.091323e+00    4.510937e-01   5.520701e-03
  3.093534e+00    4.555962e-01   5.544793e-03
  3.095744e+00    4.510099e-01   5.513432e-03
  3.097955e+00    4.359763e-01   5.417260e-03
  3.100165e+00    4.383321e-01   5.428567e-03
  3.102375e+00    4.442177e-01   5.461481e-03
  3.104586e+00    4.624565e-01   5.568910e-03
  3.106796e+00    4.451314e-01   5.460125e-03
  3.109007e+00    4.405463e-01   5.428704e-03
  3.111217e+00    4.487788e-01   5.475495e-03
  3.113428e+00    4.391617e-01   5.413115e-03
  3.115638e+00    4.456060e-01   5.449462e-03
  3.117849e+00    4.464164e-01   5.450675e-03
  3.120059e+00    4.366918e-01   5.387561e-03
  3.122270e+00    4.483252e-01   5.455559e-03
  3.124480e+00    4.534196e-01   5.482767e-03
  3.126691e+00    4.587996e-01   5.511575e-03
  3.128901e+00    4.577782e-01   5.502268e-03
  3.131111e+00    4.458265e-01   5.426129e-03
  3.133322e+00    4.553278e-01   5.480142e-03
  3.135532e+00    4.549119e-01   5.474205e-03
  3.137743e+00    4.547048e-01   5.469437e-03
  3.139953e+00    4.530786e-01   5.455914e-03
  3.142164e+00    4.534826e-01   5.470513e-03
  3.144374e+00    4.443569e-01   5.443657e-03
  3.146585e+00    4.415283e-01   5.440860e-03
  3.148795e+00    4.419973e-01   5.454508e-03
  3.151006e+00    4.400829e-01   5.451223e-03
  3.153216e+00    4.484850e-01   5.510196e-03
  3.155426e+00    4.417627e-01   5.475061e-03
  3.157637e+00    4.502669e-01   5.533092e-03
  3.159847e+00    4.283102e-01   5.401319e-03
  3.162058e+00    4.421988e-01   5.492608e-03
  3.164268e+00    4.657499e-01   5.641159e-03
  3.166479e+00    4.568293e-01   5.590627e-03
  3.168689e+00    4.320831e-01   5.440422e-03
  3.170900e+00    4.476729e-01   5.540899e-03
  3.173110e+00    4.376518e-01   5.481392e-03
  3.175321e+00    4.474756e-01   5.545105e-03
  3.177531e+00    4.289059e-01   5.431533e-03
  3.179741e+00    4.290203e-01   5.434311e-03
  3.181952e+00    4.406717e-01   5.509709e-03
  3.184162e+00    4.383773e-01   5.497559e-03
  3.186373e+00    4.410302e-01   5.515765e-03
  3.188583e+00    4.442840e-01   5.537891e-03
  3.190794e+00    4.334853e-01   5.471917e-03
  3.193004e+00    4.349566e-01   5.482438e-03
  3.195215e+00    4.358909e-01   5.489811e-03
  3.197425e+00    4.398948e-01   5.516198e-03
  3.199636e+00    4.436187e-01   5.538720e-03
  3.201846e+00    4.437605e-01   5.538994e-03
  3.204056e+00    4.360488e-01   5.491546e-03
  3.206267e+00    4.334438e-01   5.475963e-03
  3.208477e+00    4.297881e-01   5.453745e-03
  3.210688e+00    4.409865e-01   5.525173e-03
  3.212898e+00    4.437855e-01   5.543284e-03
  3.215109e+00    4.372264e-01   5.502924e-03
  3.217319e+00    4.307495e-01   5.462635e-03
  3.219530e+00    4.268785e-01   5.438429e-03
  3.221740e+00    4.336859e-01   5.482188e-03
  3.223951e+00    4.263086e-01   5.435829e-03
  3.226161e+00    4.389658e-01   5.516119e-03
  3.228372e+00    4.211763e-01   5.403730e-03
  3.230582e+00    4.242506e-01   5.423514e-03
  3.232792e+00    4.388146e-01   5.516072e-03
  3.235003e+00    4.444589e-01   5.551684e-03
  3.237213e+00    4.308303e-01   5.466026e-03
  3.239424e+00    4.300423e-01   5.461000e-03
  3.241634e+00    4.288945e-01   5.453840e-03
  3.243845e+00    4.201735e-01   5.398179e-03
  3.246055e+00    4.261947e-01   5.436434e-03
  3.248266e+00    4.334206e-01   5.482541e-03
  3.250476e+00    4.250007e-01   5.428724e-03
  3.252687e+00    4.178266e-01   5.382636e-03
  3.254897e+00    4.372538e-01   5.506204e-03
  3.257107e+00    4.290390e-01   5.453952e-03
  3.259318e+00    4.224116e-01   5.411425e-03
  3.261528e+00    4.138727e-01   5.356300e-03
  3.263739e+00    4.224643e-01   5.411061e-03
  3.265949e+00    4.226202e-01   5.411938e-03
  3.268160e+00    4.205580e-01   5.398293e-03
  3.270370e+00    4.268369e-01   5.437951e-03
  3.272581e+00    4.189565e-01   5.387232e-03
  3.274791e+00    4.215713e-01   5.403489e-03
  3.277002e+00    4.386667e-01   5.511388e-03
  3.279212e+00    4.403156e-01   5.521353e-03
  3.281422e+00    4.521432e-01   5.594418e-03
  3.283633e+00    4.381125e-01   5.506255e-03
  3.285843e+00    4.317706e-01   5.465919e-03
  3.288054e+00    4.281218e-01   5.441827e-03
  3.290264e+00    4.210701e-01   5.396499e-03
  3.292475e+00    4.294063e-01   5.448814e-03
  3.294685e+00    4.394732e-01   5.511684e-03
  3.296896e+00    4.243356e-01   5.415173e-03
  3.299106e+00    4.347784e-01   5.480825e-03
  3.301317e+00    4.299479e-01   5.449267e-03
  3.303527e+00    4.254085e-01   5.419957e-03
  3.305737e+00    4.244096e-01   5.412536e-03
  3.307948e+00    4.247611e-01   5.414112e-03
  3.310158e+00    4.250657e-01   5.415198e-03
  3.312369e+00    4.196513e-01   5.379718e-03
  3.314579e+00    4.298537e-01   5.443790e-03
  3.316790e+00    4.391913e-01   5.501894e-03
  3.319000e+00    4.246440e-01   5.408827e-03
  3.321211e+00    4.296165e-01   5.439774e-03
  3.323421e+00    4.311365e-01   5.448186e-03
  3.325632e+00    4.166642e-01   5.355074e-03
  3.327842e+00    4.268372e-01   5.419128e-03
  3.330052e+00    4.280327e-01   5.425641e-03
  3.332263e+00    4.249270e-01   5.404898e-03
  3.334473e+00    4.466604e-01   5.540455e-03
  3.336684e+00    4.259563e-01   5.409264e-03
  3.338894e+00    4.279859e-01   5.421274e-03
  3.341105e+00    4.232927e-01   5.390269e-03
  3.343315e+00    4.283723e-01   5.421348e-03
  3.345526e+00    4.359415e-01   5.468130e-03
  3.347736e+00    4.254814e-01   5.400703e-03
  3.349947e+00    4.244765e-01   5.393405e-03
  3.352157e+00    4.122540e-01   5.314004e-03
  3.354368e+00    4.177881e-01   5.348274e-03
  3.356578e+00    4.229448e-01   5.380131e-03
  3.358788e+00    4.318875e-01   5.435385e-03
  3.360999e+00    4.218898e-01   5.370841e-03
  3.363209e+00    4.249098e-01   5.389023e-03
  3.365420e+00    4.229060e-01   5.374763e-03
  3.367630e+00    4.182317e-01   5.343974e-03
  3.369841e+00    4.251313e-01   5.386416e-03
  3.372051e+00    4.168903e-01   5.331995e-03
  3.374262e+00    4.160014e-01   5.323840e-03
  3.376472e+00    4.274452e-01   5.394121e-03
  3.378683e+00    4.126067e-01   5.297175e-03
  3.380893e+00    3.991144e-01   5.207539e-03
  3.383103e+00    4.269054e-01   5.383058e-03
  3.385314e+00    4.222769e-01   5.351537e-03
  3.387524e+00    4.280335e-01   5.385137e-03
  3.389735e+00    4.059570e-01   5.241824e-03
  3.391945e+00    4.150149e-01   5.296272e-03
  3.394156e+00    4.105734e-01   5.263663e-03
  3.396366e+00    4.044605e-01   5.220955e-03
  3.398577e+00    4.122373e-01   5.267852e-03
  3.400787e+00    4.059200e-01   5.239174e-03
  3.402998e+00    4.191728e-01   5.362499e-03
  3.405208e+00    3.989345e-01   5.251952e-03
  3.407418e+00    4.026186e-01   5.291936e-03
  3.409629e+00    3.925865e-01   5.239434e-03
  3.411839e+00    3.989888e-01   5.293737e-03
  3.414050e+00    3.944857e-01   5.274740e-03
  3.416260e+00    4.025294e-01   5.337967e-03
  3.418471e+00    4.175893e-01   5.446619e-03
  3.420681e+00    3.894330e-01   5.268276e-03
  3.422892e+00    4.020834e-01   5.361245e-03
  3.425102e+00    4.101386e-01   5.422704e-03
  3.427313e+00    4.002090e-01   5.363972e-03
  3.429523e+00    4.013439e-01   5.378737e-03
  3.431733e+00    3.993630e-01   5.372261e-03
  3.433944e+00    3.882298e-01   5.303354e-03
  3.436154e+00    3.895974e-01   5.318965e-03
  3.438365e+00    3.866828e-01   5.305013e-03
  3.440575e+00    3.848194e-01   5.298172e-03
  3.442786e+00    3.891548e-01   5.333616e-03
  3.444996e+00    3.725074e-01   5.223781e-03
  3.447207e+00    3.711524e-01   5.219484e-03
  3.449417e+00    3.741557e-01   5.281562e-03
  3.451628e+00    3.543923e-01   5.169017e-03
  3.453838e+00    3.827578e-01   5.393457e-03
  3.456049e+00    3.763902e-01   5.372679e-03
  3.458259e+00    3.792592e-01   5.415384e-03
  3.460469e+00    3.825886e-01   5.459348e-03
  3.462680e+00    3.819713e-01   5.474383e-03
  3.464890e+00    3.687360e-01   5.396590e-03
  3.467101e+00    3.791969e-01   5.490310e-03
  3.469311e+00    3.705738e-01   5.444104e-03
  3.471522e+00    3.845481e-01   5.562383e-03
  3.473732e+00    4.061244e-01   5.732826e-03
  3.475943e+00    4.020218e-01   5.719887e-03
  3.478153e+00    4.316415e-01   5.943141e-03
  3.480364e+00    4.321682e-01   5.962676e-03
  3.482574e+00    4.164192e-01   5.868591e-03
  3.484784e+00    4.252565e-01   5.945636e-03
  3.486995e+00    4.417954e-01   6.075747e-03
  3.489205e+00    4.420315e-01   6.092336e-03
  3.491416e+00    4.472979e-01   6.143814e-03
  3.493626e+00    4.609498e-01   6.251871e-03
  3.495837e+00    4.503337e-01   6.194370e-03
  3.498047e+00    4.564694e-01   6.251120e-03
  3.500258e+00    4.629246e-01   6.309906e-03
  3.502468e+00    4.751900e-01   6.407723e-03
  3.504679e+00    4.787266e-01   6.446264e-03
  3.506889e+00    4.898379e-01   6.535470e-03
  3.509099e+00    4.843401e-01   6.513269e-03
  3.511310e+00    4.831003e-01   6.519472e-03
  3.513520e+00    4.941206e-01   6.607993e-03
  3.515731e+00    4.987589e-01   6.653531e-03
  3.517941e+00    4.960318e-01   6.649758e-03
  3.520152e+00    5.073877e-01   6.739941e-03
  3.522362e+00    5.241908e-01   6.865429e-03
  3.524573e+00    5.231440e-01   6.873128e-03
  3.526783e+00    5.105935e-01   6.803524e-03
  3.528994e+00    5.230349e-01   6.898229e-03
  3.531204e+00    5.198830e-01   6.889833e-03
  3.533414e+00    5.331063e-01   6.989098e-03
  3.535625e+00    5.273314e-01   6.963476e-03
  3.537835e+00    5.499884e-01   7.123819e-03
  3.540046e+00    5.335642e-01   7.025567e-03
  3.542256e+00    5.364481e-01   7.052035e-03
  3.544467e+00    5.448090e-01   7.114516e-03
  3.546677e+00    5.346850e-01   7.055639e-03
  3.548888e+00    5.334077e-01   7.054687e-03
  3.551098e+00    5.366400e-01   7.083319e-03
  3.553309e+00    5.474938e-01   7.162854e-03
  3.555519e+00    5.348217e-01   7.090748e-03
  3.557729e+00    5.422942e-01   7.151919e-03
  3.559940e+00    5.385569e-01   7.138794e-03
  3.562150e+00    5.514193e-01   7.235396e-03
  3.564361e+00    5.460287e-01   7.213445e-03
  3.566571e+00    5.438303e-01   7.212792e-03
  3.568782e+00    5.350769e-01   7.168628e-03
  3.570992e+00    5.533412e-01   7.303918e-03
  3.573203e+00    5.510676e-01   7.303257e-03
  3.575413e+00    5.364305e-01   7.219361e-03
  3.577624e+00    5.463327e-01   7.299989e-03
  3.579834e+00    5.316142e-01   7.214773e-03
  3.582045e+00    5.335882e-01   7.242182e-03
  3.584255e+00    5.405871e-01   7.303614e-03
  3.586465e+00    5.459741e-01   7.353992e-03
  3.588676e+00    5.404185e-01   7.330741e-03
  3.590886e+00    5.512469e-01   7.417708e-03
  3.593097e+00    5.502760e-01   7.425868e-03
  3.595307e+00    5.266902e-01   7.278806e-03
  3.597518e+00    5.335016e-01   7.339890e-03
  3.599728e+00    5.446394e-01   7.430337e-03
  3.601939e+00    5.457208e-01   7.451895e-03
  3.604149e+00    5.588288e-01   7.555561e-03
  3.606360e+00    5.633681e-01   7.600750e-03
  3.608570e+00    5.580053e-01   7.578891e-03
  3.610780e+00    5.701298e-01   7.672253e-03
  3.612991e+00    5.513958e-01   7.555281e-03
  3.615201e+00    5.527401e-01   7.574442e-03
  3.617412e+00    5.777721e-01   7.751630e-03
  3.619622e+00    5.598721e-01   7.636704e-03
  3.621833e+00    5.557460e-01   7.615362e-03
  3.624043e+00    5.506221e-01   7.589810e-03
  3.626254e+00    5.541314e-01   7.623862e-03
  3.628464e+00    5.507908e-01   7.611945e-03
  3.630675e+00    5.615190e-01   7.700241e-03
  3.632885e+00    5.381765e-01   7.553002e-03
  3.635095e+00    5.354760e-01   7.548428e-03
  3.637306e+00    5.452114e-01   7.631252e-03
  3.639516e+00    5.522490e-01   7.695149e-03
  3.641727e+00    5.486887e-01   7.685073e-03
  3.643937e+00    5.190830e-01   7.489237e-03
  3.646148e+00    5.353023e-01   7.619964e-03
  3.648358e+00    5.426326e-01   7.686970e-03
  3.650569e+00    5.370582e-01   7.662142e-03
  3.652779e+00    5.328000e-01   7.646512e-03
  3.654990e+00    5.394986e-01   7.709386e-03
  3.657200e+00    5.465311e-01   7.774582e-03
  3.659410e+00    5.460014e-01   7.785985e-03
  3.661621e+00    5.376703e-01   7.741520e-03
  3.663831e+00    5.289012e-01   7.693224e-03
  3.666042e+00    5.232063e-01   7.666717e-03
  3.668252e+00    5.474040e-01   7.857468e-03
  3.670463e+00    5.497965e-01   7.890134e-03
  3.672673e+00    5.310073e-01   7.769585e-03
  3.674884e+00    5.246215e-01   7.738004e-03
  3.677094e+00    5.465068e-01   7.913521e-03
  3.679305e+00    5.353185e-01   7.847709e-03
  3.681515e+00    5.302280e-01   7.825933e-03
  3.683726e+00    5.369111e-01   7.891005e-03
  3.685936e+00    5.396801e-01   7.927195e-03
  3.688146e+00    5.408690e-01   7.951881e-03
  3.690357e+00    5.261694e-01   7.859052e-03
  3.692567e+00    5.224723e-01   7.847370e-03
  3.694778e+00    5.366359e-01   7.969268e-03
  3.696988e+00    5.163799e-01   7.833257e-03
  3.699199e+00    5.233137e-01   7.901843e-03
  3.701409e+00    5.294121e-01   7.964212e-03
  3.703620e+00    5.306778e-01   7.990160e-03
  3.705830e+00    5.264090e-01   7.974347e-03
  3.708041e+00    5.436372e-01   8.120702e-03
  3.710251e+00    5.350628e-01   8.073301e-03
  3.712461e+00    5.376625e-01   8.109855e-03
  3.714672e+00    5.320269e-01   8.084175e-03
  3.716882e+00    5.532198e-01   8.260787e-03
  3.719093e+00    5.341399e-01   8.134497e-03
  3.721303e+00    5.420439e-01   8.211734e-03
  3.723514e+00    5.384634e-01   8.202214e-03
  3.725724e+00    5.247327e-01   8.114179e-03
  3.727935e+00    5.333933e-01   8.198608e-03
  3.730145e+00    5.275372e-01   8.170950e-03
  3.732356e+00    5.301002e-01   8.208566e-03
  3.734566e+00    5.173555e-01   8.126863e-03
  3.736776e+00    5.168940e-01   8.141014e-03
  3.738987e+00    5.301886e-01   8.263062e-03
  3.741197e+00    5.393286e-01   8.352463e-03
  3.743408e+00    5.076826e-01   8.121656e-03
  3.745618e+00    5.218166e-01   8.252379e-03
  3.747829e+00    5.264597e-01   8.307382e-03
  3.750039e+00    5.247068e-01   8.312145e-03
  3.752250e+00    5.221615e-01   8.310653e-03
  3.754460e+00    5.141355e-01   8.265138e-03
  3.756671e+00    5.179772e-01   8.314927e-03
  3.758881e+00    5.276937e-01   8.411506e-03
  3.761091e+00    5.058650e-01   8.254858e-03
  3.763302e+00    5.053439e-01   8.269541e-03
  3.765512e+00    5.263821e-01   8.459600e-03
  3.767723e+00    5.115226e-01   8.358692e-03
  3.769933e+00    5.355551e-01   8.572740e-03
  3.772144e+00    5.141071e-01   8.419049e-03
  3.774354e+00    5.161979e-01   8.456224e-03
  3.776565e+00    4.995410e-01   8.338385e-03
  3.778775e+00    5.153942e-01   8.489779e-03
  3.780986e+00    5.301195e-01   8.631098e-03
  3.783196e+00    5.246559e-01   8.607144e-03
  3.785407e+00    5.210113e-01   8.598006e-03
  3.787617e+00    5.160915e-01   8.578341e-03
  3.789827e+00    5.230513e-01   8.656928e-03
  3.792038e+00    5.216500e-01   8.666546e-03
  3.794248e+00    5.019641e-01   8.522670e-03
  3.796459e+00    5.111070e-01   8.621457e-03
  3.798669e+00    5.265697e-01   8.772839e-03
  3.800880e+00    5.094583e-01   8.650754e-03
  3.803090e+00    5.139881e-01   8.711243e-03
  3.805301e+00    5.053594e-01   8.660027e-03
  3.807511e+00    4.977188e-01   8.616243e-03
  3.809722e+00    5.064436e-01   8.713846e-03
  3.811932e+00    5.317555e-01   8.951819e-03
  3.814142e+00    5.138697e-01   8.823290e-03
  3.816353e+00    5.081636e-01   8.797135e-03
  3.818563e+00    5.036801e-01   8.781489e-03
  3.820774e+00    4.983537e-01   8.758088e-03
  3.822984e+00    5.016246e-01   8.810212e-03
  3.825195e+00    4.951856e-01   8.777235e-03
  3.827405e+00    4.938644e-01   8.789221e-03
  3.829616e+00    5.204630e-01   9.047417e-03
  3.831826e+00    5.225468e-01   9.090318e-03
  3.834037e+00    4.918152e-01   8.843375e-03
  3.836247e+00    4.842082e-01   8.799040e-03
  3.838457e+00    4.846721e-01   8.827991e-03
  3.840668e+00    5.170839e-01   9.144081e-03
  3.842878e+00    5.006038e-01   9.022829e-03
  3.845089e+00    5.172038e-01   9.197361e-03
  3.847299e+00    5.027117e-01   9.093582e-03
  3.849510e+00    4.952793e-01   9.051911e-03
  3.851720e+00    4.982084e-01   9.100150e-03
  3.853931e+00    5.009587e-01   9.144340e-03
  3.856141e+00    5.053083e-01   9.203188e-03
  3.858352e+00    4.693724e-01   8.888647e-03
  3.860562e+00    4.928333e-01   9.127363e-03
  3.862772e+00    5.058543e-01   9.266955e-03
  3.864983e+00    4.948316e-01   9.185176e-03
  3.867193e+00    4.920046e-01   9.178592e-03
  3.869404e+00    4.996458e-01   9.269509e-03
  3.871614e+00    5.117550e-01   9.401558e-03
  3.873825e+00    5.114301e-01   9.419246e-03
  3.876035e+00    5.137613e-01   9.461729e-03
  3.878246e+00    4.990026e-01   9.350725e-03
  3.880456e+00    4.953675e-01   9.345708e-03
  3.882667e+00    5.060245e-01   9.475444e-03
  3.884877e+00    4.967349e-01   9.417988e-03
  3.887087e+00    5.073321e-01   9.548274e-03
  3.889298e+00    5.003264e-01   9.512819e-03
  3.891508e+00    5.042394e-01   9.580857e-03
  3.893719e+00    5.083934e-01   9.651820e-03
  3.895929e+00    4.928221e-01   9.534316e-03
  3.898140e+00    4.980743e-01   9.616957e-03
  3.900350e+00    5.191553e-01   9.851368e-03
  3.902561e+00    5.008423e-01   9.708874e-03
  3.904771e+00    5.090605e-01   9.821569e-03
  3.906982e+00    4.735349e-01   9.505338e-03
  3.909192e+00    4.894978e-01   9.697679e-03
  3.911403e+00    4.979284e-01   9.815156e-03
  3.913613e+00    4.889748e-01   9.760818e-03
  3.915823e+00    4.849729e-01   9.755441e-03
  3.918034e+00    5.104472e-01   1.004438e-02
  3.920244e+00    5.314990e-01   1.028676e-02
  3.922455e+00    4.905400e-01   9.918604e-03
  3.924665e+00    5.095420e-01   1.014610e-02
  3.926876e+00    4.745209e-01   9.827798e-03
  3.929086e+00    5.092407e-01   1.021921e-02
  3.931297e+00    5.133274e-01   1.029584e-02
  3.933507e+00    5.070150e-01   1.026179e-02
  3.935718e+00    5.194324e-01   1.041649e-02
  3.937928e+00    4.965352e-01   1.021396e-02
  3.940138e+00    4.892454e-01   1.016808e-02
  3.942349e+00    5.134202e-01   1.044696e-02
  3.944559e+00    4.984674e-01   1.032406e-02
  3.946770e+00    4.929328e-01   1.029692e-02
  3.948980e+00    5.134580e-01   1.054070e-02
  3.951191e+00    4.919362e-01   1.034847e-02
  3.953401e+00    4.905928e-01   1.036579e-02
  3.955612e+00    5.002460e-01   1.049940e-02
  3.957822e+00    4.783493e-01   1.029841e-02
  3.960033e+00    5.115541e-01   1.068332e-02
  3.962243e+00    4.935520e-01   1.052684e-02
  3.964453e+00    4.893116e-01   1.051470e-02
  3.966664e+00    4.813718e-01   1.046230e-02
  3.968874e+00    4.638884e-01   1.029832e-02
  3.971085e+00    4.820958e-01   1.052028e-02
  3.973295e+00    4.987760e-01   1.072253e-02
  3.975506e+00    5.224482e-01   1.099640e-02
  3.977716e+00    5.173448e-01   1.096534e-02
  3.979927e+00    5.078566e-01   1.088696e-02
  3.982137e+00    5.003908e-01   1.082920e-02
  3.984348e+00    4.832685e-01   1.066485e-02
  3.986558e+00    4.834220e-01   1.068885e-02
  3.988768e+00    4.602982e-01   1.045254e-02
  3.990979e+00    4.723017e-01   1.061021e-02
  3.993189e+00    4.786675e-01   1.070453e-02
  3.995400e+00    5.222054e-01   1.120514e-02
  3.997610e+00    5.011798e-01   1.100757e-02
  3.999821e+00    4.990559e-01   1.102239e-02
  4.002031e+00    4.841973e-01   1.089530e-02
  4.004242e+00    5.102937e-01   1.122458e-02
  4.006452e+00    4.974400e-01   1.112224e-02
  4.008663e+00    5.034915e-01   1.123036e-02
  4.010873e+00    4.941827e-01   1.116656e-02
  4.013084e+00    4.796114e-01   1.104128e-02
  4.015294e+00    5.200568e-01   1.153994e-02
  4.017504e+00    5.010170e-01   1.136930e-02
  4.019715e+00    5.236346e-01   1.166738e-02
  4.021925e+00    4.775972e-01   1.118530e-02
  4.024136e+00    4.900290e-01   1.137389e-02
  4.026346e+00    4.869859e-01   1.138285e-02
  4.028557e+00    5.011309e-01   1.159194e-02
  4.030767e+00    4.771177e-01   1.135631e-02
  4.032978e+00    4.940638e-01   1.160295e-02
  4.035188e+00    4.668243e-01   1.132383e-02
  4.037399e+00    5.338108e-01   1.215916e-02
  4.039609e+00    4.736942e-01   1.150137e-02
  4.041819e+00    4.415141e-01   1.115030e-02
  4.044030e+00    4.716111e-01   1.157339e-02
  4.046240e+00    4.946052e-01   1.190263e-02
  4.048451e+00    5.245761e-01   1.231109e-02
  4.050661e+00    4.625051e-01   1.161006e-02
  4.052872e+00    4.795353e-01   1.187455e-02
  4.055082e+00    5.079436e-01   1.227604e-02
  4.057293e+00    4.793586e-01   1.197930e-02
  4.059503e+00    4.614759e-01   1.180707e-02
  4.061714e+00    4.613224e-01   1.186037e-02
  4.063924e+00    4.867803e-01   1.224022e-02
  4.066134e+00    5.035712e-01   1.250821e-02
  4.068345e+00    4.773154e-01   1.223647e-02
  4.070555e+00    4.859495e-01   1.240622e-02
  4.072766e+00    4.839120e-01   1.244115e-02
  4.074976e+00    4.781114e-01   1.242786e-02
  4.077187e+00    4.763332e-01   1.246658e-02
  4.079397e+00    4.608023e-01   1.232416e-02
  4.081608e+00    4.914020e-01   1.279315e-02
  4.083818e+00    4.892814e-01   1.283162e-02
  4.086029e+00    4.501190e-01   1.237255e-02
  4.088239e+00    4.289750e-01   1.214341e-02
  4.090449e+00    4.765363e-01   1.286819e-02
  4.092660e+00    4.529579e-01   1.261492e-02
  4.094870e+00    4.368309e-01   1.245712e-02
  4.097081e+00    5.164913e-01   1.361972e-02
  4.099291e+00    4.711094e-01   1.306141e-02
  4.101502e+00    4.710340e-01   1.310915e-02
  4.103712e+00    4.810519e-01   1.329708e-02
  4.105923e+00    4.506134e-01   1.291945e-02
  4.108133e+00    4.651279e-01   1.317635e-02
  4.110344e+00    4.876063e-01   1.354257e-02
  4.112554e+00    5.052356e-01   1.383983e-02
  4.114764e+00    4.991708e-01   1.381177e-02
  4.116975e+00    4.713749e-01   1.347458e-02
  4.119185e+00    4.927588e-01   1.383271e-02
  4.121396e+00    4.813331e-01   1.372802e-02
  4.123606e+00    4.924960e-01   1.394311e-02
  4.125817e+00    4.775223e-01   1.378703e-02
  4.128027e+00    5.166831e-01   1.440176e-02
  4.130238e+00    5.112821e-01   1.438757e-02
  4.132448e+00    5.344311e-01   1.477364e-02
  4.134659e+00    5.189763e-01   1.462102e-02
  4.136869e+00    4.734880e-01   1.402794e-02
  4.139080e+00    4.609595e-01   1.390352e-02
  4.141290e+00    4.639798e-01   1.401065e-02
  4.143500e+00    4.791878e-01   1.430407e-02
  4.145711e+00    4.630724e-01   1.412724e-02
  4.147921e+00    4.351112e-01   1.375699e-02
  4.150132e+00    4.673912e-01   1.432588e-02
  4.152342e+00    4.987088e-01   1.487001e-02
  4.154553e+00    5.063758e-01   1.505515e-02
  4.156763e+00    4.652150e-01   1.450168e-02
  4.158974e+00    4.848337e-01   1.487864e-02
  4.161184e+00    5.135218e-01   1.538857e-02
  4.163395e+00    4.960811e-01   1.520205e-02
  4.165605e+00    5.155495e-01   1.557830e-02
  4.167815e+00    5.223471e-01   1.576230e-02
  4.170026e+00    4.857489e-01   1.528033e-02
  4.172236e+00    4.734978e-01   1.516793e-02
  4.174447e+00    4.790108e-01   1.533877e-02
  4.176657e+00    4.615646e-01   1.513943e-02
  4.178868e+00    4.722737e-01   1.540052e-02
  4.181078e+00    4.638162e-01   1.534814e-02
  4.183289e+00    4.906385e-01   1.587572e-02
  4.185499e+00    4.798209e-01   1.579271e-02
  4.187710e+00    4.686382e-01   1.569904e-02
  4.189920e+00    4.335263e-01   1.519026e-02
  4.192130e+00    4.574805e-01   1.569979e-02
  4.194341e+00    4.284483e-01   1.528636e-02
  4.196551e+00    4.843309e-01   1.635584e-02
  4.198762e+00    5.030905e-01   1.677543e-02
  4.200972e+00    4.923167e-01   1.670201e-02
  4.203183e+00    4.834354e-01   1.666011e-02
  4.205393e+00    4.629500e-01   1.641159e-02
  4.207604e+00    5.029662e-01   1.722289e-02
  4.209814e+00    4.741411e-01   1.683675e-02
  4.212025e+00    4.906882e-01   1.724956e-02
  4.214235e+00    4.695601e-01   1.699372e-02
  4.216445e+00    4.896136e-01   1.747816e-02
  4.218656e+00    5.136148e-01   1.803551e-02
  4.220866e+00    4.831036e-01   1.762142e-02
  4.223077e+00    4.872157e-01   1.783232e-02
  4.225287e+00    4.637445e-01   1.753435e-02
  4.227498e+00    4.615954e-01   1.763066e-02
  4.229708e+00    4.916782e-01   1.834404e-02
  4.231919e+00    4.607801e-01   1.790518e-02
  4.234129e+00    4.415690e-01   1.767529e-02
  4.236340e+00    5.018399e-01   1.900395e-02
  4.238550e+00    5.086319e-01   1.930099e-02
  4.240761e+00    5.258690e-01   1.979887e-02
  4.242971e+00    4.618509e-01   1.872441e-02
  4.245181e+00    4.352107e-01   1.834716e-02
  4.247392e+00    5.256670e-01   2.035235e-02
  4.249602e+00    4.667335e-01   1.936803e-02
  4.251813e+00    5.202938e-01   2.065102e-02
  4.254023e+00    4.495562e-01   1.938883e-02
  4.256234e+00    4.923754e-01   2.050836e-02
  4.258444e+00    5.031369e-01   2.094826e-02
  4.260655e+00    5.226271e-01   2.158480e-02
  4.262865e+00    4.964297e-01   2.127577e-02
  4.265076e+00    3.649387e-01   1.844891e-02
  4.267286e+00    4.613093e-01   2.098827e-02
  4.269496e+00    4.955397e-01   2.201846e-02
  4.271707e+00    4.917831e-01   2.220576e-02
  4.273917e+00    5.276406e-01   2.329855e-02
  4.276128e+00    5.100109e-01   2.321098e-02
  4.278338e+00    3.954813e-01   2.071151e-02
  4.280549e+00    4.312586e-01   2.193819e-02
  4.282759e+00    4.809914e-01   2.350218e-02
  4.284970e+00    5.012845e-01   2.434745e-02
  4.287180e+00    4.877175e-01   2.430360e-02
  4.289391e+00    4.816157e-01   2.433252e-02
  4.291601e+00    5.066343e-01   2.515591e-02
  4.293811e+00    4.427825e-01   2.370121e-02
  4.296022e+00    4.950550e-01   2.526238e-02
  4.298232e+00    5.109015e-01   2.587868e-02
  4.300443e+00    4.254197e-01   2.380933e-02
  4.302653e+00    4.616953e-01   2.501855e-02
  4.304864e+00    4.527860e-01   2.499024e-02
  4.307074e+00    4.974280e-01   2.642974e-02
  4.309285e+00    4.363876e-01   2.497876e-02
  4.311495e+00    5.389069e-01   2.801793e-02
  4.313706e+00    4.961607e-01   2.713702e-02
  4.315916e+00    4.674836e-01   2.660061e-02
  4.318126e+00    4.369261e-01   2.597000e-02
  4.320337e+00    4.664350e-01   2.710470e-02
  4.322547e+00    5.294790e-01   2.918500e-02
  4.324758e+00    4.174305e-01   2.618264e-02
  4.326968e+00    4.663038e-01   2.798356e-02
  4.329179e+00    5.461359e-01   3.062000e-02
  4.331389e+00    3.994877e-01   2.648987e-02
  4.333600e+00    4.460967e-01   2.832578e-02
  4.335810e+00    5.100812e-01   3.065032e-02
  4.338021e+00    4.551040e-01   2.932130e-02
  4.340231e+00    4.599816e-01   2.984904e-02
  4.342442e+00    5.099152e-01   3.184846e-02
  4.344652e+00    3.850030e-01   2.804987e-02
  4.346862e+00    3.660562e-01   2.773462e-02
  4.349073e+00    4.235551e-01   3.026615e-02
  4.351283e+00    4.617492e-01   3.207447e-02
  4.353494e+00    4.080428e-01   3.061650e-02
  4.355704e+00    4.459473e-01   3.252336e-02
  4.357915e+00    3.849784e-01   3.072134e-02
  4.360125e+00    4.221611e-01   3.271787e-02
  4.362336e+00    4.369513e-01   3.389578e-02
  4.364546e+00    3.875701e-01   3.250208e-02
  4.366757e+00    5.710527e-01   4.023876e-02
  4.368967e+00    3.603885e-01   3.260550e-02
  4.371177e+00    3.291990e-01   3.182244e-02
  4.373388e+00    3.622635e-01   3.412862e-02
  4.375598e+00    3.638234e-01   3.498310e-02
  4.377809e+00    4.195811e-01   3.852000e-02
  4.380019e+00    2.713131e-01   3.175361e-02
  4.382230e+00    3.381774e-01   3.643873e-02
  4.384440e+00    3.609501e-01   3.872916e-02
  4.386651e+00    5.531582e-01   4.942507e-02
  4.388861e+00    4.185146e-01   4.443400e-02
  4.391072e+00    3.490931e-01   4.200653e-02
  4.393282e+00    5.564094e-01   5.508304e-02
  4.395492e+00    3.392898e-01   4.480159e-02
  4.397703e+00    3.720844e-01   4.905928e-02
  4.399913e+00    5.270169e-01   6.134586e-02
  4.402124e+00    5.082887e-01   6.365419e-02
  4.404334e+00    4.749758e-01   6.541910e-02
  4.406545e+00    2.591188e-01   5.190925e-02
  4.408755e+00    5.812205e-01   8.431697e-02
  4.410966e+00    5.134866e-01   8.771961e-02
  4.413176e+00    4.388623e-01   9.179407e-02
  4.415387e+00   -7.071849e-01            nan
  4.417597e+00   -1.852576e+00            nan
  4.419807e+00    1.431295e-01   1.358686e-01
