# == pyFAI calibration ==
# Distance Sample to Detector: 0.216 m
# PONI: 1.166e-01, 1.308e-01 m
# Rotations: 0.000000 0.000000 0.000000 rad
# 
# == Fit2d calibration ==
# Distance Sample-beamCenter: 216.000 mm
# Center: x=1744.293, y=1555.000 pix
# Tilt: 0.000 deg  TiltPlanRot: 0.000 deg
# 
# Detector Eiger 9M	 PixelSize= 7.500e-05, 7.500e-05 m
#    Detector has a mask: True 
#    Detector has a dark current: False 
#    detector has a flat field: False 
# 
# Wavelength: 9.8e-11 m
# Mask applied: from detector
# Dark current applied: False
# Flat field applied: False
# Polarization factor: None
# Normalization factor: 1.0
# 
# Headers of the input frame:
# {
# "_array_data.header_convention": "SLS_1.0",
# "_array_data.header_contents": "# Detector: Dectris Eiger 9M, S/N E-18-0102\r\n# Pixel_size 75e-6 m x 75e-6 m\r\n# Silicon sensor, thickness 0.000450 m\r\n# Exposure_time 0.024997 s\r\n# Exposure_period 0.025000 s\r\n# Count_cutoff 62318 counts\r\n# Wavelength 0.980106 A\r\n# Detector_distance 0.215992 m\r\n# Beam_xy (1555, 1744) pixels\r\n# Start_angle 0.000000 deg.\r\n# Angle_increment 0.000000 deg.",
# "Content-Type": "application/octet-stream;",
# "conversions": "x-CBF_BYTE_OFFSET",
# "Content-Transfer-Encoding": "BINARY",
# "X-Binary-Size": "10166590",
# "X-Binary-ID": "1",
# "X-Binary-Element-Type": "signed 32-bit integer",
# "X-Binary-Element-Byte-Order": "LITTLE_ENDIAN",
# "Content-MD5": "afCrVJeXpQ0g2Dxtzuh2cg==",
# "X-Binary-Number-of-Elements": "10166590",
# "X-Binary-Size-Fastest-Dimension": "3110",
# "X-Binary-Size-Second-Dimension": "3269",
# "X-Binary-Size-Padding": "4095"
# }
# --> H:/Proxima2a_2019-04-05/RAW_DATA/C5_gel17_position5/C5_mesh_1_data.cbf/C5_mesh_1_data.cbf000033.dat
#        q_A^-1              I           sigma 
  1.105228e-03    1.885801e+00   7.430789e-01
  3.315685e-03    1.218729e+00   3.631608e-01
  5.526141e-03    1.635253e+00   3.252853e-01
  7.736597e-03    1.468559e+00   2.604150e-01
  9.947054e-03    1.622906e+00   2.413366e-01
  1.215751e-02    1.390277e+00   2.019851e-01
  1.436797e-02    1.591210e+00   1.987649e-01
  1.657842e-02    1.677898e+00   1.899885e-01
  1.878888e-02    1.252617e+00   1.541958e-01
  2.099934e-02    1.228290e+00   1.444616e-01
  2.320979e-02    1.275102e+00   1.399926e-01
  2.542025e-02    1.275696e+00   1.338083e-01
  2.763070e-02    1.239824e+00   1.265232e-01
  2.984116e-02    1.308482e+00   1.250721e-01
  3.205162e-02    1.469506e+00   1.279004e-01
  3.426207e-02    1.429435e+00   1.219992e-01
  3.647253e-02    1.405921e+00   1.172655e-01
  3.868299e-02    1.468824e+00   1.163940e-01
  4.089344e-02    1.263466e+00   1.049935e-01
  4.310390e-02    1.396467e+00   1.075076e-01
  4.531436e-02    1.456581e+00   1.070861e-01
  4.752481e-02    1.402573e+00   1.026081e-01
  4.973527e-02    1.439175e+00   1.016035e-01
  5.194572e-02    1.418757e+00   9.870905e-02
  5.415618e-02    1.381211e+00   9.538250e-02
  5.636664e-02    1.519676e+00   9.807101e-02
  5.857709e-02    1.487612e+00   9.518300e-02
  6.078755e-02    1.345856e+00   8.887030e-02
  6.299801e-02    1.324486e+00   8.660044e-02
  6.520846e-02    1.541663e+00   9.183441e-02
  6.741892e-02    1.494337e+00   8.891483e-02
  6.962938e-02    1.510456e+00   8.796711e-02
  7.183983e-02    1.530885e+00   8.718533e-02
  7.405029e-02    1.547763e+00   8.634425e-02
  7.626074e-02    1.560162e+00   8.542308e-02
  7.847120e-02    1.643833e+00   8.643761e-02
  8.068166e-02    1.557802e+00   8.298404e-02
  8.289211e-02    1.392229e+00   7.739662e-02
  8.510257e-02    1.324071e+00   7.449121e-02
  8.731303e-02    1.441333e+00   7.672676e-02
  8.952348e-02    1.477147e+00   7.671130e-02
  9.173394e-02    1.467364e+00   7.552711e-02
  9.394439e-02    1.502131e+00   7.550979e-02
  9.615485e-02    1.488657e+00   7.429970e-02
  9.836531e-02    1.508507e+00   7.394623e-02
  1.005758e-01    1.528515e+00   7.361296e-02
  1.027862e-01    1.457395e+00   7.110114e-02
  1.049967e-01    1.520496e+00   7.185427e-02
  1.072071e-01    1.476317e+00   7.006814e-02
  1.094176e-01    1.616000e+00   7.256263e-02
  1.116280e-01    1.599487e+00   7.147104e-02
  1.138385e-01    1.547529e+00   6.961340e-02
  1.160490e-01    1.554201e+00   6.909484e-02
  1.182594e-01    1.563743e+00   6.865434e-02
  1.204699e-01    1.485152e+00   6.628973e-02
  1.226803e-01    1.523374e+00   6.652695e-02
  1.248908e-01    1.578602e+00   6.711937e-02
  1.271012e-01    1.595140e+00   6.687943e-02
  1.293117e-01    1.720181e+00   6.885427e-02
  1.315222e-01    1.600674e+00   6.585743e-02
  1.337326e-01    1.535732e+00   6.397103e-02
  1.359431e-01    1.538970e+00   6.407593e-02
  1.381535e-01    1.529238e+00   6.473035e-02
  1.403640e-01    1.572578e+00   6.592464e-02
  1.425744e-01    1.586022e+00   6.631161e-02
  1.447849e-01    1.532891e+00   6.520647e-02
  1.469953e-01    1.593613e+00   6.644377e-02
  1.492058e-01    1.556747e+00   6.559444e-02
  1.514163e-01    1.587858e+00   6.613658e-02
  1.536267e-01    1.645378e+00   6.719241e-02
  1.558372e-01    1.590045e+00   6.590709e-02
  1.580476e-01    1.611900e+00   6.619748e-02
  1.602581e-01    1.588143e+00   6.554095e-02
  1.624685e-01    1.591391e+00   6.542832e-02
  1.646790e-01    1.680088e+00   6.703388e-02
  1.668895e-01    1.695199e+00   6.714021e-02
  1.690999e-01    1.656847e+00   6.617706e-02
  1.713104e-01    1.711763e+00   6.705608e-02
  1.735208e-01    1.736799e+00   6.733464e-02
  1.757313e-01    1.796478e+00   6.826710e-02
  1.779417e-01    1.850320e+00   6.905662e-02
  1.801522e-01    1.841569e+00   6.867369e-02
  1.823626e-01    1.881715e+00   6.918711e-02
  1.845731e-01    1.865335e+00   6.866218e-02
  1.867836e-01    1.884936e+00   6.878904e-02
  1.889940e-01    1.909065e+00   6.900173e-02
  1.912045e-01    1.900692e+00   6.862030e-02
  1.934149e-01    1.950578e+00   6.928237e-02
  1.956254e-01    1.899898e+00   6.815086e-02
  1.978358e-01    1.874634e+00   6.746422e-02
  2.000463e-01    1.993108e+00   6.933285e-02
  2.022568e-01    1.970091e+00   6.870513e-02
  2.044672e-01    1.927581e+00   6.772700e-02
  2.066777e-01    2.016574e+00   6.904286e-02
  2.088881e-01    2.018974e+00   6.885793e-02
  2.110986e-01    2.039921e+00   6.897685e-02
  2.133090e-01    1.941470e+00   6.707302e-02
  2.155195e-01    1.912865e+00   6.635623e-02
  2.177300e-01    1.975598e+00   6.690576e-02
  2.199404e-01    1.997517e+00   6.550319e-02
  2.221509e-01    2.034999e+00   6.502924e-02
  2.243613e-01    2.014441e+00   6.387974e-02
  2.265718e-01    1.919245e+00   6.166485e-02
  2.287822e-01    2.015579e+00   6.256799e-02
  2.309927e-01    2.052219e+00   6.255898e-02
  2.332031e-01    2.117831e+00   6.300727e-02
  2.354136e-01    2.151194e+00   6.298691e-02
  2.376241e-01    2.111490e+00   6.191861e-02
  2.398345e-01    2.151602e+00   6.204137e-02
  2.420450e-01    2.130892e+00   6.130083e-02
  2.442554e-01    2.061086e+00   5.987304e-02
  2.464659e-01    2.126596e+00   6.040878e-02
  2.486763e-01    2.124000e+00   5.997507e-02
  2.508868e-01    2.098075e+00   5.923190e-02
  2.530973e-01    2.104601e+00   5.895616e-02
  2.553077e-01    2.093127e+00   5.843858e-02
  2.575182e-01    2.095417e+00   5.812460e-02
  2.597286e-01    2.149336e+00   5.852547e-02
  2.619391e-01    2.091058e+00   5.739425e-02
  2.641495e-01    2.013358e+00   5.600609e-02
  2.663600e-01    2.046550e+00   5.615538e-02
  2.685704e-01    2.052997e+00   5.593885e-02
  2.707809e-01    2.009818e+00   5.505369e-02
  2.729914e-01    2.050014e+00   5.531174e-02
  2.752018e-01    2.040705e+00   5.489878e-02
  2.774123e-01    2.009104e+00   5.419382e-02
  2.796227e-01    1.974061e+00   5.345339e-02
  2.818332e-01    1.900411e+00   5.218513e-02
  2.840436e-01    2.003605e+00   5.332349e-02
  2.862541e-01    1.985941e+00   5.283275e-02
  2.884646e-01    1.963100e+00   5.227873e-02
  2.906750e-01    1.981889e+00   5.227929e-02
  2.928855e-01    1.934259e+00   5.140793e-02
  2.950959e-01    1.955342e+00   5.144991e-02
  2.973064e-01    1.961510e+00   5.129941e-02
  2.995168e-01    1.878749e+00   4.997814e-02
  3.017273e-01    1.895108e+00   4.997393e-02
  3.039377e-01    1.906284e+00   4.990163e-02
  3.061482e-01    1.889395e+00   4.946514e-02
  3.083587e-01    1.822824e+00   4.837563e-02
  3.105691e-01    1.908038e+00   4.928202e-02
  3.127796e-01    1.947688e+00   4.958211e-02
  3.149900e-01    1.938854e+00   4.926345e-02
  3.172005e-01    1.837349e+00   4.776046e-02
  3.194109e-01    1.900005e+00   4.836746e-02
  3.216214e-01    1.925816e+00   4.849622e-02
  3.238319e-01    1.879014e+00   4.771351e-02
  3.260423e-01    1.898674e+00   4.777143e-02
  3.282528e-01    1.855151e+00   4.703273e-02
  3.304632e-01    1.826916e+00   4.649263e-02
  3.326737e-01    1.857426e+00   4.669634e-02
  3.348841e-01    1.848552e+00   4.640402e-02
  3.370946e-01    1.823690e+00   4.591748e-02
  3.393050e-01    1.903594e+00   4.673493e-02
  3.415155e-01    1.840479e+00   4.578086e-02
  3.437260e-01    1.801300e+00   4.512309e-02
  3.459364e-01    1.824174e+00   4.524069e-02
  3.481469e-01    1.845546e+00   4.533886e-02
  3.503573e-01    1.807599e+00   4.470686e-02
  3.525678e-01    1.804999e+00   4.451548e-02
  3.547782e-01    1.785189e+00   4.411052e-02
  3.569887e-01    1.785006e+00   4.395197e-02
  3.591992e-01    1.826431e+00   4.430173e-02
  3.614096e-01    1.826578e+00   4.414992e-02
  3.636201e-01    1.814031e+00   4.384339e-02
  3.658305e-01    1.845138e+00   4.406689e-02
  3.680410e-01    1.793826e+00   4.330039e-02
  3.702514e-01    1.785148e+00   4.305026e-02
  3.724619e-01    1.792121e+00   4.298736e-02
  3.746724e-01    1.769568e+00   4.257352e-02
  3.768828e-01    1.774048e+00   4.248391e-02
  3.790933e-01    1.800759e+00   4.266309e-02
  3.813037e-01    1.773519e+00   4.220064e-02
  3.835142e-01    1.751236e+00   4.179698e-02
  3.857246e-01    1.729713e+00   4.140489e-02
  3.879351e-01    1.738982e+00   4.138130e-02
  3.901455e-01    1.746668e+00   4.134063e-02
  3.923560e-01    1.828096e+00   4.215884e-02
  3.945665e-01    1.741579e+00   4.101868e-02
  3.967769e-01    1.764997e+00   4.116420e-02
  3.989874e-01    1.792674e+00   4.135615e-02
  4.011978e-01    1.772506e+00   4.099641e-02
  4.034083e-01    1.772370e+00   4.086897e-02
  4.056187e-01    1.832249e+00   4.142561e-02
  4.078292e-01    1.761644e+00   4.049669e-02
  4.100397e-01    1.713640e+00   3.981917e-02
  4.122501e-01    1.793016e+00   4.060907e-02
  4.144606e-01    1.782450e+00   4.036921e-02
  4.166710e-01    1.772996e+00   4.014226e-02
  4.188815e-01    1.739773e+00   3.964694e-02
  4.210919e-01    1.735726e+00   3.948473e-02
  4.233024e-01    1.804327e+00   4.013902e-02
  4.255128e-01    1.827811e+00   4.028262e-02
  4.277233e-01    1.808835e+00   3.995785e-02
  4.299338e-01    1.843627e+00   4.022422e-02
  4.321442e-01    1.778677e+00   3.939628e-02
  4.343547e-01    1.760885e+00   3.908790e-02
  4.365651e-01    1.807103e+00   3.948504e-02
  4.387756e-01    1.744501e+00   3.868647e-02
  4.409860e-01    1.722589e+00   3.833623e-02
  4.431965e-01    1.764185e+00   3.868904e-02
  4.454070e-01    1.717924e+00   3.807222e-02
  4.476174e-01    1.693241e+00   3.769391e-02
  4.498279e-01    1.731015e+00   3.800835e-02
  4.520383e-01    1.747562e+00   3.808480e-02
  4.542488e-01    1.743327e+00   3.793604e-02
  4.564592e-01    1.725459e+00   3.763989e-02
  4.586697e-01    1.729265e+00   3.758136e-02
  4.608801e-01    1.709382e+00   3.726460e-02
  4.630906e-01    1.713528e+00   3.721097e-02
  4.653011e-01    1.707328e+00   3.704592e-02
  4.675115e-01    1.692349e+00   3.678591e-02
  4.697220e-01    1.729081e+00   3.708563e-02
  4.719324e-01    1.719911e+00   3.689149e-02
  4.741429e-01    1.679060e+00   3.635682e-02
  4.763533e-01    1.647470e+00   3.592085e-02
  4.785638e-01    1.710348e+00   3.650536e-02
  4.807743e-01    1.706855e+00   3.637533e-02
  4.829847e-01    1.691701e+00   3.612203e-02
  4.851952e-01    1.667058e+00   3.576721e-02
  4.874056e-01    1.668528e+00   3.569275e-02
  4.896161e-01    1.695603e+00   3.589195e-02
  4.918265e-01    1.713571e+00   3.599202e-02
  4.940370e-01    1.685410e+00   3.560693e-02
  4.962475e-01    1.678152e+00   3.544242e-02
  4.984579e-01    1.697591e+00   3.555926e-02
  5.006684e-01    1.681267e+00   3.530160e-02
  5.028788e-01    1.654116e+00   3.493054e-02
  5.050893e-01    1.685494e+00   3.517452e-02
  5.072997e-01    1.631779e+00   3.452594e-02
  5.095102e-01    1.612529e+00   3.423946e-02
  5.117206e-01    1.655576e+00   3.461096e-02
  5.139311e-01    1.667170e+00   3.464976e-02
  5.161416e-01    1.682410e+00   3.472551e-02
  5.183520e-01    1.678638e+00   3.460413e-02
  5.205625e-01    1.637892e+00   3.410152e-02
  5.227729e-01    1.596449e+00   3.358879e-02
  5.249834e-01    1.612393e+00   3.367772e-02
  5.271938e-01    1.677017e+00   3.426586e-02
  5.294043e-01    1.707664e+00   3.449773e-02
  5.316148e-01    1.714121e+00   3.448375e-02
  5.338252e-01    1.786664e+00   3.512538e-02
  5.360357e-01    1.807209e+00   3.524638e-02
  5.382461e-01    1.768256e+00   3.478564e-02
  5.404566e-01    1.742012e+00   3.444794e-02
  5.426670e-01    1.774049e+00   3.468494e-02
  5.448775e-01    1.788877e+00   3.475177e-02
  5.470879e-01    1.810353e+00   3.488180e-02
  5.492984e-01    1.786190e+00   3.457119e-02
  5.515089e-01    1.769392e+00   3.433192e-02
  5.537193e-01    1.770574e+00   3.426773e-02
  5.559298e-01    1.779135e+00   3.427513e-02
  5.581402e-01    1.808167e+00   3.447813e-02
  5.603507e-01    1.826876e+00   3.458065e-02
  5.625611e-01    1.797565e+00   3.422767e-02
  5.647716e-01    1.818058e+00   3.434747e-02
  5.669821e-01    1.804911e+00   3.414930e-02
  5.691925e-01    1.793822e+00   3.397115e-02
  5.714030e-01    1.793108e+00   3.389198e-02
  5.736134e-01    1.752813e+00   3.343773e-02
  5.758239e-01    1.738741e+00   3.323215e-02
  5.780343e-01    1.713147e+00   3.291688e-02
  5.802448e-01    1.690338e+00   3.262857e-02
  5.824552e-01    1.643693e+00   3.210773e-02
  5.846657e-01    1.634262e+00   3.194872e-02
  5.868762e-01    1.629405e+00   3.183481e-02
  5.890866e-01    1.643158e+00   3.190253e-02
  5.912971e-01    1.632703e+00   3.173506e-02
  5.935075e-01    1.653444e+00   3.186997e-02
  5.957180e-01    1.652321e+00   3.179380e-02
  5.979284e-01    1.638325e+00   3.159422e-02
  6.001389e-01    1.622454e+00   3.137681e-02
  6.023494e-01    1.579276e+00   3.089362e-02
  6.045598e-01    1.621130e+00   3.123657e-02
  6.067703e-01    1.631196e+00   3.127041e-02
  6.089807e-01    1.642440e+00   3.131490e-02
  6.111912e-01    1.642312e+00   3.125116e-02
  6.134016e-01    1.672210e+00   3.147142e-02
  6.156121e-01    1.694953e+00   3.162175e-02
  6.178226e-01    1.706604e+00   3.166743e-02
  6.200330e-01    1.673046e+00   3.129269e-02
  6.222435e-01    1.671089e+00   3.121243e-02
  6.244539e-01    1.646248e+00   3.091892e-02
  6.266644e-01    1.669906e+00   3.107952e-02
  6.288748e-01    1.691649e+00   3.122032e-02
  6.310853e-01    1.705896e+00   3.129066e-02
  6.332957e-01    1.706229e+00   3.123328e-02
  6.355062e-01    1.710595e+00   3.121247e-02
  6.377167e-01    1.702775e+00   3.108131e-02
  6.399271e-01    1.653492e+00   3.056953e-02
  6.421376e-01    1.667990e+00   3.064462e-02
  6.443480e-01    1.677807e+00   3.067622e-02
  6.465585e-01    1.679369e+00   3.063235e-02
  6.487689e-01    1.693015e+00   3.069848e-02
  6.509794e-01    1.684376e+00   3.056230e-02
  6.531899e-01    1.661375e+00   3.029585e-02
  6.554003e-01    1.625112e+00   2.990704e-02
  6.576108e-01    1.599123e+00   2.961170e-02
  6.598212e-01    1.593646e+00   2.950602e-02
  6.620317e-01    1.586634e+00   2.938647e-02
  6.642421e-01    1.623752e+00   2.967321e-02
  6.664526e-01    1.613569e+00   2.952553e-02
  6.686630e-01    1.612138e+00   2.945787e-02
  6.708735e-01    1.606798e+00   2.935510e-02
  6.730840e-01    1.601391e+00   2.925224e-02
  6.752944e-01    1.612806e+00   2.930291e-02
  6.775049e-01    1.619555e+00   2.931084e-02
  6.797153e-01    1.626062e+00   2.931650e-02
  6.819258e-01    1.579572e+00   2.884225e-02
  6.841362e-01    1.596586e+00   2.894503e-02
  6.863467e-01    1.587546e+00   2.881126e-02
  6.885572e-01    1.576282e+00   2.865743e-02
  6.907676e-01    1.591059e+00   2.873985e-02
  6.929781e-01    1.586228e+00   2.864519e-02
  6.951885e-01    1.594655e+00   2.867030e-02
  6.973990e-01    1.598961e+00   2.865823e-02
  6.996094e-01    1.568034e+00   2.832980e-02
  7.018199e-01    1.584960e+00   2.843228e-02
  7.040303e-01    1.597279e+00   2.849244e-02
  7.062408e-01    1.572252e+00   2.821882e-02
  7.084513e-01    1.582385e+00   2.826037e-02
  7.106617e-01    1.602880e+00   2.839336e-02
  7.128722e-01    1.611814e+00   2.842313e-02
  7.150826e-01    1.602284e+00   2.829013e-02
  7.172931e-01    1.617190e+00   2.837242e-02
  7.195035e-01    1.532327e+00   2.757050e-02
  7.217140e-01    1.512005e+00   2.743549e-02
  7.239245e-01    1.545172e+00   2.795939e-02
  7.261349e-01    1.556502e+00   2.816969e-02
  7.283454e-01    1.588826e+00   2.853342e-02
  7.305558e-01    1.561765e+00   2.834315e-02
  7.327663e-01    1.573753e+00   2.849421e-02
  7.349767e-01    1.556147e+00   2.835066e-02
  7.371872e-01    1.557806e+00   2.835463e-02
  7.393976e-01    1.553330e+00   2.829972e-02
  7.416081e-01    1.554860e+00   2.829757e-02
  7.438186e-01    1.562683e+00   2.822489e-02
  7.460290e-01    1.533907e+00   2.767343e-02
  7.482395e-01    1.545785e+00   2.761074e-02
  7.504499e-01    1.569350e+00   2.768439e-02
  7.526604e-01    1.537772e+00   2.728925e-02
  7.548708e-01    1.552770e+00   2.733321e-02
  7.570813e-01    1.534418e+00   2.712090e-02
  7.592918e-01    1.535561e+00   2.709625e-02
  7.615022e-01    1.534504e+00   2.705357e-02
  7.637127e-01    1.532183e+00   2.700075e-02
  7.659231e-01    1.556183e+00   2.717960e-02
  7.681336e-01    1.579690e+00   2.735244e-02
  7.703440e-01    1.586029e+00   2.737595e-02
  7.725545e-01    1.586523e+00   2.734919e-02
  7.747650e-01    1.639024e+00   2.775907e-02
  7.769754e-01    1.629129e+00   2.762158e-02
  7.791859e-01    1.581800e+00   2.716379e-02
  7.813963e-01    1.571358e+00   2.702151e-02
  7.836068e-01    1.579992e+00   2.704371e-02
  7.858172e-01    1.579431e+00   2.698837e-02
  7.880277e-01    1.554112e+00   2.672025e-02
  7.902381e-01    1.572036e+00   2.682505e-02
  7.924486e-01    1.590067e+00   2.692850e-02
  7.946591e-01    1.592088e+00   2.689741e-02
  7.968695e-01    1.601410e+00   2.692780e-02
  7.990800e-01    1.618607e+00   2.702361e-02
  8.012904e-01    1.598709e+00   2.681055e-02
  8.035009e-01    1.561590e+00   2.645031e-02
  8.057113e-01    1.588998e+00   2.663528e-02
  8.079218e-01    1.596508e+00   2.665208e-02
  8.101323e-01    1.610743e+00   2.672519e-02
  8.123427e-01    1.623603e+00   2.678590e-02
  8.145532e-01    1.593437e+00   2.649052e-02
  8.167636e-01    1.616082e+00   2.663319e-02
  8.189741e-01    1.641680e+00   2.679858e-02
  8.211845e-01    1.624655e+00   2.661456e-02
  8.233950e-01    1.626064e+00   2.658281e-02
  8.256054e-01    1.641380e+00   2.666344e-02
  8.278159e-01    1.598201e+00   2.626697e-02
  8.300264e-01    1.613797e+00   2.635203e-02
  8.322368e-01    1.628644e+00   2.643000e-02
  8.344473e-01    1.624008e+00   2.634919e-02
  8.366577e-01    1.591680e+00   2.604365e-02
  8.388682e-01    1.597141e+00   2.604657e-02
  8.410786e-01    1.632779e+00   2.629359e-02
  8.432891e-01    1.629187e+00   2.622295e-02
  8.454996e-01    1.609825e+00   2.602539e-02
  8.477100e-01    1.615004e+00   2.602585e-02
  8.499205e-01    1.630433e+00   2.610880e-02
  8.521309e-01    1.649167e+00   2.621745e-02
  8.543414e-01    1.602961e+00   2.580722e-02
  8.565518e-01    1.600924e+00   2.575068e-02
  8.587623e-01    1.609964e+00   2.578305e-02
  8.609727e-01    1.636223e+00   2.595217e-02
  8.631832e-01    1.637885e+00   2.592533e-02
  8.653937e-01    1.601264e+00   2.559446e-02
  8.676041e-01    1.558892e+00   2.521547e-02
  8.698146e-01    1.581120e+00   2.535575e-02
  8.720250e-01    1.575646e+00   2.527328e-02
  8.742355e-01    1.551085e+00   2.503735e-02
  8.764459e-01    1.522937e+00   2.477127e-02
  8.786564e-01    1.558969e+00   2.502524e-02
  8.808669e-01    1.555966e+00   2.496321e-02
  8.830773e-01    1.587296e+00   2.517533e-02
  8.852878e-01    1.602829e+00   2.526029e-02
  8.874982e-01    1.570838e+00   2.497064e-02
  8.897087e-01    1.534810e+00   2.464573e-02
  8.919191e-01    1.540541e+00   2.465464e-02
  8.941296e-01    1.567715e+00   2.483424e-02
  8.963401e-01    1.557302e+00   2.471569e-02
  8.985505e-01    1.584592e+00   2.489452e-02
  9.007610e-01    1.593491e+00   2.492767e-02
  9.029714e-01    1.583386e+00   2.481285e-02
  9.051819e-01    1.562821e+00   2.461441e-02
  9.073923e-01    1.567129e+00   2.461210e-02
  9.096028e-01    1.587029e+00   2.473311e-02
  9.118132e-01    1.566685e+00   2.453823e-02
  9.140237e-01    1.594326e+00   2.471717e-02
  9.162342e-01    1.606371e+00   2.477576e-02
  9.184446e-01    1.602810e+00   2.471248e-02
  9.206551e-01    1.566890e+00   2.439880e-02
  9.228655e-01    1.538383e+00   2.414126e-02
  9.250760e-01    1.582486e+00   2.444971e-02
  9.272864e-01    1.586887e+00   2.444961e-02
  9.294969e-01    1.567775e+00   2.426653e-02
  9.317074e-01    1.532319e+00   2.395663e-02
  9.339178e-01    1.583176e+00   2.431768e-02
  9.361283e-01    1.610702e+00   2.449203e-02
  9.383387e-01    1.631402e+00   2.461536e-02
  9.405492e-01    1.693565e+00   2.504494e-02
  9.427596e-01    1.672642e+00   2.485393e-02
  9.449701e-01    1.676229e+00   2.484676e-02
  9.471805e-01    1.640101e+00   2.454273e-02
  9.493910e-01    1.644783e+00   2.454398e-02
  9.516015e-01    1.665799e+00   2.466583e-02
  9.538119e-01    1.647370e+00   2.449538e-02
  9.560224e-01    1.713414e+00   2.494639e-02
  9.582328e-01    1.716247e+00   2.493354e-02
  9.604433e-01    1.731039e+00   2.500527e-02
  9.626537e-01    1.754258e+00   2.513860e-02
  9.648642e-01    1.739123e+00   2.499562e-02
  9.670747e-01    1.763943e+00   2.513863e-02
  9.692851e-01    1.815842e+00   2.547187e-02
  9.714956e-01    1.850917e+00   2.568044e-02
  9.737060e-01    1.845592e+00   2.560980e-02
  9.759165e-01    1.820438e+00   2.539880e-02
  9.781269e-01    1.832625e+00   2.545034e-02
  9.803374e-01    1.870827e+00   2.567868e-02
  9.825478e-01    1.813673e+00   2.525006e-02
  9.847583e-01    1.765448e+00   2.487824e-02
  9.869688e-01    1.782266e+00   2.496302e-02
  9.891792e-01    1.765964e+00   2.481556e-02
  9.913897e-01    1.737699e+00   2.458294e-02
  9.936001e-01    1.731783e+00   2.450894e-02
  9.958106e-01    1.724142e+00   2.442157e-02
  9.980210e-01    1.665503e+00   2.397155e-02
  1.000231e+00    1.638343e+00   2.390551e-02
  1.002442e+00    1.633129e+00   2.399428e-02
  1.004652e+00    1.591292e+00   2.375100e-02
  1.006863e+00    1.613012e+00   2.396216e-02
  1.009073e+00    1.595051e+00   2.386485e-02
  1.011284e+00    1.549667e+00   2.355435e-02
  1.013494e+00    1.543329e+00   2.352942e-02
  1.015705e+00    1.550611e+00   2.360716e-02
  1.017915e+00    1.566379e+00   2.374323e-02
  1.020126e+00    1.548441e+00   2.362286e-02
  1.022336e+00    1.489634e+00   2.318137e-02
  1.024547e+00    1.467238e+00   2.301733e-02
  1.026757e+00    1.498602e+00   2.327028e-02
  1.028967e+00    1.499743e+00   2.328672e-02
  1.031178e+00    1.470171e+00   2.306203e-02
  1.033388e+00    1.472041e+00   2.308163e-02
  1.035599e+00    1.485278e+00   2.318856e-02
  1.037809e+00    1.509414e+00   2.337945e-02
  1.040020e+00    1.473204e+00   2.309858e-02
  1.042230e+00    1.499066e+00   2.330234e-02
  1.044441e+00    1.514039e+00   2.341824e-02
  1.046651e+00    1.475333e+00   2.311713e-02
  1.048862e+00    1.452381e+00   2.293581e-02
  1.051072e+00    1.465192e+00   2.303442e-02
  1.053282e+00    1.475366e+00   2.311330e-02
  1.055493e+00    1.510157e+00   2.337991e-02
  1.057703e+00    1.492504e+00   2.324136e-02
  1.059914e+00    1.565412e+00   2.379785e-02
  1.062124e+00    1.573715e+00   2.385675e-02
  1.064335e+00    1.564953e+00   2.378670e-02
  1.066545e+00    1.539513e+00   2.358646e-02
  1.068756e+00    1.528915e+00   2.350134e-02
  1.070966e+00    1.520896e+00   2.343300e-02
  1.073177e+00    1.522835e+00   2.344175e-02
  1.075387e+00    1.579887e+00   2.387142e-02
  1.077597e+00    1.545210e+00   2.360057e-02
  1.079808e+00    1.512382e+00   2.321361e-02
  1.082018e+00    1.514206e+00   2.303526e-02
  1.084229e+00    1.456376e+00   2.248120e-02
  1.086439e+00    1.448225e+00   2.233096e-02
  1.088650e+00    1.474002e+00   2.245265e-02
  1.090860e+00    1.472735e+00   2.237494e-02
  1.093071e+00    1.476952e+00   2.234421e-02
  1.095281e+00    1.459870e+00   2.215711e-02
  1.097492e+00    1.436202e+00   2.192201e-02
  1.099702e+00    1.415606e+00   2.171332e-02
  1.101912e+00    1.399542e+00   2.154160e-02
  1.104123e+00    1.400276e+00   2.149960e-02
  1.106333e+00    1.409440e+00   2.152580e-02
  1.108544e+00    1.406890e+00   2.146241e-02
  1.110754e+00    1.407261e+00   2.142251e-02
  1.112965e+00    1.393222e+00   2.127528e-02
  1.115175e+00    1.386521e+00   2.118335e-02
  1.117386e+00    1.403688e+00   2.127498e-02
  1.119596e+00    1.374230e+00   2.101320e-02
  1.121807e+00    1.383046e+00   2.104204e-02
  1.124017e+00    1.376559e+00   2.095639e-02
  1.126228e+00    1.370779e+00   2.087703e-02
  1.128438e+00    1.391612e+00   2.099843e-02
  1.130648e+00    1.384995e+00   2.091431e-02
  1.132859e+00    1.363689e+00   2.071887e-02
  1.135069e+00    1.347545e+00   2.056169e-02
  1.137280e+00    1.352015e+00   2.056322e-02
  1.139490e+00    1.379259e+00   2.073640e-02
  1.141701e+00    1.354320e+00   2.051533e-02
  1.143911e+00    1.366101e+00   2.057269e-02
  1.146122e+00    1.357749e+00   2.047798e-02
  1.148332e+00    1.333436e+00   2.026246e-02
  1.150543e+00    1.337138e+00   2.026018e-02
  1.152753e+00    1.384929e+00   2.058812e-02
  1.154963e+00    1.343234e+00   2.024516e-02
  1.157174e+00    1.322969e+00   2.006224e-02
  1.159384e+00    1.351403e+00   2.024706e-02
  1.161595e+00    1.361198e+00   2.029056e-02
  1.163805e+00    1.350536e+00   2.018188e-02
  1.166016e+00    1.342492e+00   2.009252e-02
  1.168226e+00    1.338995e+00   2.003769e-02
  1.170437e+00    1.324058e+00   1.989741e-02
  1.172647e+00    1.339609e+00   1.998530e-02
  1.174858e+00    1.344186e+00   1.999154e-02
  1.177068e+00    1.312417e+00   1.972614e-02
  1.179278e+00    1.330109e+00   1.983042e-02
  1.181489e+00    1.347966e+00   1.993619e-02
  1.183699e+00    1.322050e+00   1.971644e-02
  1.185910e+00    1.298703e+00   1.951439e-02
  1.188120e+00    1.326221e+00   1.969366e-02
  1.190331e+00    1.331292e+00   1.970476e-02
  1.192541e+00    1.337963e+00   1.972685e-02
  1.194752e+00    1.333023e+00   1.966356e-02
  1.196962e+00    1.320217e+00   1.954343e-02
  1.199173e+00    1.335483e+00   1.962974e-02
  1.201383e+00    1.349451e+00   1.970497e-02
  1.203593e+00    1.339162e+00   1.960500e-02
  1.205804e+00    1.348290e+00   1.964579e-02
  1.208014e+00    1.321972e+00   1.942655e-02
  1.210225e+00    1.321175e+00   1.939561e-02
  1.212435e+00    1.364989e+00   1.968968e-02
  1.214646e+00    1.381911e+00   1.978495e-02
  1.216856e+00    1.362574e+00   1.962043e-02
  1.219067e+00    1.370957e+00   1.965605e-02
  1.221277e+00    1.367273e+00   1.960443e-02
  1.223488e+00    1.377514e+00   1.965171e-02
  1.225698e+00    1.332308e+00   1.929986e-02
  1.227909e+00    1.331710e+00   1.926552e-02
  1.230119e+00    1.335427e+00   1.926074e-02
  1.232329e+00    1.313329e+00   1.907040e-02
  1.234540e+00    1.339590e+00   1.922995e-02
  1.236750e+00    1.339221e+00   1.919715e-02
  1.238961e+00    1.330573e+00   1.910831e-02
  1.241171e+00    1.328612e+00   1.907022e-02
  1.243382e+00    1.368739e+00   1.933239e-02
  1.245592e+00    1.372813e+00   1.933684e-02
  1.247803e+00    1.362910e+00   1.924321e-02
  1.250013e+00    1.353415e+00   1.915247e-02
  1.252224e+00    1.386478e+00   1.936145e-02
  1.254434e+00    1.409786e+00   1.949925e-02
  1.256644e+00    1.436045e+00   1.965605e-02
  1.258855e+00    1.465091e+00   1.982963e-02
  1.261065e+00    1.419270e+00   1.949314e-02
  1.263276e+00    1.360178e+00   1.905998e-02
  1.265486e+00    1.360585e+00   1.903986e-02
  1.267697e+00    1.358747e+00   1.900390e-02
  1.269907e+00    1.339884e+00   1.884892e-02
  1.272118e+00    1.328816e+00   1.874851e-02
  1.274328e+00    1.338885e+00   1.879676e-02
  1.276539e+00    1.337737e+00   1.876602e-02
  1.278749e+00    1.311849e+00   1.856158e-02
  1.280959e+00    1.313881e+00   1.855372e-02
  1.283170e+00    1.336237e+00   1.868859e-02
  1.285380e+00    1.318971e+00   1.854525e-02
  1.287591e+00    1.345643e+00   1.870984e-02
  1.289801e+00    1.351931e+00   1.873226e-02
  1.292012e+00    1.348674e+00   1.869260e-02
  1.294222e+00    1.305126e+00   1.837238e-02
  1.296433e+00    1.309691e+00   1.838909e-02
  1.298643e+00    1.356351e+00   1.869729e-02
  1.300854e+00    1.356766e+00   1.868371e-02
  1.303064e+00    1.329712e+00   1.847741e-02
  1.305274e+00    1.351635e+00   1.860766e-02
  1.307485e+00    1.337924e+00   1.849158e-02
  1.309695e+00    1.364534e+00   1.865222e-02
  1.311906e+00    1.374864e+00   1.870077e-02
  1.314116e+00    1.375095e+00   1.868137e-02
  1.316327e+00    1.353272e+00   1.851081e-02
  1.318537e+00    1.371380e+00   1.861219e-02
  1.320748e+00    1.348557e+00   1.843513e-02
  1.322958e+00    1.346565e+00   1.840101e-02
  1.325169e+00    1.350510e+00   1.840692e-02
  1.327379e+00    1.360974e+00   1.845620e-02
  1.329589e+00    1.360308e+00   1.843053e-02
  1.331800e+00    1.374869e+00   1.850802e-02
  1.334010e+00    1.358710e+00   1.837824e-02
  1.336221e+00    1.328396e+00   1.815047e-02
  1.338431e+00    1.344843e+00   1.824166e-02
  1.340642e+00    1.327572e+00   1.818777e-02
  1.342852e+00    1.352435e+00   1.845805e-02
  1.345063e+00    1.344035e+00   1.845004e-02
  1.347273e+00    1.303705e+00   1.820575e-02
  1.349484e+00    1.337966e+00   1.847095e-02
  1.351694e+00    1.341205e+00   1.851594e-02
  1.353905e+00    1.340292e+00   1.852757e-02
  1.356115e+00    1.338891e+00   1.853287e-02
  1.358325e+00    1.326416e+00   1.845953e-02
  1.360536e+00    1.291620e+00   1.822717e-02
  1.362746e+00    1.299563e+00   1.829250e-02
  1.364957e+00    1.297638e+00   1.828647e-02
  1.367167e+00    1.313381e+00   1.840411e-02
  1.369378e+00    1.329183e+00   1.852049e-02
  1.371588e+00    1.313861e+00   1.841851e-02
  1.373799e+00    1.319841e+00   1.846401e-02
  1.376009e+00    1.315851e+00   1.843947e-02
  1.378220e+00    1.310402e+00   1.840373e-02
  1.380430e+00    1.301682e+00   1.834509e-02
  1.382640e+00    1.300349e+00   1.833658e-02
  1.384851e+00    1.287705e+00   1.824808e-02
  1.387061e+00    1.296819e+00   1.831284e-02
  1.389272e+00    1.301836e+00   1.834844e-02
  1.391482e+00    1.267368e+00   1.810325e-02
  1.393693e+00    1.284325e+00   1.822306e-02
  1.395903e+00    1.272213e+00   1.813547e-02
  1.398114e+00    1.266114e+00   1.809055e-02
  1.400324e+00    1.260311e+00   1.804695e-02
  1.402535e+00    1.242561e+00   1.791713e-02
  1.404745e+00    1.267367e+00   1.809271e-02
  1.406955e+00    1.279229e+00   1.817451e-02
  1.409166e+00    1.245119e+00   1.792729e-02
  1.411376e+00    1.249686e+00   1.795703e-02
  1.413587e+00    1.234430e+00   1.784333e-02
  1.415797e+00    1.264750e+00   1.805760e-02
  1.418008e+00    1.275269e+00   1.809059e-02
  1.420218e+00    1.259959e+00   1.783254e-02
  1.422429e+00    1.248686e+00   1.766799e-02
  1.424639e+00    1.250980e+00   1.762000e-02
  1.426850e+00    1.250301e+00   1.756095e-02
  1.429060e+00    1.271241e+00   1.765839e-02
  1.431270e+00    1.240247e+00   1.739800e-02
  1.433481e+00    1.239806e+00   1.735445e-02
  1.435691e+00    1.241491e+00   1.732822e-02
  1.437902e+00    1.265947e+00   1.746167e-02
  1.440112e+00    1.250391e+00   1.731899e-02
  1.442323e+00    1.253862e+00   1.731016e-02
  1.444533e+00    1.285645e+00   1.749544e-02
  1.446744e+00    1.277963e+00   1.741188e-02
  1.448954e+00    1.254118e+00   1.721866e-02
  1.451165e+00    1.268953e+00   1.729045e-02
  1.453375e+00    1.271757e+00   1.728148e-02
  1.455586e+00    1.265234e+00   1.720900e-02
  1.457796e+00    1.257896e+00   1.713164e-02
  1.460006e+00    1.255019e+00   1.708495e-02
  1.462217e+00    1.248609e+00   1.701526e-02
  1.464427e+00    1.246030e+00   1.697231e-02
  1.466638e+00    1.263483e+00   1.706548e-02
  1.468848e+00    1.246719e+00   1.692680e-02
  1.471059e+00    1.251598e+00   1.693496e-02
  1.473269e+00    1.263504e+00   1.699100e-02
  1.475480e+00    1.259122e+00   1.693784e-02
  1.477690e+00    1.251432e+00   1.686236e-02
  1.479901e+00    1.232593e+00   1.671145e-02
  1.482111e+00    1.252041e+00   1.681959e-02
  1.484321e+00    1.249036e+00   1.677644e-02
  1.486532e+00    1.231708e+00   1.663765e-02
  1.488742e+00    1.244772e+00   1.670316e-02
  1.490953e+00    1.243283e+00   1.667077e-02
  1.493163e+00    1.243668e+00   1.665125e-02
  1.495374e+00    1.238233e+00   1.659352e-02
  1.497584e+00    1.250338e+00   1.665290e-02
  1.499795e+00    1.234220e+00   1.652379e-02
  1.502005e+00    1.240476e+00   1.654409e-02
  1.504216e+00    1.243539e+00   1.654360e-02
  1.506426e+00    1.245718e+00   1.653739e-02
  1.508636e+00    1.225942e+00   1.638541e-02
  1.510847e+00    1.244732e+00   1.648876e-02
  1.513057e+00    1.224595e+00   1.633009e-02
  1.515268e+00    1.233380e+00   1.636305e-02
  1.517478e+00    1.244787e+00   1.641349e-02
  1.519689e+00    1.246727e+00   1.640140e-02
  1.521899e+00    1.241387e+00   1.634324e-02
  1.524110e+00    1.234240e+00   1.627594e-02
  1.526320e+00    1.225058e+00   1.619591e-02
  1.528531e+00    1.236554e+00   1.625207e-02
  1.530741e+00    1.239505e+00   1.625239e-02
  1.532951e+00    1.234807e+00   1.620209e-02
  1.535162e+00    1.235977e+00   1.629589e-02
  1.537372e+00    1.238912e+00   1.638186e-02
  1.539583e+00    1.253348e+00   1.651132e-02
  1.541793e+00    1.223950e+00   1.632344e-02
  1.544004e+00    1.229223e+00   1.635880e-02
  1.546214e+00    1.224590e+00   1.632646e-02
  1.548425e+00    1.232296e+00   1.637800e-02
  1.550635e+00    1.223055e+00   1.632608e-02
  1.552846e+00    1.223096e+00   1.633591e-02
  1.555056e+00    1.219613e+00   1.627158e-02
  1.557266e+00    1.238304e+00   1.628560e-02
  1.559477e+00    1.226395e+00   1.614843e-02
  1.561687e+00    1.242264e+00   1.622192e-02
  1.563898e+00    1.240873e+00   1.619569e-02
  1.566108e+00    1.227585e+00   1.609291e-02
  1.568319e+00    1.243470e+00   1.618107e-02
  1.570529e+00    1.242426e+00   1.614917e-02
  1.572740e+00    1.256870e+00   1.621501e-02
  1.574950e+00    1.246029e+00   1.611861e-02
  1.577161e+00    1.245499e+00   1.608969e-02
  1.579371e+00    1.228646e+00   1.595695e-02
  1.581582e+00    1.229593e+00   1.594345e-02
  1.583792e+00    1.234123e+00   1.595484e-02
  1.586002e+00    1.194281e+00   1.567795e-02
  1.588213e+00    1.207350e+00   1.574648e-02
  1.590423e+00    1.245503e+00   1.597327e-02
  1.592634e+00    1.244994e+00   1.594839e-02
  1.594844e+00    1.248122e+00   1.594695e-02
  1.597055e+00    1.225578e+00   1.578194e-02
  1.599265e+00    1.232842e+00   1.580798e-02
  1.601476e+00    1.237151e+00   1.581531e-02
  1.603686e+00    1.211385e+00   1.563022e-02
  1.605897e+00    1.191694e+00   1.548289e-02
  1.608107e+00    1.196863e+00   1.549720e-02
  1.610317e+00    1.200221e+00   1.549990e-02
  1.612528e+00    1.198101e+00   1.546733e-02
  1.614738e+00    1.211666e+00   1.553583e-02
  1.616949e+00    1.204113e+00   1.546855e-02
  1.619159e+00    1.193687e+00   1.538293e-02
  1.621370e+00    1.204012e+00   1.543097e-02
  1.623580e+00    1.179581e+00   1.525555e-02
  1.625791e+00    1.174019e+00   1.520155e-02
  1.628001e+00    1.162535e+00   1.510905e-02
  1.630212e+00    1.174427e+00   1.516851e-02
  1.632422e+00    1.167115e+00   1.510349e-02
  1.634632e+00    1.156912e+00   1.502019e-02
  1.636843e+00    1.150533e+00   1.496138e-02
  1.639053e+00    1.144094e+00   1.490240e-02
  1.641264e+00    1.126028e+00   1.476749e-02
  1.643474e+00    1.123757e+00   1.473548e-02
  1.645685e+00    1.131077e+00   1.476694e-02
  1.647895e+00    1.112671e+00   1.463002e-02
  1.650106e+00    1.096582e+00   1.450725e-02
  1.652316e+00    1.102797e+00   1.453215e-02
  1.654527e+00    1.113748e+00   1.458767e-02
  1.656737e+00    1.109576e+00   1.454395e-02
  1.658947e+00    1.125609e+00   1.463243e-02
  1.661158e+00    1.111297e+00   1.452295e-02
  1.663368e+00    1.101486e+00   1.444283e-02
  1.665579e+00    1.113353e+00   1.450431e-02
  1.667789e+00    1.094820e+00   1.436702e-02
  1.670000e+00    1.075690e+00   1.422570e-02
  1.672210e+00    1.092799e+00   1.432263e-02
  1.674421e+00    1.120592e+00   1.448818e-02
  1.676631e+00    1.108985e+00   1.439703e-02
  1.678842e+00    1.108276e+00   1.437660e-02
  1.681052e+00    1.079551e+00   1.417377e-02
  1.683263e+00    1.114007e+00   1.438286e-02
  1.685473e+00    1.094208e+00   1.423931e-02
  1.687683e+00    1.076498e+00   1.410820e-02
  1.689894e+00    1.076520e+00   1.409261e-02
  1.692104e+00    1.071684e+00   1.404605e-02
  1.694315e+00    1.044696e+00   1.385374e-02
  1.696525e+00    1.053217e+00   1.389509e-02
  1.698736e+00    1.050062e+00   1.385954e-02
  1.700946e+00    1.070876e+00   1.398100e-02
  1.703157e+00    1.044678e+00   1.379439e-02
  1.705367e+00    1.036633e+00   1.372677e-02
  1.707578e+00    1.032743e+00   1.368654e-02
  1.709788e+00    1.036683e+00   1.369858e-02
  1.711998e+00    1.037205e+00   1.368704e-02
  1.714209e+00    1.029545e+00   1.362206e-02
  1.716419e+00    1.013434e+00   1.350091e-02
  1.718630e+00    1.015315e+00   1.349929e-02
  1.720840e+00    1.003828e+00   1.340869e-02
  1.723051e+00    9.977298e-01   1.335422e-02
  1.725261e+00    9.869573e-01   1.326750e-02
  1.727472e+00    1.009646e+00   1.340501e-02
  1.729682e+00    9.768411e-01   1.317227e-02
  1.731893e+00    9.712879e-01   1.312110e-02
  1.734103e+00    9.859909e-01   1.320644e-02
  1.736313e+00    9.716328e-01   1.309614e-02
  1.738524e+00    9.841138e-01   1.316630e-02
  1.740734e+00    9.792149e-01   1.311991e-02
  1.742945e+00    9.634488e-01   1.300065e-02
  1.745155e+00    9.717395e-01   1.304314e-02
  1.747366e+00    9.610904e-01   1.295787e-02
  1.749576e+00    9.671391e-01   1.298503e-02
  1.751787e+00    9.388329e-01   1.278057e-02
  1.753997e+00    9.498933e-01   1.284243e-02
  1.756208e+00    9.801433e-01   1.303209e-02
  1.758418e+00    1.029208e+00   1.334079e-02
  1.760628e+00    1.035266e+00   1.336620e-02
  1.762839e+00    1.010735e+00   1.319340e-02
  1.765049e+00    9.642234e-01   1.287312e-02
  1.767260e+00    9.373458e-01   1.267976e-02
  1.769470e+00    9.401300e-01   1.268568e-02
  1.771681e+00    9.508513e-01   1.274470e-02
  1.773891e+00    9.238450e-01   1.254953e-02
  1.776102e+00    9.322477e-01   1.259370e-02
  1.778312e+00    9.558740e-01   1.273947e-02
  1.780523e+00    9.606146e-01   1.275817e-02
  1.782733e+00    9.589358e-01   1.273420e-02
  1.784944e+00    9.440435e-01   1.262200e-02
  1.787154e+00    9.536495e-01   1.267336e-02
  1.789364e+00    9.826177e-01   1.285158e-02
  1.791575e+00    1.005045e+00   1.298437e-02
  1.793785e+00    9.967350e-01   1.291769e-02
  1.795996e+00    9.792134e-01   1.279075e-02
  1.798206e+00    9.500046e-01   1.258580e-02
  1.800417e+00    9.580347e-01   1.262590e-02
  1.802627e+00    9.614531e-01   1.263619e-02
  1.804838e+00    9.257141e-01   1.238691e-02
  1.807048e+00    9.025124e-01   1.221788e-02
  1.809259e+00    8.972147e-01   1.216846e-02
  1.811469e+00    8.940539e-01   1.213212e-02
  1.813679e+00    8.730074e-01   1.197375e-02
  1.815890e+00    8.698867e-01   1.193779e-02
  1.818100e+00    8.468728e-01   1.176417e-02
  1.820311e+00    8.368046e-01   1.167971e-02
  1.822521e+00    8.359301e-01   1.165924e-02
  1.824732e+00    8.505744e-01   1.174641e-02
  1.826942e+00    8.611530e-01   1.180711e-02
  1.829153e+00    8.582979e-01   1.177599e-02
  1.831363e+00    8.766786e-01   1.188944e-02
  1.833574e+00    8.562245e-01   1.173842e-02
  1.835784e+00    8.517842e-01   1.169669e-02
  1.837994e+00    8.652287e-01   1.177700e-02
  1.840205e+00    8.444939e-01   1.162407e-02
  1.842415e+00    8.503346e-01   1.165256e-02
  1.844626e+00    8.726046e-01   1.179260e-02
  1.846836e+00    8.673123e-01   1.174536e-02
  1.849047e+00    8.840659e-01   1.184653e-02
  1.851257e+00    8.602871e-01   1.167658e-02
  1.853468e+00    8.386967e-01   1.152045e-02
  1.855678e+00    8.339055e-01   1.147874e-02
  1.857889e+00    8.376384e-01   1.149601e-02
  1.860099e+00    8.459856e-01   1.154456e-02
  1.862309e+00    8.592013e-01   1.162587e-02
  1.864520e+00    8.410609e-01   1.149401e-02
  1.866730e+00    8.422796e-01   1.149298e-02
  1.868941e+00    8.600324e-01   1.160250e-02
  1.871151e+00    8.413469e-01   1.146445e-02
  1.873362e+00    8.179519e-01   1.129280e-02
  1.875572e+00    8.081055e-01   1.121396e-02
  1.877783e+00    8.157048e-01   1.125534e-02
  1.879993e+00    8.214219e-01   1.128374e-02
  1.882204e+00    8.133076e-01   1.121717e-02
  1.884414e+00    8.284554e-01   1.131016e-02
  1.886624e+00    8.353482e-01   1.134613e-02
  1.888835e+00    8.167781e-01   1.120847e-02
  1.891045e+00    8.116706e-01   1.116269e-02
  1.893256e+00    8.044336e-01   1.110194e-02
  1.895466e+00    8.069092e-01   1.110805e-02
  1.897677e+00    7.942172e-01   1.100970e-02
  1.899887e+00    7.953067e-01   1.100651e-02
  1.902098e+00    8.182977e-01   1.115371e-02
  1.904308e+00    8.228951e-01   1.117450e-02
  1.906519e+00    8.029537e-01   1.102758e-02
  1.908729e+00    8.151692e-01   1.110065e-02
  1.910940e+00    8.088069e-01   1.104623e-02
  1.913150e+00    8.094444e-01   1.104010e-02
  1.915360e+00    8.124086e-01   1.104977e-02
  1.917571e+00    7.958678e-01   1.092600e-02
  1.919781e+00    7.975053e-01   1.092671e-02
  1.921992e+00    7.960560e-01   1.090630e-02
  1.924202e+00    7.990130e-01   1.091590e-02
  1.926413e+00    8.036622e-01   1.093740e-02
  1.928623e+00    7.839373e-01   1.079201e-02
  1.930834e+00    7.920245e-01   1.083721e-02
  1.933044e+00    8.025168e-01   1.089817e-02
  1.935255e+00    7.993723e-01   1.086653e-02
  1.937465e+00    7.981980e-01   1.084822e-02
  1.939675e+00    7.835556e-01   1.073758e-02
  1.941886e+00    7.794544e-01   1.069929e-02
  1.944096e+00    7.879264e-01   1.074722e-02
  1.946307e+00    7.818530e-01   1.069550e-02
  1.948517e+00    7.762283e-01   1.064669e-02
  1.950728e+00    7.683256e-01   1.058229e-02
  1.952938e+00    7.778836e-01   1.063794e-02
  1.955149e+00    7.864501e-01   1.068620e-02
  1.957359e+00    7.745148e-01   1.059488e-02
  1.959570e+00    7.700081e-01   1.055332e-02
  1.961780e+00    7.772091e-01   1.059274e-02
  1.963990e+00    7.691568e-01   1.052773e-02
  1.966201e+00    7.931787e-01   1.068080e-02
  1.968411e+00    7.842263e-01   1.061025e-02
  1.970622e+00    7.820511e-01   1.058545e-02
  1.972832e+00    7.838060e-01   1.058738e-02
  1.975043e+00    7.864648e-01   1.059528e-02
  1.977253e+00    7.723152e-01   1.048967e-02
  1.979464e+00    7.786120e-01   1.052233e-02
  1.981674e+00    7.820352e-01   1.053519e-02
  1.983885e+00    7.737115e-01   1.046901e-02
  1.986095e+00    7.756905e-01   1.047270e-02
  1.988305e+00    7.785195e-01   1.048191e-02
  1.990516e+00    7.583489e-01   1.033544e-02
  1.992726e+00    7.637122e-01   1.036233e-02
  1.994937e+00    7.644384e-01   1.035722e-02
  1.997147e+00    7.697841e-01   1.038366e-02
  1.999358e+00    7.697953e-01   1.037394e-02
  2.001568e+00    7.810346e-01   1.043850e-02
  2.003779e+00    7.716253e-01   1.036356e-02
  2.005989e+00    7.481372e-01   1.019276e-02
  2.008200e+00    7.553247e-01   1.023018e-02
  2.010410e+00    7.730687e-01   1.033786e-02
  2.012621e+00    7.844915e-01   1.040215e-02
  2.014831e+00    7.788767e-01   1.035329e-02
  2.017041e+00    7.700093e-01   1.028379e-02
  2.019252e+00    7.808112e-01   1.034561e-02
  2.021462e+00    7.615287e-01   1.020758e-02
  2.023673e+00    7.744370e-01   1.028428e-02
  2.025883e+00    7.790157e-01   1.030501e-02
  2.028094e+00    7.795764e-01   1.029899e-02
  2.030304e+00    7.525864e-01   1.010966e-02
  2.032515e+00    7.571145e-01   1.013073e-02
  2.034725e+00    7.553247e-01   1.010934e-02
  2.036936e+00    7.536393e-01   1.008874e-02
  2.039146e+00    7.470509e-01   1.003504e-02
  2.041356e+00    7.480328e-01   1.003205e-02
  2.043567e+00    7.327163e-01   9.919649e-03
  2.045777e+00    7.410025e-01   9.966401e-03
  2.047988e+00    7.509742e-01   1.002390e-02
  2.050198e+00    7.483946e-01   9.998283e-03
  2.052409e+00    7.377024e-01   9.919009e-03
  2.054619e+00    7.486664e-01   9.985096e-03
  2.056830e+00    7.259365e-01   9.825301e-03
  2.059040e+00    7.346976e-01   9.876970e-03
  2.061251e+00    7.330949e-01   9.859031e-03
  2.063461e+00    7.221298e-01   9.777571e-03
  2.065671e+00    7.308110e-01   9.827538e-03
  2.067882e+00    7.353437e-01   9.849043e-03
  2.070092e+00    7.415503e-01   9.881374e-03
  2.072303e+00    7.397385e-01   9.860191e-03
  2.074513e+00    7.286621e-01   9.776885e-03
  2.076724e+00    7.215742e-01   9.719891e-03
  2.078934e+00    7.297212e-01   9.765696e-03
  2.081145e+00    7.352446e-01   9.793537e-03
  2.083355e+00    7.561275e-01   9.922385e-03
  2.085566e+00    7.357211e-01   9.778718e-03
  2.087776e+00    7.412682e-01   9.805976e-03
  2.089986e+00    7.289291e-01   9.715307e-03
  2.092197e+00    7.014475e-01   9.521679e-03
  2.094407e+00    7.131876e-01   9.591918e-03
  2.096618e+00    7.252285e-01   9.663724e-03
  2.098828e+00    7.329005e-01   9.705406e-03
  2.101039e+00    7.388287e-01   9.735568e-03
  2.103249e+00    7.246852e-01   9.633307e-03
  2.105460e+00    7.098023e-01   9.524981e-03
  2.107670e+00    7.105101e-01   9.521101e-03
  2.109881e+00    7.215538e-01   9.585677e-03
  2.112091e+00    7.162248e-01   9.541290e-03
  2.114301e+00    7.208333e-01   9.563185e-03
  2.116512e+00    7.107425e-01   9.487291e-03
  2.118722e+00    7.094687e-01   9.470033e-03
  2.120933e+00    7.168565e-01   9.510381e-03
  2.123143e+00    7.136459e-01   9.480173e-03
  2.125354e+00    7.041824e-01   9.408677e-03
  2.127564e+00    6.944469e-01   9.334801e-03
  2.129775e+00    7.025979e-01   9.380773e-03
  2.131985e+00    7.052428e-01   9.389419e-03
  2.134196e+00    6.995693e-01   9.343072e-03
  2.136406e+00    7.018220e-01   9.349422e-03
  2.138617e+00    6.906751e-01   9.266540e-03
  2.140827e+00    7.060986e-01   9.385457e-03
  2.143037e+00    6.987600e-01   9.381780e-03
  2.145248e+00    6.796259e-01   9.274019e-03
  2.147458e+00    6.926349e-01   9.377362e-03
  2.149669e+00    6.772714e-01   9.284423e-03
  2.151879e+00    6.811911e-01   9.320334e-03
  2.154090e+00    6.872107e-01   9.368652e-03
  2.156300e+00    6.776918e-01   9.310053e-03
  2.158511e+00    6.787184e-01   9.322311e-03
  2.160721e+00    6.783691e-01   9.324671e-03
  2.162932e+00    6.867841e-01   9.386031e-03
  2.165142e+00    6.884686e-01   9.400541e-03
  2.167352e+00    6.882779e-01   9.402142e-03
  2.169563e+00    6.783296e-01   9.335869e-03
  2.171773e+00    6.753054e-01   9.317442e-03
  2.173984e+00    6.692666e-01   9.277085e-03
  2.176194e+00    6.782870e-01   9.340577e-03
  2.178405e+00    6.848826e-01   9.386566e-03
  2.180615e+00    6.831437e-01   9.375347e-03
  2.182826e+00    6.586053e-01   9.206069e-03
  2.185036e+00    6.761174e-01   9.327711e-03
  2.187247e+00    6.616195e-01   9.227121e-03
  2.189457e+00    6.740656e-01   9.313089e-03
  2.191667e+00    6.830350e-01   9.374676e-03
  2.193878e+00    6.782365e-01   9.341121e-03
  2.196088e+00    6.995513e-01   9.486082e-03
  2.198299e+00    6.703534e-01   9.284947e-03
  2.200509e+00    6.784192e-01   9.339547e-03
  2.202720e+00    6.929385e-01   9.437835e-03
  2.204930e+00    6.776339e-01   9.331766e-03
  2.207141e+00    6.930016e-01   9.435888e-03
  2.209351e+00    6.688606e-01   9.268197e-03
  2.211562e+00    6.728187e-01   9.293962e-03
  2.213772e+00    6.759171e-01   9.259900e-03
  2.215982e+00    6.700720e-01   9.175756e-03
  2.218193e+00    6.836279e-01   9.238300e-03
  2.220403e+00    6.578108e-01   9.037912e-03
  2.222614e+00    6.418707e-01   8.907297e-03
  2.224824e+00    6.475925e-01   8.927872e-03
  2.227035e+00    6.793676e-01   9.126761e-03
  2.229245e+00    6.597356e-01   8.977132e-03
  2.231456e+00    6.538209e-01   8.921369e-03
  2.233666e+00    6.621468e-01   8.963000e-03
  2.235877e+00    6.555018e-01   8.903801e-03
  2.238087e+00    6.840436e-01   9.081962e-03
  2.240298e+00    6.686906e-01   8.965721e-03
  2.242508e+00    6.638212e-01   8.917926e-03
  2.244718e+00    6.601034e-01   8.877221e-03
  2.246929e+00    6.537170e-01   8.819907e-03
  2.249139e+00    6.581540e-01   8.837492e-03
  2.251350e+00    6.558591e-01   8.810452e-03
  2.253560e+00    6.799150e-01   8.958915e-03
  2.255771e+00    6.475806e-01   8.732039e-03
  2.257981e+00    6.480042e-01   8.723840e-03
  2.260192e+00    6.592993e-01   8.788487e-03
  2.262402e+00    6.449685e-01   8.681769e-03
  2.264613e+00    6.357949e-01   8.609174e-03
  2.266823e+00    6.598372e-01   8.760070e-03
  2.269033e+00    6.666864e-01   8.795023e-03
  2.271244e+00    6.472956e-01   8.655909e-03
  2.273454e+00    6.420049e-01   8.610348e-03
  2.275665e+00    6.513101e-01   8.662296e-03
  2.277875e+00    6.564658e-01   8.686633e-03
  2.280086e+00    6.452283e-01   8.602030e-03
  2.282296e+00    6.575539e-01   8.674399e-03
  2.284507e+00    6.601313e-01   8.681264e-03
  2.286717e+00    6.516802e-01   8.616075e-03
  2.288928e+00    6.378306e-01   8.514322e-03
  2.291138e+00    6.368802e-01   8.498690e-03
  2.293348e+00    6.459724e-01   8.549663e-03
  2.295559e+00    6.349425e-01   8.467203e-03
  2.297769e+00    6.411559e-01   8.499369e-03
  2.299980e+00    6.302021e-01   8.417285e-03
  2.302190e+00    6.532293e-01   8.560563e-03
  2.304401e+00    6.461394e-01   8.504706e-03
  2.306611e+00    6.369225e-01   8.434733e-03
  2.308822e+00    6.378829e-01   8.432801e-03
  2.311032e+00    6.385399e-01   8.430736e-03
  2.313243e+00    6.473830e-01   8.482666e-03
  2.315453e+00    6.311738e-01   8.368334e-03
  2.317663e+00    6.323447e-01   8.367058e-03
  2.319874e+00    6.442353e-01   8.436652e-03
  2.322084e+00    6.319379e-01   8.346884e-03
  2.324295e+00    6.371850e-01   8.373275e-03
  2.326505e+00    6.336438e-01   8.341026e-03
  2.328716e+00    6.281399e-01   8.296239e-03
  2.330926e+00    6.308081e-01   8.305157e-03
  2.333137e+00    6.370576e-01   8.337843e-03
  2.335347e+00    6.306541e-01   8.287031e-03
  2.337558e+00    6.383683e-01   8.329354e-03
  2.339768e+00    6.133001e-01   8.155786e-03
  2.341979e+00    6.164379e-01   8.168386e-03
  2.344189e+00    6.187708e-01   8.175570e-03
  2.346399e+00    6.295090e-01   8.237730e-03
  2.348610e+00    6.522008e-01   8.376343e-03
  2.350820e+00    6.341828e-01   8.251655e-03
  2.353031e+00    6.328794e-01   8.234897e-03
  2.355241e+00    6.194562e-01   8.139124e-03
  2.357452e+00    6.240400e-01   8.160818e-03
  2.359662e+00    6.204268e-01   8.129013e-03
  2.361873e+00    6.171515e-01   8.099373e-03
  2.364083e+00    6.183352e-01   8.099237e-03
  2.366294e+00    6.170993e-01   8.083074e-03
  2.368504e+00    6.212454e-01   8.102154e-03
  2.370714e+00    6.094113e-01   8.016675e-03
  2.372925e+00    6.022863e-01   7.961745e-03
  2.375135e+00    6.247270e-01   8.100661e-03
  2.377346e+00    6.044385e-01   7.960232e-03
  2.379556e+00    6.027555e-01   7.941359e-03
  2.381767e+00    5.891498e-01   7.843579e-03
  2.383977e+00    6.011955e-01   7.915518e-03
  2.386188e+00    6.084000e-01   7.954977e-03
  2.388398e+00    6.067739e-01   7.936464e-03
  2.390609e+00    6.037962e-01   7.909323e-03
  2.392819e+00    6.028838e-01   7.895643e-03
  2.395029e+00    6.159403e-01   7.973042e-03
  2.397240e+00    6.038056e-01   7.886296e-03
  2.399450e+00    6.065018e-01   7.896129e-03
  2.401661e+00    5.973544e-01   7.828766e-03
  2.403871e+00    5.983475e-01   7.827600e-03
  2.406082e+00    6.006636e-01   7.835353e-03
  2.408292e+00    5.967479e-01   7.802059e-03
  2.410503e+00    5.987521e-01   7.807727e-03
  2.412713e+00    5.897666e-01   7.741232e-03
  2.414924e+00    5.907075e-01   7.740025e-03
  2.417134e+00    5.801111e-01   7.662800e-03
  2.419344e+00    5.995696e-01   7.782863e-03
  2.421555e+00    5.938926e-01   7.738478e-03
  2.423765e+00    5.985544e-01   7.761399e-03
  2.425976e+00    5.914658e-01   7.707556e-03
  2.428186e+00    5.874681e-01   7.674304e-03
  2.430397e+00    5.931246e-01   7.703715e-03
  2.432607e+00    5.870704e-01   7.657077e-03
  2.434818e+00    5.861256e-01   7.643419e-03
  2.437028e+00    5.808773e-01   7.602063e-03
  2.439239e+00    5.901276e-01   7.654705e-03
  2.441449e+00    5.883957e-01   7.636311e-03
  2.443659e+00    5.817026e-01   7.585446e-03
  2.445870e+00    5.829289e-01   7.605626e-03
  2.448080e+00    5.718184e-01   7.567274e-03
  2.450291e+00    5.655007e-01   7.541785e-03
  2.452501e+00    5.543478e-01   7.477981e-03
  2.454712e+00    5.661727e-01   7.565707e-03
  2.456922e+00    5.664707e-01   7.574287e-03
  2.459133e+00    5.575329e-01   7.519688e-03
  2.461343e+00    5.398469e-01   7.403701e-03
  2.463554e+00    5.573082e-01   7.525915e-03
  2.465764e+00    5.569189e-01   7.526432e-03
  2.467975e+00    5.543178e-01   7.511101e-03
  2.470185e+00    5.435728e-01   7.440169e-03
  2.472395e+00    5.271496e-01   7.328108e-03
  2.474606e+00    5.350859e-01   7.384585e-03
  2.476816e+00    5.432645e-01   7.441530e-03
  2.479027e+00    5.526175e-01   7.506177e-03
  2.481237e+00    5.487840e-01   7.480371e-03
  2.483448e+00    5.454707e-01   7.458073e-03
  2.485658e+00    5.372993e-01   7.401841e-03
  2.487869e+00    5.360321e-01   7.393161e-03
  2.490079e+00    5.260901e-01   7.323743e-03
  2.492290e+00    5.351217e-01   7.385924e-03
  2.494500e+00    5.164832e-01   7.255441e-03
  2.496710e+00    5.279217e-01   7.334648e-03
  2.498921e+00    5.292333e-01   7.342774e-03
  2.501131e+00    5.176573e-01   7.261077e-03
  2.503342e+00    5.133435e-01   7.229539e-03
  2.505552e+00    5.107916e-01   7.210415e-03
  2.507763e+00    5.170636e-01   7.253177e-03
  2.509973e+00    4.987497e-01   7.122196e-03
  2.512184e+00    5.023234e-01   7.146089e-03
  2.514394e+00    5.156216e-01   7.230800e-03
  2.516605e+00    5.184158e-01   7.203672e-03
  2.518815e+00    5.066357e-01   7.093564e-03
  2.521025e+00    5.306460e-01   7.238614e-03
  2.523236e+00    5.265064e-01   7.192361e-03
  2.525446e+00    5.221949e-01   7.147280e-03
  2.527657e+00    5.169896e-01   7.097084e-03
  2.529867e+00    5.118921e-01   7.048003e-03
  2.532078e+00    5.220898e-01   7.102860e-03
  2.534288e+00    5.099532e-01   7.006146e-03
  2.536499e+00    5.194790e-01   7.059379e-03
  2.538709e+00    5.310942e-01   7.126806e-03
  2.540920e+00    5.249634e-01   7.074903e-03
  2.543130e+00    5.228333e-01   7.050183e-03
  2.545340e+00    5.271212e-01   7.068941e-03
  2.547551e+00    5.067531e-01   6.921236e-03
  2.549761e+00    5.059524e-01   6.906329e-03
  2.551972e+00    5.078014e-01   6.909710e-03
  2.554182e+00    5.098128e-01   6.914305e-03
  2.556393e+00    5.041673e-01   6.866978e-03
  2.558603e+00    5.024527e-01   6.846359e-03
  2.560814e+00    5.213202e-01   6.965004e-03
  2.563024e+00    5.160469e-01   6.921155e-03
  2.565235e+00    5.058388e-01   6.842957e-03
  2.567445e+00    5.179224e-01   6.914662e-03
  2.569656e+00    5.061238e-01   6.825829e-03
  2.571866e+00    4.961446e-01   6.749041e-03
  2.574076e+00    5.039641e-01   6.792858e-03
  2.576287e+00    5.116033e-01   6.835847e-03
  2.578497e+00    5.194104e-01   6.879963e-03
  2.580708e+00    5.071442e-01   6.790211e-03
  2.582918e+00    4.894710e-01   6.663288e-03
  2.585129e+00    4.927556e-01   6.678000e-03
  2.587339e+00    5.013906e-01   6.728694e-03
  2.589550e+00    4.928483e-01   6.663714e-03
  2.591760e+00    5.031096e-01   6.725057e-03
  2.593971e+00    5.134498e-01   6.786277e-03
  2.596181e+00    5.084004e-01   6.746630e-03
  2.598391e+00    4.963121e-01   6.660823e-03
  2.600602e+00    4.888409e-01   6.604718e-03
  2.602812e+00    4.798865e-01   6.536606e-03
  2.605023e+00    5.048912e-01   6.697591e-03
  2.607233e+00    5.098269e-01   6.723134e-03
  2.609444e+00    5.102296e-01   6.718502e-03
  2.611654e+00    5.281484e-01   6.828014e-03
  2.613865e+00    4.942675e-01   6.598425e-03
  2.616075e+00    5.077212e-01   6.680448e-03
  2.618286e+00    5.129982e-01   6.708049e-03
  2.620496e+00    4.939425e-01   6.575655e-03
  2.622706e+00    5.142210e-01   6.703466e-03
  2.624917e+00    5.043336e-01   6.632891e-03
  2.627127e+00    4.931186e-01   6.553025e-03
  2.629338e+00    5.094298e-01   6.654510e-03
  2.631548e+00    5.056266e-01   6.623459e-03
  2.633759e+00    4.750595e-01   6.413178e-03
  2.635969e+00    4.765538e-01   6.416722e-03
  2.638180e+00    4.934436e-01   6.522511e-03
  2.640390e+00    5.020450e-01   6.572520e-03
  2.642601e+00    4.888402e-01   6.478929e-03
  2.644811e+00    4.876353e-01   6.463939e-03
  2.647021e+00    4.888984e-01   6.465830e-03
  2.649232e+00    4.793284e-01   6.395644e-03
  2.651442e+00    4.783035e-01   6.382444e-03
  2.653653e+00    4.798285e-01   6.385942e-03
  2.655863e+00    4.874845e-01   6.430062e-03
  2.658074e+00    5.045257e-01   6.534847e-03
  2.660284e+00    5.059729e-01   6.537806e-03
  2.662495e+00    4.919266e-01   6.439706e-03
  2.664705e+00    4.840552e-01   6.381494e-03
  2.666916e+00    4.885565e-01   6.404669e-03
  2.669126e+00    4.820006e-01   6.355196e-03
  2.671337e+00    4.924839e-01   6.417375e-03
  2.673547e+00    4.879320e-01   6.381315e-03
  2.675757e+00    4.923569e-01   6.403751e-03
  2.677968e+00    4.937039e-01   6.405988e-03
  2.680178e+00    4.803027e-01   6.312134e-03
  2.682389e+00    4.808109e-01   6.309151e-03
  2.684599e+00    4.897197e-01   6.361169e-03
  2.686810e+00    4.838876e-01   6.316630e-03
  2.689020e+00    4.786505e-01   6.276156e-03
  2.691231e+00    4.796082e-01   6.276201e-03
  2.693441e+00    4.830788e-01   6.292770e-03
  2.695652e+00    4.755163e-01   6.236922e-03
  2.697862e+00    4.730327e-01   6.214359e-03
  2.700072e+00    4.900168e-01   6.318850e-03
  2.702283e+00    4.992174e-01   6.371635e-03
  2.704493e+00    4.774154e-01   6.224741e-03
  2.706704e+00    4.971583e-01   6.345656e-03
  2.708914e+00    4.754511e-01   6.199724e-03
  2.711125e+00    4.666725e-01   6.136098e-03
  2.713335e+00    4.757297e-01   6.189326e-03
  2.715546e+00    4.707719e-01   6.150645e-03
  2.717756e+00    4.804530e-01   6.207711e-03
  2.719967e+00    4.889950e-01   6.256427e-03
  2.722177e+00    4.897612e-01   6.255174e-03
  2.724387e+00    4.799832e-01   6.186357e-03
  2.726598e+00    4.731845e-01   6.136399e-03
  2.728808e+00    4.840752e-01   6.200467e-03
  2.731019e+00    4.805186e-01   6.171551e-03
  2.733229e+00    4.753576e-01   6.132575e-03
  2.735440e+00    4.737974e-01   6.116297e-03
  2.737650e+00    4.740907e-01   6.112227e-03
  2.739861e+00    4.771799e-01   6.126085e-03
  2.742071e+00    4.756644e-01   6.110644e-03
  2.744282e+00    4.793312e-01   6.127925e-03
  2.746492e+00    4.806312e-01   6.130209e-03
  2.748702e+00    4.714429e-01   6.065503e-03
  2.750913e+00    4.550338e-01   5.953372e-03
  2.753123e+00    4.685796e-01   6.035285e-03
  2.755334e+00    4.759344e-01   6.076434e-03
  2.757544e+00    4.581016e-01   5.955910e-03
  2.759755e+00    4.723334e-01   6.041863e-03
  2.761965e+00    4.816798e-01   6.095370e-03
  2.764176e+00    4.917422e-01   6.152653e-03
  2.766386e+00    4.748653e-01   6.040385e-03
  2.768597e+00    4.731820e-01   6.023853e-03
  2.770807e+00    4.725093e-01   6.013715e-03
  2.773017e+00    4.706599e-01   5.996047e-03
  2.775228e+00    4.664195e-01   5.963231e-03
  2.777438e+00    4.751878e-01   6.013258e-03
  2.779649e+00    4.799915e-01   6.037669e-03
  2.781859e+00    4.616877e-01   5.915764e-03
  2.784070e+00    4.617046e-01   5.910111e-03
  2.786280e+00    4.580786e-01   5.881200e-03
  2.788491e+00    4.668992e-01   5.931766e-03
  2.790701e+00    4.780400e-01   5.996484e-03
  2.792912e+00    4.690965e-01   5.934206e-03
  2.795122e+00    4.685294e-01   5.924928e-03
  2.797333e+00    4.630135e-01   5.884448e-03
  2.799543e+00    4.772628e-01   5.968451e-03
  2.801753e+00    4.785594e-01   5.970677e-03
  2.803964e+00    4.725454e-01   5.927388e-03
  2.806174e+00    4.793757e-01   5.963909e-03
  2.808385e+00    4.724633e-01   5.913971e-03
  2.810595e+00    4.723607e-01   5.906479e-03
  2.812806e+00    4.640538e-01   5.847786e-03
  2.815016e+00    4.589213e-01   5.810682e-03
  2.817227e+00    4.695877e-01   5.903606e-03
  2.819437e+00    4.782858e-01   5.969196e-03
  2.821648e+00    4.581181e-01   5.844243e-03
  2.823858e+00    4.584432e-01   5.851538e-03
  2.826068e+00    4.763193e-01   5.969557e-03
  2.828279e+00    4.787121e-01   5.988585e-03
  2.830489e+00    4.701557e-01   5.938161e-03
  2.832700e+00    4.610455e-01   5.882879e-03
  2.834910e+00    4.670207e-01   5.922928e-03
  2.837121e+00    4.626115e-01   5.896599e-03
  2.839331e+00    4.534810e-01   5.839331e-03
  2.841542e+00    4.448501e-01   5.784479e-03
  2.843752e+00    4.632061e-01   5.903371e-03
  2.845963e+00    4.641852e-01   5.910022e-03
  2.848173e+00    4.668460e-01   5.927028e-03
  2.850383e+00    4.605598e-01   5.887268e-03
  2.852594e+00    4.603161e-01   5.885642e-03
  2.854804e+00    4.610310e-01   5.889705e-03
  2.857015e+00    4.546941e-01   5.848662e-03
  2.859225e+00    4.551976e-01   5.851642e-03
  2.861436e+00    4.733280e-01   5.966373e-03
  2.863646e+00    4.632270e-01   5.902443e-03
  2.865857e+00    4.626087e-01   5.898812e-03
  2.868067e+00    4.497446e-01   5.816441e-03
  2.870278e+00    4.726009e-01   5.962051e-03
  2.872488e+00    4.510255e-01   5.823235e-03
  2.874698e+00    4.609269e-01   5.885754e-03
  2.876909e+00    4.601626e-01   5.879537e-03
  2.879119e+00    4.661696e-01   5.916184e-03
  2.881330e+00    4.518011e-01   5.822839e-03
  2.883540e+00    4.437710e-01   5.769494e-03
  2.885751e+00    4.411319e-01   5.750713e-03
  2.887961e+00    4.532226e-01   5.827105e-03
  2.890172e+00    4.623969e-01   5.884192e-03
  2.892382e+00    4.454042e-01   5.773292e-03
  2.894593e+00    4.487640e-01   5.793232e-03
  2.896803e+00    4.527226e-01   5.816743e-03
  2.899014e+00    4.626579e-01   5.878327e-03
  2.901224e+00    4.642934e-01   5.886708e-03
  2.903434e+00    4.652057e-01   5.890524e-03
  2.905645e+00    4.650986e-01   5.887609e-03
  2.907855e+00    4.661269e-01   5.892014e-03
  2.910066e+00    4.646742e-01   5.880722e-03
  2.912276e+00    4.559540e-01   5.823181e-03
  2.914487e+00    4.592132e-01   5.841477e-03
  2.916697e+00    4.639647e-01   5.869400e-03
  2.918908e+00    4.492194e-01   5.773398e-03
  2.921118e+00    4.542855e-01   5.803156e-03
  2.923329e+00    4.576823e-01   5.822517e-03
  2.925539e+00    4.424170e-01   5.722341e-03
  2.927749e+00    4.512146e-01   5.776663e-03
  2.929960e+00    4.435831e-01   5.724872e-03
  2.932170e+00    4.390496e-01   5.693252e-03
  2.934381e+00    4.524319e-01   5.776935e-03
  2.936591e+00    4.546722e-01   5.788645e-03
  2.938802e+00    4.333197e-01   5.648471e-03
  2.941012e+00    4.413941e-01   5.698530e-03
  2.943223e+00    4.400258e-01   5.687041e-03
  2.945433e+00    4.597816e-01   5.809549e-03
  2.947644e+00    4.523677e-01   5.758425e-03
  2.949854e+00    4.532259e-01   5.759597e-03
  2.952064e+00    4.479587e-01   5.721863e-03
  2.954275e+00    4.547528e-01   5.760673e-03
  2.956485e+00    4.560223e-01   5.764505e-03
  2.958696e+00    4.642456e-01   5.811838e-03
  2.960906e+00    4.450496e-01   5.686294e-03
  2.963117e+00    4.440685e-01   5.675582e-03
  2.965327e+00    4.416615e-01   5.656325e-03
  2.967538e+00    4.424634e-01   5.658585e-03
  2.969748e+00    4.435248e-01   5.662592e-03
  2.971959e+00    4.519043e-01   5.712685e-03
  2.974169e+00    4.636774e-01   5.784016e-03
  2.976379e+00    4.578872e-01   5.744882e-03
  2.978590e+00    4.491278e-01   5.686534e-03
  2.980800e+00    4.597111e-01   5.750323e-03
  2.983011e+00    4.582315e-01   5.738258e-03
  2.985221e+00    4.359548e-01   5.593957e-03
  2.987432e+00    4.485481e-01   5.671063e-03
  2.989642e+00    4.518110e-01   5.689047e-03
  2.991853e+00    4.603704e-01   5.739375e-03
  2.994063e+00    4.551019e-01   5.703525e-03
  2.996274e+00    4.579903e-01   5.718424e-03
  2.998484e+00    4.355281e-01   5.573764e-03
  3.000694e+00    4.492343e-01   5.657360e-03
  3.002905e+00    4.449487e-01   5.627391e-03
  3.005115e+00    4.517862e-01   5.667499e-03
  3.007326e+00    4.432261e-01   5.610421e-03
  3.009536e+00    4.421293e-01   5.600273e-03
  3.011747e+00    4.402454e-01   5.585457e-03
  3.013957e+00    4.474208e-01   5.627612e-03
  3.016168e+00    4.607482e-01   5.707537e-03
  3.018378e+00    4.512688e-01   5.645484e-03
  3.020589e+00    4.545059e-01   5.662473e-03
  3.022799e+00    4.527218e-01   5.648204e-03
  3.025010e+00    4.586370e-01   5.681696e-03
  3.027220e+00    4.552484e-01   5.657561e-03
  3.029430e+00    4.501973e-01   5.622847e-03
  3.031641e+00    4.406474e-01   5.559815e-03
  3.033851e+00    4.259880e-01   5.463106e-03
  3.036062e+00    4.397878e-01   5.548145e-03
  3.038272e+00    4.552567e-01   5.641283e-03
  3.040483e+00    4.603792e-01   5.669703e-03
  3.042693e+00    4.427249e-01   5.556680e-03
  3.044904e+00    4.547727e-01   5.627748e-03
  3.047114e+00    4.419173e-01   5.542879e-03
  3.049325e+00    4.448614e-01   5.556935e-03
  3.051535e+00    4.502021e-01   5.585812e-03
  3.053745e+00    4.522810e-01   5.593928e-03
  3.055956e+00    4.495578e-01   5.572497e-03
  3.058166e+00    4.526217e-01   5.587183e-03
  3.060377e+00    4.492327e-01   5.561462e-03
  3.062587e+00    4.409984e-01   5.505677e-03
  3.064798e+00    4.408076e-01   5.500272e-03
  3.067008e+00    4.432036e-01   5.510496e-03
  3.069219e+00    4.490578e-01   5.542274e-03
  3.071429e+00    4.450639e-01   5.514077e-03
  3.073640e+00    4.420141e-01   5.491847e-03
  3.075850e+00    4.465795e-01   5.516554e-03
  3.078060e+00    4.512917e-01   5.542482e-03
  3.080271e+00    4.439812e-01   5.493957e-03
  3.082481e+00    4.377579e-01   5.451893e-03
  3.084692e+00    4.353398e-01   5.433498e-03
  3.086902e+00    4.298358e-01   5.395872e-03
  3.089113e+00    4.258217e-01   5.367114e-03
  3.091323e+00    4.340226e-01   5.415255e-03
  3.093534e+00    4.335512e-01   5.408975e-03
  3.095744e+00    4.401276e-01   5.446492e-03
  3.097955e+00    4.419847e-01   5.454457e-03
  3.100165e+00    4.374741e-01   5.423261e-03
  3.102375e+00    4.374467e-01   5.419703e-03
  3.104586e+00    4.368577e-01   5.412607e-03
  3.106796e+00    4.325845e-01   5.382601e-03
  3.109007e+00    4.330693e-01   5.382437e-03
  3.111217e+00    4.308395e-01   5.364946e-03
  3.113428e+00    4.366884e-01   5.397844e-03
  3.115638e+00    4.399513e-01   5.414773e-03
  3.117849e+00    4.403081e-01   5.413266e-03
  3.120059e+00    4.466733e-01   5.448763e-03
  3.122270e+00    4.474502e-01   5.450258e-03
  3.124480e+00    4.491415e-01   5.456831e-03
  3.126691e+00    4.427941e-01   5.414595e-03
  3.128901e+00    4.354553e-01   5.366435e-03
  3.131111e+00    4.390203e-01   5.384543e-03
  3.133322e+00    4.431245e-01   5.406217e-03
  3.135532e+00    4.373985e-01   5.367781e-03
  3.137743e+00    4.458730e-01   5.416063e-03
  3.139953e+00    4.361700e-01   5.353154e-03
  3.142164e+00    4.296069e-01   5.324549e-03
  3.144374e+00    4.451572e-01   5.448550e-03
  3.146585e+00    4.454227e-01   5.464792e-03
  3.148795e+00    4.409366e-01   5.447977e-03
  3.151006e+00    4.288420e-01   5.381149e-03
  3.153216e+00    4.319937e-01   5.407937e-03
  3.155426e+00    4.337375e-01   5.425099e-03
  3.157637e+00    4.347429e-01   5.436873e-03
  3.159847e+00    4.319286e-01   5.424072e-03
  3.162058e+00    4.349777e-01   5.447604e-03
  3.164268e+00    4.198107e-01   5.355734e-03
  3.166479e+00    4.318859e-01   5.435836e-03
  3.168689e+00    4.307040e-01   5.431733e-03
  3.170900e+00    4.256843e-01   5.403102e-03
  3.173110e+00    4.276500e-01   5.418406e-03
  3.175321e+00    4.423677e-01   5.513345e-03
  3.177531e+00    4.396264e-01   5.499005e-03
  3.179741e+00    4.286390e-01   5.431887e-03
  3.181952e+00    4.261201e-01   5.418001e-03
  3.184162e+00    4.278892e-01   5.431374e-03
  3.186373e+00    4.431509e-01   5.529021e-03
  3.188583e+00    4.318965e-01   5.460133e-03
  3.190794e+00    4.227941e-01   5.404024e-03
  3.193004e+00    4.212433e-01   5.395317e-03
  3.195215e+00    4.307064e-01   5.457074e-03
  3.197425e+00    4.312232e-01   5.461544e-03
  3.199636e+00    4.305698e-01   5.456666e-03
  3.201846e+00    4.277128e-01   5.437911e-03
  3.204056e+00    4.218591e-01   5.401460e-03
  3.206267e+00    4.239163e-01   5.415438e-03
  3.208477e+00    4.265034e-01   5.432864e-03
  3.210688e+00    4.298767e-01   5.455143e-03
  3.212898e+00    4.306478e-01   5.460611e-03
  3.215109e+00    4.283225e-01   5.446595e-03
  3.217319e+00    4.189631e-01   5.387387e-03
  3.219530e+00    4.206866e-01   5.398844e-03
  3.221740e+00    4.187530e-01   5.386977e-03
  3.223951e+00    4.319098e-01   5.471422e-03
  3.226161e+00    4.252336e-01   5.429149e-03
  3.228372e+00    4.286236e-01   5.451280e-03
  3.230582e+00    4.297651e-01   5.458666e-03
  3.232792e+00    4.240862e-01   5.422724e-03
  3.235003e+00    4.317172e-01   5.471525e-03
  3.237213e+00    4.289089e-01   5.453818e-03
  3.239424e+00    4.245698e-01   5.426136e-03
  3.241634e+00    4.290437e-01   5.454793e-03
  3.243845e+00    4.158510e-01   5.370344e-03
  3.246055e+00    4.211390e-01   5.404087e-03
  3.248266e+00    4.286054e-01   5.452008e-03
  3.250476e+00    4.284353e-01   5.450613e-03
  3.252687e+00    4.111429e-01   5.339407e-03
  3.254897e+00    4.279372e-01   5.447235e-03
  3.257107e+00    4.160841e-01   5.370976e-03
  3.259318e+00    4.158826e-01   5.369442e-03
  3.261528e+00    4.077482e-01   5.316522e-03
  3.263739e+00    4.221897e-01   5.409290e-03
  3.265949e+00    4.284610e-01   5.449214e-03
  3.268160e+00    4.266838e-01   5.437478e-03
  3.270370e+00    4.209000e-01   5.399999e-03
  3.272581e+00    4.232856e-01   5.414991e-03
  3.274791e+00    4.188428e-01   5.385980e-03
  3.277002e+00    4.136507e-01   5.351946e-03
  3.279212e+00    4.143528e-01   5.356096e-03
  3.281422e+00    4.139981e-01   5.353233e-03
  3.283633e+00    4.138664e-01   5.351726e-03
  3.285843e+00    4.066661e-01   5.304622e-03
  3.288054e+00    4.272660e-01   5.436372e-03
  3.290264e+00    4.191081e-01   5.383926e-03
  3.292475e+00    4.198514e-01   5.387849e-03
  3.294685e+00    4.214375e-01   5.397406e-03
  3.296896e+00    4.172809e-01   5.369959e-03
  3.299106e+00    4.207944e-01   5.391972e-03
  3.301317e+00    4.181978e-01   5.374282e-03
  3.303527e+00    4.087650e-01   5.312879e-03
  3.305737e+00    4.122653e-01   5.334543e-03
  3.307948e+00    4.161022e-01   5.358617e-03
  3.310158e+00    4.209451e-01   5.388910e-03
  3.312369e+00    4.093356e-01   5.313169e-03
  3.314579e+00    4.294348e-01   5.441154e-03
  3.316790e+00    4.102935e-01   5.317815e-03
  3.319000e+00    4.148497e-01   5.346070e-03
  3.321211e+00    4.153346e-01   5.348602e-03
  3.323421e+00    4.158871e-01   5.350948e-03
  3.325632e+00    4.235112e-01   5.398901e-03
  3.327842e+00    4.201380e-01   5.376446e-03
  3.330052e+00    4.162457e-01   5.350395e-03
  3.332263e+00    4.165463e-01   5.351353e-03
  3.334473e+00    4.215571e-01   5.382513e-03
  3.336684e+00    4.196216e-01   5.368876e-03
  3.338894e+00    4.063579e-01   5.282531e-03
  3.341105e+00    4.204066e-01   5.371839e-03
  3.343315e+00    4.045047e-01   5.268176e-03
  3.345526e+00    4.056255e-01   5.274555e-03
  3.347736e+00    4.120510e-01   5.314790e-03
  3.349947e+00    4.132677e-01   5.321706e-03
  3.352157e+00    4.116995e-01   5.310434e-03
  3.354368e+00    4.230125e-01   5.381604e-03
  3.356578e+00    4.162197e-01   5.337210e-03
  3.358788e+00    4.156370e-01   5.332130e-03
  3.360999e+00    4.139393e-01   5.320008e-03
  3.363209e+00    4.067368e-01   5.272522e-03
  3.365420e+00    4.041058e-01   5.253931e-03
  3.367630e+00    4.067816e-01   5.270315e-03
  3.369841e+00    3.886572e-01   5.150180e-03
  3.372051e+00    3.994705e-01   5.219381e-03
  3.374262e+00    4.139492e-01   5.310711e-03
  3.376472e+00    4.155099e-01   5.318275e-03
  3.378683e+00    4.062008e-01   5.255867e-03
  3.380893e+00    4.207464e-01   5.346810e-03
  3.383103e+00    4.038308e-01   5.235569e-03
  3.385314e+00    4.119563e-01   5.285738e-03
  3.387524e+00    4.158891e-01   5.308182e-03
  3.389735e+00    4.117281e-01   5.278943e-03
  3.391945e+00    4.052765e-01   5.233791e-03
  3.394156e+00    3.956876e-01   5.167352e-03
  3.396366e+00    4.045006e-01   5.221208e-03
  3.398577e+00    3.985416e-01   5.179605e-03
  3.400787e+00    4.051091e-01   5.233948e-03
  3.402998e+00    3.879394e-01   5.158849e-03
  3.405208e+00    4.020476e-01   5.272385e-03
  3.407418e+00    4.057787e-01   5.312672e-03
  3.409629e+00    3.967837e-01   5.267366e-03
  3.411839e+00    3.885417e-01   5.223966e-03
  3.414050e+00    3.885198e-01   5.234702e-03
  3.416260e+00    3.889106e-01   5.246910e-03
  3.418471e+00    3.903924e-01   5.266266e-03
  3.420681e+00    3.788757e-01   5.196358e-03
  3.422892e+00    3.752632e-01   5.179378e-03
  3.425102e+00    3.856696e-01   5.258448e-03
  3.427313e+00    3.692671e-01   5.152453e-03
  3.429523e+00    3.874729e-01   5.284960e-03
  3.431733e+00    3.982961e-01   5.365074e-03
  3.433944e+00    3.806644e-01   5.251420e-03
  3.436154e+00    3.853727e-01   5.290064e-03
  3.438365e+00    3.765348e-01   5.234929e-03
  3.440575e+00    3.615221e-01   5.135299e-03
  3.442786e+00    3.783151e-01   5.258801e-03
  3.444996e+00    3.688484e-01   5.198042e-03
  3.447207e+00    3.558206e-01   5.110569e-03
  3.449417e+00    3.710472e-01   5.259551e-03
  3.451628e+00    3.607543e-01   5.215220e-03
  3.453838e+00    3.587953e-01   5.221929e-03
  3.456049e+00    3.607702e-01   5.259990e-03
  3.458259e+00    3.590939e-01   5.269452e-03
  3.460469e+00    3.649699e-01   5.332143e-03
  3.462680e+00    3.766596e-01   5.436198e-03
  3.464890e+00    3.531108e-01   5.281008e-03
  3.467101e+00    3.585781e-01   5.338982e-03
  3.469311e+00    3.569485e-01   5.343036e-03
  3.471522e+00    3.947816e-01   5.635929e-03
  3.473732e+00    3.717233e-01   5.484656e-03
  3.475943e+00    3.821006e-01   5.576383e-03
  3.478153e+00    3.888456e-01   5.640828e-03
  3.480364e+00    3.978651e-01   5.721130e-03
  3.482574e+00    4.111652e-01   5.831429e-03
  3.484784e+00    4.084241e-01   5.826818e-03
  3.486995e+00    4.168634e-01   5.901801e-03
  3.489205e+00    4.173598e-01   5.919890e-03
  3.491416e+00    4.341229e-01   6.052630e-03
  3.493626e+00    4.404728e-01   6.111441e-03
  3.495837e+00    4.339644e-01   6.080746e-03
  3.498047e+00    4.696203e-01   6.340518e-03
  3.500258e+00    4.516504e-01   6.232623e-03
  3.502468e+00    4.557329e-01   6.275150e-03
  3.504679e+00    4.641279e-01   6.347221e-03
  3.506889e+00    4.755058e-01   6.439165e-03
  3.509099e+00    4.654539e-01   6.384995e-03
  3.511310e+00    4.789409e-01   6.491343e-03
  3.513520e+00    4.830143e-01   6.533331e-03
  3.515731e+00    4.885357e-01   6.584982e-03
  3.517941e+00    4.914132e-01   6.618709e-03
  3.520152e+00    4.911726e-01   6.631385e-03
  3.522362e+00    5.051670e-01   6.739702e-03
  3.524573e+00    5.159563e-01   6.825734e-03
  3.526783e+00    5.063132e-01   6.774954e-03
  3.528994e+00    5.104034e-01   6.814408e-03
  3.531204e+00    5.235997e-01   6.914434e-03
  3.533414e+00    5.227747e-01   6.921017e-03
  3.535625e+00    5.189173e-01   6.907719e-03
  3.537835e+00    5.306023e-01   6.997135e-03
  3.540046e+00    5.494929e-01   7.129643e-03
  3.542256e+00    5.356486e-01   7.046830e-03
  3.544467e+00    5.128028e-01   6.902367e-03
  3.546677e+00    4.979758e-01   6.809118e-03
  3.548888e+00    5.219062e-01   6.978203e-03
  3.551098e+00    5.427840e-01   7.123756e-03
  3.553309e+00    5.397999e-01   7.112338e-03
  3.555519e+00    5.384775e-01   7.114967e-03
  3.557729e+00    5.188776e-01   6.995776e-03
  3.559940e+00    5.344746e-01   7.111695e-03
  3.562150e+00    5.282969e-01   7.082107e-03
  3.564361e+00    5.285875e-01   7.097244e-03
  3.566571e+00    5.402816e-01   7.189255e-03
  3.568782e+00    5.125400e-01   7.016022e-03
  3.570992e+00    5.382285e-01   7.203478e-03
  3.573203e+00    5.403942e-01   7.232179e-03
  3.575413e+00    5.424948e-01   7.260084e-03
  3.577624e+00    5.260911e-01   7.163438e-03
  3.579834e+00    5.378559e-01   7.257028e-03
  3.582045e+00    5.327033e-01   7.236168e-03
  3.584255e+00    5.362966e-01   7.274584e-03
  3.586465e+00    5.306997e-01   7.250398e-03
  3.588676e+00    5.285192e-01   7.249571e-03
  3.590886e+00    5.247236e-01   7.237076e-03
  3.593097e+00    5.091488e-01   7.142982e-03
  3.595307e+00    5.155883e-01   7.201651e-03
  3.597518e+00    5.298582e-01   7.314791e-03
  3.599728e+00    5.191821e-01   7.254621e-03
  3.601939e+00    5.220572e-01   7.288548e-03
  3.604149e+00    5.369016e-01   7.405862e-03
  3.606360e+00    5.267863e-01   7.349808e-03
  3.608570e+00    5.204777e-01   7.319622e-03
  3.610780e+00    5.312969e-01   7.406351e-03
  3.612991e+00    5.214936e-01   7.347548e-03
  3.615201e+00    5.317885e-01   7.429522e-03
  3.617412e+00    5.460447e-01   7.535762e-03
  3.619622e+00    5.519902e-01   7.582776e-03
  3.621833e+00    5.336401e-01   7.462359e-03
  3.624043e+00    5.477448e-01   7.569933e-03
  3.626254e+00    5.458894e-01   7.566951e-03
  3.628464e+00    5.430980e-01   7.558628e-03
  3.630675e+00    5.407543e-01   7.556519e-03
  3.632885e+00    5.320143e-01   7.509612e-03
  3.635095e+00    5.383447e-01   7.568614e-03
  3.637306e+00    5.353639e-01   7.562018e-03
  3.639516e+00    5.582743e-01   7.737014e-03
  3.641727e+00    5.403969e-01   7.626833e-03
  3.643937e+00    5.030909e-01   7.372932e-03
  3.646148e+00    5.453756e-01   7.691317e-03
  3.648358e+00    5.283387e-01   7.585068e-03
  3.650569e+00    5.220111e-01   7.554035e-03
  3.652779e+00    5.362373e-01   7.671127e-03
  3.654990e+00    5.388173e-01   7.704521e-03
  3.657200e+00    5.282069e-01   7.643146e-03
  3.659410e+00    5.382106e-01   7.730224e-03
  3.661621e+00    5.446822e-01   7.791829e-03
  3.663831e+00    5.255545e-01   7.668871e-03
  3.666042e+00    5.257648e-01   7.685434e-03
  3.668252e+00    5.200264e-01   7.658474e-03
  3.670463e+00    5.398158e-01   7.818174e-03
  3.672673e+00    5.343875e-01   7.794273e-03
  3.674884e+00    5.238433e-01   7.732272e-03
  3.677094e+00    5.351363e-01   7.830746e-03
  3.679305e+00    5.329565e-01   7.830401e-03
  3.681515e+00    5.360410e-01   7.868718e-03
  3.683726e+00    5.012262e-01   7.624279e-03
  3.685936e+00    5.237884e-01   7.809598e-03
  3.688146e+00    5.093479e-01   7.716729e-03
  3.690357e+00    5.075834e-01   7.718928e-03
  3.692567e+00    5.176818e-01   7.811334e-03
  3.694778e+00    5.151988e-01   7.808474e-03
  3.696988e+00    5.090156e-01   7.777200e-03
  3.699199e+00    5.089921e-01   7.792986e-03
  3.701409e+00    4.988708e-01   7.731065e-03
  3.703620e+00    5.221407e-01   7.925604e-03
  3.705830e+00    5.224693e-01   7.944451e-03
  3.708041e+00    5.237004e-01   7.970431e-03
  3.710251e+00    5.097098e-01   7.879718e-03
  3.712461e+00    5.291105e-01   8.045095e-03
  3.714672e+00    5.061201e-01   7.884895e-03
  3.716882e+00    5.208519e-01   8.015494e-03
  3.719093e+00    5.197169e-01   8.023923e-03
  3.721303e+00    5.190020e-01   8.035295e-03
  3.723514e+00    5.103059e-01   7.984862e-03
  3.725724e+00    5.138096e-01   8.029294e-03
  3.727935e+00    5.051757e-01   7.978782e-03
  3.730145e+00    5.231966e-01   8.137277e-03
  3.732356e+00    5.109844e-01   8.059209e-03
  3.734566e+00    5.224549e-01   8.166782e-03
  3.736776e+00    5.185429e-01   8.154013e-03
  3.738987e+00    5.113192e-01   8.114692e-03
  3.741197e+00    5.242642e-01   8.234977e-03
  3.743408e+00    5.176092e-01   8.200660e-03
  3.745618e+00    4.984674e-01   8.065677e-03
  3.747829e+00    5.016976e-01   8.109629e-03
  3.750039e+00    5.105974e-01   8.199641e-03
  3.752250e+00    4.845551e-01   8.005832e-03
  3.754460e+00    4.848212e-01   8.026025e-03
  3.756671e+00    5.002707e-01   8.171548e-03
  3.758881e+00    4.940065e-01   8.138648e-03
  3.761091e+00    4.727098e-01   7.979673e-03
  3.763302e+00    4.907768e-01   8.149519e-03
  3.765512e+00    5.079059e-01   8.309759e-03
  3.767723e+00    5.069500e-01   8.321296e-03
  3.769933e+00    4.904062e-01   8.203422e-03
  3.772144e+00    5.002274e-01   8.304619e-03
  3.774354e+00    5.078816e-01   8.387794e-03
  3.776565e+00    5.043977e-01   8.378824e-03
  3.778775e+00    4.791835e-01   8.186185e-03
  3.780986e+00    5.012637e-01   8.392849e-03
  3.783196e+00    5.020486e-01   8.419691e-03
  3.785407e+00    4.981767e-01   8.407478e-03
  3.787617e+00    5.107434e-01   8.533762e-03
  3.789827e+00    5.040413e-01   8.498163e-03
  3.792038e+00    5.168188e-01   8.626336e-03
  3.794248e+00    5.171084e-01   8.650249e-03
  3.796459e+00    5.017033e-01   8.541812e-03
  3.798669e+00    4.906672e-01   8.468481e-03
  3.800880e+00    5.135742e-01   8.685604e-03
  3.803090e+00    5.024818e-01   8.613221e-03
  3.805301e+00    4.822928e-01   8.460078e-03
  3.807511e+00    5.105370e-01   8.726501e-03
  3.809722e+00    4.943599e-01   8.609232e-03
  3.811932e+00    4.848112e-01   8.547598e-03
  3.814142e+00    4.879438e-01   8.597776e-03
  3.816353e+00    4.713772e-01   8.472814e-03
  3.818563e+00    4.739724e-01   8.518517e-03
  3.820774e+00    4.916857e-01   8.699304e-03
  3.822984e+00    4.839968e-01   8.654030e-03
  3.825195e+00    5.213239e-01   9.005850e-03
  3.827405e+00    4.887049e-01   8.743280e-03
  3.829616e+00    4.674563e-01   8.574322e-03
  3.831826e+00    4.931065e-01   8.830518e-03
  3.834037e+00    4.860883e-01   8.791720e-03
  3.836247e+00    4.750012e-01   8.714993e-03
  3.838457e+00    4.868003e-01   8.847301e-03
  3.840668e+00    5.051549e-01   9.038037e-03
  3.842878e+00    4.911198e-01   8.936970e-03
  3.845089e+00    4.973299e-01   9.018872e-03
  3.847299e+00    5.321076e-01   9.355633e-03
  3.849510e+00    5.210801e-01   9.284752e-03
  3.851720e+00    5.036809e-01   9.149993e-03
  3.853931e+00    4.930802e-01   9.072171e-03
  3.856141e+00    4.659764e-01   8.837756e-03
  3.858352e+00    4.943144e-01   9.121727e-03
  3.860562e+00    4.851019e-01   9.055497e-03
  3.862772e+00    4.978111e-01   9.192995e-03
  3.864983e+00    4.968369e-01   9.203726e-03
  3.867193e+00    4.781614e-01   9.048601e-03
  3.869404e+00    4.712833e-01   9.002618e-03
  3.871614e+00    4.913877e-01   9.212506e-03
  3.873825e+00    4.781047e-01   9.107235e-03
  3.876035e+00    4.789930e-01   9.135915e-03
  3.878246e+00    4.935485e-01   9.299515e-03
  3.880456e+00    4.637529e-01   9.042587e-03
  3.882667e+00    4.832663e-01   9.259908e-03
  3.884877e+00    4.892489e-01   9.346731e-03
  3.887087e+00    5.029852e-01   9.507261e-03
  3.889298e+00    4.868874e-01   9.384232e-03
  3.891508e+00    5.050841e-01   9.588856e-03
  3.893719e+00    5.234084e-01   9.793271e-03
  3.895929e+00    4.926704e-01   9.532884e-03
  3.898140e+00    4.753558e-01   9.395087e-03
  3.900350e+00    4.937871e-01   9.607673e-03
  3.902561e+00    5.250226e-01   9.940398e-03
  3.904771e+00    4.993382e-01   9.727421e-03
  3.906982e+00    4.645047e-01   9.414280e-03
  3.909192e+00    4.595207e-01   9.396005e-03
  3.911403e+00    4.858188e-01   9.695040e-03
  3.913613e+00    4.789056e-01   9.659819e-03
  3.915823e+00    4.857414e-01   9.763129e-03
  3.918034e+00    4.810276e-01   9.750690e-03
  3.920244e+00    5.033302e-01   1.001040e-02
  3.922455e+00    4.710056e-01   9.719180e-03
  3.924665e+00    4.442834e-01   9.474125e-03
  3.926876e+00    4.762312e-01   9.845516e-03
  3.929086e+00    4.656378e-01   9.771851e-03
  3.931297e+00    4.622374e-01   9.770118e-03
  3.933507e+00    4.972235e-01   1.016226e-02
  3.935718e+00    4.780979e-01   9.993356e-03
  3.937928e+00    4.733453e-01   9.972629e-03
  3.940138e+00    4.529964e-01   9.784154e-03
  3.942349e+00    4.922681e-01   1.022946e-02
  3.944559e+00    4.854162e-01   1.018806e-02
  3.946770e+00    4.872777e-01   1.023764e-02
  3.948980e+00    4.693731e-01   1.007808e-02
  3.951191e+00    4.526610e-01   9.926767e-03
  3.953401e+00    4.982564e-01   1.044635e-02
  3.955612e+00    4.930117e-01   1.042323e-02
  3.957822e+00    4.652225e-01   1.015617e-02
  3.960033e+00    4.823410e-01   1.037379e-02
  3.962243e+00    5.031351e-01   1.062851e-02
  3.964453e+00    4.769293e-01   1.038082e-02
  3.966664e+00    4.891855e-01   1.054691e-02
  3.968874e+00    4.854803e-01   1.053520e-02
  3.971085e+00    4.863648e-01   1.056678e-02
  3.973295e+00    4.839075e-01   1.056149e-02
  3.975506e+00    4.796964e-01   1.053692e-02
  3.977716e+00    4.740881e-01   1.049690e-02
  3.979927e+00    4.726507e-01   1.050276e-02
  3.982137e+00    4.841908e-01   1.065250e-02
  3.984348e+00    5.097100e-01   1.095272e-02
  3.986558e+00    4.682791e-01   1.052008e-02
  3.988768e+00    4.887019e-01   1.077021e-02
  3.990979e+00    4.443475e-01   1.029145e-02
  3.993189e+00    4.634087e-01   1.053254e-02
  3.995400e+00    4.698023e-01   1.062806e-02
  3.997610e+00    4.890874e-01   1.087393e-02
  3.999821e+00    5.083062e-01   1.112403e-02
  4.002031e+00    4.588711e-01   1.060665e-02
  4.004242e+00    4.525267e-01   1.057009e-02
  4.006452e+00    4.453609e-01   1.052401e-02
  4.008663e+00    4.492363e-01   1.060800e-02
  4.010873e+00    4.703075e-01   1.089344e-02
  4.013084e+00    4.849395e-01   1.110249e-02
  4.015294e+00    4.784761e-01   1.106903e-02
  4.017504e+00    4.732841e-01   1.105010e-02
  4.019715e+00    4.652859e-01   1.099814e-02
  4.021925e+00    4.811113e-01   1.122628e-02
  4.024136e+00    4.830881e-01   1.129315e-02
  4.026346e+00    4.884760e-01   1.140013e-02
  4.028557e+00    4.702417e-01   1.122914e-02
  4.030767e+00    4.845557e-01   1.144434e-02
  4.032978e+00    5.070814e-01   1.175489e-02
  4.035188e+00    5.034704e-01   1.175987e-02
  4.037399e+00    4.739543e-01   1.145726e-02
  4.039609e+00    4.679410e-01   1.143125e-02
  4.041819e+00    4.509495e-01   1.126883e-02
  4.044030e+00    4.818121e-01   1.169791e-02
  4.046240e+00    4.817078e-01   1.174648e-02
  4.048451e+00    4.449998e-01   1.133892e-02
  4.050661e+00    4.545178e-01   1.150941e-02
  4.052872e+00    4.456108e-01   1.144681e-02
  4.055082e+00    4.852646e-01   1.199881e-02
  4.057293e+00    4.762041e-01   1.193971e-02
  4.059503e+00    4.795130e-01   1.203563e-02
  4.061714e+00    4.732312e-01   1.201244e-02
  4.063924e+00    5.007478e-01   1.241461e-02
  4.066134e+00    4.639342e-01   1.200587e-02
  4.068345e+00    4.705328e-01   1.214918e-02
  4.070555e+00    4.720043e-01   1.222696e-02
  4.072766e+00    4.524682e-01   1.203013e-02
  4.074976e+00    4.881945e-01   1.255826e-02
  4.077187e+00    4.496295e-01   1.211213e-02
  4.079397e+00    4.706843e-01   1.245557e-02
  4.081608e+00    4.841072e-01   1.269773e-02
  4.083818e+00    4.810858e-01   1.272378e-02
  4.086029e+00    4.981625e-01   1.301601e-02
  4.088239e+00    4.950531e-01   1.304515e-02
  4.090449e+00    5.053644e-01   1.325178e-02
  4.092660e+00    4.929910e-01   1.316060e-02
  4.094870e+00    4.856308e-01   1.313463e-02
  4.097081e+00    4.771973e-01   1.309130e-02
  4.099291e+00    5.014766e-01   1.347577e-02
  4.101502e+00    4.901735e-01   1.337286e-02
  4.103712e+00    4.767154e-01   1.323709e-02
  4.105923e+00    5.215995e-01   1.389978e-02
  4.108133e+00    4.990146e-01   1.364796e-02
  4.110344e+00    4.624105e-01   1.318821e-02
  4.112554e+00    4.869176e-01   1.358648e-02
  4.114764e+00    4.726933e-01   1.344053e-02
  4.116975e+00    4.581720e-01   1.328445e-02
  4.119185e+00    4.585538e-01   1.334414e-02
  4.121396e+00    4.576498e-01   1.338591e-02
  4.123606e+00    4.659181e-01   1.356167e-02
  4.125817e+00    4.844077e-01   1.388609e-02
  4.128027e+00    4.916419e-01   1.404835e-02
  4.130238e+00    5.136089e-01   1.442030e-02
  4.132448e+00    4.999086e-01   1.428857e-02
  4.134659e+00    4.722511e-01   1.394727e-02
  4.136869e+00    5.191087e-01   1.468810e-02
  4.139080e+00    4.996321e-01   1.447495e-02
  4.141290e+00    5.293274e-01   1.496478e-02
  4.143500e+00    5.007275e-01   1.462216e-02
  4.145711e+00    5.020424e-01   1.470970e-02
  4.147921e+00    4.668680e-01   1.425007e-02
  4.150132e+00    4.967413e-01   1.476895e-02
  4.152342e+00    5.072322e-01   1.499654e-02
  4.154553e+00    4.745788e-01   1.457490e-02
  4.156763e+00    4.869068e-01   1.483583e-02
  4.158974e+00    4.728072e-01   1.469302e-02
  4.161184e+00    4.719017e-01   1.475157e-02
  4.163395e+00    5.106301e-01   1.542350e-02
  4.165605e+00    4.906402e-01   1.519729e-02
  4.167815e+00    4.714444e-01   1.497449e-02
  4.170026e+00    5.171467e-01   1.576637e-02
  4.172236e+00    4.626108e-01   1.499250e-02
  4.174447e+00    4.739534e-01   1.525779e-02
  4.176657e+00    4.811919e-01   1.545767e-02
  4.178868e+00    4.971459e-01   1.580091e-02
  4.181078e+00    4.642139e-01   1.535482e-02
  4.183289e+00    4.840441e-01   1.576882e-02
  4.185499e+00    4.765761e-01   1.573914e-02
  4.187710e+00    4.486116e-01   1.535974e-02
  4.189920e+00    4.773384e-01   1.593934e-02
  4.192130e+00    4.636869e-01   1.580591e-02
  4.194341e+00    4.640602e-01   1.590911e-02
  4.196551e+00    4.236017e-01   1.529604e-02
  4.198762e+00    4.630895e-01   1.609462e-02
  4.200972e+00    4.536388e-01   1.603281e-02
  4.203183e+00    4.555742e-01   1.617249e-02
  4.205393e+00    4.940846e-01   1.695445e-02
  4.207604e+00    4.788683e-01   1.680549e-02
  4.209814e+00    4.736312e-01   1.682765e-02
  4.212025e+00    4.586191e-01   1.667629e-02
  4.214235e+00    5.376158e-01   1.818332e-02
  4.216445e+00    4.542820e-01   1.683610e-02
  4.218656e+00    4.820335e-01   1.747229e-02
  4.220866e+00    4.659907e-01   1.730641e-02
  4.223077e+00    4.598883e-01   1.732504e-02
  4.225287e+00    4.421361e-01   1.712090e-02
  4.227498e+00    4.564104e-01   1.753119e-02
  4.229708e+00    4.843170e-01   1.820637e-02
  4.231919e+00    4.588214e-01   1.786732e-02
  4.234129e+00    4.602359e-01   1.804495e-02
  4.236340e+00    4.963511e-01   1.889975e-02
  4.238550e+00    4.864502e-01   1.887544e-02
  4.240761e+00    5.041078e-01   1.938477e-02
  4.242971e+00    4.612771e-01   1.871317e-02
  4.245181e+00    4.778844e-01   1.922555e-02
  4.247392e+00    4.465885e-01   1.875951e-02
  4.249602e+00    4.588923e-01   1.920439e-02
  4.251813e+00    4.710331e-01   1.964897e-02
  4.254023e+00    4.747992e-01   1.992605e-02
  4.256234e+00    4.445332e-01   1.948655e-02
  4.258444e+00    4.252345e-01   1.925831e-02
  4.260655e+00    4.992721e-01   2.109695e-02
  4.262865e+00    4.556266e-01   2.038257e-02
  4.265076e+00    4.296941e-01   2.001873e-02
  4.267286e+00    4.878933e-01   2.158454e-02
  4.269496e+00    4.460312e-01   2.089011e-02
  4.271707e+00    4.093987e-01   2.026041e-02
  4.273917e+00    5.152568e-01   2.302318e-02
  4.276128e+00    4.055380e-01   2.069746e-02
  4.278338e+00    5.234725e-01   2.382843e-02
  4.280549e+00    4.581546e-01   2.261220e-02
  4.282759e+00    4.430428e-01   2.255556e-02
  4.284970e+00    4.803818e-01   2.383497e-02
  4.287180e+00    4.528751e-01   2.341959e-02
  4.289391e+00    4.517297e-01   2.356504e-02
  4.291601e+00    4.747550e-01   2.435184e-02
  4.293811e+00    4.713698e-01   2.445374e-02
  4.296022e+00    4.673209e-01   2.454488e-02
  4.298232e+00    5.488961e-01   2.682344e-02
  4.300443e+00    4.869133e-01   2.547208e-02
  4.302653e+00    4.970782e-01   2.596002e-02
  4.304864e+00    4.328166e-01   2.443315e-02
  4.307074e+00    5.091652e-01   2.673868e-02
  4.309285e+00    4.635083e-01   2.574391e-02
  4.311495e+00    5.038837e-01   2.709233e-02
  4.313706e+00    5.362285e-01   2.821122e-02
  4.315916e+00    4.857689e-01   2.711539e-02
  4.318126e+00    4.506155e-01   2.637365e-02
  4.320337e+00    4.430303e-01   2.641662e-02
  4.322547e+00    4.234459e-01   2.609894e-02
  4.324758e+00    5.017100e-01   2.870398e-02
  4.326968e+00    5.588910e-01   3.063720e-02
  4.329179e+00    5.204553e-01   2.989085e-02
  4.331389e+00    4.927534e-01   2.941978e-02
  4.333600e+00    5.008892e-01   3.001522e-02
  4.335810e+00    4.490198e-01   2.875782e-02
  4.338021e+00    4.543949e-01   2.929892e-02
  4.340231e+00    3.483863e-01   2.597659e-02
  4.342442e+00    4.594387e-01   3.023132e-02
  4.344652e+00    3.518101e-01   2.681357e-02
  4.346862e+00    2.744960e-01   2.401612e-02
  4.349073e+00    4.056996e-01   2.962214e-02
  4.351283e+00    4.838061e-01   3.283070e-02
  4.353494e+00    5.047757e-01   3.405304e-02
  4.355704e+00    4.818225e-01   3.380609e-02
  4.357915e+00    3.540496e-01   2.946070e-02
  4.360125e+00    5.560516e-01   3.755062e-02
  4.362336e+00    3.657224e-01   3.101040e-02
  4.364546e+00    3.039109e-01   2.878128e-02
  4.366757e+00    5.017604e-01   3.771808e-02
  4.368967e+00    4.654267e-01   3.705050e-02
  4.371177e+00    5.693802e-01   4.185280e-02
  4.373388e+00    4.379688e-01   3.752616e-02
  4.375598e+00    4.107066e-01   3.716897e-02
  4.377809e+00    4.612761e-01   4.038699e-02
  4.380019e+00    5.453125e-01   4.501728e-02
  4.382230e+00    3.168968e-01   3.527563e-02
  4.384440e+00    3.477702e-01   3.801642e-02
  4.386651e+00    3.337662e-01   3.839207e-02
  4.388861e+00    3.214520e-01   3.894132e-02
  4.391072e+00    3.752625e-01   4.355107e-02
  4.393282e+00    4.771173e-01   5.100843e-02
  4.395492e+00    4.820617e-01   5.340260e-02
  4.397703e+00    3.567190e-01   4.804010e-02
  4.399913e+00    2.846980e-01   4.508499e-02
  4.402124e+00    3.188276e-01   5.041854e-02
  4.404334e+00    3.235656e-01   5.398984e-02
  4.406545e+00    2.632651e-01   5.232767e-02
  4.408755e+00    1.881753e-01   4.796974e-02
  4.410966e+00    4.288000e-01   8.015613e-02
  4.413176e+00    2.499203e-01   6.927611e-02
  4.415387e+00   -5.813280e-01            nan
  4.417597e+00   -2.027282e+00            nan
  4.419807e+00   -3.766224e-01            nan
