# == pyFAI calibration ==
# Distance Sample to Detector: 0.216 m
# PONI: 1.166e-01, 1.308e-01 m
# Rotations: 0.000000 0.000000 0.000000 rad
# 
# == Fit2d calibration ==
# Distance Sample-beamCenter: 216.000 mm
# Center: x=1744.293, y=1555.000 pix
# Tilt: 0.000 deg  TiltPlanRot: 0.000 deg
# 
# Detector Eiger 9M	 PixelSize= 7.500e-05, 7.500e-05 m
#    Detector has a mask: True 
#    Detector has a dark current: False 
#    detector has a flat field: False 
# 
# Wavelength: 9.8e-11 m
# Mask applied: from detector
# Dark current applied: False
# Flat field applied: False
# Polarization factor: None
# Normalization factor: 1.0
# 
# Headers of the input frame:
# {
# "_array_data.header_convention": "SLS_1.0",
# "_array_data.header_contents": "# Detector: Dectris Eiger 9M, S/N E-18-0102\r\n# Pixel_size 75e-6 m x 75e-6 m\r\n# Silicon sensor, thickness 0.000450 m\r\n# Exposure_time 0.024997 s\r\n# Exposure_period 0.025000 s\r\n# Count_cutoff 62318 counts\r\n# Wavelength 0.980106 A\r\n# Detector_distance 0.215992 m\r\n# Beam_xy (1555, 1744) pixels\r\n# Start_angle 0.000000 deg.\r\n# Angle_increment 0.000000 deg.",
# "Content-Type": "application/octet-stream;",
# "conversions": "x-CBF_BYTE_OFFSET",
# "Content-Transfer-Encoding": "BINARY",
# "X-Binary-Size": "10166606",
# "X-Binary-ID": "1",
# "X-Binary-Element-Type": "signed 32-bit integer",
# "X-Binary-Element-Byte-Order": "LITTLE_ENDIAN",
# "Content-MD5": "S/K79ePW4OL5eGlb5tJImA==",
# "X-Binary-Number-of-Elements": "10166590",
# "X-Binary-Size-Fastest-Dimension": "3110",
# "X-Binary-Size-Second-Dimension": "3269",
# "X-Binary-Size-Padding": "4095"
# }
# --> H:/Proxima2a_2019-04-05/RAW_DATA/C5_gel17_position5/C5_mesh_1_data.cbf/C5_mesh_1_data.cbf000043.dat
#        q_A^-1              I           sigma 
  1.105228e-03    1.305334e+00   6.182268e-01
  3.315685e-03    1.564066e+00   4.114082e-01
  5.526141e-03    1.568939e+00   3.186216e-01
  7.736597e-03    1.233790e+00   2.386936e-01
  9.947054e-03    1.504330e+00   2.323529e-01
  1.215751e-02    1.088523e+00   1.787259e-01
  1.436797e-02    1.369600e+00   1.844050e-01
  1.657842e-02    1.290340e+00   1.666082e-01
  1.878888e-02    1.381307e+00   1.619230e-01
  2.099934e-02    1.608301e+00   1.653049e-01
  2.320979e-02    1.306762e+00   1.417200e-01
  2.542025e-02    1.261677e+00   1.330710e-01
  2.763070e-02    1.323971e+00   1.307463e-01
  2.984116e-02    1.368727e+00   1.279189e-01
  3.205162e-02    1.526357e+00   1.303510e-01
  3.426207e-02    1.497541e+00   1.248717e-01
  3.647253e-02    1.440580e+00   1.187021e-01
  3.868299e-02    1.372363e+00   1.125072e-01
  4.089344e-02    1.267651e+00   1.051672e-01
  4.310390e-02    1.502576e+00   1.115172e-01
  4.531436e-02    1.497835e+00   1.085920e-01
  4.752481e-02    1.482896e+00   1.055053e-01
  4.973527e-02    1.501699e+00   1.037871e-01
  5.194572e-02    1.639495e+00   1.061104e-01
  5.415618e-02    1.492347e+00   9.914568e-02
  5.636664e-02    1.368399e+00   9.306183e-02
  5.857709e-02    1.312706e+00   8.941252e-02
  6.078755e-02    1.437933e+00   9.186004e-02
  6.299801e-02    1.514894e+00   9.261633e-02
  6.520846e-02    1.564779e+00   9.252033e-02
  6.741892e-02    1.519328e+00   8.965523e-02
  6.962938e-02    1.374768e+00   8.392300e-02
  7.183983e-02    1.495769e+00   8.617956e-02
  7.405029e-02    1.529123e+00   8.582278e-02
  7.626074e-02    1.402934e+00   8.100448e-02
  7.847120e-02    1.445597e+00   8.105832e-02
  8.068166e-02    1.447153e+00   7.998259e-02
  8.289211e-02    1.362909e+00   7.657731e-02
  8.510257e-02    1.428754e+00   7.737989e-02
  8.731303e-02    1.500191e+00   7.827770e-02
  8.952348e-02    1.550053e+00   7.858158e-02
  9.173394e-02    1.589424e+00   7.860567e-02
  9.394439e-02    1.493787e+00   7.529977e-02
  9.615485e-02    1.548703e+00   7.578333e-02
  9.836531e-02    1.506316e+00   7.389253e-02
  1.005758e-01    1.494069e+00   7.277878e-02
  1.027862e-01    1.476279e+00   7.156030e-02
  1.049967e-01    1.448776e+00   7.013915e-02
  1.072071e-01    1.510575e+00   7.087644e-02
  1.094176e-01    1.578390e+00   7.171327e-02
  1.116280e-01    1.652282e+00   7.264098e-02
  1.138385e-01    1.570376e+00   7.012538e-02
  1.160490e-01    1.529215e+00   6.853718e-02
  1.182594e-01    1.528255e+00   6.787085e-02
  1.204699e-01    1.511491e+00   6.687494e-02
  1.226803e-01    1.559231e+00   6.730534e-02
  1.248908e-01    1.565897e+00   6.684875e-02
  1.271012e-01    1.530354e+00   6.550723e-02
  1.293117e-01    1.629618e+00   6.701726e-02
  1.315222e-01    1.621462e+00   6.628368e-02
  1.337326e-01    1.532959e+00   6.391326e-02
  1.359431e-01    1.561440e+00   6.454200e-02
  1.381535e-01    1.618561e+00   6.659401e-02
  1.403640e-01    1.616665e+00   6.684235e-02
  1.425744e-01    1.566716e+00   6.590678e-02
  1.447849e-01    1.529137e+00   6.512655e-02
  1.469953e-01    1.681523e+00   6.825183e-02
  1.492058e-01    1.589188e+00   6.627438e-02
  1.514163e-01    1.535071e+00   6.502800e-02
  1.536267e-01    1.530409e+00   6.480240e-02
  1.558372e-01    1.593768e+00   6.598420e-02
  1.580476e-01    1.664458e+00   6.726806e-02
  1.602581e-01    1.618843e+00   6.617141e-02
  1.624685e-01    1.614367e+00   6.589894e-02
  1.646790e-01    1.683458e+00   6.710108e-02
  1.668895e-01    1.705641e+00   6.734669e-02
  1.690999e-01    1.705390e+00   6.713950e-02
  1.713104e-01    1.760464e+00   6.800331e-02
  1.735208e-01    1.766268e+00   6.790347e-02
  1.757313e-01    1.857634e+00   6.941939e-02
  1.779417e-01    1.748362e+00   6.712706e-02
  1.801522e-01    1.830450e+00   6.846604e-02
  1.823626e-01    1.989999e+00   7.114997e-02
  1.845731e-01    1.969908e+00   7.056058e-02
  1.867836e-01    1.978191e+00   7.047016e-02
  1.889940e-01    1.955636e+00   6.983828e-02
  1.912045e-01    2.045900e+00   7.119329e-02
  1.934149e-01    2.072058e+00   7.140718e-02
  1.956254e-01    1.956993e+00   6.916732e-02
  1.978358e-01    1.975390e+00   6.925350e-02
  2.000463e-01    1.947050e+00   6.852710e-02
  2.022568e-01    1.892614e+00   6.734061e-02
  2.044672e-01    1.953772e+00   6.818556e-02
  2.066777e-01    1.961054e+00   6.808577e-02
  2.088881e-01    2.000362e+00   6.853981e-02
  2.110986e-01    1.976600e+00   6.789786e-02
  2.133090e-01    2.013153e+00   6.830003e-02
  2.155195e-01    2.005999e+00   6.795243e-02
  2.177300e-01    1.958879e+00   6.662206e-02
  2.199404e-01    1.871481e+00   6.340302e-02
  2.221509e-01    1.885126e+00   6.258882e-02
  2.243613e-01    1.956227e+00   6.294994e-02
  2.265718e-01    2.056058e+00   6.382488e-02
  2.287822e-01    2.144286e+00   6.453478e-02
  2.309927e-01    2.054439e+00   6.259282e-02
  2.332031e-01    2.129219e+00   6.317642e-02
  2.354136e-01    2.135591e+00   6.275808e-02
  2.376241e-01    2.081211e+00   6.147303e-02
  2.398345e-01    2.171429e+00   6.232656e-02
  2.420450e-01    2.164195e+00   6.177799e-02
  2.442554e-01    2.120605e+00   6.073138e-02
  2.464659e-01    2.099117e+00   6.001723e-02
  2.486763e-01    2.191797e+00   6.092472e-02
  2.508868e-01    2.206065e+00   6.073714e-02
  2.530973e-01    2.251859e+00   6.098384e-02
  2.553077e-01    2.138833e+00   5.907320e-02
  2.575182e-01    2.038526e+00   5.733011e-02
  2.597286e-01    2.101056e+00   5.786441e-02
  2.619391e-01    2.098450e+00   5.749560e-02
  2.641495e-01    2.090123e+00   5.706383e-02
  2.663600e-01    2.091982e+00   5.677523e-02
  2.685704e-01    2.122746e+00   5.688118e-02
  2.707809e-01    2.075706e+00   5.594884e-02
  2.729914e-01    2.101308e+00   5.599943e-02
  2.752018e-01    2.066934e+00   5.525047e-02
  2.774123e-01    2.056535e+00   5.482978e-02
  2.796227e-01    2.029942e+00   5.420467e-02
  2.818332e-01    2.034088e+00   5.398932e-02
  2.840436e-01    2.056610e+00   5.402424e-02
  2.862541e-01    1.983738e+00   5.280343e-02
  2.884646e-01    1.902212e+00   5.146162e-02
  2.906750e-01    1.916251e+00   5.140626e-02
  2.928855e-01    1.995536e+00   5.221587e-02
  2.950959e-01    1.966316e+00   5.159411e-02
  2.973064e-01    1.901164e+00   5.050411e-02
  2.995168e-01    1.930874e+00   5.066669e-02
  3.017273e-01    1.974978e+00   5.101614e-02
  3.039377e-01    1.944281e+00   5.039651e-02
  3.061482e-01    1.921637e+00   4.988540e-02
  3.083587e-01    1.923532e+00   4.969400e-02
  3.105691e-01    1.912205e+00   4.933580e-02
  3.127796e-01    1.901131e+00   4.898594e-02
  3.149900e-01    1.943115e+00   4.931753e-02
  3.172005e-01    1.931920e+00   4.897419e-02
  3.194109e-01    1.797345e+00   4.704267e-02
  3.216214e-01    1.840111e+00   4.740480e-02
  3.238319e-01    1.898858e+00   4.796480e-02
  3.260423e-01    1.856072e+00   4.723244e-02
  3.282528e-01    1.865274e+00   4.716089e-02
  3.304632e-01    1.917130e+00   4.762673e-02
  3.326737e-01    1.862044e+00   4.675435e-02
  3.348841e-01    1.852191e+00   4.644967e-02
  3.370946e-01    1.904559e+00   4.692451e-02
  3.393050e-01    1.851406e+00   4.608985e-02
  3.415155e-01    1.871229e+00   4.616169e-02
  3.437260e-01    1.906758e+00   4.642517e-02
  3.459364e-01    1.862875e+00   4.571809e-02
  3.481469e-01    1.821410e+00   4.504141e-02
  3.503573e-01    1.798355e+00   4.459240e-02
  3.525678e-01    1.812548e+00   4.460846e-02
  3.547782e-01    1.865227e+00   4.508851e-02
  3.569887e-01    1.817168e+00   4.434617e-02
  3.591992e-01    1.786987e+00   4.382076e-02
  3.614096e-01    1.862047e+00   4.457650e-02
  3.636201e-01    1.847089e+00   4.424110e-02
  3.658305e-01    1.786397e+00   4.335977e-02
  3.680410e-01    1.818311e+00   4.359490e-02
  3.702514e-01    1.801899e+00   4.325176e-02
  3.724619e-01    1.846383e+00   4.363331e-02
  3.746724e-01    1.793887e+00   4.286506e-02
  3.768828e-01    1.766122e+00   4.238891e-02
  3.790933e-01    1.809193e+00   4.276286e-02
  3.813037e-01    1.852376e+00   4.312863e-02
  3.835142e-01    1.841170e+00   4.285678e-02
  3.857246e-01    1.750802e+00   4.165654e-02
  3.879351e-01    1.805945e+00   4.217051e-02
  3.901455e-01    1.875314e+00   4.283599e-02
  3.923560e-01    1.858574e+00   4.250885e-02
  3.945665e-01    1.797732e+00   4.167471e-02
  3.967769e-01    1.793327e+00   4.149324e-02
  3.989874e-01    1.793746e+00   4.136854e-02
  4.011978e-01    1.797576e+00   4.128530e-02
  4.034083e-01    1.784707e+00   4.101096e-02
  4.056187e-01    1.859416e+00   4.173160e-02
  4.078292e-01    1.813191e+00   4.108490e-02
  4.100397e-01    1.774619e+00   4.052145e-02
  4.122501e-01    1.739552e+00   3.999907e-02
  4.144606e-01    1.799217e+00   4.055860e-02
  4.166710e-01    1.829007e+00   4.077142e-02
  4.188815e-01    1.784790e+00   4.015660e-02
  4.210919e-01    1.770413e+00   3.987732e-02
  4.233024e-01    1.813843e+00   4.024474e-02
  4.255128e-01    1.820409e+00   4.020098e-02
  4.277233e-01    1.823386e+00   4.011823e-02
  4.299338e-01    1.833020e+00   4.010835e-02
  4.321442e-01    1.825248e+00   3.990870e-02
  4.343547e-01    1.773480e+00   3.922744e-02
  4.365651e-01    1.778891e+00   3.917562e-02
  4.387756e-01    1.732435e+00   3.855245e-02
  4.409860e-01    1.754022e+00   3.868441e-02
  4.431965e-01    1.742296e+00   3.844829e-02
  4.454070e-01    1.773640e+00   3.868465e-02
  4.476174e-01    1.731692e+00   3.811952e-02
  4.498279e-01    1.725754e+00   3.795056e-02
  4.520383e-01    1.717154e+00   3.775199e-02
  4.542488e-01    1.749801e+00   3.800643e-02
  4.564592e-01    1.725826e+00   3.764388e-02
  4.586697e-01    1.725011e+00   3.753512e-02
  4.608801e-01    1.714051e+00   3.731547e-02
  4.630906e-01    1.728928e+00   3.737780e-02
  4.653011e-01    1.707369e+00   3.704637e-02
  4.675115e-01    1.691574e+00   3.677748e-02
  4.697220e-01    1.755881e+00   3.737192e-02
  4.719324e-01    1.749262e+00   3.720495e-02
  4.741429e-01    1.712004e+00   3.671174e-02
  4.763533e-01    1.733574e+00   3.684760e-02
  4.785638e-01    1.720986e+00   3.661872e-02
  4.807743e-01    1.739085e+00   3.671717e-02
  4.829847e-01    1.743717e+00   3.667314e-02
  4.851952e-01    1.709051e+00   3.621491e-02
  4.874056e-01    1.678941e+00   3.580397e-02
  4.896161e-01    1.699635e+00   3.593460e-02
  4.918265e-01    1.731118e+00   3.617582e-02
  4.940370e-01    1.754387e+00   3.632825e-02
  4.962475e-01    1.662617e+00   3.527801e-02
  4.984579e-01    1.664502e+00   3.521098e-02
  5.006684e-01    1.671511e+00   3.519903e-02
  5.028788e-01    1.715392e+00   3.557164e-02
  5.050893e-01    1.717780e+00   3.550984e-02
  5.072997e-01    1.717408e+00   3.542021e-02
  5.095102e-01    1.740373e+00   3.557087e-02
  5.117206e-01    1.699771e+00   3.506990e-02
  5.139311e-01    1.647204e+00   3.444167e-02
  5.161416e-01    1.672672e+00   3.462485e-02
  5.183520e-01    1.707314e+00   3.489845e-02
  5.205625e-01    1.705098e+00   3.479409e-02
  5.227729e-01    1.675830e+00   3.441374e-02
  5.249834e-01    1.665067e+00   3.422340e-02
  5.271938e-01    1.679913e+00   3.429542e-02
  5.294043e-01    1.730713e+00   3.472976e-02
  5.316148e-01    1.792918e+00   3.526743e-02
  5.338252e-01    1.772607e+00   3.498696e-02
  5.360357e-01    1.734541e+00   3.453047e-02
  5.382461e-01    1.761818e+00   3.472224e-02
  5.404566e-01    1.755332e+00   3.457940e-02
  5.426670e-01    1.776184e+00   3.470581e-02
  5.448775e-01    1.768120e+00   3.454957e-02
  5.470879e-01    1.762973e+00   3.442233e-02
  5.492984e-01    1.739881e+00   3.412008e-02
  5.515089e-01    1.788214e+00   3.451404e-02
  5.537193e-01    1.778892e+00   3.434813e-02
  5.559298e-01    1.783094e+00   3.431324e-02
  5.581402e-01    1.780196e+00   3.421043e-02
  5.603507e-01    1.754050e+00   3.388439e-02
  5.625611e-01    1.775443e+00   3.401639e-02
  5.647716e-01    1.832313e+00   3.448188e-02
  5.669821e-01    1.805480e+00   3.415467e-02
  5.691925e-01    1.831621e+00   3.432719e-02
  5.714030e-01    1.776010e+00   3.373002e-02
  5.736134e-01    1.760569e+00   3.351161e-02
  5.758239e-01    1.745209e+00   3.329391e-02
  5.780343e-01    1.713220e+00   3.291758e-02
  5.802448e-01    1.689410e+00   3.261960e-02
  5.824552e-01    1.683688e+00   3.249600e-02
  5.846657e-01    1.636966e+00   3.197515e-02
  5.868762e-01    1.676395e+00   3.229057e-02
  5.890866e-01    1.649569e+00   3.196473e-02
  5.912971e-01    1.662198e+00   3.202040e-02
  5.935075e-01    1.650463e+00   3.184126e-02
  5.957180e-01    1.621213e+00   3.149307e-02
  5.979284e-01    1.633656e+00   3.154917e-02
  6.001389e-01    1.645296e+00   3.159690e-02
  6.023494e-01    1.667148e+00   3.174145e-02
  6.045598e-01    1.674035e+00   3.174219e-02
  6.067703e-01    1.632204e+00   3.128007e-02
  6.089807e-01    1.626451e+00   3.116210e-02
  6.111912e-01    1.669283e+00   3.150673e-02
  6.134016e-01    1.675208e+00   3.149964e-02
  6.156121e-01    1.650551e+00   3.120482e-02
  6.178226e-01    1.681906e+00   3.143744e-02
  6.200330e-01    1.716197e+00   3.169366e-02
  6.222435e-01    1.719996e+00   3.166588e-02
  6.244539e-01    1.681541e+00   3.124858e-02
  6.266644e-01    1.704478e+00   3.139961e-02
  6.288748e-01    1.714992e+00   3.143499e-02
  6.310853e-01    1.714721e+00   3.137149e-02
  6.332957e-01    1.719509e+00   3.135461e-02
  6.355062e-01    1.706074e+00   3.117119e-02
  6.377167e-01    1.742646e+00   3.144307e-02
  6.399271e-01    1.739059e+00   3.135051e-02
  6.421376e-01    1.739551e+00   3.129511e-02
  6.443480e-01    1.712344e+00   3.099033e-02
  6.465585e-01    1.745369e+00   3.122848e-02
  6.487689e-01    1.712668e+00   3.087616e-02
  6.509794e-01    1.695386e+00   3.066202e-02
  6.531899e-01    1.683898e+00   3.050052e-02
  6.554003e-01    1.633945e+00   2.998822e-02
  6.576108e-01    1.624597e+00   2.984662e-02
  6.598212e-01    1.621122e+00   2.975930e-02
  6.620317e-01    1.569258e+00   2.922513e-02
  6.642421e-01    1.607403e+00   2.952345e-02
  6.664526e-01    1.638401e+00   2.975184e-02
  6.686630e-01    1.663489e+00   2.992335e-02
  6.708735e-01    1.600515e+00   2.929766e-02
  6.730840e-01    1.638313e+00   2.958752e-02
  6.752944e-01    1.628632e+00   2.944635e-02
  6.775049e-01    1.558011e+00   2.874854e-02
  6.797153e-01    1.609961e+00   2.917097e-02
  6.819258e-01    1.628859e+00   2.928877e-02
  6.841362e-01    1.590864e+00   2.889313e-02
  6.863467e-01    1.564551e+00   2.860184e-02
  6.885572e-01    1.582029e+00   2.870961e-02
  6.907676e-01    1.581019e+00   2.864904e-02
  6.929781e-01    1.625415e+00   2.899683e-02
  6.951885e-01    1.649591e+00   2.915999e-02
  6.973990e-01    1.614174e+00   2.879423e-02
  6.996094e-01    1.616941e+00   2.876821e-02
  7.018199e-01    1.582962e+00   2.841436e-02
  7.040303e-01    1.587080e+00   2.840132e-02
  7.062408e-01    1.600922e+00   2.847495e-02
  7.084513e-01    1.610456e+00   2.850992e-02
  7.106617e-01    1.610430e+00   2.846016e-02
  7.128722e-01    1.611037e+00   2.841629e-02
  7.150826e-01    1.582718e+00   2.811687e-02
  7.172931e-01    1.613661e+00   2.834143e-02
  7.195035e-01    1.621363e+00   2.836017e-02
  7.217140e-01    1.582449e+00   2.806734e-02
  7.239245e-01    1.541319e+00   2.792450e-02
  7.261349e-01    1.595952e+00   2.852443e-02
  7.283454e-01    1.592055e+00   2.856240e-02
  7.305558e-01    1.542316e+00   2.816613e-02
  7.327663e-01    1.554874e+00   2.832277e-02
  7.349767e-01    1.601412e+00   2.876003e-02
  7.371872e-01    1.570329e+00   2.846838e-02
  7.393976e-01    1.595032e+00   2.867706e-02
  7.416081e-01    1.618000e+00   2.886641e-02
  7.438186e-01    1.592921e+00   2.849667e-02
  7.460290e-01    1.588802e+00   2.816425e-02
  7.482395e-01    1.560034e+00   2.773773e-02
  7.504499e-01    1.600031e+00   2.795368e-02
  7.526604e-01    1.563161e+00   2.751362e-02
  7.548708e-01    1.576828e+00   2.754415e-02
  7.570813e-01    1.589017e+00   2.759918e-02
  7.592918e-01    1.581737e+00   2.750066e-02
  7.615022e-01    1.574739e+00   2.740594e-02
  7.637127e-01    1.571694e+00   2.734668e-02
  7.659231e-01    1.602275e+00   2.757918e-02
  7.681336e-01    1.576724e+00   2.732676e-02
  7.703440e-01    1.578302e+00   2.730918e-02
  7.725545e-01    1.576202e+00   2.726009e-02
  7.747650e-01    1.648695e+00   2.784085e-02
  7.769754e-01    1.608868e+00   2.744927e-02
  7.791859e-01    1.566916e+00   2.703567e-02
  7.813963e-01    1.630025e+00   2.752130e-02
  7.836068e-01    1.611032e+00   2.730808e-02
  7.858172e-01    1.591956e+00   2.709518e-02
  7.880277e-01    1.587663e+00   2.700713e-02
  7.902381e-01    1.584303e+00   2.692952e-02
  7.924486e-01    1.610157e+00   2.709806e-02
  7.946591e-01    1.625967e+00   2.718210e-02
  7.968695e-01    1.636646e+00   2.722243e-02
  7.990800e-01    1.692030e+00   2.762970e-02
  8.012904e-01    1.850052e+00   2.884110e-02
  8.035009e-01    2.047273e+00   3.028554e-02
  8.057113e-01    1.830900e+00   2.859098e-02
  8.079218e-01    1.684237e+00   2.737457e-02
  8.101323e-01    1.644615e+00   2.700472e-02
  8.123427e-01    1.634379e+00   2.687465e-02
  8.145532e-01    1.694719e+00   2.731942e-02
  8.167636e-01    1.667931e+00   2.705709e-02
  8.189741e-01    1.649205e+00   2.685991e-02
  8.211845e-01    1.651932e+00   2.683705e-02
  8.233950e-01    1.693746e+00   2.713039e-02
  8.256054e-01    1.681114e+00   2.698425e-02
  8.278159e-01    1.650838e+00   2.669603e-02
  8.300264e-01    1.652076e+00   2.666274e-02
  8.322368e-01    1.687593e+00   2.690406e-02
  8.344473e-01    1.693629e+00   2.690805e-02
  8.366577e-01    1.689300e+00   2.683040e-02
  8.388682e-01    1.692444e+00   2.681243e-02
  8.410786e-01    1.695853e+00   2.679664e-02
  8.432891e-01    1.673740e+00   2.657909e-02
  8.454996e-01    1.638608e+00   2.625702e-02
  8.477100e-01    1.668499e+00   2.645339e-02
  8.499205e-01    1.673693e+00   2.645291e-02
  8.521309e-01    1.689223e+00   2.653392e-02
  8.543414e-01    1.698406e+00   2.656443e-02
  8.565518e-01    1.643172e+00   2.608825e-02
  8.587623e-01    1.653933e+00   2.613275e-02
  8.609727e-01    1.666343e+00   2.618996e-02
  8.631832e-01    1.632097e+00   2.587948e-02
  8.653937e-01    1.622910e+00   2.576687e-02
  8.676041e-01    1.612697e+00   2.564691e-02
  8.698146e-01    1.632146e+00   2.576166e-02
  8.720250e-01    1.618843e+00   2.561737e-02
  8.742355e-01    1.574488e+00   2.522552e-02
  8.764459e-01    1.592766e+00   2.533279e-02
  8.786564e-01    1.632855e+00   2.561141e-02
  8.808669e-01    1.589418e+00   2.523014e-02
  8.830773e-01    1.585632e+00   2.516212e-02
  8.852878e-01    1.605199e+00   2.527895e-02
  8.874982e-01    1.575135e+00   2.500477e-02
  8.897087e-01    1.595298e+00   2.512668e-02
  8.919191e-01    1.595626e+00   2.509157e-02
  8.941296e-01    1.585949e+00   2.497825e-02
  8.963401e-01    1.575235e+00   2.485760e-02
  8.985505e-01    1.601461e+00   2.502667e-02
  9.007610e-01    1.608979e+00   2.504852e-02
  9.029714e-01    1.585756e+00   2.483141e-02
  9.051819e-01    1.604922e+00   2.494372e-02
  9.073923e-01    1.643170e+00   2.520215e-02
  9.096028e-01    1.590410e+00   2.475945e-02
  9.118132e-01    1.580112e+00   2.464315e-02
  9.140237e-01    1.570679e+00   2.453320e-02
  9.162342e-01    1.587426e+00   2.462921e-02
  9.184446e-01    1.624744e+00   2.488099e-02
  9.206551e-01    1.620422e+00   2.481208e-02
  9.228655e-01    1.601441e+00   2.463106e-02
  9.250760e-01    1.589280e+00   2.450216e-02
  9.272864e-01    1.614851e+00   2.466407e-02
  9.294969e-01    1.618252e+00   2.465407e-02
  9.317074e-01    1.594652e+00   2.443905e-02
  9.339178e-01    1.586066e+00   2.433987e-02
  9.361283e-01    1.633564e+00   2.466523e-02
  9.383387e-01    1.614636e+00   2.448857e-02
  9.405492e-01    1.645611e+00   2.468780e-02
  9.427596e-01    1.641104e+00   2.461850e-02
  9.449701e-01    1.626997e+00   2.447914e-02
  9.471805e-01    1.636362e+00   2.451473e-02
  9.493910e-01    1.638021e+00   2.449349e-02
  9.516015e-01    1.672674e+00   2.471665e-02
  9.538119e-01    1.699843e+00   2.488243e-02
  9.560224e-01    1.733398e+00   2.509147e-02
  9.582328e-01    1.745263e+00   2.514341e-02
  9.604433e-01    1.745958e+00   2.511282e-02
  9.626537e-01    1.740970e+00   2.504319e-02
  9.648642e-01    1.768651e+00   2.520693e-02
  9.670747e-01    1.760780e+00   2.511610e-02
  9.692851e-01    1.758519e+00   2.506658e-02
  9.714956e-01    1.793585e+00   2.527960e-02
  9.737060e-01    1.781531e+00   2.516140e-02
  9.759165e-01    1.827942e+00   2.545109e-02
  9.781269e-01    1.822527e+00   2.538014e-02
  9.803374e-01    1.816327e+00   2.530189e-02
  9.825478e-01    1.800853e+00   2.516064e-02
  9.847583e-01    1.781471e+00   2.499091e-02
  9.869688e-01    1.755480e+00   2.477471e-02
  9.891792e-01    1.772063e+00   2.485838e-02
  9.913897e-01    1.761325e+00   2.474950e-02
  9.936001e-01    1.763537e+00   2.473261e-02
  9.958106e-01    1.745577e+00   2.457292e-02
  9.980210e-01    1.723734e+00   2.438698e-02
  1.000231e+00    1.692497e+00   2.429742e-02
  1.002442e+00    1.639288e+00   2.403945e-02
  1.004652e+00    1.629575e+00   2.403501e-02
  1.006863e+00    1.615388e+00   2.397980e-02
  1.009073e+00    1.598985e+00   2.389428e-02
  1.011284e+00    1.577052e+00   2.376154e-02
  1.013494e+00    1.572707e+00   2.375234e-02
  1.015705e+00    1.540610e+00   2.353091e-02
  1.017915e+00    1.552333e+00   2.363654e-02
  1.020126e+00    1.547766e+00   2.361770e-02
  1.022336e+00    1.600933e+00   2.403175e-02
  1.024547e+00    1.568308e+00   2.379692e-02
  1.026757e+00    1.561775e+00   2.375569e-02
  1.028967e+00    1.554910e+00   2.371114e-02
  1.031178e+00    1.524563e+00   2.348476e-02
  1.033388e+00    1.536710e+00   2.358319e-02
  1.035599e+00    1.525553e+00   2.350086e-02
  1.037809e+00    1.555590e+00   2.373434e-02
  1.040020e+00    1.595128e+00   2.403541e-02
  1.042230e+00    1.623977e+00   2.425376e-02
  1.044441e+00    1.671405e+00   2.460514e-02
  1.046651e+00    1.770778e+00   2.532624e-02
  1.048862e+00    1.625775e+00   2.426638e-02
  1.051072e+00    1.564048e+00   2.379881e-02
  1.053282e+00    1.542127e+00   2.363048e-02
  1.055493e+00    1.538833e+00   2.360085e-02
  1.057703e+00    1.545852e+00   2.365308e-02
  1.059914e+00    1.551196e+00   2.368957e-02
  1.062124e+00    1.555892e+00   2.372126e-02
  1.064335e+00    1.595898e+00   2.402071e-02
  1.066545e+00    1.672250e+00   2.458221e-02
  1.068756e+00    1.861013e+00   2.592834e-02
  1.070966e+00    2.013883e+00   2.696466e-02
  1.073177e+00    1.967261e+00   2.664375e-02
  1.075387e+00    1.900851e+00   2.618422e-02
  1.077597e+00    1.741186e+00   2.505256e-02
  1.079808e+00    1.591366e+00   2.381208e-02
  1.082018e+00    1.512684e+00   2.302368e-02
  1.084229e+00    1.442595e+00   2.237459e-02
  1.086439e+00    1.438887e+00   2.225885e-02
  1.088650e+00    1.449225e+00   2.226314e-02
  1.090860e+00    1.413786e+00   2.192257e-02
  1.093071e+00    1.420736e+00   2.191485e-02
  1.095281e+00    1.436167e+00   2.197648e-02
  1.097492e+00    1.431298e+00   2.188455e-02
  1.099702e+00    1.448079e+00   2.196093e-02
  1.101912e+00    1.430391e+00   2.177770e-02
  1.104123e+00    1.497074e+00   2.223028e-02
  1.106333e+00    1.520854e+00   2.236042e-02
  1.108544e+00    1.461909e+00   2.187807e-02
  1.110754e+00    1.432748e+00   2.161565e-02
  1.112965e+00    1.412057e+00   2.141860e-02
  1.115175e+00    1.400374e+00   2.128891e-02
  1.117386e+00    1.401093e+00   2.125531e-02
  1.119596e+00    1.416742e+00   2.133574e-02
  1.121807e+00    1.409418e+00   2.124172e-02
  1.124017e+00    1.402862e+00   2.115566e-02
  1.126228e+00    1.383968e+00   2.097724e-02
  1.128438e+00    1.367071e+00   2.081245e-02
  1.130648e+00    1.391779e+00   2.096546e-02
  1.132859e+00    1.417551e+00   2.112406e-02
  1.135069e+00    1.401582e+00   2.096991e-02
  1.137280e+00    1.398136e+00   2.091102e-02
  1.139490e+00    1.388231e+00   2.080374e-02
  1.141701e+00    1.369041e+00   2.062653e-02
  1.143911e+00    1.370746e+00   2.060763e-02
  1.146122e+00    1.396904e+00   2.077114e-02
  1.148332e+00    1.399753e+00   2.076021e-02
  1.150543e+00    1.383111e+00   2.060553e-02
  1.152753e+00    1.378542e+00   2.054061e-02
  1.154963e+00    1.371671e+00   2.045831e-02
  1.157174e+00    1.389588e+00   2.056117e-02
  1.159384e+00    1.422889e+00   2.077565e-02
  1.161595e+00    1.463329e+00   2.103800e-02
  1.163805e+00    1.515409e+00   2.137829e-02
  1.166016e+00    1.505455e+00   2.127714e-02
  1.168226e+00    1.479564e+00   2.106320e-02
  1.170437e+00    1.557439e+00   2.157984e-02
  1.172647e+00    1.565839e+00   2.160707e-02
  1.174858e+00    1.528125e+00   2.131551e-02
  1.177068e+00    1.550833e+00   2.144315e-02
  1.179278e+00    1.622653e+00   2.190284e-02
  1.181489e+00    1.654668e+00   2.208810e-02
  1.183699e+00    1.533627e+00   2.123562e-02
  1.185910e+00    1.434349e+00   2.050823e-02
  1.188120e+00    1.357368e+00   1.992359e-02
  1.190331e+00    1.362641e+00   1.993539e-02
  1.192541e+00    1.375327e+00   2.000040e-02
  1.194752e+00    1.381557e+00   2.001832e-02
  1.196962e+00    1.354250e+00   1.979373e-02
  1.199173e+00    1.369861e+00   1.988077e-02
  1.201383e+00    1.405450e+00   2.010967e-02
  1.203593e+00    1.410726e+00   2.012202e-02
  1.205804e+00    1.363983e+00   1.975980e-02
  1.208014e+00    1.352337e+00   1.964840e-02
  1.210225e+00    1.330079e+00   1.946086e-02
  1.212435e+00    1.348685e+00   1.957175e-02
  1.214646e+00    1.347899e+00   1.953994e-02
  1.216856e+00    1.335391e+00   1.942375e-02
  1.219067e+00    1.305213e+00   1.917896e-02
  1.221277e+00    1.344101e+00   1.943757e-02
  1.223488e+00    1.382888e+00   1.969001e-02
  1.225698e+00    1.376402e+00   1.961661e-02
  1.227909e+00    1.367520e+00   1.952286e-02
  1.230119e+00    1.370153e+00   1.950953e-02
  1.232329e+00    1.408845e+00   1.975170e-02
  1.234540e+00    1.457658e+00   2.005949e-02
  1.236750e+00    1.433754e+00   1.986318e-02
  1.238961e+00    1.355595e+00   1.928715e-02
  1.241171e+00    1.349170e+00   1.921719e-02
  1.243382e+00    1.373724e+00   1.936757e-02
  1.245592e+00    1.341081e+00   1.911206e-02
  1.247803e+00    1.345883e+00   1.912263e-02
  1.250013e+00    1.342738e+00   1.907678e-02
  1.252224e+00    1.348754e+00   1.909623e-02
  1.254434e+00    1.354133e+00   1.911050e-02
  1.256644e+00    1.345796e+00   1.902840e-02
  1.258855e+00    1.358174e+00   1.909238e-02
  1.261065e+00    1.342722e+00   1.896016e-02
  1.263276e+00    1.314673e+00   1.873842e-02
  1.265486e+00    1.310758e+00   1.868797e-02
  1.267697e+00    1.330061e+00   1.880221e-02
  1.269907e+00    1.342659e+00   1.886842e-02
  1.272118e+00    1.331935e+00   1.877050e-02
  1.274328e+00    1.336689e+00   1.878133e-02
  1.276539e+00    1.345566e+00   1.882086e-02
  1.278749e+00    1.364103e+00   1.892764e-02
  1.280959e+00    1.344982e+00   1.877204e-02
  1.283170e+00    1.339049e+00   1.870824e-02
  1.285380e+00    1.335532e+00   1.866132e-02
  1.287591e+00    1.347522e+00   1.872290e-02
  1.289801e+00    1.345420e+00   1.868711e-02
  1.292012e+00    1.349895e+00   1.870105e-02
  1.294222e+00    1.364701e+00   1.878701e-02
  1.296433e+00    1.358897e+00   1.873137e-02
  1.298643e+00    1.360563e+00   1.872630e-02
  1.300854e+00    1.342280e+00   1.858371e-02
  1.303064e+00    1.333137e+00   1.850119e-02
  1.305274e+00    1.340649e+00   1.853188e-02
  1.307485e+00    1.364345e+00   1.867328e-02
  1.309695e+00    1.345765e+00   1.852350e-02
  1.311906e+00    1.366045e+00   1.864069e-02
  1.314116e+00    1.360096e+00   1.857921e-02
  1.316327e+00    1.335502e+00   1.838888e-02
  1.318537e+00    1.362135e+00   1.854934e-02
  1.320748e+00    1.349898e+00   1.844430e-02
  1.322958e+00    1.345047e+00   1.839064e-02
  1.325169e+00    1.356657e+00   1.844876e-02
  1.327379e+00    1.338304e+00   1.830184e-02
  1.329589e+00    1.352021e+00   1.837431e-02
  1.331800e+00    1.348131e+00   1.832717e-02
  1.334010e+00    1.373877e+00   1.848052e-02
  1.336221e+00    1.368480e+00   1.842228e-02
  1.338431e+00    1.369003e+00   1.840479e-02
  1.340642e+00    1.369867e+00   1.847522e-02
  1.342852e+00    1.370158e+00   1.857860e-02
  1.345063e+00    1.364598e+00   1.859063e-02
  1.347273e+00    1.325827e+00   1.835957e-02
  1.349484e+00    1.321612e+00   1.835772e-02
  1.351694e+00    1.361664e+00   1.865661e-02
  1.353905e+00    1.394946e+00   1.890155e-02
  1.356115e+00    1.413451e+00   1.904189e-02
  1.358325e+00    1.388486e+00   1.888652e-02
  1.360536e+00    1.360103e+00   1.870414e-02
  1.362746e+00    1.372137e+00   1.879634e-02
  1.364957e+00    1.339686e+00   1.858040e-02
  1.367167e+00    1.289054e+00   1.823289e-02
  1.369378e+00    1.317547e+00   1.843922e-02
  1.371588e+00    1.297131e+00   1.830089e-02
  1.373799e+00    1.308272e+00   1.838289e-02
  1.376009e+00    1.341286e+00   1.861681e-02
  1.378220e+00    1.346824e+00   1.865776e-02
  1.380430e+00    1.344611e+00   1.864514e-02
  1.382640e+00    1.324631e+00   1.850700e-02
  1.384851e+00    1.317984e+00   1.846138e-02
  1.387061e+00    1.337743e+00   1.859954e-02
  1.389272e+00    1.320524e+00   1.847967e-02
  1.391482e+00    1.294915e+00   1.829893e-02
  1.393693e+00    1.273238e+00   1.814425e-02
  1.395903e+00    1.276374e+00   1.816509e-02
  1.398114e+00    1.251529e+00   1.798607e-02
  1.400324e+00    1.269042e+00   1.810934e-02
  1.402535e+00    1.287668e+00   1.823943e-02
  1.404745e+00    1.288266e+00   1.824129e-02
  1.406955e+00    1.286654e+00   1.822718e-02
  1.409166e+00    1.258121e+00   1.802064e-02
  1.411376e+00    1.268743e+00   1.809343e-02
  1.413587e+00    1.256775e+00   1.800412e-02
  1.415797e+00    1.249834e+00   1.795081e-02
  1.418008e+00    1.248090e+00   1.789678e-02
  1.420218e+00    1.247946e+00   1.774731e-02
  1.422429e+00    1.250024e+00   1.767745e-02
  1.424639e+00    1.248137e+00   1.759999e-02
  1.426850e+00    1.241945e+00   1.750216e-02
  1.429060e+00    1.234720e+00   1.740290e-02
  1.431270e+00    1.236378e+00   1.737083e-02
  1.433481e+00    1.259947e+00   1.749482e-02
  1.435691e+00    1.296354e+00   1.770698e-02
  1.437902e+00    1.281961e+00   1.757177e-02
  1.440112e+00    1.269610e+00   1.745158e-02
  1.442323e+00    1.260216e+00   1.735398e-02
  1.444533e+00    1.259686e+00   1.731792e-02
  1.446744e+00    1.258075e+00   1.727584e-02
  1.448954e+00    1.282013e+00   1.740910e-02
  1.451165e+00    1.261755e+00   1.724136e-02
  1.453375e+00    1.244348e+00   1.709425e-02
  1.455586e+00    1.262232e+00   1.718855e-02
  1.457796e+00    1.262838e+00   1.716527e-02
  1.460006e+00    1.248732e+00   1.704209e-02
  1.462217e+00    1.279302e+00   1.722312e-02
  1.464427e+00    1.266678e+00   1.711236e-02
  1.466638e+00    1.260804e+00   1.704739e-02
  1.468848e+00    1.244781e+00   1.691364e-02
  1.471059e+00    1.261058e+00   1.699884e-02
  1.473269e+00    1.271083e+00   1.704189e-02
  1.475480e+00    1.259199e+00   1.693836e-02
  1.477690e+00    1.234526e+00   1.674809e-02
  1.479901e+00    1.234247e+00   1.672263e-02
  1.482111e+00    1.262201e+00   1.688770e-02
  1.484321e+00    1.249140e+00   1.677714e-02
  1.486532e+00    1.251997e+00   1.677410e-02
  1.488742e+00    1.262885e+00   1.682426e-02
  1.490953e+00    1.250257e+00   1.671746e-02
  1.493163e+00    1.268107e+00   1.681404e-02
  1.495374e+00    1.268649e+00   1.679610e-02
  1.497584e+00    1.275161e+00   1.681739e-02
  1.499795e+00    1.245688e+00   1.660039e-02
  1.502005e+00    1.256424e+00   1.665010e-02
  1.504216e+00    1.264408e+00   1.668184e-02
  1.506426e+00    1.265552e+00   1.666851e-02
  1.508636e+00    1.275037e+00   1.671027e-02
  1.510847e+00    1.264607e+00   1.661991e-02
  1.513057e+00    1.234313e+00   1.639475e-02
  1.515268e+00    1.256166e+00   1.651350e-02
  1.517478e+00    1.276456e+00   1.662097e-02
  1.519689e+00    1.306490e+00   1.678989e-02
  1.521899e+00    1.278174e+00   1.658364e-02
  1.524110e+00    1.254485e+00   1.640888e-02
  1.526320e+00    1.271919e+00   1.650276e-02
  1.528531e+00    1.296796e+00   1.664325e-02
  1.530741e+00    1.291207e+00   1.658788e-02
  1.532951e+00    1.288410e+00   1.655003e-02
  1.535162e+00    1.272467e+00   1.653471e-02
  1.537372e+00    1.227349e+00   1.630524e-02
  1.539583e+00    1.221845e+00   1.630250e-02
  1.541793e+00    1.225994e+00   1.633704e-02
  1.544004e+00    1.251512e+00   1.650643e-02
  1.546214e+00    1.312245e+00   1.690064e-02
  1.548425e+00    1.399287e+00   1.745244e-02
  1.550635e+00    1.415076e+00   1.756098e-02
  1.552846e+00    1.339967e+00   1.709861e-02
  1.555056e+00    1.270845e+00   1.660984e-02
  1.557266e+00    1.231192e+00   1.623876e-02
  1.559477e+00    1.289293e+00   1.655733e-02
  1.561687e+00    1.297993e+00   1.658179e-02
  1.563898e+00    1.304578e+00   1.660623e-02
  1.566108e+00    1.304393e+00   1.658871e-02
  1.568319e+00    1.299198e+00   1.653970e-02
  1.570529e+00    1.288185e+00   1.644387e-02
  1.572740e+00    1.268861e+00   1.629219e-02
  1.574950e+00    1.266161e+00   1.624829e-02
  1.577161e+00    1.255026e+00   1.615112e-02
  1.579371e+00    1.236905e+00   1.601049e-02
  1.581582e+00    1.278021e+00   1.625439e-02
  1.583792e+00    1.266247e+00   1.616117e-02
  1.586002e+00    1.252951e+00   1.605841e-02
  1.588213e+00    1.252470e+00   1.603803e-02
  1.590423e+00    1.234581e+00   1.590309e-02
  1.592634e+00    1.223292e+00   1.580877e-02
  1.594844e+00    1.220943e+00   1.577237e-02
  1.597055e+00    1.233204e+00   1.583096e-02
  1.599265e+00    1.250235e+00   1.591909e-02
  1.601476e+00    1.248031e+00   1.588470e-02
  1.603686e+00    1.229045e+00   1.574375e-02
  1.605897e+00    1.219543e+00   1.566275e-02
  1.608107e+00    1.233273e+00   1.573116e-02
  1.610317e+00    1.232756e+00   1.570858e-02
  1.612528e+00    1.219097e+00   1.560228e-02
  1.614738e+00    1.190552e+00   1.539990e-02
  1.616949e+00    1.190012e+00   1.537769e-02
  1.619159e+00    1.205444e+00   1.545849e-02
  1.621370e+00    1.209923e+00   1.546881e-02
  1.623580e+00    1.195103e+00   1.535559e-02
  1.625791e+00    1.188972e+00   1.529804e-02
  1.628001e+00    1.173953e+00   1.518308e-02
  1.630212e+00    1.177476e+00   1.518818e-02
  1.632422e+00    1.192769e+00   1.526857e-02
  1.634632e+00    1.159066e+00   1.503418e-02
  1.636843e+00    1.163494e+00   1.504541e-02
  1.639053e+00    1.183127e+00   1.515446e-02
  1.641264e+00    1.202421e+00   1.526021e-02
  1.643474e+00    1.158293e+00   1.496023e-02
  1.645685e+00    1.130475e+00   1.476302e-02
  1.647895e+00    1.129868e+00   1.474263e-02
  1.650106e+00    1.121671e+00   1.467228e-02
  1.652316e+00    1.135342e+00   1.474502e-02
  1.654527e+00    1.122421e+00   1.464436e-02
  1.656737e+00    1.118659e+00   1.460337e-02
  1.658947e+00    1.103914e+00   1.449072e-02
  1.661158e+00    1.111799e+00   1.452625e-02
  1.663368e+00    1.076130e+00   1.427563e-02
  1.665579e+00    1.088649e+00   1.434249e-02
  1.667789e+00    1.090950e+00   1.434160e-02
  1.670000e+00    1.094294e+00   1.434820e-02
  1.672210e+00    1.089764e+00   1.430273e-02
  1.674421e+00    1.092402e+00   1.430479e-02
  1.676631e+00    1.074129e+00   1.416896e-02
  1.678842e+00    1.085341e+00   1.422706e-02
  1.681052e+00    1.090808e+00   1.424748e-02
  1.683263e+00    1.064451e+00   1.405932e-02
  1.685473e+00    1.079298e+00   1.414195e-02
  1.687683e+00    1.059531e+00   1.399658e-02
  1.689894e+00    1.055650e+00   1.395534e-02
  1.692104e+00    1.056838e+00   1.394841e-02
  1.694315e+00    1.049667e+00   1.388666e-02
  1.696525e+00    1.047498e+00   1.385731e-02
  1.698736e+00    1.056281e+00   1.390052e-02
  1.700946e+00    1.061974e+00   1.392277e-02
  1.703157e+00    1.042907e+00   1.378270e-02
  1.705367e+00    1.037508e+00   1.373257e-02
  1.707578e+00    1.028694e+00   1.365970e-02
  1.709788e+00    1.028307e+00   1.364311e-02
  1.711998e+00    1.009614e+00   1.350378e-02
  1.714209e+00    1.020409e+00   1.356146e-02
  1.716419e+00    1.022755e+00   1.356286e-02
  1.718630e+00    1.010533e+00   1.346746e-02
  1.720840e+00    1.008326e+00   1.343869e-02
  1.723051e+00    1.015956e+00   1.347564e-02
  1.725261e+00    1.003333e+00   1.337713e-02
  1.727472e+00    9.906040e-01   1.327799e-02
  1.729682e+00    1.007463e+00   1.337711e-02
  1.731893e+00    1.000440e+00   1.331657e-02
  1.734103e+00    9.967199e-01   1.327810e-02
  1.736313e+00    1.011266e+00   1.336056e-02
  1.738524e+00    1.029081e+00   1.346373e-02
  1.740734e+00    1.041261e+00   1.352920e-02
  1.742945e+00    1.035690e+00   1.347924e-02
  1.745155e+00    1.032287e+00   1.344335e-02
  1.747366e+00    1.007508e+00   1.326710e-02
  1.749576e+00    9.526005e-01   1.288707e-02
  1.751787e+00    9.599391e-01   1.292342e-02
  1.753997e+00    9.892867e-01   1.310604e-02
  1.756208e+00    9.719294e-01   1.297737e-02
  1.758418e+00    9.759389e-01   1.299097e-02
  1.760628e+00    9.846602e-01   1.303544e-02
  1.762839e+00    9.610444e-01   1.286498e-02
  1.765049e+00    9.437194e-01   1.273550e-02
  1.767260e+00    9.498763e-01   1.276423e-02
  1.769470e+00    9.147139e-01   1.251306e-02
  1.771681e+00    9.261671e-01   1.257816e-02
  1.773891e+00    9.405958e-01   1.266280e-02
  1.776102e+00    9.422786e-01   1.266126e-02
  1.778312e+00    9.396640e-01   1.263102e-02
  1.780523e+00    9.274941e-01   1.253629e-02
  1.782733e+00    9.597381e-01   1.273952e-02
  1.784944e+00    9.510464e-01   1.266873e-02
  1.787154e+00    9.369215e-01   1.256172e-02
  1.789364e+00    9.326170e-01   1.252035e-02
  1.791575e+00    9.584497e-01   1.267978e-02
  1.793785e+00    1.019873e+00   1.306675e-02
  1.795996e+00    1.093294e+00   1.351526e-02
  1.798206e+00    1.114488e+00   1.363189e-02
  1.800417e+00    1.012756e+00   1.298154e-02
  1.802627e+00    9.743288e-01   1.272049e-02
  1.804838e+00    9.876986e-01   1.279489e-02
  1.807048e+00    9.796377e-01   1.272923e-02
  1.809259e+00    9.752364e-01   1.268650e-02
  1.811469e+00    9.656655e-01   1.260866e-02
  1.813679e+00    9.276481e-01   1.234278e-02
  1.815890e+00    9.103836e-01   1.221252e-02
  1.818100e+00    9.097703e-01   1.219320e-02
  1.820311e+00    8.736563e-01   1.193414e-02
  1.822521e+00    8.707368e-01   1.189948e-02
  1.824732e+00    8.650491e-01   1.184596e-02
  1.826942e+00    8.478067e-01   1.171525e-02
  1.829153e+00    8.647565e-01   1.182021e-02
  1.831363e+00    8.807233e-01   1.191684e-02
  1.833574e+00    8.800066e-01   1.190030e-02
  1.835784e+00    9.064654e-01   1.206630e-02
  1.837994e+00    8.840756e-01   1.190459e-02
  1.840205e+00    8.734595e-01   1.182173e-02
  1.842415e+00    8.529838e-01   1.167072e-02
  1.844626e+00    8.402809e-01   1.157212e-02
  1.846836e+00    8.397442e-01   1.155719e-02
  1.849047e+00    8.488789e-01   1.160837e-02
  1.851257e+00    8.750932e-01   1.177662e-02
  1.853468e+00    8.609478e-01   1.167227e-02
  1.855678e+00    8.533362e-01   1.161170e-02
  1.857889e+00    8.753781e-01   1.175213e-02
  1.860099e+00    8.610173e-01   1.164669e-02
  1.862309e+00    8.680960e-01   1.168589e-02
  1.864520e+00    8.663272e-01   1.166537e-02
  1.866730e+00    8.433420e-01   1.150024e-02
  1.868941e+00    8.360358e-01   1.143949e-02
  1.871151e+00    8.484465e-01   1.151270e-02
  1.873362e+00    8.511369e-01   1.151961e-02
  1.875572e+00    8.349509e-01   1.139869e-02
  1.877783e+00    8.404105e-01   1.142452e-02
  1.879993e+00    8.713614e-01   1.162166e-02
  1.882204e+00    8.996323e-01   1.179745e-02
  1.884414e+00    8.894535e-01   1.171917e-02
  1.886624e+00    8.638059e-01   1.153777e-02
  1.888835e+00    8.559365e-01   1.147401e-02
  1.891045e+00    8.487820e-01   1.141502e-02
  1.893256e+00    8.364153e-01   1.132049e-02
  1.895466e+00    8.222309e-01   1.121302e-02
  1.897677e+00    8.224120e-01   1.120340e-02
  1.899887e+00    8.197975e-01   1.117471e-02
  1.902098e+00    8.146589e-01   1.112889e-02
  1.904308e+00    8.229460e-01   1.117482e-02
  1.906519e+00    8.248149e-01   1.117670e-02
  1.908729e+00    8.308975e-01   1.120722e-02
  1.910940e+00    8.398544e-01   1.125624e-02
  1.913150e+00    8.416342e-01   1.125750e-02
  1.915360e+00    8.079094e-01   1.101913e-02
  1.917571e+00    8.114473e-01   1.103242e-02
  1.919781e+00    8.351008e-01   1.118128e-02
  1.921992e+00    8.349491e-01   1.116958e-02
  1.924202e+00    8.026559e-01   1.094075e-02
  1.926413e+00    8.331774e-01   1.113643e-02
  1.928623e+00    8.369772e-01   1.115109e-02
  1.930834e+00    8.579838e-01   1.127946e-02
  1.933044e+00    8.093325e-01   1.094437e-02
  1.935255e+00    8.109683e-01   1.094506e-02
  1.937465e+00    8.167884e-01   1.097382e-02
  1.939675e+00    7.950651e-01   1.081614e-02
  1.941886e+00    8.076950e-01   1.089140e-02
  1.944096e+00    8.026795e-01   1.084737e-02
  1.946307e+00    8.018855e-01   1.083166e-02
  1.948517e+00    7.846500e-01   1.070428e-02
  1.950728e+00    7.686636e-01   1.058462e-02
  1.952938e+00    7.863244e-01   1.069550e-02
  1.955149e+00    7.928330e-01   1.072947e-02
  1.957359e+00    7.745548e-01   1.059517e-02
  1.959570e+00    7.784619e-01   1.061109e-02
  1.961780e+00    7.852831e-01   1.064760e-02
  1.963990e+00    7.910941e-01   1.067683e-02
  1.966201e+00    7.905543e-01   1.066312e-02
  1.968411e+00    7.841142e-01   1.060947e-02
  1.970622e+00    7.811305e-01   1.057923e-02
  1.972832e+00    7.881306e-01   1.061654e-02
  1.975043e+00    7.849163e-01   1.058484e-02
  1.977253e+00    7.947168e-01   1.064070e-02
  1.979464e+00    7.910612e-01   1.060612e-02
  1.981674e+00    7.981758e-01   1.064335e-02
  1.983885e+00    7.865897e-01   1.055577e-02
  1.986095e+00    7.785205e-01   1.049180e-02
  1.988305e+00    7.627980e-01   1.037553e-02
  1.990516e+00    7.764270e-01   1.045788e-02
  1.992726e+00    7.921217e-01   1.055331e-02
  1.994937e+00    7.825233e-01   1.047902e-02
  1.997147e+00    7.912641e-01   1.052755e-02
  1.999358e+00    7.623239e-01   1.032347e-02
  2.001568e+00    7.751597e-01   1.039917e-02
  2.003779e+00    7.838123e-01   1.044507e-02
  2.005989e+00    7.615000e-01   1.028339e-02
  2.008200e+00    7.512745e-01   1.020272e-02
  2.010410e+00    7.652398e-01   1.028540e-02
  2.012621e+00    7.578114e-01   1.022372e-02
  2.014831e+00    7.625803e-01   1.024442e-02
  2.017041e+00    7.541651e-01   1.017744e-02
  2.019252e+00    7.621531e-01   1.022125e-02
  2.021462e+00    7.571308e-01   1.017806e-02
  2.023673e+00    7.659835e-01   1.022800e-02
  2.025883e+00    7.643042e-01   1.020724e-02
  2.028094e+00    7.793919e-01   1.029777e-02
  2.030304e+00    7.735990e-01   1.024981e-02
  2.032515e+00    7.685391e-01   1.020688e-02
  2.034725e+00    7.573218e-01   1.012271e-02
  2.036936e+00    7.532083e-01   1.008585e-02
  2.039146e+00    7.675558e-01   1.017182e-02
  2.041356e+00    7.569209e-01   1.009148e-02
  2.043567e+00    7.402339e-01   9.970400e-03
  2.045777e+00    7.419399e-01   9.972713e-03
  2.047988e+00    7.570512e-01   1.006438e-02
  2.050198e+00    7.492622e-01   1.000407e-02
  2.052409e+00    7.570357e-01   1.004814e-02
  2.054619e+00    7.654929e-01   1.009668e-02
  2.056830e+00    7.620518e-01   1.006674e-02
  2.059040e+00    7.588590e-01   1.003807e-02
  2.061251e+00    7.409821e-01   9.911931e-03
  2.063461e+00    7.546381e-01   9.995213e-03
  2.065671e+00    7.539402e-01   9.981856e-03
  2.067882e+00    7.400504e-01   9.880524e-03
  2.070092e+00    7.492939e-01   9.932824e-03
  2.072303e+00    7.462309e-01   9.903364e-03
  2.074513e+00    7.461689e-01   9.893646e-03
  2.076724e+00    7.295376e-01   9.773381e-03
  2.078934e+00    7.234269e-01   9.723487e-03
  2.081145e+00    7.260297e-01   9.731982e-03
  2.083355e+00    7.364594e-01   9.792476e-03
  2.085566e+00    7.465894e-01   9.850685e-03
  2.087776e+00    7.403873e-01   9.800137e-03
  2.089986e+00    7.496235e-01   9.852258e-03
  2.092197e+00    7.282641e-01   9.701971e-03
  2.094407e+00    7.197876e-01   9.636220e-03
  2.096618e+00    7.246540e-01   9.659892e-03
  2.098828e+00    7.267777e-01   9.664791e-03
  2.101039e+00    7.041339e-01   9.504228e-03
  2.103249e+00    7.197785e-01   9.600631e-03
  2.105460e+00    7.134212e-01   9.549231e-03
  2.107670e+00    7.261626e-01   9.625392e-03
  2.109881e+00    7.110081e-01   9.515393e-03
  2.112091e+00    7.071584e-01   9.480705e-03
  2.114301e+00    7.120984e-01   9.505061e-03
  2.116512e+00    7.081079e-01   9.469693e-03
  2.118722e+00    6.914268e-01   9.348849e-03
  2.120933e+00    7.097986e-01   9.463433e-03
  2.123143e+00    7.322255e-01   9.602780e-03
  2.125354e+00    7.202208e-01   9.515222e-03
  2.127564e+00    7.193495e-01   9.500693e-03
  2.129775e+00    7.047118e-01   9.394891e-03
  2.131985e+00    6.890148e-01   9.280765e-03
  2.134196e+00    7.206736e-01   9.482945e-03
  2.136406e+00    7.176419e-01   9.454202e-03
  2.138617e+00    7.250117e-01   9.494094e-03
  2.140827e+00    7.177297e-01   9.462439e-03
  2.143037e+00    7.363498e-01   9.630810e-03
  2.145248e+00    7.201056e-01   9.546220e-03
  2.147458e+00    7.075735e-01   9.477952e-03
  2.149669e+00    7.143397e-01   9.535113e-03
  2.151879e+00    6.940477e-01   9.407876e-03
  2.154090e+00    7.077300e-01   9.507492e-03
  2.156300e+00    7.098849e-01   9.528611e-03
  2.158511e+00    7.030478e-01   9.487942e-03
  2.160721e+00    7.050478e-01   9.506261e-03
  2.162932e+00    6.852847e-01   9.375789e-03
  2.165142e+00    6.877364e-01   9.395534e-03
  2.167352e+00    6.863478e-01   9.388947e-03
  2.169563e+00    6.756964e-01   9.317729e-03
  2.171773e+00    6.751385e-01   9.316296e-03
  2.173984e+00    7.056760e-01   9.526076e-03
  2.176194e+00    6.803232e-01   9.354601e-03
  2.178405e+00    6.847149e-01   9.385424e-03
  2.180615e+00    6.896885e-01   9.420129e-03
  2.182826e+00    6.903911e-01   9.425606e-03
  2.185036e+00    6.914706e-01   9.433026e-03
  2.187247e+00    6.985139e-01   9.480890e-03
  2.189457e+00    6.922230e-01   9.437706e-03
  2.191667e+00    7.032834e-01   9.512614e-03
  2.193878e+00    6.880859e-01   9.408714e-03
  2.196088e+00    6.925973e-01   9.438812e-03
  2.198299e+00    6.845297e-01   9.382608e-03
  2.200509e+00    6.858997e-01   9.390908e-03
  2.202720e+00    6.875622e-01   9.401144e-03
  2.204930e+00    6.781204e-01   9.335125e-03
  2.207141e+00    6.816125e-01   9.358010e-03
  2.209351e+00    6.936790e-01   9.438581e-03
  2.211562e+00    6.808831e-01   9.349502e-03
  2.213772e+00    6.839005e-01   9.314433e-03
  2.215982e+00    6.826008e-01   9.261125e-03
  2.218193e+00    6.883308e-01   9.270033e-03
  2.220403e+00    6.809775e-01   9.195675e-03
  2.222614e+00    6.789523e-01   9.160962e-03
  2.224824e+00    6.628764e-01   9.032642e-03
  2.227035e+00    6.512369e-01   8.935811e-03
  2.229245e+00    6.656528e-01   9.017277e-03
  2.231456e+00    6.729972e-01   9.051254e-03
  2.233666e+00    6.665528e-01   8.992782e-03
  2.235877e+00    6.626586e-01   8.952278e-03
  2.238087e+00    6.794474e-01   9.051389e-03
  2.240298e+00    6.871219e-01   9.088439e-03
  2.242508e+00    6.753402e-01   8.994964e-03
  2.244718e+00    6.622652e-01   8.891764e-03
  2.246929e+00    6.495438e-01   8.791693e-03
  2.249139e+00    6.744330e-01   8.946117e-03
  2.251350e+00    6.668084e-01   8.883708e-03
  2.253560e+00    6.629251e-01   8.846259e-03
  2.255771e+00    6.632857e-01   8.837282e-03
  2.257981e+00    6.677669e-01   8.855877e-03
  2.260192e+00    6.747473e-01   8.890845e-03
  2.262402e+00    6.850703e-01   8.947579e-03
  2.264613e+00    7.153670e-01   9.132039e-03
  2.266823e+00    6.846915e-01   8.923552e-03
  2.269033e+00    6.981964e-01   9.000457e-03
  2.271244e+00    7.212946e-01   9.137253e-03
  2.273454e+00    7.847100e-01   9.519300e-03
  2.275665e+00    8.527135e-01   9.911523e-03
  2.277875e+00    8.114457e-01   9.657769e-03
  2.280086e+00    7.184707e-01   9.077178e-03
  2.282296e+00    6.681092e-01   8.743752e-03
  2.284507e+00    6.674691e-01   8.729382e-03
  2.286717e+00    6.527169e-01   8.622927e-03
  2.288928e+00    6.578049e-01   8.646595e-03
  2.291138e+00    6.572941e-01   8.633833e-03
  2.293348e+00    6.454240e-01   8.546020e-03
  2.295559e+00    6.588503e-01   8.625142e-03
  2.297769e+00    6.592637e-01   8.618549e-03
  2.299980e+00    6.595039e-01   8.610761e-03
  2.302190e+00    6.454732e-01   8.509585e-03
  2.304401e+00    6.534017e-01   8.552362e-03
  2.306611e+00    6.617666e-01   8.597666e-03
  2.308822e+00    6.426402e-01   8.464181e-03
  2.311032e+00    6.589332e-01   8.564319e-03
  2.313243e+00    6.508271e-01   8.505195e-03
  2.315453e+00    6.492720e-01   8.487451e-03
  2.317663e+00    6.520301e-01   8.496310e-03
  2.319874e+00    6.280401e-01   8.329944e-03
  2.322084e+00    6.375890e-01   8.384105e-03
  2.324295e+00    6.407681e-01   8.396796e-03
  2.326505e+00    6.409508e-01   8.388964e-03
  2.328716e+00    6.422371e-01   8.388832e-03
  2.330926e+00    6.566307e-01   8.473431e-03
  2.333137e+00    6.288714e-01   8.284113e-03
  2.335347e+00    6.374350e-01   8.331450e-03
  2.337558e+00    6.403164e-01   8.342063e-03
  2.339768e+00    6.315516e-01   8.276241e-03
  2.341979e+00    6.347338e-01   8.288710e-03
  2.344189e+00    6.580083e-01   8.430805e-03
  2.346399e+00    6.516821e-01   8.381571e-03
  2.348610e+00    6.407279e-01   8.302348e-03
  2.350820e+00    6.362386e-01   8.265005e-03
  2.353031e+00    6.359960e-01   8.255161e-03
  2.355241e+00    6.110023e-01   8.083389e-03
  2.357452e+00    6.248147e-01   8.165879e-03
  2.359662e+00    6.295850e-01   8.188781e-03
  2.361873e+00    6.230840e-01   8.138227e-03
  2.364083e+00    6.196006e-01   8.107500e-03
  2.366294e+00    6.217752e-01   8.113645e-03
  2.368504e+00    6.255758e-01   8.130345e-03
  2.370714e+00    6.223902e-01   8.101586e-03
  2.372925e+00    6.187184e-01   8.069633e-03
  2.375135e+00    6.274691e-01   8.118422e-03
  2.377346e+00    6.299258e-01   8.126317e-03
  2.379556e+00    6.233661e-01   8.075994e-03
  2.381767e+00    6.209531e-01   8.052493e-03
  2.383977e+00    6.231217e-01   8.058576e-03
  2.386188e+00    6.288235e-01   8.087407e-03
  2.388398e+00    6.288869e-01   8.079778e-03
  2.390609e+00    6.234729e-01   8.037167e-03
  2.392819e+00    6.142785e-01   7.969922e-03
  2.395029e+00    6.058750e-01   7.907630e-03
  2.397240e+00    6.199799e-01   7.991207e-03
  2.399450e+00    6.163949e-01   7.960283e-03
  2.401661e+00    5.999963e-01   7.846064e-03
  2.403871e+00    6.139127e-01   7.928741e-03
  2.406082e+00    6.122007e-01   7.910259e-03
  2.408292e+00    6.174190e-01   7.936029e-03
  2.410503e+00    6.115294e-01   7.890602e-03
  2.412713e+00    5.960502e-01   7.782364e-03
  2.414924e+00    6.090097e-01   7.858997e-03
  2.417134e+00    6.211441e-01   7.929177e-03
  2.419344e+00    6.052655e-01   7.819763e-03
  2.421555e+00    5.987563e-01   7.770094e-03
  2.423765e+00    6.026525e-01   7.787927e-03
  2.425976e+00    6.099644e-01   7.827159e-03
  2.428186e+00    5.912179e-01   7.698763e-03
  2.430397e+00    5.980258e-01   7.735471e-03
  2.432607e+00    6.095253e-01   7.802133e-03
  2.434818e+00    6.003085e-01   7.735360e-03
  2.437028e+00    5.959100e-01   7.699792e-03
  2.439239e+00    5.803984e-01   7.591368e-03
  2.441449e+00    5.775755e-01   7.565755e-03
  2.443659e+00    5.784326e-01   7.564104e-03
  2.445870e+00    5.748664e-01   7.552843e-03
  2.448080e+00    5.680445e-01   7.542250e-03
  2.450291e+00    5.727770e-01   7.590141e-03
  2.452501e+00    5.847730e-01   7.680465e-03
  2.454712e+00    5.713007e-01   7.599897e-03
  2.456922e+00    5.540251e-01   7.490627e-03
  2.459133e+00    5.535988e-01   7.493108e-03
  2.461343e+00    5.438222e-01   7.430901e-03
  2.463554e+00    5.542998e-01   7.505591e-03
  2.465764e+00    5.511837e-01   7.487569e-03
  2.467975e+00    5.619931e-01   7.562900e-03
  2.470185e+00    5.570263e-01   7.531695e-03
  2.472395e+00    5.415135e-01   7.427270e-03
  2.474606e+00    5.372827e-01   7.399721e-03
  2.476816e+00    5.496189e-01   7.484939e-03
  2.479027e+00    5.540714e-01   7.516038e-03
  2.481237e+00    5.596105e-01   7.553802e-03
  2.483448e+00    5.517485e-01   7.500858e-03
  2.485658e+00    5.440859e-01   7.448448e-03
  2.487869e+00    5.376511e-01   7.404303e-03
  2.490079e+00    5.470532e-01   7.468244e-03
  2.492290e+00    5.534684e-01   7.511461e-03
  2.494500e+00    5.575395e-01   7.538293e-03
  2.496710e+00    5.666355e-01   7.598817e-03
  2.498921e+00    5.529528e-01   7.505523e-03
  2.501131e+00    5.497034e-01   7.482456e-03
  2.503342e+00    5.436901e-01   7.440162e-03
  2.505552e+00    5.341299e-01   7.373307e-03
  2.507763e+00    5.342974e-01   7.373044e-03
  2.509973e+00    5.231555e-01   7.294388e-03
  2.512184e+00    5.309655e-01   7.346996e-03
  2.514394e+00    5.291568e-01   7.325101e-03
  2.516605e+00    5.095095e-01   7.141535e-03
  2.518815e+00    5.130951e-01   7.138625e-03
  2.521025e+00    5.352850e-01   7.270193e-03
  2.523236e+00    5.459689e-01   7.324067e-03
  2.525446e+00    5.483575e-01   7.324142e-03
  2.527657e+00    5.374033e-01   7.235845e-03
  2.529867e+00    5.350419e-01   7.205615e-03
  2.532078e+00    5.371920e-01   7.204865e-03
  2.534288e+00    5.306677e-01   7.147019e-03
  2.536499e+00    5.217072e-01   7.074521e-03
  2.538709e+00    5.275230e-01   7.102790e-03
  2.540920e+00    5.318571e-01   7.121216e-03
  2.543130e+00    5.260721e-01   7.071973e-03
  2.545340e+00    5.420290e-01   7.168197e-03
  2.547551e+00    5.335313e-01   7.101759e-03
  2.549761e+00    5.091815e-01   6.928344e-03
  2.551972e+00    5.034079e-01   6.879749e-03
  2.554182e+00    5.065669e-01   6.892263e-03
  2.556393e+00    5.200059e-01   6.973989e-03
  2.558603e+00    5.310184e-01   7.038299e-03
  2.560814e+00    5.156900e-01   6.927303e-03
  2.563024e+00    5.195676e-01   6.944709e-03
  2.565235e+00    5.162542e-01   6.913060e-03
  2.567445e+00    4.999470e-01   6.793619e-03
  2.569656e+00    5.054548e-01   6.821307e-03
  2.571866e+00    5.073848e-01   6.825055e-03
  2.574076e+00    5.345866e-01   6.996181e-03
  2.576287e+00    5.273720e-01   6.940417e-03
  2.578497e+00    5.240896e-01   6.910872e-03
  2.580708e+00    5.182140e-01   6.863912e-03
  2.582918e+00    5.292520e-01   6.928766e-03
  2.585129e+00    5.005111e-01   6.730371e-03
  2.587339e+00    5.053725e-01   6.755348e-03
  2.589550e+00    4.994228e-01   6.708016e-03
  2.591760e+00    5.090118e-01   6.764388e-03
  2.593971e+00    5.217744e-01   6.841073e-03
  2.596181e+00    5.075177e-01   6.740765e-03
  2.598391e+00    5.055369e-01   6.722447e-03
  2.600602e+00    5.190811e-01   6.805911e-03
  2.602812e+00    5.134071e-01   6.761060e-03
  2.605023e+00    5.070766e-01   6.712097e-03
  2.607233e+00    5.143060e-01   6.752574e-03
  2.609444e+00    5.109853e-01   6.723500e-03
  2.611654e+00    5.123934e-01   6.725385e-03
  2.613865e+00    5.125347e-01   6.719252e-03
  2.616075e+00    4.986015e-01   6.620194e-03
  2.618286e+00    5.058182e-01   6.660921e-03
  2.620496e+00    5.128994e-01   6.700656e-03
  2.622706e+00    5.120765e-01   6.689476e-03
  2.624917e+00    5.096025e-01   6.667445e-03
  2.627127e+00    5.002689e-01   6.600361e-03
  2.629338e+00    5.082723e-01   6.646951e-03
  2.631548e+00    5.181242e-01   6.704804e-03
  2.633759e+00    5.035197e-01   6.602484e-03
  2.635969e+00    5.031690e-01   6.593478e-03
  2.638180e+00    5.084755e-01   6.621127e-03
  2.640390e+00    5.029644e-01   6.578538e-03
  2.642601e+00    4.927983e-01   6.505102e-03
  2.644811e+00    4.950790e-01   6.513088e-03
  2.647021e+00    5.036886e-01   6.562890e-03
  2.649232e+00    5.084931e-01   6.587346e-03
  2.651442e+00    4.969420e-01   6.505603e-03
  2.653653e+00    4.984677e-01   6.508800e-03
  2.655863e+00    5.031185e-01   6.532362e-03
  2.658074e+00    5.103891e-01   6.572715e-03
  2.660284e+00    5.064159e-01   6.540660e-03
  2.662495e+00    5.109319e-01   6.562920e-03
  2.664705e+00    5.028764e-01   6.504377e-03
  2.666916e+00    4.976625e-01   6.464089e-03
  2.669126e+00    4.923837e-01   6.423287e-03
  2.671337e+00    4.846802e-01   6.366326e-03
  2.673547e+00    5.027242e-01   6.477311e-03
  2.675757e+00    4.992673e-01   6.448543e-03
  2.677968e+00    4.988538e-01   6.439297e-03
  2.680178e+00    5.099124e-01   6.503793e-03
  2.682389e+00    5.084794e-01   6.488144e-03
  2.684599e+00    5.086641e-01   6.483047e-03
  2.686810e+00    4.860832e-01   6.330957e-03
  2.689020e+00    4.828011e-01   6.303289e-03
  2.691231e+00    5.029291e-01   6.426985e-03
  2.693441e+00    4.894229e-01   6.333965e-03
  2.695652e+00    4.977163e-01   6.380839e-03
  2.697862e+00    4.880805e-01   6.312429e-03
  2.700072e+00    4.954320e-01   6.353681e-03
  2.702283e+00    5.088273e-01   6.432650e-03
  2.704493e+00    5.092002e-01   6.428612e-03
  2.706704e+00    4.895603e-01   6.297004e-03
  2.708914e+00    4.876239e-01   6.278565e-03
  2.711125e+00    4.901761e-01   6.288712e-03
  2.713335e+00    4.906996e-01   6.285976e-03
  2.715546e+00    4.674607e-01   6.128978e-03
  2.717756e+00    4.790996e-01   6.198957e-03
  2.719967e+00    4.793772e-01   6.194603e-03
  2.722177e+00    4.737214e-01   6.151890e-03
  2.724387e+00    4.738098e-01   6.146439e-03
  2.726598e+00    4.857219e-01   6.217151e-03
  2.728808e+00    4.961946e-01   6.277603e-03
  2.731019e+00    4.857322e-01   6.204957e-03
  2.733229e+00    4.784564e-01   6.152523e-03
  2.735440e+00    4.757210e-01   6.128708e-03
  2.737650e+00    4.769969e-01   6.130931e-03
  2.739861e+00    4.768627e-01   6.124045e-03
  2.742071e+00    4.771538e-01   6.120204e-03
  2.744282e+00    4.742413e-01   6.095311e-03
  2.746492e+00    4.732315e-01   6.082834e-03
  2.748702e+00    4.727679e-01   6.074009e-03
  2.750913e+00    4.746203e-01   6.080145e-03
  2.753123e+00    4.832770e-01   6.129210e-03
  2.755334e+00    4.810451e-01   6.108969e-03
  2.757544e+00    4.887769e-01   6.152084e-03
  2.759755e+00    4.842072e-01   6.117342e-03
  2.761965e+00    4.897003e-01   6.145905e-03
  2.764176e+00    5.010986e-01   6.210906e-03
  2.766386e+00    4.815718e-01   6.082894e-03
  2.768597e+00    4.901595e-01   6.130957e-03
  2.770807e+00    4.857617e-01   6.097478e-03
  2.773017e+00    4.737601e-01   6.015746e-03
  2.775228e+00    4.808236e-01   6.054621e-03
  2.777438e+00    4.812460e-01   6.051473e-03
  2.779649e+00    4.825586e-01   6.053790e-03
  2.781859e+00    4.647717e-01   5.935484e-03
  2.784070e+00    4.880611e-01   6.076444e-03
  2.786280e+00    4.838930e-01   6.044652e-03
  2.788491e+00    4.711166e-01   5.958515e-03
  2.790701e+00    4.788687e-01   6.001669e-03
  2.792912e+00    4.706605e-01   5.944089e-03
  2.795122e+00    4.680592e-01   5.921958e-03
  2.797333e+00    4.764459e-01   5.969202e-03
  2.799543e+00    4.708892e-01   5.928458e-03
  2.801753e+00    4.624235e-01   5.869154e-03
  2.803964e+00    4.716358e-01   5.921688e-03
  2.806174e+00    4.764527e-01   5.945685e-03
  2.808385e+00    4.792892e-01   5.956540e-03
  2.810595e+00    4.787386e-01   5.946225e-03
  2.812806e+00    4.778056e-01   5.933788e-03
  2.815016e+00    4.701944e-01   5.881623e-03
  2.817227e+00    4.652445e-01   5.876264e-03
  2.819437e+00    4.565792e-01   5.832157e-03
  2.821648e+00    4.650154e-01   5.888056e-03
  2.823858e+00    4.733105e-01   5.945683e-03
  2.826068e+00    4.820910e-01   6.005608e-03
  2.828279e+00    4.775603e-01   5.981381e-03
  2.830489e+00    4.704650e-01   5.940128e-03
  2.832700e+00    4.592490e-01   5.871397e-03
  2.834910e+00    4.618491e-01   5.890029e-03
  2.837121e+00    4.783349e-01   5.995972e-03
  2.839331e+00    4.654761e-01   5.916046e-03
  2.841542e+00    4.750549e-01   5.977619e-03
  2.843752e+00    4.719563e-01   5.958898e-03
  2.845963e+00    4.601823e-01   5.884481e-03
  2.848173e+00    4.642484e-01   5.910508e-03
  2.850383e+00    4.692087e-01   5.942292e-03
  2.852594e+00    4.650884e-01   5.916073e-03
  2.854804e+00    4.691172e-01   5.941126e-03
  2.857015e+00    4.685618e-01   5.937182e-03
  2.859225e+00    4.557934e-01   5.855477e-03
  2.861436e+00    4.598134e-01   5.880594e-03
  2.863646e+00    4.640089e-01   5.907397e-03
  2.865857e+00    4.585944e-01   5.873173e-03
  2.868067e+00    4.599734e-01   5.882203e-03
  2.870278e+00    4.609118e-01   5.887868e-03
  2.872488e+00    4.643365e-01   5.908521e-03
  2.874698e+00    4.662597e-01   5.919715e-03
  2.876909e+00    4.648242e-01   5.909256e-03
  2.879119e+00    4.608191e-01   5.882124e-03
  2.881330e+00    4.618840e-01   5.887452e-03
  2.883540e+00    4.766470e-01   5.979375e-03
  2.885751e+00    4.728148e-01   5.953640e-03
  2.887961e+00    4.795616e-01   5.994049e-03
  2.890172e+00    4.581557e-01   5.857150e-03
  2.892382e+00    4.605608e-01   5.870696e-03
  2.894593e+00    4.569556e-01   5.845862e-03
  2.896803e+00    4.550683e-01   5.831807e-03
  2.899014e+00    4.750077e-01   5.956261e-03
  2.901224e+00    4.622512e-01   5.873749e-03
  2.903434e+00    4.566353e-01   5.836020e-03
  2.905645e+00    4.587466e-01   5.847272e-03
  2.907855e+00    4.622203e-01   5.867261e-03
  2.910066e+00    4.525904e-01   5.803768e-03
  2.912276e+00    4.545169e-01   5.813974e-03
  2.914487e+00    4.562935e-01   5.822903e-03
  2.916697e+00    4.454639e-01   5.751167e-03
  2.918908e+00    4.526458e-01   5.795374e-03
  2.921118e+00    4.494900e-01   5.772449e-03
  2.923329e+00    4.591699e-01   5.831966e-03
  2.925539e+00    4.500638e-01   5.771595e-03
  2.927749e+00    4.450257e-01   5.736892e-03
  2.929960e+00    4.621175e-01   5.843251e-03
  2.932170e+00    4.599714e-01   5.827326e-03
  2.934381e+00    4.528807e-01   5.779801e-03
  2.936591e+00    4.588635e-01   5.815270e-03
  2.938802e+00    4.521965e-01   5.770171e-03
  2.941012e+00    4.568836e-01   5.797662e-03
  2.943223e+00    4.617848e-01   5.825955e-03
  2.945433e+00    4.577275e-01   5.796575e-03
  2.947644e+00    4.482016e-01   5.731832e-03
  2.949854e+00    4.601001e-01   5.803116e-03
  2.952064e+00    4.584927e-01   5.788751e-03
  2.954275e+00    4.582849e-01   5.782991e-03
  2.956485e+00    4.595723e-01   5.786905e-03
  2.958696e+00    4.637029e-01   5.808446e-03
  2.960906e+00    4.631060e-01   5.800488e-03
  2.963117e+00    4.565731e-01   5.754942e-03
  2.965327e+00    4.400276e-01   5.645860e-03
  2.967538e+00    4.494225e-01   5.702900e-03
  2.969748e+00    4.489002e-01   5.696802e-03
  2.971959e+00    4.531994e-01   5.720873e-03
  2.974169e+00    4.615940e-01   5.771012e-03
  2.976379e+00    4.661651e-01   5.796566e-03
  2.978590e+00    4.457021e-01   5.664815e-03
  2.980800e+00    4.556936e-01   5.725140e-03
  2.983011e+00    4.609185e-01   5.755054e-03
  2.985221e+00    4.596029e-01   5.743667e-03
  2.987432e+00    4.487198e-01   5.672172e-03
  2.989642e+00    4.494536e-01   5.674170e-03
  2.991853e+00    4.649539e-01   5.767885e-03
  2.994063e+00    4.572879e-01   5.717216e-03
  2.996274e+00    4.420803e-01   5.618208e-03
  2.998484e+00    4.481065e-01   5.653680e-03
  3.000694e+00    4.525847e-01   5.678410e-03
  3.002905e+00    4.607112e-01   5.726203e-03
  3.005115e+00    4.701960e-01   5.781809e-03
  3.007326e+00    4.603608e-01   5.717853e-03
  3.009536e+00    4.534051e-01   5.671235e-03
  3.011747e+00    4.586148e-01   5.700783e-03
  3.013957e+00    4.544047e-01   5.671376e-03
  3.016168e+00    4.624712e-01   5.718204e-03
  3.018378e+00    4.528720e-01   5.655502e-03
  3.020589e+00    4.503940e-01   5.636807e-03
  3.022799e+00    4.589038e-01   5.686612e-03
  3.025010e+00    4.528759e-01   5.645917e-03
  3.027220e+00    4.550886e-01   5.656566e-03
  3.029430e+00    4.575532e-01   5.668608e-03
  3.031641e+00    4.506520e-01   5.622553e-03
  3.033851e+00    4.416721e-01   5.562777e-03
  3.036062e+00    4.422581e-01   5.563714e-03
  3.038272e+00    4.490432e-01   5.602656e-03
  3.040483e+00    4.555546e-01   5.639898e-03
  3.042693e+00    4.533526e-01   5.622994e-03
  3.044904e+00    4.526845e-01   5.614807e-03
  3.047114e+00    4.453719e-01   5.564498e-03
  3.049325e+00    4.497415e-01   5.587341e-03
  3.051535e+00    4.499156e-01   5.584028e-03
  3.053745e+00    4.429033e-01   5.535632e-03
  3.055956e+00    4.469883e-01   5.556555e-03
  3.058166e+00    4.484846e-01   5.561587e-03
  3.060377e+00    4.409202e-01   5.509770e-03
  3.062587e+00    4.413325e-01   5.507763e-03
  3.064798e+00    4.477241e-01   5.543248e-03
  3.067008e+00    4.461852e-01   5.529006e-03
  3.069219e+00    4.530261e-01   5.566708e-03
  3.071429e+00    4.445714e-01   5.511020e-03
  3.073640e+00    4.467960e-01   5.521473e-03
  3.075850e+00    4.359180e-01   5.450326e-03
  3.078060e+00    4.512814e-01   5.542398e-03
  3.080271e+00    4.503604e-01   5.533282e-03
  3.082481e+00    4.358844e-01   5.440225e-03
  3.084692e+00    4.452365e-01   5.494900e-03
  3.086902e+00    4.431476e-01   5.478790e-03
  3.089113e+00    4.507096e-01   5.521729e-03
  3.091323e+00    4.485198e-01   5.504954e-03
  3.093534e+00    4.430974e-01   5.468206e-03
  3.095744e+00    4.457642e-01   5.481261e-03
  3.097955e+00    4.584186e-01   5.554938e-03
  3.100165e+00    4.443141e-01   5.465492e-03
  3.102375e+00    4.488390e-01   5.489824e-03
  3.104586e+00    4.551486e-01   5.524735e-03
  3.106796e+00    4.478422e-01   5.476713e-03
  3.109007e+00    4.407948e-01   5.430244e-03
  3.111217e+00    4.492670e-01   5.478467e-03
  3.113428e+00    4.407270e-01   5.422751e-03
  3.115638e+00    4.543833e-01   5.502867e-03
  3.117849e+00    4.348753e-01   5.379769e-03
  3.120059e+00    4.538470e-01   5.492347e-03
  3.122270e+00    4.412535e-01   5.412386e-03
  3.124480e+00    4.516215e-01   5.471879e-03
  3.126691e+00    4.509698e-01   5.464335e-03
  3.128901e+00    4.565014e-01   5.494592e-03
  3.131111e+00    4.446098e-01   5.418726e-03
  3.133322e+00    4.409454e-01   5.392898e-03
  3.135532e+00    4.571781e-01   5.487815e-03
  3.137743e+00    4.428869e-01   5.397899e-03
  3.139953e+00    4.419810e-01   5.388681e-03
  3.142164e+00    4.353912e-01   5.360288e-03
  3.144374e+00    4.565542e-01   5.517844e-03
  3.146585e+00    4.458452e-01   5.467403e-03
  3.148795e+00    4.407926e-01   5.447079e-03
  3.151006e+00    4.464199e-01   5.490306e-03
  3.153216e+00    4.605886e-01   5.584065e-03
  3.155426e+00    4.529276e-01   5.543822e-03
  3.157637e+00    4.382137e-01   5.458539e-03
  3.159847e+00    4.349822e-01   5.443210e-03
  3.162058e+00    4.489090e-01   5.534144e-03
  3.164268e+00    4.337255e-01   5.443769e-03
  3.166479e+00    4.462685e-01   5.525609e-03
  3.168689e+00    4.479170e-01   5.539199e-03
  3.170900e+00    4.397304e-01   5.491538e-03
  3.173110e+00    4.286063e-01   5.424458e-03
  3.175321e+00    4.346374e-01   5.464960e-03
  3.177531e+00    4.601071e-01   5.625628e-03
  3.179741e+00    4.419176e-01   5.515389e-03
  3.181952e+00    4.425405e-01   5.521397e-03
  3.184162e+00    4.407654e-01   5.512507e-03
  3.186373e+00    4.441294e-01   5.535112e-03
  3.188583e+00    4.441784e-01   5.537227e-03
  3.190794e+00    4.539858e-01   5.599798e-03
  3.193004e+00    4.434935e-01   5.536001e-03
  3.195215e+00    4.343989e-01   5.480408e-03
  3.197425e+00    4.385780e-01   5.507947e-03
  3.199636e+00    4.377131e-01   5.501715e-03
  3.201846e+00    4.340004e-01   5.477757e-03
  3.204056e+00    4.391967e-01   5.511312e-03
  3.206267e+00    4.374907e-01   5.501478e-03
  3.208477e+00    4.304377e-01   5.457868e-03
  3.210688e+00    4.213992e-01   5.401080e-03
  3.212898e+00    4.391926e-01   5.514510e-03
  3.215109e+00    4.209851e-01   5.399758e-03
  3.217319e+00    4.217810e-01   5.405464e-03
  3.219530e+00    4.327198e-01   5.475527e-03
  3.221740e+00    4.238222e-01   5.419467e-03
  3.223951e+00    4.338900e-01   5.483950e-03
  3.226161e+00    4.330671e-01   5.478933e-03
  3.228372e+00    4.296464e-01   5.457783e-03
  3.230582e+00    4.249809e-01   5.428203e-03
  3.232792e+00    4.384229e-01   5.513590e-03
  3.235003e+00    4.498995e-01   5.585586e-03
  3.237213e+00    4.272710e-01   5.443380e-03
  3.239424e+00    4.352525e-01   5.493983e-03
  3.241634e+00    4.408114e-01   5.529082e-03
  3.243845e+00    4.449022e-01   5.554757e-03
  3.246055e+00    4.337618e-01   5.484500e-03
  3.248266e+00    4.367008e-01   5.503248e-03
  3.250476e+00    4.295983e-01   5.457998e-03
  3.252687e+00    4.088508e-01   5.324518e-03
  3.254897e+00    4.263171e-01   5.436898e-03
  3.257107e+00    4.356326e-01   5.495699e-03
  3.259318e+00    4.232092e-01   5.416527e-03
  3.261528e+00    4.258226e-01   5.433084e-03
  3.263739e+00    4.197775e-01   5.393825e-03
  3.265949e+00    4.275088e-01   5.443146e-03
  3.268160e+00    4.139672e-01   5.355835e-03
  3.270370e+00    4.434196e-01   5.542562e-03
  3.272581e+00    4.183865e-01   5.383586e-03
  3.274791e+00    4.271329e-01   5.439004e-03
  3.277002e+00    4.258302e-01   5.430164e-03
  3.279212e+00    4.222364e-01   5.406806e-03
  3.281422e+00    4.335832e-01   5.478392e-03
  3.283633e+00    4.427382e-01   5.535240e-03
  3.285843e+00    4.304473e-01   5.457527e-03
  3.288054e+00    4.505040e-01   5.582260e-03
  3.290264e+00    4.298054e-01   5.452208e-03
  3.292475e+00    4.256544e-01   5.424959e-03
  3.294685e+00    4.321153e-01   5.465344e-03
  3.296896e+00    4.367716e-01   5.493941e-03
  3.299106e+00    4.269328e-01   5.431161e-03
  3.301317e+00    4.204853e-01   5.388974e-03
  3.303527e+00    4.100686e-01   5.321324e-03
  3.305737e+00    4.325083e-01   5.463932e-03
  3.307948e+00    4.310897e-01   5.454296e-03
  3.310158e+00    4.319697e-01   5.459005e-03
  3.312369e+00    4.217002e-01   5.392835e-03
  3.314579e+00    4.243693e-01   5.408958e-03
  3.316790e+00    4.371461e-01   5.489068e-03
  3.319000e+00    4.228821e-01   5.397589e-03
  3.321211e+00    4.224309e-01   5.394096e-03
  3.323421e+00    4.180876e-01   5.365096e-03
  3.325632e+00    4.288441e-01   5.432766e-03
  3.327842e+00    4.368802e-01   5.482526e-03
  3.330052e+00    4.308889e-01   5.443713e-03
  3.332263e+00    4.216775e-01   5.384200e-03
  3.334473e+00    4.329226e-01   5.454576e-03
  3.336684e+00    4.442540e-01   5.524219e-03
  3.338894e+00    4.315320e-01   5.443695e-03
  3.341105e+00    4.307921e-01   5.437798e-03
  3.343315e+00    4.091005e-01   5.298024e-03
  3.345526e+00    3.941248e-01   5.199260e-03
  3.347736e+00    4.133194e-01   5.322944e-03
  3.349947e+00    4.338405e-01   5.452561e-03
  3.352157e+00    4.252973e-01   5.397405e-03
  3.354368e+00    4.335010e-01   5.447930e-03
  3.356578e+00    4.133326e-01   5.318655e-03
  3.358788e+00    4.197263e-01   5.358308e-03
  3.360999e+00    4.272339e-01   5.404754e-03
  3.363209e+00    4.346128e-01   5.450195e-03
  3.365420e+00    4.267325e-01   5.399026e-03
  3.367630e+00    4.311756e-01   5.426040e-03
  3.369841e+00    4.152481e-01   5.323438e-03
  3.372051e+00    4.044949e-01   5.252135e-03
  3.374262e+00    4.106168e-01   5.289281e-03
  3.376472e+00    4.185432e-01   5.337640e-03
  3.378683e+00    4.207973e-01   5.349492e-03
  3.380893e+00    4.075678e-01   5.262400e-03
  3.383103e+00    4.188438e-01   5.331979e-03
  3.385314e+00    4.148803e-01   5.304497e-03
  3.387524e+00    3.983021e-01   5.194722e-03
  3.389735e+00    4.053675e-01   5.238015e-03
  3.391945e+00    4.006379e-01   5.203729e-03
  3.394156e+00    3.971650e-01   5.177000e-03
  3.396366e+00    4.202615e-01   5.321945e-03
  3.398577e+00    4.173484e-01   5.300418e-03
  3.400787e+00    4.109884e-01   5.271774e-03
  3.402998e+00    4.197892e-01   5.366453e-03
  3.405208e+00    4.065218e-01   5.301639e-03
  3.407418e+00    4.198138e-01   5.403775e-03
  3.409629e+00    4.049870e-01   5.321521e-03
  3.411839e+00    4.098226e-01   5.365135e-03
  3.414050e+00    4.074619e-01   5.360806e-03
  3.416260e+00    3.874859e-01   5.237272e-03
  3.418471e+00    3.945181e-01   5.294031e-03
  3.420681e+00    3.987752e-01   5.331070e-03
  3.422892e+00    3.993891e-01   5.343265e-03
  3.425102e+00    3.915641e-01   5.298492e-03
  3.427313e+00    3.849092e-01   5.260444e-03
  3.429523e+00    3.953208e-01   5.338227e-03
  3.431733e+00    3.817009e-01   5.252102e-03
  3.433944e+00    3.779106e-01   5.232412e-03
  3.436154e+00    3.892722e-01   5.316727e-03
  3.438365e+00    3.995171e-01   5.392334e-03
  3.440575e+00    3.726054e-01   5.213439e-03
  3.442786e+00    3.674980e-01   5.183078e-03
  3.444996e+00    3.657417e-01   5.176092e-03
  3.447207e+00    3.556601e-01   5.109415e-03
  3.449417e+00    3.622395e-01   5.196756e-03
  3.451628e+00    3.611285e-01   5.217911e-03
  3.453838e+00    3.680828e-01   5.289083e-03
  3.456049e+00    3.760844e-01   5.370463e-03
  3.458259e+00    3.651580e-01   5.313782e-03
  3.460469e+00    3.566138e-01   5.270741e-03
  3.462680e+00    3.745793e-01   5.421176e-03
  3.464890e+00    3.580191e-01   5.317552e-03
  3.467101e+00    3.724544e-01   5.441307e-03
  3.469311e+00    3.737000e-01   5.467001e-03
  3.471522e+00    3.899237e-01   5.601129e-03
  3.473732e+00    3.953296e-01   5.656121e-03
  3.475943e+00    3.999572e-01   5.705195e-03
  3.478153e+00    4.142319e-01   5.822077e-03
  3.480364e+00    4.120143e-01   5.821941e-03
  3.482574e+00    4.254357e-01   5.931792e-03
  3.484784e+00    4.288815e-01   5.970945e-03
  3.486995e+00    4.295933e-01   5.991224e-03
  3.489205e+00    4.311535e-01   6.016951e-03
  3.491416e+00    4.404224e-01   6.096367e-03
  3.493626e+00    4.556315e-01   6.215714e-03
  3.495837e+00    4.640713e-01   6.288135e-03
  3.498047e+00    4.547960e-01   6.239658e-03
  3.500258e+00    4.609493e-01   6.296439e-03
  3.502468e+00    4.460732e-01   6.208311e-03
  3.504679e+00    4.652826e-01   6.355107e-03
  3.506889e+00    4.775691e-01   6.453113e-03
  3.509099e+00    4.697681e-01   6.414524e-03
  3.511310e+00    4.699904e-01   6.430396e-03
  3.513520e+00    4.943677e-01   6.609659e-03
  3.515731e+00    4.990256e-01   6.655306e-03
  3.517941e+00    4.876285e-01   6.593178e-03
  3.520152e+00    4.963009e-01   6.665909e-03
  3.522362e+00    4.976359e-01   6.689274e-03
  3.524573e+00    5.090726e-01   6.780049e-03
  3.526783e+00    5.331585e-01   6.952217e-03
  3.528994e+00    5.246054e-01   6.908598e-03
  3.531204e+00    5.162596e-01   6.865775e-03
  3.533414e+00    5.337849e-01   6.993532e-03
  3.535625e+00    5.388840e-01   7.039340e-03
  3.537835e+00    5.510423e-01   7.130646e-03
  3.540046e+00    5.393134e-01   7.063325e-03
  3.542256e+00    5.448310e-01   7.106943e-03
  3.544467e+00    5.220956e-01   6.964619e-03
  3.546677e+00    5.321054e-01   7.038590e-03
  3.548888e+00    5.442898e-01   7.126292e-03
  3.551098e+00    5.472809e-01   7.153195e-03
  3.553309e+00    5.475260e-01   7.163080e-03
  3.555519e+00    5.197337e-01   6.990016e-03
  3.557729e+00    5.325742e-01   7.087524e-03
  3.559940e+00    5.486731e-01   7.205532e-03
  3.562150e+00    5.413916e-01   7.169323e-03
  3.564361e+00    5.358549e-01   7.145883e-03
  3.566571e+00    5.494926e-01   7.250264e-03
  3.568782e+00    5.648283e-01   7.365216e-03
  3.570992e+00    5.527016e-01   7.299718e-03
  3.573203e+00    5.219034e-01   7.107372e-03
  3.575413e+00    5.366809e-01   7.221059e-03
  3.577624e+00    5.543677e-01   7.353441e-03
  3.579834e+00    5.366998e-01   7.249231e-03
  3.582045e+00    5.576087e-01   7.403382e-03
  3.584255e+00    5.357147e-01   7.270649e-03
  3.586465e+00    5.410892e-01   7.321014e-03
  3.588676e+00    5.311568e-01   7.267644e-03
  3.590886e+00    5.482669e-01   7.397624e-03
  3.593097e+00    5.547730e-01   7.456156e-03
  3.595307e+00    5.340010e-01   7.329151e-03
  3.597518e+00    5.224639e-01   7.263568e-03
  3.599728e+00    5.265309e-01   7.305747e-03
  3.601939e+00    5.482679e-01   7.469299e-03
  3.604149e+00    5.297472e-01   7.356355e-03
  3.606360e+00    5.397342e-01   7.439586e-03
  3.608570e+00    5.374839e-01   7.438236e-03
  3.610780e+00    5.373949e-01   7.448729e-03
  3.612991e+00    5.403169e-01   7.479002e-03
  3.615201e+00    5.384700e-01   7.476027e-03
  3.617412e+00    5.288056e-01   7.415902e-03
  3.619622e+00    5.281568e-01   7.417239e-03
  3.621833e+00    5.389668e-01   7.499499e-03
  3.624043e+00    5.465630e-01   7.561784e-03
  3.626254e+00    5.238119e-01   7.412351e-03
  3.628464e+00    5.349829e-01   7.501937e-03
  3.630675e+00    5.467989e-01   7.598619e-03
  3.632885e+00    5.223837e-01   7.441375e-03
  3.635095e+00    5.187156e-01   7.429345e-03
  3.637306e+00    5.369617e-01   7.573311e-03
  3.639516e+00    5.374963e-01   7.591639e-03
  3.641727e+00    5.430421e-01   7.645433e-03
  3.643937e+00    5.300053e-01   7.567628e-03
  3.646148e+00    5.274101e-01   7.563590e-03
  3.648358e+00    5.391232e-01   7.662036e-03
  3.650569e+00    5.432751e-01   7.706398e-03
  3.652779e+00    5.243863e-01   7.585866e-03
  3.654990e+00    5.491717e-01   7.778213e-03
  3.657200e+00    5.397231e-01   7.726024e-03
  3.659410e+00    5.221828e-01   7.614255e-03
  3.661621e+00    5.413473e-01   7.767930e-03
  3.663831e+00    5.141920e-01   7.585503e-03
  3.666042e+00    5.379381e-01   7.773890e-03
  3.668252e+00    5.305319e-01   7.735454e-03
  3.670463e+00    5.284381e-01   7.735347e-03
  3.672673e+00    5.427434e-01   7.854962e-03
  3.674884e+00    5.333041e-01   7.801773e-03
  3.677094e+00    5.238650e-01   7.747885e-03
  3.679305e+00    5.265504e-01   7.783150e-03
  3.681515e+00    5.300860e-01   7.824903e-03
  3.683726e+00    5.455949e-01   7.954547e-03
  3.685936e+00    5.471302e-01   7.981726e-03
  3.688146e+00    5.226943e-01   7.817156e-03
  3.690357e+00    5.383488e-01   7.949451e-03
  3.692567e+00    5.238701e-01   7.857884e-03
  3.694778e+00    5.431455e-01   8.017446e-03
  3.696988e+00    5.423646e-01   8.027919e-03
  3.699199e+00    5.347198e-01   7.987512e-03
  3.701409e+00    5.392265e-01   8.037709e-03
  3.703620e+00    5.166203e-01   7.883573e-03
  3.705830e+00    5.259113e-01   7.970616e-03
  3.708041e+00    5.300487e-01   8.018568e-03
  3.710251e+00    5.226536e-01   7.979142e-03
  3.712461e+00    5.175235e-01   7.956527e-03
  3.714672e+00    5.074508e-01   7.895229e-03
  3.716882e+00    5.253268e-01   8.049881e-03
  3.719093e+00    5.175325e-01   8.007026e-03
  3.721303e+00    5.207984e-01   8.049211e-03
  3.723514e+00    4.991272e-01   7.896921e-03
  3.725724e+00    5.053316e-01   7.962759e-03
  3.727935e+00    5.314814e-01   8.183869e-03
  3.730145e+00    5.293114e-01   8.184706e-03
  3.732356e+00    5.289393e-01   8.199551e-03
  3.734566e+00    5.227408e-01   8.169053e-03
  3.736776e+00    5.038825e-01   8.037942e-03
  3.738987e+00    5.036663e-01   8.053702e-03
  3.741197e+00    5.256147e-01   8.245594e-03
  3.743408e+00    5.020183e-01   8.076240e-03
  3.745618e+00    5.053868e-01   8.121398e-03
  3.747829e+00    5.168959e-01   8.231597e-03
  3.750039e+00    5.202163e-01   8.276490e-03
  3.752250e+00    5.047454e-01   8.170888e-03
  3.754460e+00    5.126799e-01   8.253428e-03
  3.756671e+00    5.094191e-01   8.245958e-03
  3.758881e+00    5.134993e-01   8.297610e-03
  3.761091e+00    4.808831e-01   8.048409e-03
  3.763302e+00    4.829204e-01   8.084030e-03
  3.765512e+00    4.933350e-01   8.189708e-03
  3.767723e+00    5.188249e-01   8.418149e-03
  3.769933e+00    5.155205e-01   8.410859e-03
  3.772144e+00    5.097674e-01   8.383470e-03
  3.774354e+00    5.117357e-01   8.419529e-03
  3.776565e+00    5.227229e-01   8.529658e-03
  3.778775e+00    5.176522e-01   8.508444e-03
  3.780986e+00    4.923030e-01   8.317530e-03
  3.783196e+00    5.201225e-01   8.569850e-03
  3.785407e+00    5.182050e-01   8.574835e-03
  3.787617e+00    5.046754e-01   8.482949e-03
  3.789827e+00    4.954234e-01   8.425198e-03
  3.792038e+00    5.146600e-01   8.608297e-03
  3.794248e+00    5.051606e-01   8.549741e-03
  3.796459e+00    4.892795e-01   8.435350e-03
  3.798669e+00    5.106044e-01   8.638831e-03
  3.800880e+00    4.857635e-01   8.447200e-03
  3.803090e+00    4.949624e-01   8.548492e-03
  3.805301e+00    4.834758e-01   8.470437e-03
  3.807511e+00    5.071868e-01   8.697815e-03
  3.809722e+00    5.208423e-01   8.836810e-03
  3.811932e+00    5.224503e-01   8.873235e-03
  3.814142e+00    4.886630e-01   8.604075e-03
  3.816353e+00    5.232641e-01   8.926875e-03
  3.818563e+00    5.144562e-01   8.874976e-03
  3.820774e+00    5.177795e-01   8.927109e-03
  3.822984e+00    4.915981e-01   8.721791e-03
  3.825195e+00    5.207672e-01   9.000995e-03
  3.827405e+00    5.183975e-01   9.004910e-03
  3.829616e+00    5.056304e-01   8.917641e-03
  3.831826e+00    4.849048e-01   8.756769e-03
  3.834037e+00    4.962401e-01   8.883038e-03
  3.836247e+00    4.696908e-01   8.666169e-03
  3.838457e+00    4.837086e-01   8.819167e-03
  3.840668e+00    5.096157e-01   9.077840e-03
  3.842878e+00    5.181186e-01   9.179291e-03
  3.845089e+00    5.094684e-01   9.128325e-03
  3.847299e+00    4.827701e-01   8.911374e-03
  3.849510e+00    4.902188e-01   9.005552e-03
  3.851720e+00    4.802057e-01   8.934246e-03
  3.853931e+00    4.797435e-01   8.948619e-03
  3.856141e+00    4.951721e-01   9.110392e-03
  3.858352e+00    5.029347e-01   9.200957e-03
  3.860562e+00    4.886858e-01   9.088883e-03
  3.862772e+00    4.917376e-01   9.136737e-03
  3.864983e+00    4.727133e-01   8.977525e-03
  3.867193e+00    4.822236e-01   9.086912e-03
  3.869404e+00    5.128070e-01   9.390829e-03
  3.871614e+00    4.844346e-01   9.147173e-03
  3.873825e+00    4.905055e-01   9.224572e-03
  3.876035e+00    4.785706e-01   9.131840e-03
  3.878246e+00    5.253232e-01   9.594197e-03
  3.880456e+00    5.050198e-01   9.436314e-03
  3.882667e+00    5.112078e-01   9.523867e-03
  3.884877e+00    5.059231e-01   9.504693e-03
  3.887087e+00    4.835340e-01   9.321653e-03
  3.889298e+00    5.100160e-01   9.604464e-03
  3.891508e+00    4.941662e-01   9.484732e-03
  3.893719e+00    4.886560e-01   9.462563e-03
  3.895929e+00    4.996040e-01   9.599710e-03
  3.898140e+00    5.117503e-01   9.748055e-03
  3.900350e+00    5.173589e-01   9.834370e-03
  3.902561e+00    5.045654e-01   9.744840e-03
  3.904771e+00    5.315403e-01   1.003606e-02
  3.906982e+00    5.221779e-01   9.981628e-03
  3.909192e+00    4.918449e-01   9.720925e-03
  3.911403e+00    4.810515e-01   9.647418e-03
  3.913613e+00    4.928432e-01   9.799316e-03
  3.915823e+00    4.987472e-01   9.892984e-03
  3.918034e+00    4.858674e-01   9.799658e-03
  3.920244e+00    4.839430e-01   9.815692e-03
  3.922455e+00    5.037792e-01   1.005156e-02
  3.924665e+00    4.851666e-01   9.900479e-03
  3.926876e+00    4.472760e-01   9.541539e-03
  3.929086e+00    4.708048e-01   9.825910e-03
  3.931297e+00    5.143167e-01   1.030575e-02
  3.933507e+00    4.966919e-01   1.015682e-02
  3.935718e+00    4.980741e-01   1.020005e-02
  3.937928e+00    4.666575e-01   9.901892e-03
  3.940138e+00    5.062751e-01   1.034355e-02
  3.942349e+00    5.154510e-01   1.046757e-02
  3.944559e+00    5.052063e-01   1.039366e-02
  3.946770e+00    4.670472e-01   1.002293e-02
  3.948980e+00    4.933134e-01   1.033180e-02
  3.951191e+00    5.008688e-01   1.044194e-02
  3.953401e+00    4.902781e-01   1.036255e-02
  3.955612e+00    4.895786e-01   1.038675e-02
  3.957822e+00    4.849660e-01   1.036950e-02
  3.960033e+00    4.782900e-01   1.033013e-02
  3.962243e+00    5.019928e-01   1.061645e-02
  3.964453e+00    4.757589e-01   1.036807e-02
  3.966664e+00    4.948835e-01   1.060811e-02
  3.968874e+00    4.886191e-01   1.056927e-02
  3.971085e+00    4.943839e-01   1.065348e-02
  3.973295e+00    5.360745e-01   1.111621e-02
  3.975506e+00    5.363767e-01   1.114206e-02
  3.977716e+00    4.943523e-01   1.071890e-02
  3.979927e+00    4.816337e-01   1.060211e-02
  3.982137e+00    4.691792e-01   1.048613e-02
  3.984348e+00    4.583681e-01   1.038640e-02
  3.986558e+00    4.720749e-01   1.056262e-02
  3.988768e+00    4.863481e-01   1.074414e-02
  3.990979e+00    4.957699e-01   1.087076e-02
  3.993189e+00    4.835434e-01   1.075889e-02
  3.995400e+00    4.907411e-01   1.086234e-02
  3.997610e+00    4.820372e-01   1.079533e-02
  3.999821e+00    4.761641e-01   1.076658e-02
  4.002031e+00    4.675724e-01   1.070666e-02
  4.004242e+00    4.584210e-01   1.063881e-02
  4.006452e+00    4.815415e-01   1.094296e-02
  4.008663e+00    5.166765e-01   1.137654e-02
  4.010873e+00    4.966259e-01   1.119398e-02
  4.013084e+00    4.828450e-01   1.107860e-02
  4.015294e+00    4.617585e-01   1.087392e-02
  4.017504e+00    4.824902e-01   1.115714e-02
  4.019715e+00    4.857839e-01   1.123773e-02
  4.021925e+00    4.701054e-01   1.109722e-02
  4.024136e+00    4.612033e-01   1.103432e-02
  4.026346e+00    4.908368e-01   1.142766e-02
  4.028557e+00    4.614257e-01   1.112342e-02
  4.030767e+00    4.424782e-01   1.093624e-02
  4.032978e+00    4.641764e-01   1.124644e-02
  4.035188e+00    4.628007e-01   1.127501e-02
  4.037399e+00    4.704639e-01   1.141498e-02
  4.039609e+00    4.921107e-01   1.172264e-02
  4.041819e+00    4.940920e-01   1.179557e-02
  4.044030e+00    4.632249e-01   1.147011e-02
  4.046240e+00    5.015889e-01   1.198631e-02
  4.048451e+00    4.859284e-01   1.184893e-02
  4.050661e+00    4.388034e-01   1.130877e-02
  4.052872e+00    4.805474e-01   1.188699e-02
  4.055082e+00    4.943443e-01   1.211064e-02
  4.057293e+00    4.662544e-01   1.181432e-02
  4.059503e+00    4.965942e-01   1.224802e-02
  4.061714e+00    5.174682e-01   1.256145e-02
  4.063924e+00    4.980724e-01   1.238144e-02
  4.066134e+00    4.752324e-01   1.215122e-02
  4.068345e+00    4.660024e-01   1.209051e-02
  4.070555e+00    4.893146e-01   1.244904e-02
  4.072766e+00    5.162085e-01   1.284955e-02
  4.074976e+00    4.858782e-01   1.252856e-02
  4.077187e+00    4.490445e-01   1.210423e-02
  4.079397e+00    4.525457e-01   1.221321e-02
  4.081608e+00    5.086999e-01   1.301623e-02
  4.083818e+00    4.628463e-01   1.248037e-02
  4.086029e+00    4.808350e-01   1.278746e-02
  4.088239e+00    5.235509e-01   1.341550e-02
  4.090449e+00    5.184747e-01   1.342249e-02
  4.092660e+00    4.852553e-01   1.305697e-02
  4.094870e+00    4.479039e-01   1.261415e-02
  4.097081e+00    4.898301e-01   1.326344e-02
  4.099291e+00    4.643744e-01   1.296770e-02
  4.101502e+00    4.687910e-01   1.307791e-02
  4.103712e+00    4.877637e-01   1.338956e-02
  4.105923e+00    4.374263e-01   1.272904e-02
  4.108133e+00    4.918833e-01   1.354996e-02
  4.110344e+00    5.307049e-01   1.412845e-02
  4.112554e+00    5.553899e-01   1.451043e-02
  4.114764e+00    5.386597e-01   1.434759e-02
  4.116975e+00    5.248134e-01   1.421803e-02
  4.119185e+00    4.724417e-01   1.354451e-02
  4.121396e+00    4.983508e-01   1.396859e-02
  4.123606e+00    5.179247e-01   1.429849e-02
  4.125817e+00    4.511386e-01   1.340088e-02
  4.128027e+00    5.102556e-01   1.431162e-02
  4.130238e+00    5.198344e-01   1.450758e-02
  4.132448e+00    4.962884e-01   1.423671e-02
  4.134659e+00    4.775567e-01   1.402542e-02
  4.136869e+00    5.059906e-01   1.450132e-02
  4.139080e+00    5.181184e-01   1.474020e-02
  4.141290e+00    5.545184e-01   1.531677e-02
  4.143500e+00    5.127271e-01   1.479636e-02
  4.145711e+00    4.697641e-01   1.422896e-02
  4.147921e+00    5.074282e-01   1.485613e-02
  4.150132e+00    4.768142e-01   1.446982e-02
  4.152342e+00    5.040209e-01   1.494908e-02
  4.154553e+00    4.181360e-01   1.368054e-02
  4.156763e+00    5.134617e-01   1.523494e-02
  4.158974e+00    4.753544e-01   1.473261e-02
  4.161184e+00    5.093180e-01   1.532533e-02
  4.163395e+00    4.466673e-01   1.442535e-02
  4.165605e+00    4.637289e-01   1.477439e-02
  4.167815e+00    4.792566e-01   1.509817e-02
  4.170026e+00    4.636435e-01   1.492861e-02
  4.172236e+00    4.791231e-01   1.525773e-02
  4.174447e+00    5.058905e-01   1.576323e-02
  4.176657e+00    5.144071e-01   1.598245e-02
  4.178868e+00    4.868542e-01   1.563655e-02
  4.181078e+00    4.801984e-01   1.561681e-02
  4.183289e+00    4.959328e-01   1.596145e-02
  4.185499e+00    4.643961e-01   1.553660e-02
  4.187710e+00    4.894594e-01   1.604383e-02
  4.189920e+00    4.891559e-01   1.613537e-02
  4.192130e+00    4.939131e-01   1.631301e-02
  4.194341e+00    4.866882e-01   1.629203e-02
  4.196551e+00    5.309107e-01   1.712445e-02
  4.198762e+00    4.673638e-01   1.616877e-02
  4.200972e+00    4.554200e-01   1.606428e-02
  4.203183e+00    3.887994e-01   1.494058e-02
  4.205393e+00    4.768270e-01   1.665573e-02
  4.207604e+00    4.781491e-01   1.679265e-02
  4.209814e+00    4.588762e-01   1.656364e-02
  4.212025e+00    4.675413e-01   1.683758e-02
  4.214235e+00    4.976576e-01   1.749484e-02
  4.216445e+00    4.479724e-01   1.671827e-02
  4.218656e+00    4.700776e-01   1.725430e-02
  4.220866e+00    5.073705e-01   1.805851e-02
  4.223077e+00    5.127689e-01   1.829397e-02
  4.225287e+00    4.759922e-01   1.776430e-02
  4.227498e+00    4.354902e-01   1.712490e-02
  4.229708e+00    4.660606e-01   1.785974e-02
  4.231919e+00    4.709035e-01   1.810104e-02
  4.234129e+00    4.690937e-01   1.821773e-02
  4.236340e+00    4.594423e-01   1.818325e-02
  4.238550e+00    4.540487e-01   1.823633e-02
  4.240761e+00    4.446066e-01   1.820504e-02
  4.242971e+00    4.313491e-01   1.809535e-02
  4.245181e+00    4.310290e-01   1.825879e-02
  4.247392e+00    5.069972e-01   1.998781e-02
  4.249602e+00    4.555583e-01   1.913491e-02
  4.251813e+00    4.182859e-01   1.851616e-02
  4.254023e+00    4.204840e-01   1.875180e-02
  4.256234e+00    4.495469e-01   1.959578e-02
  4.258444e+00    4.636422e-01   2.010925e-02
  4.260655e+00    5.056205e-01   2.123069e-02
  4.262865e+00    4.645815e-01   2.058186e-02
  4.265076e+00    3.964736e-01   1.922973e-02
  4.267286e+00    5.416098e-01   2.274144e-02
  4.269496e+00    5.187746e-01   2.252904e-02
  4.271707e+00    5.158721e-01   2.274326e-02
  4.273917e+00    5.098245e-01   2.290175e-02
  4.276128e+00    4.979645e-01   2.293462e-02
  4.278338e+00    4.576553e-01   2.228055e-02
  4.280549e+00    4.136676e-01   2.148657e-02
  4.282759e+00    4.583216e-01   2.294115e-02
  4.284970e+00    4.036469e-01   2.184823e-02
  4.287180e+00    4.830637e-01   2.418765e-02
  4.289391e+00    4.126249e-01   2.252193e-02
  4.291601e+00    5.509458e-01   2.623291e-02
  4.293811e+00    3.879371e-01   2.218528e-02
  4.296022e+00    4.473357e-01   2.401367e-02
  4.298232e+00    4.904766e-01   2.535555e-02
  4.300443e+00    5.005283e-01   2.582640e-02
  4.302653e+00    4.679908e-01   2.518851e-02
  4.304864e+00    4.052431e-01   2.364284e-02
  4.307074e+00    3.711722e-01   2.282934e-02
  4.309285e+00    3.536908e-01   2.248861e-02
  4.311495e+00    4.548815e-01   2.574042e-02
  4.313706e+00    5.397210e-01   2.830329e-02
  4.315916e+00    5.529926e-01   2.893120e-02
  4.318126e+00    4.298552e-01   2.575923e-02
  4.320337e+00    4.420381e-01   2.638644e-02
  4.322547e+00    5.283214e-01   2.915262e-02
  4.324758e+00    4.034615e-01   2.574116e-02
  4.326968e+00    4.546902e-01   2.763325e-02
  4.329179e+00    5.150648e-01   2.973596e-02
  4.331389e+00    3.592181e-01   2.511881e-02
  4.333600e+00    4.407444e-01   2.815574e-02
  4.335810e+00    4.195870e-01   2.779840e-02
  4.338021e+00    5.041758e-01   3.086280e-02
  4.340231e+00    5.059312e-01   3.130341e-02
  4.342442e+00    4.794304e-01   3.088239e-02
  4.344652e+00    3.203856e-01   2.558757e-02
  4.346862e+00    3.944173e-01   2.878805e-02
  4.349073e+00    4.218252e-01   3.020531e-02
  4.351283e+00    4.218130e-01   3.065596e-02
  4.353494e+00    4.224496e-01   3.115259e-02
  4.355704e+00    4.665282e-01   3.326586e-02
  4.357915e+00    3.805340e-01   3.054347e-02
  4.360125e+00    3.504356e-01   2.980921e-02
  4.362336e+00    4.435548e-01   3.414923e-02
  4.364546e+00    3.956783e-01   3.284138e-02
  4.366757e+00    4.344842e-01   3.509864e-02
  4.368967e+00    5.063885e-01   3.864672e-02
  4.371177e+00    3.502057e-01   3.282357e-02
  4.373388e+00    3.820917e-01   3.505219e-02
  4.375598e+00    3.394914e-01   3.379146e-02
  4.377809e+00    4.775291e-01   4.109322e-02
  4.380019e+00    5.241192e-01   4.413383e-02
  4.382230e+00    4.235618e-01   4.078138e-02
  4.384440e+00    2.372254e-01   3.139838e-02
  4.386651e+00    3.638074e-01   4.008289e-02
  4.388861e+00    4.423617e-01   4.567960e-02
  4.391072e+00    5.261146e-01   5.157023e-02
  4.393282e+00    2.928273e-01   3.996138e-02
  4.395492e+00    3.328896e-01   4.437655e-02
  4.397703e+00    3.586130e-01   4.816466e-02
  4.399913e+00    2.890115e-01   4.542862e-02
  4.402124e+00    3.299284e-01   5.128969e-02
  4.404334e+00    2.497843e-01   4.743600e-02
  4.406545e+00    3.034754e-01   5.617985e-02
  4.408755e+00    3.422192e-01   6.469867e-02
  4.410966e+00    2.702873e-01   6.364061e-02
  4.413176e+00    5.220933e-01   1.001139e-01
  4.415387e+00   -8.425335e-01            nan
  4.417597e+00   -2.044852e+00            nan
  4.419807e+00   -3.766224e-01            nan
