# == pyFAI calibration ==
# Distance Sample to Detector: 0.216 m
# PONI: 1.166e-01, 1.308e-01 m
# Rotations: 0.000000 0.000000 0.000000 rad
# 
# == Fit2d calibration ==
# Distance Sample-beamCenter: 216.000 mm
# Center: x=1744.293, y=1555.000 pix
# Tilt: 0.000 deg  TiltPlanRot: 0.000 deg
# 
# Detector Eiger 9M	 PixelSize= 7.500e-05, 7.500e-05 m
#    Detector has a mask: True 
#    Detector has a dark current: False 
#    detector has a flat field: False 
# 
# Wavelength: 9.8e-11 m
# Mask applied: from detector
# Dark current applied: False
# Flat field applied: False
# Polarization factor: None
# Normalization factor: 1.0
# 
# Headers of the input frame:
# {
# "_array_data.header_convention": "SLS_1.0",
# "_array_data.header_contents": "# Detector: Dectris Eiger 9M, S/N E-18-0102\r\n# Pixel_size 75e-6 m x 75e-6 m\r\n# Silicon sensor, thickness 0.000450 m\r\n# Exposure_time 0.024997 s\r\n# Exposure_period 0.025000 s\r\n# Count_cutoff 62318 counts\r\n# Wavelength 0.980106 A\r\n# Detector_distance 0.215992 m\r\n# Beam_xy (1555, 1744) pixels\r\n# Start_angle 0.000000 deg.\r\n# Angle_increment 0.000000 deg.",
# "Content-Type": "application/octet-stream;",
# "conversions": "x-CBF_BYTE_OFFSET",
# "Content-Transfer-Encoding": "BINARY",
# "X-Binary-Size": "10166606",
# "X-Binary-ID": "1",
# "X-Binary-Element-Type": "signed 32-bit integer",
# "X-Binary-Element-Byte-Order": "LITTLE_ENDIAN",
# "Content-MD5": "mQg+z+pWQVrLFg0WBOVFVg==",
# "X-Binary-Number-of-Elements": "10166590",
# "X-Binary-Size-Fastest-Dimension": "3110",
# "X-Binary-Size-Second-Dimension": "3269",
# "X-Binary-Size-Padding": "4095"
# }
# --> H:/Proxima2a_2019-04-05/RAW_DATA/C5_gel17_position5/C5_mesh_1_data.cbf/C5_mesh_1_data.cbf000109.dat
#        q_A^-1              I           sigma 
  1.105228e-03    1.408291e+00   6.421450e-01
  3.315685e-03    8.453589e-01   3.024586e-01
  5.526141e-03    1.693738e+00   3.310512e-01
  7.736597e-03    1.765636e+00   2.855425e-01
  9.947054e-03    1.621451e+00   2.412284e-01
  1.215751e-02    1.509714e+00   2.104825e-01
  1.436797e-02    1.468702e+00   1.909601e-01
  1.657842e-02    1.315763e+00   1.682416e-01
  1.878888e-02    1.389863e+00   1.624238e-01
  2.099934e-02    1.435680e+00   1.561820e-01
  2.320979e-02    1.493934e+00   1.515300e-01
  2.542025e-02    1.466348e+00   1.434591e-01
  2.763070e-02    1.307339e+00   1.299225e-01
  2.984116e-02    1.383167e+00   1.285920e-01
  3.205162e-02    1.368586e+00   1.234304e-01
  3.426207e-02    1.514416e+00   1.255734e-01
  3.647253e-02    1.386259e+00   1.164426e-01
  3.868299e-02    1.520879e+00   1.184385e-01
  4.089344e-02    1.394560e+00   1.103060e-01
  4.310390e-02    1.436514e+00   1.090382e-01
  4.531436e-02    1.440066e+00   1.064773e-01
  4.752481e-02    1.315039e+00   9.935468e-02
  4.973527e-02    1.327980e+00   9.759949e-02
  5.194572e-02    1.502746e+00   1.015888e-01
  5.415618e-02    1.486135e+00   9.893910e-02
  5.636664e-02    1.417030e+00   9.470104e-02
  5.857709e-02    1.300324e+00   8.898982e-02
  6.078755e-02    1.374404e+00   8.980790e-02
  6.299801e-02    1.405261e+00   8.920209e-02
  6.520846e-02    1.348426e+00   8.588636e-02
  6.741892e-02    1.389702e+00   8.574537e-02
  6.962938e-02    1.366115e+00   8.365849e-02
  7.183983e-02    1.394261e+00   8.320399e-02
  7.405029e-02    1.448991e+00   8.354378e-02
  7.626074e-02    1.494282e+00   8.360008e-02
  7.847120e-02    1.451926e+00   8.123557e-02
  8.068166e-02    1.415507e+00   7.910325e-02
  8.289211e-02    1.403079e+00   7.769763e-02
  8.510257e-02    1.497153e+00   7.921045e-02
  8.731303e-02    1.437134e+00   7.661493e-02
  8.952348e-02    1.518922e+00   7.778849e-02
  9.173394e-02    1.515935e+00   7.676694e-02
  9.394439e-02    1.515162e+00   7.583660e-02
  9.615485e-02    1.453614e+00   7.341999e-02
  9.836531e-02    1.456349e+00   7.265661e-02
  1.005758e-01    1.540568e+00   7.390261e-02
  1.027862e-01    1.547650e+00   7.326966e-02
  1.049967e-01    1.585481e+00   7.337372e-02
  1.072071e-01    1.481427e+00   7.018931e-02
  1.094176e-01    1.486303e+00   6.958987e-02
  1.116280e-01    1.492777e+00   6.904579e-02
  1.138385e-01    1.550606e+00   6.968253e-02
  1.160490e-01    1.519135e+00   6.831092e-02
  1.182594e-01    1.553888e+00   6.843767e-02
  1.204699e-01    1.605905e+00   6.893194e-02
  1.226803e-01    1.581137e+00   6.777650e-02
  1.248908e-01    1.529403e+00   6.606516e-02
  1.271012e-01    1.446955e+00   6.369726e-02
  1.293117e-01    1.521300e+00   6.475170e-02
  1.315222e-01    1.612128e+00   6.609261e-02
  1.337326e-01    1.649342e+00   6.629503e-02
  1.359431e-01    1.622685e+00   6.579564e-02
  1.381535e-01    1.504354e+00   6.420155e-02
  1.403640e-01    1.520319e+00   6.482001e-02
  1.425744e-01    1.605082e+00   6.670885e-02
  1.447849e-01    1.620409e+00   6.704206e-02
  1.469953e-01    1.543878e+00   6.539873e-02
  1.492058e-01    1.589700e+00   6.628503e-02
  1.514163e-01    1.579732e+00   6.596716e-02
  1.536267e-01    1.588404e+00   6.601884e-02
  1.558372e-01    1.576277e+00   6.562113e-02
  1.580476e-01    1.610469e+00   6.616811e-02
  1.602581e-01    1.656914e+00   6.694496e-02
  1.624685e-01    1.667992e+00   6.698448e-02
  1.646790e-01    1.714439e+00   6.771570e-02
  1.668895e-01    1.702472e+00   6.728411e-02
  1.690999e-01    1.637103e+00   6.578159e-02
  1.713104e-01    1.702249e+00   6.686946e-02
  1.735208e-01    1.805587e+00   6.865513e-02
  1.757313e-01    1.864447e+00   6.954654e-02
  1.779417e-01    1.870238e+00   6.942731e-02
  1.801522e-01    1.906522e+00   6.987429e-02
  1.823626e-01    1.889298e+00   6.932637e-02
  1.845731e-01    1.823694e+00   6.789147e-02
  1.867836e-01    2.000135e+00   7.085989e-02
  1.889940e-01    2.096016e+00   7.230144e-02
  1.912045e-01    1.998127e+00   7.035718e-02
  1.934149e-01    1.985869e+00   6.990629e-02
  1.956254e-01    1.963526e+00   6.928266e-02
  1.978358e-01    1.871275e+00   6.740379e-02
  2.000463e-01    1.856723e+00   6.691866e-02
  2.022568e-01    1.936630e+00   6.811915e-02
  2.044672e-01    1.990820e+00   6.882902e-02
  2.066777e-01    1.935110e+00   6.763393e-02
  2.088881e-01    1.891719e+00   6.665256e-02
  2.110986e-01    2.019493e+00   6.863060e-02
  2.133090e-01    1.993273e+00   6.796198e-02
  2.155195e-01    1.975455e+00   6.743310e-02
  2.177300e-01    2.011433e+00   6.750982e-02
  2.199404e-01    2.014692e+00   6.578421e-02
  2.221509e-01    1.933360e+00   6.338452e-02
  2.243613e-01    1.856893e+00   6.133088e-02
  2.265718e-01    1.991585e+00   6.281620e-02
  2.287822e-01    2.118369e+00   6.414357e-02
  2.309927e-01    2.030810e+00   6.223185e-02
  2.332031e-01    2.071740e+00   6.231785e-02
  2.354136e-01    2.116101e+00   6.247105e-02
  2.376241e-01    2.099709e+00   6.174561e-02
  2.398345e-01    2.106116e+00   6.138210e-02
  2.420450e-01    2.043566e+00   6.003159e-02
  2.442554e-01    2.119363e+00   6.071358e-02
  2.464659e-01    2.180393e+00   6.116810e-02
  2.486763e-01    2.242288e+00   6.162247e-02
  2.508868e-01    2.182654e+00   6.041402e-02
  2.530973e-01    2.099684e+00   5.888723e-02
  2.553077e-01    2.064377e+00   5.803584e-02
  2.575182e-01    2.110109e+00   5.832802e-02
  2.597286e-01    2.076596e+00   5.752661e-02
  2.619391e-01    2.125846e+00   5.786968e-02
  2.641495e-01    2.009976e+00   5.595907e-02
  2.663600e-01    2.008418e+00   5.562974e-02
  2.685704e-01    2.027695e+00   5.559308e-02
  2.707809e-01    2.031687e+00   5.535239e-02
  2.729914e-01    2.062272e+00   5.547686e-02
  2.752018e-01    2.091967e+00   5.558404e-02
  2.774123e-01    1.980682e+00   5.380910e-02
  2.796227e-01    2.033231e+00   5.424856e-02
  2.818332e-01    1.999362e+00   5.352649e-02
  2.840436e-01    1.932478e+00   5.236848e-02
  2.862541e-01    1.974600e+00   5.268166e-02
  2.884646e-01    1.987460e+00   5.260211e-02
  2.906750e-01    2.004313e+00   5.257418e-02
  2.928855e-01    1.999064e+00   5.226203e-02
  2.950959e-01    1.925694e+00   5.105836e-02
  2.973064e-01    1.918645e+00   5.073578e-02
  2.995168e-01    1.852063e+00   4.962191e-02
  3.017273e-01    1.884953e+00   4.983986e-02
  3.039377e-01    1.886595e+00   4.964324e-02
  3.061482e-01    1.931162e+00   5.000890e-02
  3.083587e-01    1.910449e+00   4.952470e-02
  3.105691e-01    1.881923e+00   4.894361e-02
  3.127796e-01    1.931957e+00   4.938148e-02
  3.149900e-01    1.958244e+00   4.950916e-02
  3.172005e-01    1.943751e+00   4.912390e-02
  3.194109e-01    1.908684e+00   4.847784e-02
  3.216214e-01    1.848471e+00   4.751237e-02
  3.238319e-01    1.870517e+00   4.760549e-02
  3.260423e-01    1.844305e+00   4.708249e-02
  3.282528e-01    1.871174e+00   4.723539e-02
  3.304632e-01    1.884968e+00   4.722554e-02
  3.326737e-01    1.869256e+00   4.684479e-02
  3.348841e-01    1.869296e+00   4.666366e-02
  3.370946e-01    1.820859e+00   4.588184e-02
  3.393050e-01    1.752746e+00   4.484500e-02
  3.415155e-01    1.746746e+00   4.459983e-02
  3.437260e-01    1.812532e+00   4.526354e-02
  3.459364e-01    1.814153e+00   4.511626e-02
  3.481469e-01    1.829472e+00   4.514097e-02
  3.503573e-01    1.828872e+00   4.496916e-02
  3.525678e-01    1.831976e+00   4.484690e-02
  3.547782e-01    1.864259e+00   4.507682e-02
  3.569887e-01    1.835528e+00   4.456964e-02
  3.591992e-01    1.836321e+00   4.442153e-02
  3.614096e-01    1.798055e+00   4.380384e-02
  3.636201e-01    1.858304e+00   4.437517e-02
  3.658305e-01    1.810249e+00   4.364830e-02
  3.680410e-01    1.759048e+00   4.287858e-02
  3.702514e-01    1.794910e+00   4.316780e-02
  3.724619e-01    1.823534e+00   4.336249e-02
  3.746724e-01    1.750572e+00   4.234438e-02
  3.768828e-01    1.802727e+00   4.282593e-02
  3.790933e-01    1.843729e+00   4.316910e-02
  3.813037e-01    1.828376e+00   4.284833e-02
  3.835142e-01    1.787354e+00   4.222581e-02
  3.857246e-01    1.742195e+00   4.155402e-02
  3.879351e-01    1.761502e+00   4.164838e-02
  3.901455e-01    1.828033e+00   4.229254e-02
  3.923560e-01    1.787448e+00   4.168753e-02
  3.945665e-01    1.813817e+00   4.186070e-02
  3.967769e-01    1.804524e+00   4.162260e-02
  3.989874e-01    1.779152e+00   4.119989e-02
  4.011978e-01    1.776483e+00   4.104237e-02
  4.034083e-01    1.787132e+00   4.103883e-02
  4.056187e-01    1.771774e+00   4.073624e-02
  4.078292e-01    1.778201e+00   4.068655e-02
  4.100397e-01    1.760497e+00   4.035989e-02
  4.122501e-01    1.837307e+00   4.110757e-02
  4.144606e-01    1.844765e+00   4.106880e-02
  4.166710e-01    1.825750e+00   4.073509e-02
  4.188815e-01    1.781747e+00   4.012236e-02
  4.210919e-01    1.795851e+00   4.016278e-02
  4.233024e-01    1.754952e+00   3.958604e-02
  4.255128e-01    1.736694e+00   3.926574e-02
  4.277233e-01    1.769868e+00   3.952510e-02
  4.299338e-01    1.780219e+00   3.952646e-02
  4.321442e-01    1.757173e+00   3.915741e-02
  4.343547e-01    1.763858e+00   3.912088e-02
  4.365651e-01    1.793950e+00   3.934109e-02
  4.387756e-01    1.757346e+00   3.882864e-02
  4.409860e-01    1.763736e+00   3.879137e-02
  4.431965e-01    1.794040e+00   3.901505e-02
  4.454070e-01    1.752447e+00   3.845285e-02
  4.476174e-01    1.734541e+00   3.815086e-02
  4.498279e-01    1.740346e+00   3.811067e-02
  4.520383e-01    1.678895e+00   3.732906e-02
  4.542488e-01    1.717370e+00   3.765256e-02
  4.564592e-01    1.712995e+00   3.750369e-02
  4.586697e-01    1.712740e+00   3.740135e-02
  4.608801e-01    1.726492e+00   3.745064e-02
  4.630906e-01    1.675890e+00   3.680002e-02
  4.653011e-01    1.705266e+00   3.702354e-02
  4.675115e-01    1.720085e+00   3.708612e-02
  4.697220e-01    1.696967e+00   3.673963e-02
  4.719324e-01    1.742729e+00   3.713538e-02
  4.741429e-01    1.744558e+00   3.705915e-02
  4.763533e-01    1.676607e+00   3.623711e-02
  4.785638e-01    1.655714e+00   3.591759e-02
  4.807743e-01    1.674033e+00   3.602389e-02
  4.829847e-01    1.743499e+00   3.667084e-02
  4.851952e-01    1.708907e+00   3.621339e-02
  4.874056e-01    1.670819e+00   3.571726e-02
  4.896161e-01    1.673027e+00   3.565221e-02
  4.918265e-01    1.676402e+00   3.559953e-02
  4.940370e-01    1.685123e+00   3.560388e-02
  4.962475e-01    1.706535e+00   3.574089e-02
  4.984579e-01    1.654508e+00   3.510514e-02
  5.006684e-01    1.616443e+00   3.461435e-02
  5.028788e-01    1.632029e+00   3.469655e-02
  5.050893e-01    1.668429e+00   3.499600e-02
  5.072997e-01    1.727952e+00   3.552879e-02
  5.095102e-01    1.668181e+00   3.482530e-02
  5.117206e-01    1.644176e+00   3.449161e-02
  5.139311e-01    1.628527e+00   3.424584e-02
  5.161416e-01    1.629178e+00   3.417173e-02
  5.183520e-01    1.645164e+00   3.425737e-02
  5.205625e-01    1.630811e+00   3.402771e-02
  5.227729e-01    1.671766e+00   3.437196e-02
  5.249834e-01    1.694599e+00   3.452558e-02
  5.271938e-01    1.697381e+00   3.447327e-02
  5.294043e-01    1.705810e+00   3.447900e-02
  5.316148e-01    1.701110e+00   3.435262e-02
  5.338252e-01    1.755028e+00   3.481304e-02
  5.360357e-01    1.749139e+00   3.467546e-02
  5.382461e-01    1.788979e+00   3.498887e-02
  5.404566e-01    1.778727e+00   3.480908e-02
  5.426670e-01    1.726638e+00   3.421833e-02
  5.448775e-01    1.731549e+00   3.419041e-02
  5.470879e-01    1.724820e+00   3.404780e-02
  5.492984e-01    1.729900e+00   3.402209e-02
  5.515089e-01    1.747795e+00   3.412176e-02
  5.537193e-01    1.760226e+00   3.416743e-02
  5.559298e-01    1.765356e+00   3.414216e-02
  5.581402e-01    1.775055e+00   3.416099e-02
  5.603507e-01    1.738750e+00   3.373628e-02
  5.625611e-01    1.739924e+00   3.367440e-02
  5.647716e-01    1.752027e+00   3.371798e-02
  5.669821e-01    1.764411e+00   3.376397e-02
  5.691925e-01    1.726642e+00   3.332897e-02
  5.714030e-01    1.717730e+00   3.317195e-02
  5.736134e-01    1.760885e+00   3.351463e-02
  5.758239e-01    1.737861e+00   3.322375e-02
  5.780343e-01    1.696865e+00   3.276007e-02
  5.802448e-01    1.691713e+00   3.264185e-02
  5.824552e-01    1.627302e+00   3.194723e-02
  5.846657e-01    1.604480e+00   3.165629e-02
  5.868762e-01    1.572875e+00   3.127770e-02
  5.890866e-01    1.622051e+00   3.169698e-02
  5.912971e-01    1.646044e+00   3.186443e-02
  5.935075e-01    1.665293e+00   3.198398e-02
  5.957180e-01    1.632816e+00   3.160558e-02
  5.979284e-01    1.606261e+00   3.128354e-02
  6.001389e-01    1.609493e+00   3.125120e-02
  6.023494e-01    1.629638e+00   3.138234e-02
  6.045598e-01    1.630926e+00   3.133080e-02
  6.067703e-01    1.654313e+00   3.149121e-02
  6.089807e-01    1.644328e+00   3.133289e-02
  6.111912e-01    1.680351e+00   3.161100e-02
  6.134016e-01    1.684250e+00   3.158455e-02
  6.156121e-01    1.687030e+00   3.154775e-02
  6.178226e-01    1.684167e+00   3.145858e-02
  6.200330e-01    1.646938e+00   3.104756e-02
  6.222435e-01    1.671584e+00   3.121703e-02
  6.244539e-01    1.717708e+00   3.158285e-02
  6.266644e-01    1.677123e+00   3.114662e-02
  6.288748e-01    1.713032e+00   3.141702e-02
  6.310853e-01    1.735912e+00   3.156474e-02
  6.332957e-01    1.713370e+00   3.129859e-02
  6.355062e-01    1.733780e+00   3.142328e-02
  6.377167e-01    1.731161e+00   3.133930e-02
  6.399271e-01    1.723491e+00   3.120986e-02
  6.421376e-01    1.735584e+00   3.125940e-02
  6.443480e-01    1.697153e+00   3.085258e-02
  6.465585e-01    1.675729e+00   3.059913e-02
  6.487689e-01    1.698334e+00   3.074666e-02
  6.509794e-01    1.712321e+00   3.081478e-02
  6.531899e-01    1.681753e+00   3.048109e-02
  6.554003e-01    1.601318e+00   2.968730e-02
  6.576108e-01    1.618430e+00   2.978992e-02
  6.598212e-01    1.602364e+00   2.958662e-02
  6.620317e-01    1.608901e+00   2.959195e-02
  6.642421e-01    1.584141e+00   2.930905e-02
  6.664526e-01    1.616329e+00   2.955076e-02
  6.686630e-01    1.576560e+00   2.913101e-02
  6.708735e-01    1.588287e+00   2.918549e-02
  6.730840e-01    1.639360e+00   2.959701e-02
  6.752944e-01    1.584359e+00   2.904333e-02
  6.775049e-01    1.610650e+00   2.923016e-02
  6.797153e-01    1.600427e+00   2.908449e-02
  6.819258e-01    1.573553e+00   2.878726e-02
  6.841362e-01    1.559942e+00   2.861092e-02
  6.863467e-01    1.560926e+00   2.856869e-02
  6.885572e-01    1.567559e+00   2.857803e-02
  6.907676e-01    1.582571e+00   2.866308e-02
  6.929781e-01    1.593425e+00   2.871008e-02
  6.951885e-01    1.620957e+00   2.890578e-02
  6.973990e-01    1.591692e+00   2.859301e-02
  6.996094e-01    1.579227e+00   2.843073e-02
  7.018199e-01    1.600667e+00   2.857283e-02
  7.040303e-01    1.593652e+00   2.846008e-02
  7.062408e-01    1.570321e+00   2.820149e-02
  7.084513e-01    1.601592e+00   2.843136e-02
  7.106617e-01    1.548056e+00   2.790358e-02
  7.128722e-01    1.561318e+00   2.797434e-02
  7.150826e-01    1.616289e+00   2.841349e-02
  7.172931e-01    1.583481e+00   2.807517e-02
  7.195035e-01    1.610587e+00   2.826576e-02
  7.217140e-01    1.605109e+00   2.826757e-02
  7.239245e-01    1.606597e+00   2.850971e-02
  7.261349e-01    1.566485e+00   2.825990e-02
  7.283454e-01    1.563808e+00   2.830788e-02
  7.305558e-01    1.531013e+00   2.806272e-02
  7.327663e-01    1.573134e+00   2.848859e-02
  7.349767e-01    1.595528e+00   2.870714e-02
  7.371872e-01    1.590458e+00   2.865027e-02
  7.393976e-01    1.530162e+00   2.808788e-02
  7.416081e-01    1.558561e+00   2.833124e-02
  7.438186e-01    1.538604e+00   2.800660e-02
  7.460290e-01    1.553725e+00   2.785160e-02
  7.482395e-01    1.543136e+00   2.758709e-02
  7.504499e-01    1.535657e+00   2.738558e-02
  7.526604e-01    1.573599e+00   2.760530e-02
  7.548708e-01    1.577627e+00   2.755113e-02
  7.570813e-01    1.585558e+00   2.756914e-02
  7.592918e-01    1.535121e+00   2.709239e-02
  7.615022e-01    1.557338e+00   2.725408e-02
  7.637127e-01    1.611038e+00   2.768685e-02
  7.659231e-01    1.599553e+00   2.755574e-02
  7.681336e-01    1.552348e+00   2.711471e-02
  7.703440e-01    1.574264e+00   2.727422e-02
  7.725545e-01    1.555070e+00   2.707674e-02
  7.747650e-01    1.626976e+00   2.765685e-02
  7.769754e-01    1.567194e+00   2.709146e-02
  7.791859e-01    1.516176e+00   2.659432e-02
  7.813963e-01    1.568728e+00   2.699888e-02
  7.836068e-01    1.582994e+00   2.706940e-02
  7.858172e-01    1.598431e+00   2.715021e-02
  7.880277e-01    1.608464e+00   2.718347e-02
  7.902381e-01    1.640047e+00   2.739918e-02
  7.924486e-01    1.616915e+00   2.715489e-02
  7.946591e-01    1.602230e+00   2.698297e-02
  7.968695e-01    1.628453e+00   2.715420e-02
  7.990800e-01    1.651324e+00   2.729536e-02
  8.012904e-01    1.671996e+00   2.741816e-02
  8.035009e-01    1.698204e+00   2.758305e-02
  8.057113e-01    1.668211e+00   2.729112e-02
  8.079218e-01    1.675525e+00   2.730365e-02
  8.101323e-01    1.689103e+00   2.736753e-02
  8.123427e-01    1.747199e+00   2.778672e-02
  8.145532e-01    1.764877e+00   2.787920e-02
  8.167636e-01    1.704159e+00   2.734936e-02
  8.189741e-01    1.643387e+00   2.681251e-02
  8.211845e-01    1.653428e+00   2.684919e-02
  8.233950e-01    1.631707e+00   2.662890e-02
  8.256054e-01    1.617919e+00   2.647220e-02
  8.278159e-01    1.662363e+00   2.678902e-02
  8.300264e-01    1.652420e+00   2.666554e-02
  8.322368e-01    1.626411e+00   2.641187e-02
  8.344473e-01    1.654448e+00   2.659496e-02
  8.366577e-01    1.654202e+00   2.655024e-02
  8.388682e-01    1.626508e+00   2.628495e-02
  8.410786e-01    1.651580e+00   2.644454e-02
  8.432891e-01    1.633904e+00   2.626087e-02
  8.454996e-01    1.656140e+00   2.639712e-02
  8.477100e-01    1.657737e+00   2.636793e-02
  8.499205e-01    1.623117e+00   2.605017e-02
  8.521309e-01    1.646028e+00   2.619248e-02
  8.543414e-01    1.619237e+00   2.593791e-02
  8.565518e-01    1.603456e+00   2.577103e-02
  8.587623e-01    1.627920e+00   2.592644e-02
  8.609727e-01    1.648776e+00   2.605153e-02
  8.631832e-01    1.667590e+00   2.615936e-02
  8.653937e-01    1.621786e+00   2.575795e-02
  8.676041e-01    1.627457e+00   2.576401e-02
  8.698146e-01    1.612230e+00   2.560400e-02
  8.720250e-01    1.624326e+00   2.566070e-02
  8.742355e-01    1.610689e+00   2.551387e-02
  8.764459e-01    1.592559e+00   2.533115e-02
  8.786564e-01    1.613386e+00   2.545825e-02
  8.808669e-01    1.666170e+00   2.583212e-02
  8.830773e-01    1.615440e+00   2.539754e-02
  8.852878e-01    1.644543e+00   2.558687e-02
  8.874982e-01    1.624508e+00   2.539363e-02
  8.897087e-01    1.587503e+00   2.506524e-02
  8.919191e-01    1.563286e+00   2.483598e-02
  8.941296e-01    1.569627e+00   2.484938e-02
  8.963401e-01    1.579377e+00   2.489025e-02
  8.985505e-01    1.577830e+00   2.484136e-02
  9.007610e-01    1.581109e+00   2.483063e-02
  9.029714e-01    1.600992e+00   2.495040e-02
  9.051819e-01    1.591722e+00   2.484097e-02
  9.073923e-01    1.524280e+00   2.427331e-02
  9.096028e-01    1.552689e+00   2.446404e-02
  9.118132e-01    1.579877e+00   2.464132e-02
  9.140237e-01    1.603124e+00   2.478529e-02
  9.162342e-01    1.618800e+00   2.487141e-02
  9.184446e-01    1.627748e+00   2.490400e-02
  9.206551e-01    1.620045e+00   2.480918e-02
  9.228655e-01    1.645347e+00   2.496643e-02
  9.250760e-01    1.651701e+00   2.497869e-02
  9.272864e-01    1.636858e+00   2.483159e-02
  9.294969e-01    1.610647e+00   2.459607e-02
  9.317074e-01    1.598946e+00   2.447193e-02
  9.339178e-01    1.582694e+00   2.431400e-02
  9.361283e-01    1.597990e+00   2.439516e-02
  9.383387e-01    1.644918e+00   2.471714e-02
  9.405492e-01    1.635514e+00   2.461195e-02
  9.427596e-01    1.672147e+00   2.485025e-02
  9.449701e-01    1.646278e+00   2.462377e-02
  9.471805e-01    1.675264e+00   2.480440e-02
  9.493910e-01    1.658827e+00   2.464858e-02
  9.516015e-01    1.647015e+00   2.452633e-02
  9.538119e-01    1.696071e+00   2.485482e-02
  9.560224e-01    1.701474e+00   2.485933e-02
  9.582328e-01    1.739661e+00   2.510302e-02
  9.604433e-01    1.745122e+00   2.510681e-02
  9.626537e-01    1.742167e+00   2.505179e-02
  9.648642e-01    1.757365e+00   2.512637e-02
  9.670747e-01    1.765827e+00   2.515206e-02
  9.692851e-01    1.801690e+00   2.537240e-02
  9.714956e-01    1.825274e+00   2.550195e-02
  9.737060e-01    1.779554e+00   2.514745e-02
  9.759165e-01    1.780717e+00   2.512018e-02
  9.781269e-01    1.763260e+00   2.496406e-02
  9.803374e-01    1.764498e+00   2.493827e-02
  9.825478e-01    1.778669e+00   2.500517e-02
  9.847583e-01    1.817876e+00   2.524495e-02
  9.869688e-01    1.782852e+00   2.496713e-02
  9.891792e-01    1.754972e+00   2.473821e-02
  9.913897e-01    1.732674e+00   2.454738e-02
  9.936001e-01    1.720840e+00   2.443138e-02
  9.958106e-01    1.743717e+00   2.455981e-02
  9.980210e-01    1.689595e+00   2.414431e-02
  1.000231e+00    1.641801e+00   2.393073e-02
  1.002442e+00    1.629070e+00   2.396443e-02
  1.004652e+00    1.588380e+00   2.372928e-02
  1.006863e+00    1.560755e+00   2.357081e-02
  1.009073e+00    1.546823e+00   2.350129e-02
  1.011284e+00    1.560531e+00   2.363675e-02
  1.013494e+00    1.596741e+00   2.393311e-02
  1.015705e+00    1.617625e+00   2.411189e-02
  1.017915e+00    1.568276e+00   2.375764e-02
  1.020126e+00    1.570402e+00   2.378976e-02
  1.022336e+00    1.567905e+00   2.378258e-02
  1.024547e+00    1.538036e+00   2.356613e-02
  1.026757e+00    1.501966e+00   2.329639e-02
  1.028967e+00    1.539392e+00   2.359251e-02
  1.031178e+00    1.526936e+00   2.350304e-02
  1.033388e+00    1.512159e+00   2.339405e-02
  1.035599e+00    1.528210e+00   2.352130e-02
  1.037809e+00    1.503559e+00   2.333407e-02
  1.040020e+00    1.512402e+00   2.340384e-02
  1.042230e+00    1.510461e+00   2.339076e-02
  1.044441e+00    1.519172e+00   2.345788e-02
  1.046651e+00    1.529820e+00   2.354013e-02
  1.048862e+00    1.503786e+00   2.333817e-02
  1.051072e+00    1.535001e+00   2.357677e-02
  1.053282e+00    1.544836e+00   2.365120e-02
  1.055493e+00    1.582468e+00   2.393312e-02
  1.057703e+00    1.618341e+00   2.420127e-02
  1.059914e+00    1.874060e+00   2.603839e-02
  1.062124e+00    1.977791e+00   2.674476e-02
  1.064335e+00    1.775096e+00   2.533354e-02
  1.066545e+00    1.519181e+00   2.343024e-02
  1.068756e+00    1.442024e+00   2.282377e-02
  1.070966e+00    1.426952e+00   2.269774e-02
  1.073177e+00    1.456482e+00   2.292538e-02
  1.075387e+00    1.451046e+00   2.287737e-02
  1.077597e+00    1.465657e+00   2.298498e-02
  1.079808e+00    1.527639e+00   2.333040e-02
  1.082018e+00    1.525974e+00   2.312458e-02
  1.084229e+00    1.494841e+00   2.277615e-02
  1.086439e+00    1.449954e+00   2.234429e-02
  1.088650e+00    1.480505e+00   2.250211e-02
  1.090860e+00    1.526281e+00   2.277805e-02
  1.093071e+00    1.493806e+00   2.247136e-02
  1.095281e+00    1.435883e+00   2.197431e-02
  1.097492e+00    1.441141e+00   2.195967e-02
  1.099702e+00    1.432536e+00   2.184276e-02
  1.101912e+00    1.424955e+00   2.173629e-02
  1.104123e+00    1.406221e+00   2.154522e-02
  1.106333e+00    1.414835e+00   2.156694e-02
  1.108544e+00    1.434635e+00   2.167302e-02
  1.110754e+00    1.388199e+00   2.127693e-02
  1.112965e+00    1.400166e+00   2.132823e-02
  1.115175e+00    1.407730e+00   2.134474e-02
  1.117386e+00    1.423870e+00   2.142739e-02
  1.119596e+00    1.394936e+00   2.117092e-02
  1.121807e+00    1.402854e+00   2.119220e-02
  1.124017e+00    1.358404e+00   2.081775e-02
  1.126228e+00    1.375066e+00   2.090964e-02
  1.128438e+00    1.392813e+00   2.100749e-02
  1.130648e+00    1.404004e+00   2.105733e-02
  1.132859e+00    1.416065e+00   2.111300e-02
  1.135069e+00    1.386933e+00   2.086005e-02
  1.137280e+00    1.399650e+00   2.092234e-02
  1.139490e+00    1.378509e+00   2.073079e-02
  1.141701e+00    1.326656e+00   2.030472e-02
  1.143911e+00    1.331345e+00   2.030931e-02
  1.146122e+00    1.354299e+00   2.045194e-02
  1.148332e+00    1.367192e+00   2.051732e-02
  1.150543e+00    1.358864e+00   2.042411e-02
  1.152753e+00    1.388713e+00   2.061622e-02
  1.154963e+00    1.374170e+00   2.047697e-02
  1.157174e+00    1.352458e+00   2.028461e-02
  1.159384e+00    1.358619e+00   2.030105e-02
  1.161595e+00    1.375534e+00   2.039713e-02
  1.163805e+00    1.376374e+00   2.037401e-02
  1.166016e+00    1.392250e+00   2.046150e-02
  1.168226e+00    1.418117e+00   2.062118e-02
  1.170437e+00    1.444883e+00   2.078545e-02
  1.172647e+00    1.477081e+00   2.098572e-02
  1.174858e+00    1.470563e+00   2.091020e-02
  1.177068e+00    1.506268e+00   2.113280e-02
  1.179278e+00    1.550649e+00   2.141140e-02
  1.181489e+00    1.498362e+00   2.101897e-02
  1.183699e+00    1.477021e+00   2.083999e-02
  1.185910e+00    1.416639e+00   2.038123e-02
  1.188120e+00    1.349422e+00   1.986519e-02
  1.190331e+00    1.387733e+00   2.011811e-02
  1.192541e+00    1.348806e+00   1.980665e-02
  1.194752e+00    1.348067e+00   1.977418e-02
  1.196962e+00    1.366459e+00   1.988277e-02
  1.199173e+00    1.332078e+00   1.960470e-02
  1.201383e+00    1.366532e+00   1.982929e-02
  1.203593e+00    1.341148e+00   1.961954e-02
  1.205804e+00    1.323681e+00   1.946568e-02
  1.208014e+00    1.359068e+00   1.969720e-02
  1.210225e+00    1.342336e+00   1.955035e-02
  1.212435e+00    1.347588e+00   1.956378e-02
  1.214646e+00    1.352508e+00   1.957332e-02
  1.216856e+00    1.356458e+00   1.957637e-02
  1.219067e+00    1.332590e+00   1.937905e-02
  1.221277e+00    1.328665e+00   1.932567e-02
  1.223488e+00    1.329990e+00   1.930974e-02
  1.225698e+00    1.343379e+00   1.937984e-02
  1.227909e+00    1.379537e+00   1.960844e-02
  1.230119e+00    1.350369e+00   1.936818e-02
  1.232329e+00    1.363212e+00   1.942919e-02
  1.234540e+00    1.388551e+00   1.957821e-02
  1.236750e+00    1.386645e+00   1.953412e-02
  1.238961e+00    1.412424e+00   1.968724e-02
  1.241171e+00    1.399319e+00   1.957113e-02
  1.243382e+00    1.354528e+00   1.923176e-02
  1.245592e+00    1.364448e+00   1.927784e-02
  1.247803e+00    1.387630e+00   1.941692e-02
  1.250013e+00    1.366122e+00   1.924219e-02
  1.252224e+00    1.342292e+00   1.905044e-02
  1.254434e+00    1.322944e+00   1.888913e-02
  1.256644e+00    1.356005e+00   1.910044e-02
  1.258855e+00    1.338877e+00   1.895627e-02
  1.261065e+00    1.339355e+00   1.893636e-02
  1.263276e+00    1.329482e+00   1.884368e-02
  1.265486e+00    1.350592e+00   1.896979e-02
  1.267697e+00    1.319670e+00   1.872865e-02
  1.269907e+00    1.324015e+00   1.873695e-02
  1.272118e+00    1.331190e+00   1.876524e-02
  1.274328e+00    1.313130e+00   1.861511e-02
  1.276539e+00    1.307447e+00   1.855234e-02
  1.278749e+00    1.339893e+00   1.875892e-02
  1.280959e+00    1.364251e+00   1.890601e-02
  1.283170e+00    1.400977e+00   1.913596e-02
  1.285380e+00    1.395047e+00   1.907258e-02
  1.287591e+00    1.401276e+00   1.909268e-02
  1.289801e+00    1.379973e+00   1.892555e-02
  1.292012e+00    1.352253e+00   1.871738e-02
  1.294222e+00    1.374457e+00   1.885403e-02
  1.296433e+00    1.389358e+00   1.894014e-02
  1.298643e+00    1.389404e+00   1.892375e-02
  1.300854e+00    1.361507e+00   1.871632e-02
  1.303064e+00    1.359391e+00   1.868248e-02
  1.305274e+00    1.362605e+00   1.868301e-02
  1.307485e+00    1.360147e+00   1.864453e-02
  1.309695e+00    1.375654e+00   1.872806e-02
  1.311906e+00    1.398082e+00   1.885803e-02
  1.314116e+00    1.393051e+00   1.880293e-02
  1.316327e+00    1.392485e+00   1.877709e-02
  1.318537e+00    1.397027e+00   1.878542e-02
  1.320748e+00    1.366445e+00   1.855700e-02
  1.322958e+00    1.348140e+00   1.841177e-02
  1.325169e+00    1.393399e+00   1.869689e-02
  1.327379e+00    1.408705e+00   1.877706e-02
  1.329589e+00    1.398342e+00   1.868641e-02
  1.331800e+00    1.405602e+00   1.871375e-02
  1.334010e+00    1.396574e+00   1.863253e-02
  1.336221e+00    1.397457e+00   1.861629e-02
  1.338431e+00    1.374836e+00   1.844396e-02
  1.340642e+00    1.372345e+00   1.849193e-02
  1.342852e+00    1.358572e+00   1.849989e-02
  1.345063e+00    1.356894e+00   1.853808e-02
  1.347273e+00    1.365670e+00   1.863336e-02
  1.349484e+00    1.381296e+00   1.876768e-02
  1.351694e+00    1.379861e+00   1.878086e-02
  1.353905e+00    1.365648e+00   1.870203e-02
  1.356115e+00    1.341186e+00   1.854874e-02
  1.358325e+00    1.344101e+00   1.858219e-02
  1.360536e+00    1.339603e+00   1.856262e-02
  1.362746e+00    1.360959e+00   1.871962e-02
  1.364957e+00    1.350759e+00   1.865701e-02
  1.367167e+00    1.340797e+00   1.859523e-02
  1.369378e+00    1.339073e+00   1.858925e-02
  1.371588e+00    1.333925e+00   1.855862e-02
  1.373799e+00    1.314486e+00   1.842653e-02
  1.376009e+00    1.315293e+00   1.843554e-02
  1.378220e+00    1.306115e+00   1.837361e-02
  1.380430e+00    1.312126e+00   1.841853e-02
  1.382640e+00    1.305054e+00   1.836972e-02
  1.384851e+00    1.301802e+00   1.834769e-02
  1.387061e+00    1.310655e+00   1.841028e-02
  1.389272e+00    1.278486e+00   1.818315e-02
  1.391482e+00    1.274202e+00   1.815198e-02
  1.393693e+00    1.282446e+00   1.820975e-02
  1.395903e+00    1.259193e+00   1.804242e-02
  1.398114e+00    1.232362e+00   1.784780e-02
  1.400324e+00    1.264128e+00   1.807425e-02
  1.402535e+00    1.276712e+00   1.816166e-02
  1.404745e+00    1.300170e+00   1.832537e-02
  1.406955e+00    1.298247e+00   1.830911e-02
  1.409166e+00    1.283976e+00   1.820486e-02
  1.411376e+00    1.265528e+00   1.807051e-02
  1.413587e+00    1.261081e+00   1.803493e-02
  1.415797e+00    1.232801e+00   1.782808e-02
  1.418008e+00    1.249747e+00   1.790865e-02
  1.420218e+00    1.264693e+00   1.786599e-02
  1.422429e+00    1.280275e+00   1.789008e-02
  1.424639e+00    1.268278e+00   1.774141e-02
  1.426850e+00    1.283721e+00   1.779409e-02
  1.429060e+00    1.279697e+00   1.771702e-02
  1.431270e+00    1.290303e+00   1.774561e-02
  1.433481e+00    1.299932e+00   1.777028e-02
  1.435691e+00    1.292027e+00   1.767739e-02
  1.437902e+00    1.322151e+00   1.784508e-02
  1.440112e+00    1.321602e+00   1.780533e-02
  1.442323e+00    1.268638e+00   1.741189e-02
  1.444533e+00    1.247864e+00   1.723646e-02
  1.446744e+00    1.259688e+00   1.728691e-02
  1.448954e+00    1.255755e+00   1.722991e-02
  1.451165e+00    1.276778e+00   1.734367e-02
  1.453375e+00    1.278551e+00   1.732759e-02
  1.455586e+00    1.254573e+00   1.713634e-02
  1.457796e+00    1.260523e+00   1.714952e-02
  1.460006e+00    1.272379e+00   1.720270e-02
  1.462217e+00    1.261293e+00   1.710147e-02
  1.464427e+00    1.249295e+00   1.699452e-02
  1.466638e+00    1.281500e+00   1.718674e-02
  1.468848e+00    1.270852e+00   1.708984e-02
  1.471059e+00    1.257806e+00   1.697692e-02
  1.473269e+00    1.256734e+00   1.694542e-02
  1.475480e+00    1.247861e+00   1.686192e-02
  1.477690e+00    1.260818e+00   1.692547e-02
  1.479901e+00    1.245700e+00   1.680007e-02
  1.482111e+00    1.259749e+00   1.687128e-02
  1.484321e+00    1.246858e+00   1.676182e-02
  1.486532e+00    1.231582e+00   1.663679e-02
  1.488742e+00    1.253798e+00   1.676361e-02
  1.490953e+00    1.255164e+00   1.675023e-02
  1.493163e+00    1.234069e+00   1.658686e-02
  1.495374e+00    1.260093e+00   1.673936e-02
  1.497584e+00    1.255545e+00   1.668754e-02
  1.499795e+00    1.239802e+00   1.656111e-02
  1.502005e+00    1.243456e+00   1.656395e-02
  1.504216e+00    1.254554e+00   1.661671e-02
  1.506426e+00    1.242525e+00   1.651617e-02
  1.508636e+00    1.248974e+00   1.653860e-02
  1.510847e+00    1.266425e+00   1.663184e-02
  1.513057e+00    1.238819e+00   1.642465e-02
  1.515268e+00    1.218094e+00   1.626134e-02
  1.517478e+00    1.236935e+00   1.636164e-02
  1.519689e+00    1.234783e+00   1.632264e-02
  1.521899e+00    1.245270e+00   1.636875e-02
  1.524110e+00    1.242753e+00   1.633198e-02
  1.526320e+00    1.221501e+00   1.617238e-02
  1.528531e+00    1.225806e+00   1.618129e-02
  1.530741e+00    1.232421e+00   1.620588e-02
  1.532951e+00    1.242970e+00   1.625554e-02
  1.535162e+00    1.252835e+00   1.640664e-02
  1.537372e+00    1.254893e+00   1.648719e-02
  1.539583e+00    1.255935e+00   1.652835e-02
  1.541793e+00    1.285231e+00   1.672707e-02
  1.544004e+00    1.276317e+00   1.666922e-02
  1.546214e+00    1.267205e+00   1.660812e-02
  1.548425e+00    1.233562e+00   1.638641e-02
  1.550635e+00    1.230888e+00   1.637827e-02
  1.552846e+00    1.234174e+00   1.640972e-02
  1.555056e+00    1.237011e+00   1.638723e-02
  1.557266e+00    1.212167e+00   1.611283e-02
  1.559477e+00    1.218530e+00   1.609654e-02
  1.561687e+00    1.250686e+00   1.627682e-02
  1.563898e+00    1.229439e+00   1.612091e-02
  1.566108e+00    1.238087e+00   1.616159e-02
  1.568319e+00    1.230725e+00   1.609794e-02
  1.570529e+00    1.239303e+00   1.612887e-02
  1.572740e+00    1.244196e+00   1.613304e-02
  1.574950e+00    1.248061e+00   1.613174e-02
  1.577161e+00    1.249496e+00   1.611549e-02
  1.579371e+00    1.266346e+00   1.619991e-02
  1.581582e+00    1.248128e+00   1.606318e-02
  1.583792e+00    1.231319e+00   1.593671e-02
  1.586002e+00    1.248967e+00   1.603284e-02
  1.588213e+00    1.250039e+00   1.602247e-02
  1.590423e+00    1.216497e+00   1.578618e-02
  1.592634e+00    1.213207e+00   1.574347e-02
  1.594844e+00    1.214918e+00   1.573340e-02
  1.597055e+00    1.242583e+00   1.589104e-02
  1.599265e+00    1.235524e+00   1.582519e-02
  1.601476e+00    1.218463e+00   1.569539e-02
  1.603686e+00    1.243453e+00   1.583575e-02
  1.605897e+00    1.244233e+00   1.582051e-02
  1.608107e+00    1.233069e+00   1.572987e-02
  1.610317e+00    1.196948e+00   1.547876e-02
  1.612528e+00    1.222357e+00   1.562310e-02
  1.614738e+00    1.215561e+00   1.556080e-02
  1.616949e+00    1.196010e+00   1.541641e-02
  1.619159e+00    1.178170e+00   1.528262e-02
  1.621370e+00    1.180758e+00   1.528123e-02
  1.623580e+00    1.198250e+00   1.537579e-02
  1.625791e+00    1.167210e+00   1.515740e-02
  1.628001e+00    1.169657e+00   1.515526e-02
  1.630212e+00    1.165535e+00   1.511099e-02
  1.632422e+00    1.162316e+00   1.507238e-02
  1.634632e+00    1.161164e+00   1.504777e-02
  1.636843e+00    1.139425e+00   1.488899e-02
  1.639053e+00    1.147296e+00   1.492322e-02
  1.641264e+00    1.170257e+00   1.505472e-02
  1.643474e+00    1.145601e+00   1.487802e-02
  1.645685e+00    1.146331e+00   1.486618e-02
  1.647895e+00    1.122630e+00   1.469534e-02
  1.650106e+00    1.107988e+00   1.458251e-02
  1.652316e+00    1.117544e+00   1.462899e-02
  1.654527e+00    1.126964e+00   1.467397e-02
  1.656737e+00    1.115216e+00   1.458087e-02
  1.658947e+00    1.109975e+00   1.453046e-02
  1.661158e+00    1.094170e+00   1.441060e-02
  1.663368e+00    1.103254e+00   1.445441e-02
  1.665579e+00    1.097918e+00   1.440343e-02
  1.667789e+00    1.110063e+00   1.446668e-02
  1.670000e+00    1.101435e+00   1.439494e-02
  1.672210e+00    1.087254e+00   1.428625e-02
  1.674421e+00    1.079241e+00   1.421836e-02
  1.676631e+00    1.075918e+00   1.418076e-02
  1.678842e+00    1.083780e+00   1.421681e-02
  1.681052e+00    1.155133e+00   1.466152e-02
  1.683263e+00    1.193256e+00   1.488566e-02
  1.685473e+00    1.175325e+00   1.475769e-02
  1.687683e+00    1.104654e+00   1.429154e-02
  1.689894e+00    1.097253e+00   1.422766e-02
  1.692104e+00    1.093796e+00   1.419022e-02
  1.694315e+00    1.045482e+00   1.385895e-02
  1.696525e+00    1.034723e+00   1.377255e-02
  1.698736e+00    1.038674e+00   1.378417e-02
  1.700946e+00    1.036034e+00   1.375168e-02
  1.703157e+00    1.043141e+00   1.378424e-02
  1.705367e+00    1.024274e+00   1.364472e-02
  1.707578e+00    1.026107e+00   1.364248e-02
  1.709788e+00    1.012457e+00   1.353758e-02
  1.711998e+00    1.005665e+00   1.347733e-02
  1.714209e+00    1.018479e+00   1.354863e-02
  1.716419e+00    1.028412e+00   1.360031e-02
  1.718630e+00    1.019133e+00   1.352465e-02
  1.720840e+00    1.039234e+00   1.364311e-02
  1.723051e+00    1.066156e+00   1.380455e-02
  1.725261e+00    1.074956e+00   1.384634e-02
  1.727472e+00    1.086320e+00   1.390470e-02
  1.729682e+00    1.040086e+00   1.359197e-02
  1.731893e+00    1.012256e+00   1.339499e-02
  1.734103e+00    1.021599e+00   1.344277e-02
  1.736313e+00    1.028475e+00   1.347378e-02
  1.738524e+00    1.028576e+00   1.346043e-02
  1.740734e+00    1.003299e+00   1.328030e-02
  1.742945e+00    9.670190e-01   1.302471e-02
  1.745155e+00    9.760658e-01   1.307213e-02
  1.747366e+00    9.888973e-01   1.314397e-02
  1.749576e+00    9.872651e-01   1.311946e-02
  1.751787e+00    9.589646e-01   1.291686e-02
  1.753997e+00    9.529222e-01   1.286291e-02
  1.756208e+00    9.621950e-01   1.291223e-02
  1.758418e+00    9.493188e-01   1.281258e-02
  1.760628e+00    9.470088e-01   1.278378e-02
  1.762839e+00    9.430927e-01   1.274425e-02
  1.765049e+00    9.471850e-01   1.275886e-02
  1.767260e+00    9.415582e-01   1.270822e-02
  1.769470e+00    9.232183e-01   1.257107e-02
  1.771681e+00    9.245161e-01   1.256697e-02
  1.773891e+00    9.040257e-01   1.241419e-02
  1.776102e+00    9.197195e-01   1.250878e-02
  1.778312e+00    9.360412e-01   1.260662e-02
  1.780523e+00    9.721667e-01   1.283463e-02
  1.782733e+00    1.021483e+00   1.314293e-02
  1.784944e+00    1.038174e+00   1.323631e-02
  1.787154e+00    9.729021e-01   1.280068e-02
  1.789364e+00    9.329823e-01   1.252281e-02
  1.791575e+00    8.909065e-01   1.222488e-02
  1.793785e+00    8.872535e-01   1.218761e-02
  1.795996e+00    9.028108e-01   1.228161e-02
  1.798206e+00    8.953157e-01   1.221817e-02
  1.800417e+00    8.921915e-01   1.218431e-02
  1.802627e+00    9.006398e-01   1.223003e-02
  1.804838e+00    9.214111e-01   1.235805e-02
  1.807048e+00    9.824085e-01   1.274721e-02
  1.809259e+00    1.016603e+00   1.295277e-02
  1.811469e+00    9.817210e-01   1.271304e-02
  1.813679e+00    9.506139e-01   1.249463e-02
  1.815890e+00    9.142112e-01   1.223817e-02
  1.818100e+00    8.976606e-01   1.211178e-02
  1.820311e+00    8.832804e-01   1.199969e-02
  1.822521e+00    8.838991e-01   1.198908e-02
  1.824732e+00    8.934938e-01   1.203915e-02
  1.826942e+00    8.970438e-01   1.205063e-02
  1.829153e+00    8.844629e-01   1.195416e-02
  1.831363e+00    8.802429e-01   1.191357e-02
  1.833574e+00    8.967531e-01   1.201302e-02
  1.835784e+00    8.631966e-01   1.177479e-02
  1.837994e+00    8.811280e-01   1.188470e-02
  1.840205e+00    8.968637e-01   1.197908e-02
  1.842415e+00    8.725147e-01   1.180356e-02
  1.844626e+00    8.593090e-01   1.170243e-02
  1.846836e+00    8.440793e-01   1.158697e-02
  1.849047e+00    8.585117e-01   1.167406e-02
  1.851257e+00    8.360476e-01   1.151090e-02
  1.853468e+00    8.578648e-01   1.165133e-02
  1.855678e+00    8.598329e-01   1.165582e-02
  1.857889e+00    8.436502e-01   1.153720e-02
  1.860099e+00    8.501998e-01   1.157328e-02
  1.862309e+00    8.520142e-01   1.157715e-02
  1.864520e+00    8.588803e-01   1.161511e-02
  1.866730e+00    8.608325e-01   1.161889e-02
  1.868941e+00    8.548141e-01   1.156725e-02
  1.871151e+00    8.407793e-01   1.146058e-02
  1.873362e+00    8.268578e-01   1.135410e-02
  1.875572e+00    8.380113e-01   1.141956e-02
  1.877783e+00    8.501806e-01   1.149074e-02
  1.879993e+00    8.706958e-01   1.161723e-02
  1.882204e+00    8.559664e-01   1.150759e-02
  1.884414e+00    8.609572e-01   1.152990e-02
  1.886624e+00    8.506241e-01   1.144940e-02
  1.888835e+00    8.247587e-01   1.126311e-02
  1.891045e+00    8.170766e-01   1.119980e-02
  1.893256e+00    8.224555e-01   1.122561e-02
  1.895466e+00    8.405381e-01   1.133716e-02
  1.897677e+00    8.514214e-01   1.139929e-02
  1.899887e+00    8.616601e-01   1.145646e-02
  1.902098e+00    8.933466e-01   1.165397e-02
  1.904308e+00    9.039500e-01   1.171190e-02
  1.906519e+00    8.800278e-01   1.154473e-02
  1.908729e+00    9.010049e-01   1.167045e-02
  1.910940e+00    8.960385e-01   1.162667e-02
  1.913150e+00    9.828036e-01   1.216495e-02
  1.915360e+00    1.173215e+00   1.327861e-02
  1.917571e+00    1.132907e+00   1.303589e-02
  1.919781e+00    9.441594e-01   1.188906e-02
  1.921992e+00    8.355004e-01   1.117327e-02
  1.924202e+00    8.250886e-01   1.109260e-02
  1.926413e+00    8.112205e-01   1.098872e-02
  1.928623e+00    7.973505e-01   1.088394e-02
  1.930834e+00    7.805510e-01   1.075844e-02
  1.933044e+00    8.083281e-01   1.093754e-02
  1.935255e+00    8.138092e-01   1.096422e-02
  1.937465e+00    8.009081e-01   1.086662e-02
  1.939675e+00    7.927505e-01   1.080039e-02
  1.941886e+00    7.836407e-01   1.072800e-02
  1.944096e+00    8.076711e-01   1.088103e-02
  1.946307e+00    8.098657e-01   1.088543e-02
  1.948517e+00    7.911696e-01   1.074866e-02
  1.950728e+00    7.947825e-01   1.076294e-02
  1.952938e+00    8.012815e-01   1.079675e-02
  1.955149e+00    8.041324e-01   1.080565e-02
  1.957359e+00    7.976169e-01   1.075175e-02
  1.959570e+00    7.836503e-01   1.064639e-02
  1.961780e+00    7.796222e-01   1.060917e-02
  1.963990e+00    7.833233e-01   1.062426e-02
  1.966201e+00    7.778015e-01   1.057676e-02
  1.968411e+00    7.890037e-01   1.064250e-02
  1.970622e+00    7.949978e-01   1.067272e-02
  1.972832e+00    7.928019e-01   1.064796e-02
  1.975043e+00    7.917482e-01   1.063081e-02
  1.977253e+00    7.899320e-01   1.060864e-02
  1.979464e+00    7.784296e-01   1.052110e-02
  1.981674e+00    7.793393e-01   1.051702e-02
  1.983885e+00    7.792019e-01   1.050607e-02
  1.986095e+00    7.883832e-01   1.055805e-02
  1.988305e+00    7.697315e-01   1.042257e-02
  1.990516e+00    7.570141e-01   1.032633e-02
  1.992726e+00    7.611576e-01   1.034498e-02
  1.994937e+00    7.770398e-01   1.044223e-02
  1.997147e+00    7.816191e-01   1.046318e-02
  1.999358e+00    7.742224e-01   1.040373e-02
  2.001568e+00    7.581666e-01   1.028456e-02
  2.003779e+00    7.647690e-01   1.031739e-02
  2.005989e+00    7.762463e-01   1.038248e-02
  2.008200e+00    7.643786e-01   1.029132e-02
  2.010410e+00    7.534248e-01   1.020569e-02
  2.012621e+00    7.647172e-01   1.027020e-02
  2.014831e+00    7.792994e-01   1.035611e-02
  2.017041e+00    7.627965e-01   1.023550e-02
  2.019252e+00    7.658690e-01   1.024615e-02
  2.021462e+00    7.563601e-01   1.017289e-02
  2.023673e+00    7.379333e-01   1.003897e-02
  2.025883e+00    7.501220e-01   1.011211e-02
  2.028094e+00    7.609320e-01   1.017507e-02
  2.030304e+00    7.697242e-01   1.022411e-02
  2.032515e+00    7.533075e-01   1.010524e-02
  2.034725e+00    7.649198e-01   1.017333e-02
  2.036936e+00    7.757813e-01   1.023588e-02
  2.039146e+00    7.710140e-01   1.019472e-02
  2.041356e+00    7.624361e-01   1.012816e-02
  2.043567e+00    7.486977e-01   1.002726e-02
  2.045777e+00    7.411570e-01   9.967438e-03
  2.047988e+00    7.780319e-01   1.020288e-02
  2.050198e+00    7.584347e-01   1.006513e-02
  2.052409e+00    7.449429e-01   9.967565e-03
  2.054619e+00    7.523015e-01   1.000930e-02
  2.056830e+00    7.538065e-01   1.001213e-02
  2.059040e+00    7.643471e-01   1.007429e-02
  2.061251e+00    7.619638e-01   1.005129e-02
  2.063461e+00    7.460538e-01   9.938209e-03
  2.065671e+00    7.393354e-01   9.884700e-03
  2.067882e+00    7.386917e-01   9.871444e-03
  2.070092e+00    7.305057e-01   9.807514e-03
  2.072303e+00    7.215242e-01   9.738042e-03
  2.074513e+00    7.344157e-01   9.815396e-03
  2.076724e+00    7.392123e-01   9.837972e-03
  2.078934e+00    7.337267e-01   9.792464e-03
  2.081145e+00    7.272602e-01   9.740231e-03
  2.083355e+00    7.268063e-01   9.728102e-03
  2.085566e+00    7.262949e-01   9.715858e-03
  2.087776e+00    7.342767e-01   9.759632e-03
  2.089986e+00    7.129440e-01   9.608184e-03
  2.092197e+00    7.342692e-01   9.741880e-03
  2.094407e+00    7.170326e-01   9.617759e-03
  2.096618e+00    7.293041e-01   9.690838e-03
  2.098828e+00    7.226105e-01   9.637042e-03
  2.101039e+00    7.202499e-01   9.612379e-03
  2.103249e+00    7.314733e-01   9.678307e-03
  2.105460e+00    7.192083e-01   9.587896e-03
  2.107670e+00    7.054209e-01   9.486931e-03
  2.109881e+00    7.134900e-01   9.531969e-03
  2.112091e+00    7.122199e-01   9.514584e-03
  2.114301e+00    7.173978e-01   9.540355e-03
  2.116512e+00    7.120536e-01   9.496039e-03
  2.118722e+00    7.270227e-01   9.586469e-03
  2.120933e+00    7.103686e-01   9.467256e-03
  2.123143e+00    7.044755e-01   9.419068e-03
  2.125354e+00    7.176892e-01   9.498463e-03
  2.127564e+00    7.089108e-01   9.431522e-03
  2.129775e+00    7.024602e-01   9.379861e-03
  2.131985e+00    7.189950e-01   9.480514e-03
  2.134196e+00    7.006617e-01   9.350372e-03
  2.136406e+00    7.087833e-01   9.395681e-03
  2.138617e+00    6.881379e-01   9.249507e-03
  2.140827e+00    6.998752e-01   9.344001e-03
  2.143037e+00    6.940651e-01   9.350201e-03
  2.145248e+00    6.963792e-01   9.387629e-03
  2.147458e+00    7.100558e-01   9.494556e-03
  2.149669e+00    7.038637e-01   9.464931e-03
  2.151879e+00    7.174692e-01   9.565294e-03
  2.154090e+00    6.988389e-01   9.447602e-03
  2.156300e+00    6.928961e-01   9.413907e-03
  2.158511e+00    6.824172e-01   9.347687e-03
  2.160721e+00    6.921302e-01   9.418766e-03
  2.162932e+00    6.869661e-01   9.387277e-03
  2.165142e+00    6.942133e-01   9.439681e-03
  2.167352e+00    6.877201e-01   9.398314e-03
  2.169563e+00    6.966483e-01   9.461091e-03
  2.171773e+00    6.830248e-01   9.370563e-03
  2.173984e+00    6.867661e-01   9.397574e-03
  2.176194e+00    6.830664e-01   9.373436e-03
  2.178405e+00    6.848958e-01   9.386657e-03
  2.180615e+00    6.908187e-01   9.427845e-03
  2.182826e+00    6.992235e-01   9.485709e-03
  2.185036e+00    6.906515e-01   9.427436e-03
  2.187247e+00    6.985029e-01   9.480818e-03
  2.189457e+00    6.883515e-01   9.411280e-03
  2.191667e+00    6.811644e-01   9.361831e-03
  2.193878e+00    6.845586e-01   9.384555e-03
  2.196088e+00    6.745657e-01   9.315145e-03
  2.198299e+00    6.870065e-01   9.399548e-03
  2.200509e+00    6.767462e-01   9.328054e-03
  2.202720e+00    6.672892e-01   9.261493e-03
  2.204930e+00    6.858178e-01   9.387952e-03
  2.207141e+00    6.980019e-01   9.469856e-03
  2.209351e+00    6.822214e-01   9.360322e-03
  2.211562e+00    6.638938e-01   9.232110e-03
  2.213772e+00    6.799091e-01   9.287201e-03
  2.215982e+00    6.723681e-01   9.191463e-03
  2.218193e+00    6.894458e-01   9.277530e-03
  2.220403e+00    6.717553e-01   9.133201e-03
  2.222614e+00    6.497064e-01   8.961497e-03
  2.224824e+00    6.669374e-01   9.060232e-03
  2.227035e+00    6.844069e-01   9.160566e-03
  2.229245e+00    6.775575e-01   9.097546e-03
  2.231456e+00    6.806353e-01   9.102486e-03
  2.233666e+00    6.716841e-01   9.027318e-03
  2.235877e+00    6.792705e-01   9.063795e-03
  2.238087e+00    6.847516e-01   9.086657e-03
  2.240298e+00    6.877097e-01   9.092313e-03
  2.242508e+00    6.978815e-01   9.143858e-03
  2.244718e+00    6.856918e-01   9.047648e-03
  2.246929e+00    6.846069e-01   9.025878e-03
  2.249139e+00    6.798973e-01   8.982290e-03
  2.251350e+00    6.982939e-01   9.091000e-03
  2.253560e+00    7.067688e-01   9.134112e-03
  2.255771e+00    7.044873e-01   9.107620e-03
  2.257981e+00    7.004047e-01   9.069724e-03
  2.260192e+00    6.928122e-01   9.009081e-03
  2.262402e+00    7.024006e-01   9.060048e-03
  2.264613e+00    6.987581e-01   9.025413e-03
  2.266823e+00    6.897020e-01   8.956151e-03
  2.269033e+00    6.795302e-01   8.879305e-03
  2.271244e+00    8.180917e-01   9.730987e-03
  2.273454e+00    1.099286e+00   1.126683e-02
  2.275665e+00    1.301479e+00   1.224498e-02
  2.277875e+00    1.126884e+00   1.138123e-02
  2.280086e+00    8.604926e-01   9.933969e-03
  2.282296e+00    7.177646e-01   9.062887e-03
  2.284507e+00    6.827267e-01   8.828592e-03
  2.286717e+00    6.542016e-01   8.632732e-03
  2.288928e+00    6.483592e-01   8.584317e-03
  2.291138e+00    6.556788e-01   8.623180e-03
  2.293348e+00    6.548162e-01   8.608012e-03
  2.295559e+00    6.384440e-01   8.490511e-03
  2.297769e+00    6.489632e-01   8.550961e-03
  2.299980e+00    6.388685e-01   8.474968e-03
  2.302190e+00    6.549331e-01   8.571713e-03
  2.304401e+00    6.485318e-01   8.520440e-03
  2.306611e+00    6.488367e-01   8.513262e-03
  2.308822e+00    6.356664e-01   8.418130e-03
  2.311032e+00    6.418971e-01   8.452867e-03
  2.313243e+00    6.647890e-01   8.595938e-03
  2.315453e+00    6.549626e-01   8.524572e-03
  2.317663e+00    6.532402e-01   8.504186e-03
  2.319874e+00    6.484873e-01   8.464452e-03
  2.322084e+00    6.462874e-01   8.441110e-03
  2.324295e+00    6.494928e-01   8.453771e-03
  2.326505e+00    6.461668e-01   8.423025e-03
  2.328716e+00    6.471712e-01   8.421000e-03
  2.330926e+00    6.521830e-01   8.444684e-03
  2.333137e+00    6.470793e-01   8.403178e-03
  2.335347e+00    6.372561e-01   8.330297e-03
  2.337558e+00    6.438833e-01   8.365250e-03
  2.339768e+00    6.423645e-01   8.346789e-03
  2.341979e+00    6.511641e-01   8.395316e-03
  2.344189e+00    6.467728e-01   8.358519e-03
  2.346399e+00    6.390969e-01   8.300240e-03
  2.348610e+00    6.457090e-01   8.334560e-03
  2.350820e+00    6.245693e-01   8.188862e-03
  2.353031e+00    6.407785e-01   8.286117e-03
  2.355241e+00    6.248299e-01   8.174365e-03
  2.357452e+00    6.185081e-01   8.124559e-03
  2.359662e+00    6.120247e-01   8.073786e-03
  2.361873e+00    6.152127e-01   8.086644e-03
  2.364083e+00    6.244708e-01   8.139299e-03
  2.366294e+00    6.186232e-01   8.093072e-03
  2.368504e+00    6.087680e-01   8.020375e-03
  2.370714e+00    6.232267e-01   8.107021e-03
  2.372925e+00    6.093698e-01   8.008443e-03
  2.375135e+00    6.088651e-01   7.997165e-03
  2.377346e+00    6.126099e-01   8.013848e-03
  2.379556e+00    6.198751e-01   8.053338e-03
  2.381767e+00    6.289183e-01   8.103968e-03
  2.383977e+00    6.089351e-01   7.966342e-03
  2.386188e+00    6.091087e-01   7.959610e-03
  2.388398e+00    5.965238e-01   7.869146e-03
  2.390609e+00    6.120831e-01   7.963392e-03
  2.392819e+00    6.334293e-01   8.093204e-03
  2.395029e+00    6.155308e-01   7.970392e-03
  2.397240e+00    6.149455e-01   7.958709e-03
  2.399450e+00    6.089759e-01   7.912232e-03
  2.401661e+00    5.937817e-01   7.805329e-03
  2.403871e+00    5.949461e-01   7.805303e-03
  2.406082e+00    6.019801e-01   7.843933e-03
  2.408292e+00    6.058083e-01   7.861077e-03
  2.410503e+00    5.980912e-01   7.803408e-03
  2.412713e+00    5.982101e-01   7.796452e-03
  2.414924e+00    6.166887e-01   7.908392e-03
  2.417134e+00    5.981251e-01   7.780882e-03
  2.419344e+00    5.814190e-01   7.664167e-03
  2.421555e+00    5.918795e-01   7.725342e-03
  2.423765e+00    5.930722e-01   7.725780e-03
  2.425976e+00    5.866303e-01   7.675969e-03
  2.428186e+00    5.997810e-01   7.754321e-03
  2.430397e+00    5.911457e-01   7.690854e-03
  2.432607e+00    5.917116e-01   7.687277e-03
  2.434818e+00    5.889617e-01   7.661891e-03
  2.437028e+00    6.009851e-01   7.732514e-03
  2.439239e+00    5.959463e-01   7.692365e-03
  2.441449e+00    5.759069e-01   7.554837e-03
  2.443659e+00    5.788491e-01   7.566813e-03
  2.445870e+00    5.924795e-01   7.667682e-03
  2.448080e+00    5.686306e-01   7.546147e-03
  2.450291e+00    5.784976e-01   7.627947e-03
  2.452501e+00    5.754066e-01   7.618714e-03
  2.454712e+00    5.598407e-01   7.523277e-03
  2.456922e+00    5.785206e-01   7.654411e-03
  2.459133e+00    5.810180e-01   7.676439e-03
  2.461343e+00    5.705948e-01   7.611619e-03
  2.463554e+00    5.666858e-01   7.588988e-03
  2.465764e+00    5.629612e-01   7.567145e-03
  2.467975e+00    5.517491e-01   7.493675e-03
  2.470185e+00    5.420092e-01   7.429459e-03
  2.472395e+00    5.455328e-01   7.454776e-03
  2.474606e+00    5.405205e-01   7.422005e-03
  2.476816e+00    5.400023e-01   7.419165e-03
  2.479027e+00    5.467822e-01   7.466434e-03
  2.481237e+00    5.424272e-01   7.436936e-03
  2.483448e+00    5.342702e-01   7.381087e-03
  2.485658e+00    5.393268e-01   7.415800e-03
  2.487869e+00    5.345374e-01   7.382832e-03
  2.490079e+00    5.319031e-01   7.364107e-03
  2.492290e+00    5.366114e-01   7.396191e-03
  2.494500e+00    5.383508e-01   7.407442e-03
  2.496710e+00    5.237756e-01   7.305792e-03
  2.498921e+00    5.228713e-01   7.298503e-03
  2.501131e+00    5.307589e-01   7.352385e-03
  2.503342e+00    5.519304e-01   7.496310e-03
  2.505552e+00    5.561669e-01   7.523879e-03
  2.507763e+00    5.343286e-01   7.373268e-03
  2.509973e+00    5.318558e-01   7.354774e-03
  2.512184e+00    5.345117e-01   7.371487e-03
  2.514394e+00    5.473384e-01   7.449884e-03
  2.516605e+00    5.315778e-01   7.294539e-03
  2.518815e+00    5.402809e-01   7.325315e-03
  2.521025e+00    5.278812e-01   7.219764e-03
  2.523236e+00    5.263588e-01   7.191319e-03
  2.525446e+00    5.454754e-01   7.304861e-03
  2.527657e+00    5.426286e-01   7.270939e-03
  2.529867e+00    5.369599e-01   7.218526e-03
  2.532078e+00    5.428973e-01   7.243009e-03
  2.534288e+00    5.451791e-01   7.244086e-03
  2.536499e+00    5.323479e-01   7.146293e-03
  2.538709e+00    5.262688e-01   7.094369e-03
  2.540920e+00    5.262177e-01   7.083345e-03
  2.543130e+00    5.263200e-01   7.073640e-03
  2.545340e+00    5.315686e-01   7.098710e-03
  2.547551e+00    5.169456e-01   6.990490e-03
  2.549761e+00    5.318820e-01   7.081082e-03
  2.551972e+00    5.262681e-01   7.034228e-03
  2.554182e+00    5.510430e-01   7.188425e-03
  2.556393e+00    5.816424e-01   7.375748e-03
  2.558603e+00    5.515579e-01   7.173151e-03
  2.560814e+00    5.369219e-01   7.068462e-03
  2.563024e+00    5.224013e-01   6.963633e-03
  2.565235e+00    5.160089e-01   6.911407e-03
  2.567445e+00    5.216802e-01   6.939713e-03
  2.569656e+00    5.184896e-01   6.908708e-03
  2.571866e+00    5.229675e-01   6.929065e-03
  2.574076e+00    5.219043e-01   6.912705e-03
  2.576287e+00    5.259897e-01   6.931307e-03
  2.578497e+00    5.275896e-01   6.933918e-03
  2.580708e+00    5.029675e-01   6.762205e-03
  2.582918e+00    4.988170e-01   6.726580e-03
  2.585129e+00    5.146958e-01   6.825056e-03
  2.587339e+00    5.212983e-01   6.860964e-03
  2.589550e+00    5.240170e-01   6.871203e-03
  2.591760e+00    5.160427e-01   6.810951e-03
  2.593971e+00    5.104955e-01   6.766734e-03
  2.596181e+00    5.135086e-01   6.780440e-03
  2.598391e+00    5.053129e-01   6.720938e-03
  2.600602e+00    5.108960e-01   6.752056e-03
  2.602812e+00    5.097248e-01   6.736772e-03
  2.605023e+00    5.056631e-01   6.702733e-03
  2.607233e+00    5.014303e-01   6.667519e-03
  2.609444e+00    4.980190e-01   6.637645e-03
  2.611654e+00    5.053595e-01   6.679064e-03
  2.613865e+00    4.954305e-01   6.606186e-03
  2.616075e+00    4.975561e-01   6.613239e-03
  2.618286e+00    5.062927e-01   6.664055e-03
  2.620496e+00    5.046341e-01   6.646431e-03
  2.622706e+00    5.136025e-01   6.699455e-03
  2.624917e+00    5.129324e-01   6.689169e-03
  2.627127e+00    5.179849e-01   6.716221e-03
  2.629338e+00    5.066492e-01   6.636340e-03
  2.631548e+00    5.048600e-01   6.618431e-03
  2.633759e+00    4.866758e-01   6.491105e-03
  2.635969e+00    4.945813e-01   6.536964e-03
  2.638180e+00    5.078448e-01   6.617024e-03
  2.640390e+00    5.014668e-01   6.568723e-03
  2.642601e+00    5.045061e-01   6.581921e-03
  2.644811e+00    4.972526e-01   6.527385e-03
  2.647021e+00    4.970724e-01   6.519641e-03
  2.649232e+00    5.051379e-01   6.565573e-03
  2.651442e+00    5.044146e-01   6.554336e-03
  2.653653e+00    4.911730e-01   6.461003e-03
  2.655863e+00    4.921316e-01   6.460642e-03
  2.658074e+00    5.032804e-01   6.526785e-03
  2.660284e+00    4.837438e-01   6.392584e-03
  2.662495e+00    4.835029e-01   6.384315e-03
  2.664705e+00    4.948992e-01   6.452579e-03
  2.666916e+00    4.999696e-01   6.479042e-03
  2.669126e+00    5.080248e-01   6.524513e-03
  2.671337e+00    5.012522e-01   6.474245e-03
  2.673547e+00    5.014210e-01   6.468930e-03
  2.675757e+00    4.940319e-01   6.414630e-03
  2.677968e+00    4.925385e-01   6.398426e-03
  2.680178e+00    4.804841e-01   6.313325e-03
  2.682389e+00    4.876823e-01   6.354069e-03
  2.684599e+00    4.986616e-01   6.418984e-03
  2.686810e+00    4.957516e-01   6.393593e-03
  2.689020e+00    4.978720e-01   6.400931e-03
  2.691231e+00    4.863560e-01   6.320201e-03
  2.693441e+00    4.913083e-01   6.346161e-03
  2.695652e+00    4.818322e-01   6.278188e-03
  2.697862e+00    4.886184e-01   6.315908e-03
  2.700072e+00    4.845887e-01   6.283772e-03
  2.702283e+00    4.926763e-01   6.329742e-03
  2.704493e+00    4.894792e-01   6.302887e-03
  2.706704e+00    4.781643e-01   6.223288e-03
  2.708914e+00    4.727066e-01   6.181776e-03
  2.711125e+00    4.906609e-01   6.291823e-03
  2.713335e+00    4.807871e-01   6.222148e-03
  2.715546e+00    4.841307e-01   6.237301e-03
  2.717756e+00    4.893678e-01   6.265042e-03
  2.719967e+00    4.844679e-01   6.227401e-03
  2.722177e+00    4.815550e-01   6.202551e-03
  2.724387e+00    4.740234e-01   6.147827e-03
  2.726598e+00    4.717273e-01   6.126934e-03
  2.728808e+00    4.827451e-01   6.191947e-03
  2.731019e+00    4.765872e-01   6.146263e-03
  2.733229e+00    4.772236e-01   6.144579e-03
  2.735440e+00    4.922594e-01   6.234328e-03
  2.737650e+00    4.802943e-01   6.152089e-03
  2.739861e+00    4.725528e-01   6.096306e-03
  2.742071e+00    4.775909e-01   6.123011e-03
  2.744282e+00    4.871256e-01   6.177545e-03
  2.746492e+00    4.867593e-01   6.169165e-03
  2.748702e+00    4.911865e-01   6.191192e-03
  2.750913e+00    4.816858e-01   6.125250e-03
  2.753123e+00    4.693453e-01   6.040226e-03
  2.755334e+00    4.840145e-01   6.127784e-03
  2.757544e+00    4.853776e-01   6.130642e-03
  2.759755e+00    4.876240e-01   6.138908e-03
  2.761965e+00    4.784271e-01   6.074750e-03
  2.764176e+00    4.736973e-01   6.038713e-03
  2.766386e+00    4.779638e-01   6.060052e-03
  2.768597e+00    4.897909e-01   6.128650e-03
  2.770807e+00    4.809731e-01   6.067357e-03
  2.773017e+00    4.748557e-01   6.022691e-03
  2.775228e+00    4.825038e-01   6.065190e-03
  2.777438e+00    4.860961e-01   6.081889e-03
  2.779649e+00    4.820665e-01   6.050698e-03
  2.781859e+00    4.980142e-01   6.144078e-03
  2.784070e+00    4.816221e-01   6.036246e-03
  2.786280e+00    4.883758e-01   6.072580e-03
  2.788491e+00    4.820058e-01   6.026978e-03
  2.790701e+00    4.685211e-01   5.936489e-03
  2.792912e+00    4.732969e-01   5.960699e-03
  2.795122e+00    4.877910e-01   6.045481e-03
  2.797333e+00    4.865176e-01   6.031976e-03
  2.799543e+00    4.796078e-01   5.983094e-03
  2.801753e+00    4.795514e-01   5.976859e-03
  2.803964e+00    4.774876e-01   5.958315e-03
  2.806174e+00    4.645347e-01   5.870855e-03
  2.808385e+00    4.811432e-01   5.968051e-03
  2.810595e+00    4.762348e-01   5.930644e-03
  2.812806e+00    4.747487e-01   5.914784e-03
  2.815016e+00    4.701477e-01   5.881325e-03
  2.817227e+00    4.653254e-01   5.876767e-03
  2.819437e+00    4.745917e-01   5.946097e-03
  2.821648e+00    4.610184e-01   5.862699e-03
  2.823858e+00    4.721417e-01   5.938338e-03
  2.826068e+00    4.615432e-01   5.876235e-03
  2.828279e+00    4.680675e-01   5.921629e-03
  2.830489e+00    4.713348e-01   5.945599e-03
  2.832700e+00    4.604385e-01   5.879010e-03
  2.834910e+00    4.634769e-01   5.900400e-03
  2.837121e+00    4.756643e-01   5.979205e-03
  2.839331e+00    4.681642e-01   5.933105e-03
  2.841542e+00    4.680978e-01   5.933701e-03
  2.843752e+00    4.616311e-01   5.893350e-03
  2.845963e+00    4.622938e-01   5.897955e-03
  2.848173e+00    4.738896e-01   5.971574e-03
  2.850383e+00    4.636059e-01   5.906701e-03
  2.852594e+00    4.626237e-01   5.900381e-03
  2.854804e+00    4.710218e-01   5.953163e-03
  2.857015e+00    4.713039e-01   5.954530e-03
  2.859225e+00    4.688407e-01   5.938701e-03
  2.861436e+00    4.598424e-01   5.880780e-03
  2.863646e+00    4.602028e-01   5.883119e-03
  2.865857e+00    4.695841e-01   5.943123e-03
  2.868067e+00    4.633579e-01   5.903807e-03
  2.870278e+00    4.651599e-01   5.914937e-03
  2.872488e+00    4.509477e-01   5.822716e-03
  2.874698e+00    4.667511e-01   5.922832e-03
  2.876909e+00    4.612389e-01   5.886422e-03
  2.879119e+00    4.517926e-01   5.824237e-03
  2.881330e+00    4.546792e-01   5.841344e-03
  2.883540e+00    4.668598e-01   5.917676e-03
  2.885751e+00    4.635627e-01   5.895107e-03
  2.887961e+00    4.626110e-01   5.887156e-03
  2.890172e+00    4.665462e-01   5.910528e-03
  2.892382e+00    4.611752e-01   5.874627e-03
  2.894593e+00    4.510543e-01   5.807988e-03
  2.896803e+00    4.693259e-01   5.922453e-03
  2.899014e+00    4.610870e-01   5.868347e-03
  2.901224e+00    4.603504e-01   5.861650e-03
  2.903434e+00    4.565291e-01   5.835331e-03
  2.905645e+00    4.712050e-01   5.926142e-03
  2.907855e+00    4.727679e-01   5.933828e-03
  2.910066e+00    4.639797e-01   5.876331e-03
  2.912276e+00    4.577184e-01   5.834433e-03
  2.914487e+00    4.498729e-01   5.781781e-03
  2.916697e+00    4.553341e-01   5.814531e-03
  2.918908e+00    4.660266e-01   5.880399e-03
  2.921118e+00    4.566720e-01   5.818400e-03
  2.923329e+00    4.620057e-01   5.849942e-03
  2.925539e+00    4.551788e-01   5.804296e-03
  2.927749e+00    4.570677e-01   5.814001e-03
  2.929960e+00    4.556965e-01   5.802514e-03
  2.932170e+00    4.523219e-01   5.778658e-03
  2.934381e+00    4.582408e-01   5.813912e-03
  2.936591e+00    4.576009e-01   5.807261e-03
  2.938802e+00    4.553303e-01   5.790132e-03
  2.941012e+00    4.638190e-01   5.841501e-03
  2.943223e+00    4.424464e-01   5.702676e-03
  2.945433e+00    4.486223e-01   5.738620e-03
  2.947644e+00    4.561373e-01   5.782344e-03
  2.949854e+00    4.554858e-01   5.773952e-03
  2.952064e+00    4.549837e-01   5.766549e-03
  2.954275e+00    4.471772e-01   5.712497e-03
  2.956485e+00    4.558748e-01   5.763571e-03
  2.958696e+00    4.487146e-01   5.713813e-03
  2.960906e+00    4.495662e-01   5.715045e-03
  2.963117e+00    4.595124e-01   5.773426e-03
  2.965327e+00    4.493697e-01   5.705481e-03
  2.967538e+00    4.521619e-01   5.720260e-03
  2.969748e+00    4.495655e-01   5.701012e-03
  2.971959e+00    4.576570e-01   5.748949e-03
  2.974169e+00    4.492378e-01   5.693251e-03
  2.976379e+00    4.523755e-01   5.710174e-03
  2.978590e+00    4.614662e-01   5.764119e-03
  2.980800e+00    4.727531e-01   5.831321e-03
  2.983011e+00    4.593370e-01   5.745183e-03
  2.985221e+00    4.574453e-01   5.730170e-03
  2.987432e+00    4.533249e-01   5.701192e-03
  2.989642e+00    4.587507e-01   5.732568e-03
  2.991853e+00    4.655867e-01   5.771795e-03
  2.994063e+00    4.494205e-01   5.667828e-03
  2.996274e+00    4.711781e-01   5.800138e-03
  2.998484e+00    4.716978e-01   5.800608e-03
  3.000694e+00    4.678779e-01   5.773553e-03
  3.002905e+00    4.611556e-01   5.728962e-03
  3.005115e+00    4.631311e-01   5.738219e-03
  3.007326e+00    4.668712e-01   5.758128e-03
  3.009536e+00    4.570608e-01   5.694059e-03
  3.011747e+00    4.547165e-01   5.676500e-03
  3.013957e+00    4.711098e-01   5.774679e-03
  3.016168e+00    4.640517e-01   5.727967e-03
  3.018378e+00    4.567885e-01   5.679906e-03
  3.020589e+00    4.507434e-01   5.638989e-03
  3.022799e+00    4.565423e-01   5.671975e-03
  3.025010e+00    4.464923e-01   5.605980e-03
  3.027220e+00    4.482677e-01   5.614011e-03
  3.029430e+00    4.572522e-01   5.666739e-03
  3.031641e+00    4.581076e-01   5.668873e-03
  3.033851e+00    4.542439e-01   5.641385e-03
  3.036062e+00    4.558585e-01   5.648622e-03
  3.038272e+00    4.417475e-01   5.556964e-03
  3.040483e+00    4.570110e-01   5.648906e-03
  3.042693e+00    4.554127e-01   5.635741e-03
  3.044904e+00    4.569710e-01   5.641333e-03
  3.047114e+00    4.548694e-01   5.623514e-03
  3.049325e+00    4.490880e-01   5.583278e-03
  3.051535e+00    4.522197e-01   5.598316e-03
  3.053745e+00    4.459824e-01   5.554842e-03
  3.055956e+00    4.424919e-01   5.528535e-03
  3.058166e+00    4.360735e-01   5.484097e-03
  3.060377e+00    4.451091e-01   5.535866e-03
  3.062587e+00    4.542238e-01   5.587628e-03
  3.064798e+00    4.400861e-01   5.495767e-03
  3.067008e+00    4.463765e-01   5.530188e-03
  3.069219e+00    4.472608e-01   5.531178e-03
  3.071429e+00    4.376314e-01   5.467843e-03
  3.073640e+00    4.393917e-01   5.475518e-03
  3.075850e+00    4.509875e-01   5.543720e-03
  3.078060e+00    4.534988e-01   5.556018e-03
  3.080271e+00    4.527533e-01   5.547951e-03
  3.082481e+00    4.595075e-01   5.585702e-03
  3.084692e+00    4.523655e-01   5.538726e-03
  3.086902e+00    4.420553e-01   5.472025e-03
  3.089113e+00    4.414006e-01   5.464427e-03
  3.091323e+00    4.476687e-01   5.499704e-03
  3.093534e+00    4.616833e-01   5.581706e-03
  3.095744e+00    4.481278e-01   5.495796e-03
  3.097955e+00    4.599401e-01   5.564130e-03
  3.100165e+00    4.444261e-01   5.466185e-03
  3.102375e+00    4.438237e-01   5.459061e-03
  3.104586e+00    4.593375e-01   5.550111e-03
  3.106796e+00    4.508670e-01   5.495176e-03
  3.109007e+00    4.508275e-01   5.491685e-03
  3.111217e+00    4.599166e-01   5.543015e-03
  3.113428e+00    4.503107e-01   5.481416e-03
  3.115638e+00    4.360676e-01   5.390813e-03
  3.117849e+00    4.457457e-01   5.446583e-03
  3.120059e+00    4.469284e-01   5.450337e-03
  3.122270e+00    4.370302e-01   5.386413e-03
  3.124480e+00    4.471922e-01   5.444979e-03
  3.126691e+00    4.579088e-01   5.506206e-03
  3.128901e+00    4.660745e-01   5.551917e-03
  3.131111e+00    4.494030e-01   5.447842e-03
  3.133322e+00    4.472998e-01   5.431618e-03
  3.135532e+00    4.592813e-01   5.500414e-03
  3.137743e+00    4.589742e-01   5.495071e-03
  3.139953e+00    4.469345e-01   5.418790e-03
  3.142164e+00    4.521514e-01   5.462489e-03
  3.144374e+00    4.423818e-01   5.431553e-03
  3.146585e+00    4.377702e-01   5.417639e-03
  3.148795e+00    4.417118e-01   5.452751e-03
  3.151006e+00    4.376321e-01   5.436031e-03
  3.153216e+00    4.323068e-01   5.409899e-03
  3.155426e+00    4.481054e-01   5.514217e-03
  3.157637e+00    4.495836e-01   5.528897e-03
  3.159847e+00    4.449607e-01   5.505293e-03
  3.162058e+00    4.437945e-01   5.502530e-03
  3.164268e+00    4.310490e-01   5.426950e-03
  3.166479e+00    4.450249e-01   5.517895e-03
  3.168689e+00    4.653307e-01   5.645848e-03
  3.170900e+00    4.447220e-01   5.522615e-03
  3.173110e+00    4.491597e-01   5.553001e-03
  3.175321e+00    4.436180e-01   5.521148e-03
  3.177531e+00    4.335787e-01   5.461045e-03
  3.179741e+00    4.238945e-01   5.401746e-03
  3.181952e+00    4.148163e-01   5.345649e-03
  3.184162e+00    4.306495e-01   5.448879e-03
  3.186373e+00    4.207824e-01   5.387671e-03
  3.188583e+00    4.338138e-01   5.472219e-03
  3.190794e+00    4.351236e-01   5.482254e-03
  3.193004e+00    4.369321e-01   5.494869e-03
  3.195215e+00    4.434559e-01   5.537251e-03
  3.197425e+00    4.489674e-01   5.572790e-03
  3.199636e+00    4.459814e-01   5.553447e-03
  3.201846e+00    4.282816e-01   5.441544e-03
  3.204056e+00    4.384664e-01   5.506747e-03
  3.206267e+00    4.337595e-01   5.477956e-03
  3.208477e+00    4.324068e-01   5.470328e-03
  3.210688e+00    4.414998e-01   5.528396e-03
  3.212898e+00    4.355399e-01   5.491555e-03
  3.215109e+00    4.205061e-01   5.396670e-03
  3.217319e+00    4.237852e-01   5.418298e-03
  3.219530e+00    4.367210e-01   5.500756e-03
  3.221740e+00    4.389336e-01   5.515269e-03
  3.223951e+00    4.185975e-01   5.386442e-03
  3.226161e+00    4.292284e-01   5.454590e-03
  3.228372e+00    4.235267e-01   5.418777e-03
  3.230582e+00    4.266224e-01   5.438675e-03
  3.232792e+00    4.336802e-01   5.483697e-03
  3.235003e+00    4.362811e-01   5.500380e-03
  3.237213e+00    4.253766e-01   5.431319e-03
  3.239424e+00    4.154257e-01   5.367380e-03
  3.241634e+00    4.258625e-01   5.434532e-03
  3.243845e+00    4.210870e-01   5.404037e-03
  3.246055e+00    4.252400e-01   5.430362e-03
  3.248266e+00    4.232724e-01   5.417970e-03
  3.250476e+00    4.233370e-01   5.418096e-03
  3.252687e+00    4.163293e-01   5.372965e-03
  3.254897e+00    4.251363e-01   5.429384e-03
  3.257107e+00    4.286345e-01   5.451375e-03
  3.259318e+00    4.186280e-01   5.387137e-03
  3.261528e+00    4.220563e-01   5.408993e-03
  3.263739e+00    4.332934e-01   5.479970e-03
  3.265949e+00    4.264027e-01   5.436096e-03
  3.268160e+00    4.303241e-01   5.460640e-03
  3.270370e+00    4.193596e-01   5.390088e-03
  3.272581e+00    4.360982e-01   5.496339e-03
  3.274791e+00    4.334673e-01   5.479199e-03
  3.277002e+00    4.321164e-01   5.470093e-03
  3.279212e+00    4.308825e-01   5.461893e-03
  3.281422e+00    4.280627e-01   5.443409e-03
  3.283633e+00    4.271370e-01   5.436840e-03
  3.285843e+00    4.327267e-01   5.471961e-03
  3.288054e+00    4.338579e-01   5.478159e-03
  3.290264e+00    4.121669e-01   5.339157e-03
  3.292475e+00    4.199765e-01   5.388661e-03
  3.294685e+00    4.207348e-01   5.392907e-03
  3.296896e+00    4.105066e-01   5.326178e-03
  3.299106e+00    4.296688e-01   5.448532e-03
  3.301317e+00    4.266692e-01   5.428442e-03
  3.303527e+00    4.192863e-01   5.380826e-03
  3.305737e+00    4.119404e-01   5.332425e-03
  3.307948e+00    4.208720e-01   5.389268e-03
  3.310158e+00    4.249878e-01   5.414698e-03
  3.312369e+00    4.254235e-01   5.416592e-03
  3.314579e+00    4.340011e-01   5.469999e-03
  3.316790e+00    4.313500e-01   5.452558e-03
  3.319000e+00    4.340544e-01   5.468420e-03
  3.321211e+00    4.354503e-01   5.476578e-03
  3.323421e+00    4.361092e-01   5.479528e-03
  3.325632e+00    4.079302e-01   5.298645e-03
  3.327842e+00    4.127095e-01   5.328696e-03
  3.330052e+00    4.271127e-01   5.419796e-03
  3.332263e+00    4.298126e-01   5.435897e-03
  3.334473e+00    4.156392e-01   5.344594e-03
  3.336684e+00    4.304451e-01   5.437681e-03
  3.338894e+00    4.292874e-01   5.429519e-03
  3.341105e+00    4.195633e-01   5.366468e-03
  3.343315e+00    4.173883e-01   5.351396e-03
  3.345526e+00    4.262171e-01   5.406803e-03
  3.347736e+00    4.165012e-01   5.343402e-03
  3.349947e+00    4.196332e-01   5.362541e-03
  3.352157e+00    4.183472e-01   5.353119e-03
  3.354368e+00    4.217798e-01   5.373776e-03
  3.356578e+00    4.287836e-01   5.417143e-03
  3.358788e+00    4.308789e-01   5.429027e-03
  3.360999e+00    4.410338e-01   5.491358e-03
  3.363209e+00    4.263980e-01   5.398444e-03
  3.365420e+00    4.259198e-01   5.393882e-03
  3.367630e+00    4.331490e-01   5.438428e-03
  3.369841e+00    4.225612e-01   5.370130e-03
  3.372051e+00    4.205497e-01   5.355337e-03
  3.374262e+00    4.244377e-01   5.377565e-03
  3.376472e+00    4.274780e-01   5.394309e-03
  3.378683e+00    4.232710e-01   5.365196e-03
  3.380893e+00    4.270548e-01   5.386738e-03
  3.383103e+00    4.160888e-01   5.314423e-03
  3.385314e+00    4.173748e-01   5.320413e-03
  3.387524e+00    4.077566e-01   5.256006e-03
  3.389735e+00    4.062875e-01   5.243967e-03
  3.391945e+00    4.030213e-01   5.219176e-03
  3.394156e+00    4.174998e-01   5.307869e-03
  3.396366e+00    4.113930e-01   5.265517e-03
  3.398577e+00    3.998520e-01   5.188114e-03
  3.400787e+00    4.312538e-01   5.400186e-03
  3.402998e+00    4.171555e-01   5.349588e-03
  3.405208e+00    4.052602e-01   5.293424e-03
  3.407418e+00    3.907376e-01   5.213282e-03
  3.409629e+00    3.940791e-01   5.249373e-03
  3.411839e+00    3.867639e-01   5.212007e-03
  3.414050e+00    3.904828e-01   5.247903e-03
  3.416260e+00    4.080859e-01   5.374686e-03
  3.418471e+00    4.053639e-01   5.366311e-03
  3.420681e+00    3.877753e-01   5.257047e-03
  3.422892e+00    3.656262e-01   5.112429e-03
  3.425102e+00    3.722202e-01   5.165954e-03
  3.427313e+00    3.794529e-01   5.223010e-03
  3.429523e+00    3.923115e-01   5.317882e-03
  3.431733e+00    3.804513e-01   5.243510e-03
  3.433944e+00    3.819022e-01   5.259958e-03
  3.436154e+00    3.739026e-01   5.210726e-03
  3.438365e+00    3.724779e-01   5.206672e-03
  3.440575e+00    3.823596e-01   5.281190e-03
  3.442786e+00    3.782643e-01   5.258467e-03
  3.444996e+00    3.822917e-01   5.291917e-03
  3.447207e+00    3.447590e-01   5.030514e-03
  3.449417e+00    3.538352e-01   5.136109e-03
  3.451628e+00    3.665490e-01   5.256935e-03
  3.453838e+00    3.565155e-01   5.205318e-03
  3.456049e+00    3.609652e-01   5.261403e-03
  3.458259e+00    3.664084e-01   5.322858e-03
  3.460469e+00    3.617632e-01   5.308678e-03
  3.462680e+00    3.633246e-01   5.339093e-03
  3.464890e+00    3.671156e-01   5.384713e-03
  3.467101e+00    3.615414e-01   5.360986e-03
  3.469311e+00    3.739967e-01   5.469168e-03
  3.471522e+00    3.737988e-01   5.484112e-03
  3.473732e+00    3.891842e-01   5.611981e-03
  3.475943e+00    3.882551e-01   5.621104e-03
  3.478153e+00    3.977123e-01   5.704800e-03
  3.480364e+00    4.191095e-01   5.871861e-03
  3.482574e+00    4.311038e-01   5.971154e-03
  3.484784e+00    4.236254e-01   5.934252e-03
  3.486995e+00    4.310724e-01   6.001545e-03
  3.489205e+00    4.331537e-01   6.030870e-03
  3.491416e+00    4.301890e-01   6.025153e-03
  3.493626e+00    4.439914e-01   6.135785e-03
  3.495837e+00    4.408412e-01   6.128748e-03
  3.498047e+00    4.620685e-01   6.289331e-03
  3.500258e+00    4.711275e-01   6.365554e-03
  3.502468e+00    4.820397e-01   6.453738e-03
  3.504679e+00    4.754690e-01   6.424321e-03
  3.506889e+00    4.772897e-01   6.451237e-03
  3.509099e+00    4.646645e-01   6.379567e-03
  3.511310e+00    4.846327e-01   6.529807e-03
  3.513520e+00    5.046908e-01   6.678300e-03
  3.515731e+00    4.971053e-01   6.642489e-03
  3.517941e+00    4.995279e-01   6.673157e-03
  3.520152e+00    5.123986e-01   6.773118e-03
  3.522362e+00    5.189846e-01   6.831287e-03
  3.524573e+00    5.167823e-01   6.831200e-03
  3.526783e+00    5.220596e-01   6.879469e-03
  3.528994e+00    5.299423e-01   6.943633e-03
  3.531204e+00    5.293539e-01   6.952319e-03
  3.533414e+00    5.310546e-01   6.975621e-03
  3.535625e+00    5.205578e-01   6.918630e-03
  3.537835e+00    5.298714e-01   6.992319e-03
  3.540046e+00    5.303822e-01   7.004576e-03
  3.542256e+00    5.262229e-01   6.984536e-03
  3.544467e+00    5.394756e-01   7.079555e-03
  3.546677e+00    5.442029e-01   7.118188e-03
  3.548888e+00    5.469671e-01   7.143775e-03
  3.551098e+00    5.500247e-01   7.171127e-03
  3.553309e+00    5.420946e-01   7.127433e-03
  3.555519e+00    5.493301e-01   7.186293e-03
  3.557729e+00    5.352011e-01   7.104984e-03
  3.559940e+00    5.456409e-01   7.185590e-03
  3.562150e+00    5.402796e-01   7.161974e-03
  3.564361e+00    5.389881e-01   7.166742e-03
  3.566571e+00    5.378221e-01   7.172865e-03
  3.568782e+00    5.446198e-01   7.232259e-03
  3.570992e+00    5.397093e-01   7.213401e-03
  3.573203e+00    5.267813e-01   7.140503e-03
  3.575413e+00    5.343538e-01   7.205394e-03
  3.577624e+00    5.401070e-01   7.258252e-03
  3.579834e+00    5.406758e-01   7.276011e-03
  3.582045e+00    5.413534e-01   7.294686e-03
  3.584255e+00    5.352807e-01   7.267701e-03
  3.586465e+00    5.229031e-01   7.196938e-03
  3.588676e+00    5.158424e-01   7.162117e-03
  3.590886e+00    5.199915e-01   7.204345e-03
  3.593097e+00    5.315426e-01   7.298361e-03
  3.595307e+00    5.401177e-01   7.370991e-03
  3.597518e+00    5.158976e-01   7.217812e-03
  3.599728e+00    5.222074e-01   7.275699e-03
  3.601939e+00    5.404580e-01   7.415864e-03
  3.604149e+00    5.417839e-01   7.439486e-03
  3.606360e+00    5.474650e-01   7.492653e-03
  3.608570e+00    5.398694e-01   7.454745e-03
  3.610780e+00    5.378163e-01   7.451634e-03
  3.612991e+00    5.360231e-01   7.449234e-03
  3.615201e+00    5.360349e-01   7.459126e-03
  3.617412e+00    5.387631e-01   7.485365e-03
  3.619622e+00    5.181046e-01   7.346321e-03
  3.621833e+00    5.369274e-01   7.485293e-03
  3.624043e+00    5.346970e-01   7.479265e-03
  3.626254e+00    5.224042e-01   7.402389e-03
  3.628464e+00    5.192159e-01   7.390570e-03
  3.630675e+00    5.308106e-01   7.486688e-03
  3.632885e+00    5.367597e-01   7.543052e-03
  3.635095e+00    5.488746e-01   7.642277e-03
  3.637306e+00    5.218740e-01   7.466159e-03
  3.639516e+00    5.217679e-01   7.479753e-03
  3.641727e+00    5.353987e-01   7.591422e-03
  3.643937e+00    5.470774e-01   7.688528e-03
  3.646148e+00    5.318179e-01   7.595144e-03
  3.648358e+00    5.300062e-01   7.597005e-03
  3.650569e+00    5.251528e-01   7.576753e-03
  3.652779e+00    5.336871e-01   7.652835e-03
  3.654990e+00    5.440990e-01   7.742222e-03
  3.657200e+00    5.408358e-01   7.733950e-03
  3.659410e+00    5.504152e-01   7.817381e-03
  3.661621e+00    5.281052e-01   7.672381e-03
  3.663831e+00    5.194280e-01   7.624016e-03
  3.666042e+00    5.387088e-01   7.779448e-03
  3.668252e+00    5.482339e-01   7.863428e-03
  3.670463e+00    5.385295e-01   7.808905e-03
  3.672673e+00    5.219585e-01   7.703073e-03
  3.674884e+00    5.335197e-01   7.803360e-03
  3.677094e+00    5.253943e-01   7.759158e-03
  3.679305e+00    5.388344e-01   7.873428e-03
  3.681515e+00    5.395241e-01   7.894248e-03
  3.683726e+00    5.415697e-01   7.925148e-03
  3.685936e+00    5.491205e-01   7.996243e-03
  3.688146e+00    5.227411e-01   7.817527e-03
  3.690357e+00    5.061144e-01   7.707756e-03
  3.692567e+00    5.274612e-01   7.884775e-03
  3.694778e+00    5.304401e-01   7.923113e-03
  3.696988e+00    5.262654e-01   7.907898e-03
  3.699199e+00    4.921994e-01   7.663360e-03
  3.701409e+00    5.079869e-01   7.801390e-03
  3.703620e+00    5.064119e-01   7.805313e-03
  3.705830e+00    5.079606e-01   7.833365e-03
  3.708041e+00    5.370485e-01   8.071338e-03
  3.710251e+00    5.294343e-01   8.030715e-03
  3.712461e+00    5.349937e-01   8.089721e-03
  3.714672e+00    5.379329e-01   8.128907e-03
  3.716882e+00    5.418928e-01   8.175828e-03
  3.719093e+00    4.960924e-01   7.839415e-03
  3.721303e+00    5.056620e-01   7.931392e-03
  3.723514e+00    5.019044e-01   7.918815e-03
  3.725724e+00    5.186817e-01   8.067265e-03
  3.727935e+00    5.264986e-01   8.145441e-03
  3.730145e+00    5.123295e-01   8.052327e-03
  3.732356e+00    5.176785e-01   8.111819e-03
  3.734566e+00    5.277578e-01   8.208145e-03
  3.736776e+00    5.048313e-01   8.045486e-03
  3.738987e+00    5.189680e-01   8.175137e-03
  3.741197e+00    5.241969e-01   8.234463e-03
  3.743408e+00    5.173749e-01   8.198812e-03
  3.745618e+00    5.101846e-01   8.159908e-03
  3.747829e+00    5.079683e-01   8.160176e-03
  3.750039e+00    5.132303e-01   8.220728e-03
  3.752250e+00    5.019593e-01   8.148316e-03
  3.754460e+00    4.857984e-01   8.034145e-03
  3.756671e+00    4.953039e-01   8.130896e-03
  3.758881e+00    5.012397e-01   8.197960e-03
  3.761091e+00    4.961553e-01   8.175215e-03
  3.763302e+00    5.054225e-01   8.270202e-03
  3.765512e+00    5.157762e-01   8.373904e-03
  3.767723e+00    4.996686e-01   8.261310e-03
  3.769933e+00    5.125650e-01   8.386708e-03
  3.772144e+00    5.052348e-01   8.346112e-03
  3.774354e+00    5.086312e-01   8.393963e-03
  3.776565e+00    5.031660e-01   8.368625e-03
  3.778775e+00    4.937698e-01   8.309768e-03
  3.780986e+00    5.427082e-01   8.732963e-03
  3.783196e+00    5.104980e-01   8.490275e-03
  3.785407e+00    5.013597e-01   8.434261e-03
  3.787617e+00    5.173222e-01   8.588537e-03
  3.789827e+00    5.125000e-01   8.569170e-03
  3.792038e+00    4.961965e-01   8.452513e-03
  3.794248e+00    4.898616e-01   8.419232e-03
  3.796459e+00    5.128684e-01   8.636337e-03
  3.798669e+00    4.976210e-01   8.528284e-03
  3.800880e+00    5.053726e-01   8.615986e-03
  3.803090e+00    5.173989e-01   8.740118e-03
  3.805301e+00    4.975296e-01   8.592648e-03
  3.807511e+00    4.957425e-01   8.599111e-03
  3.809722e+00    5.309054e-01   8.921806e-03
  3.811932e+00    5.038641e-01   8.713959e-03
  3.814142e+00    5.182056e-01   8.860344e-03
  3.816353e+00    5.142640e-01   8.849841e-03
  3.818563e+00    4.859492e-01   8.625528e-03
  3.820774e+00    4.934216e-01   8.714619e-03
  3.822984e+00    4.898333e-01   8.706083e-03
  3.825195e+00    5.006187e-01   8.825187e-03
  3.827405e+00    5.072172e-01   8.907286e-03
  3.829616e+00    4.985509e-01   8.854957e-03
  3.831826e+00    4.881958e-01   8.786445e-03
  3.834037e+00    5.133047e-01   9.034452e-03
  3.836247e+00    5.107821e-01   9.037253e-03
  3.838457e+00    5.151352e-01   9.101213e-03
  3.840668e+00    5.028363e-01   9.017211e-03
  3.842878e+00    5.243832e-01   9.234671e-03
  3.845089e+00    5.161834e-01   9.188280e-03
  3.847299e+00    4.924209e-01   9.000001e-03
  3.849510e+00    5.086321e-01   9.173165e-03
  3.851720e+00    5.072054e-01   9.181911e-03
  3.853931e+00    5.160615e-01   9.281174e-03
  3.856141e+00    5.017779e-01   9.170937e-03
  3.858352e+00    5.007125e-01   9.180645e-03
  3.860562e+00    4.854484e-01   9.058718e-03
  3.862772e+00    5.003095e-01   9.216007e-03
  3.864983e+00    5.030650e-01   9.261284e-03
  3.867193e+00    4.801398e-01   9.067274e-03
  3.869404e+00    4.923763e-01   9.201865e-03
  3.871614e+00    5.099233e-01   9.384676e-03
  3.873825e+00    4.946617e-01   9.263576e-03
  3.876035e+00    4.980875e-01   9.316250e-03
  3.878246e+00    4.840248e-01   9.209355e-03
  3.880456e+00    4.977078e-01   9.367772e-03
  3.882667e+00    4.669548e-01   9.102314e-03
  3.884877e+00    4.835960e-01   9.292549e-03
  3.887087e+00    4.940076e-01   9.422044e-03
  3.889298e+00    5.153834e-01   9.654879e-03
  3.891508e+00    5.139874e-01   9.673012e-03
  3.893719e+00    4.965656e-01   9.538906e-03
  3.895929e+00    5.258414e-01   9.848503e-03
  3.898140e+00    5.196482e-01   9.823074e-03
  3.900350e+00    5.054554e-01   9.720551e-03
  3.902561e+00    4.947953e-01   9.650050e-03
  3.904771e+00    4.755659e-01   9.493001e-03
  3.906982e+00    4.876696e-01   9.646093e-03
  3.909192e+00    5.149103e-01   9.946245e-03
  3.911403e+00    4.918771e-01   9.755308e-03
  3.913613e+00    5.032306e-01   9.902110e-03
  3.915823e+00    5.034050e-01   9.939048e-03
  3.918034e+00    4.894235e-01   9.835444e-03
  3.920244e+00    4.797849e-01   9.773515e-03
  3.922455e+00    4.900700e-01   9.913826e-03
  3.924665e+00    4.791362e-01   9.838711e-03
  3.926876e+00    5.133202e-01   1.022169e-02
  3.929086e+00    5.000206e-01   1.012628e-02
  3.931297e+00    4.976042e-01   1.013689e-02
  3.933507e+00    4.691374e-01   9.871155e-03
  3.935718e+00    4.748903e-01   9.959774e-03
  3.937928e+00    5.016490e-01   1.026644e-02
  3.940138e+00    4.985878e-01   1.026470e-02
  3.942349e+00    4.945445e-01   1.025315e-02
  3.944559e+00    4.980808e-01   1.031997e-02
  3.946770e+00    5.123120e-01   1.049746e-02
  3.948980e+00    4.836251e-01   1.022990e-02
  3.951191e+00    5.105474e-01   1.054236e-02
  3.953401e+00    4.829105e-01   1.028432e-02
  3.955612e+00    4.926940e-01   1.041979e-02
  3.957822e+00    4.927092e-01   1.045193e-02
  3.960033e+00    4.623253e-01   1.015626e-02
  3.962243e+00    4.883324e-01   1.047097e-02
  3.964453e+00    4.879872e-01   1.050048e-02
  3.966664e+00    5.009939e-01   1.067344e-02
  3.968874e+00    4.639912e-01   1.029942e-02
  3.971085e+00    5.023606e-01   1.073910e-02
  3.973295e+00    4.991101e-01   1.072613e-02
  3.975506e+00    4.820934e-01   1.056321e-02
  3.977716e+00    5.100878e-01   1.088815e-02
  3.979927e+00    4.892466e-01   1.068553e-02
  3.982137e+00    5.338392e-01   1.118523e-02
  3.984348e+00    5.162188e-01   1.102262e-02
  3.986558e+00    4.407862e-01   1.020658e-02
  3.988768e+00    4.776705e-01   1.064784e-02
  3.990979e+00    4.948097e-01   1.086023e-02
  3.993189e+00    4.608554e-01   1.050341e-02
  3.995400e+00    4.839163e-01   1.078656e-02
  3.997610e+00    4.935866e-01   1.092386e-02
  3.999821e+00    4.968376e-01   1.099776e-02
  4.002031e+00    4.781355e-01   1.082692e-02
  4.004242e+00    4.784170e-01   1.086843e-02
  4.006452e+00    4.510549e-01   1.059087e-02
  4.008663e+00    5.043389e-01   1.123990e-02
  4.010873e+00    4.793040e-01   1.099707e-02
  4.013084e+00    5.099307e-01   1.138497e-02
  4.015294e+00    4.871905e-01   1.116941e-02
  4.017504e+00    4.847378e-01   1.118308e-02
  4.019715e+00    4.724339e-01   1.108221e-02
  4.021925e+00    5.000150e-01   1.144471e-02
  4.024136e+00    5.088540e-01   1.159046e-02
  4.026346e+00    4.831076e-01   1.133737e-02
  4.028557e+00    4.868958e-01   1.142611e-02
  4.030767e+00    4.952373e-01   1.156993e-02
  4.032978e+00    4.851795e-01   1.149816e-02
  4.035188e+00    4.698760e-01   1.136080e-02
  4.037399e+00    5.046663e-01   1.182255e-02
  4.039609e+00    4.710160e-01   1.146872e-02
  4.041819e+00    4.695906e-01   1.149936e-02
  4.044030e+00    4.974133e-01   1.188586e-02
  4.046240e+00    4.569066e-01   1.144004e-02
  4.048451e+00    4.986772e-01   1.200324e-02
  4.050661e+00    4.946145e-01   1.200636e-02
  4.052872e+00    5.234081e-01   1.240587e-02
  4.055082e+00    4.607940e-01   1.169254e-02
  4.057293e+00    4.481213e-01   1.158229e-02
  4.059503e+00    4.871391e-01   1.213086e-02
  4.061714e+00    4.823519e-01   1.212777e-02
  4.063924e+00    4.608933e-01   1.191029e-02
  4.066134e+00    4.834495e-01   1.225584e-02
  4.068345e+00    4.329312e-01   1.165371e-02
  4.070555e+00    4.576250e-01   1.203912e-02
  4.072766e+00    4.957915e-01   1.259279e-02
  4.074976e+00    5.114146e-01   1.285353e-02
  4.077187e+00    4.894030e-01   1.263650e-02
  4.079397e+00    4.640658e-01   1.236778e-02
  4.081608e+00    4.718607e-01   1.253608e-02
  4.083818e+00    4.840072e-01   1.276242e-02
  4.086029e+00    4.721605e-01   1.267176e-02
  4.088239e+00    4.463788e-01   1.238719e-02
  4.090449e+00    4.931476e-01   1.309070e-02
  4.092660e+00    4.741306e-01   1.290622e-02
  4.094870e+00    4.847257e-01   1.312244e-02
  4.097081e+00    4.543807e-01   1.277462e-02
  4.099291e+00    5.009211e-01   1.346832e-02
  4.101502e+00    5.130918e-01   1.368171e-02
  4.103712e+00    5.245064e-01   1.388472e-02
  4.105923e+00    5.167348e-01   1.383494e-02
  4.108133e+00    4.713843e-01   1.326468e-02
  4.110344e+00    5.245299e-01   1.404609e-02
  4.112554e+00    4.826500e-01   1.352704e-02
  4.114764e+00    4.207323e-01   1.268017e-02
  4.116975e+00    4.917436e-01   1.376262e-02
  4.119185e+00    4.413891e-01   1.309191e-02
  4.121396e+00    4.727993e-01   1.360560e-02
  4.123606e+00    4.974896e-01   1.401360e-02
  4.125817e+00    5.281056e-01   1.449911e-02
  4.128027e+00    4.168393e-01   1.293549e-02
  4.130238e+00    4.791193e-01   1.392773e-02
  4.132448e+00    4.813303e-01   1.402047e-02
  4.134659e+00    4.943012e-01   1.426919e-02
  4.136869e+00    4.817375e-01   1.414958e-02
  4.139080e+00    4.675202e-01   1.400197e-02
  4.141290e+00    4.947381e-01   1.446756e-02
  4.143500e+00    4.889114e-01   1.444854e-02
  4.145711e+00    4.556955e-01   1.401437e-02
  4.147921e+00    4.450407e-01   1.391302e-02
  4.150132e+00    4.470131e-01   1.401020e-02
  4.152342e+00    4.821739e-01   1.462134e-02
  4.154553e+00    4.853837e-01   1.473977e-02
  4.156763e+00    4.959694e-01   1.497332e-02
  4.158974e+00    4.576536e-01   1.445571e-02
  4.161184e+00    4.846735e-01   1.494992e-02
  4.163395e+00    4.899686e-01   1.510837e-02
  4.165605e+00    4.605294e-01   1.472333e-02
  4.167815e+00    5.064197e-01   1.552015e-02
  4.170026e+00    5.079650e-01   1.562575e-02
  4.172236e+00    4.643885e-01   1.502150e-02
  4.174447e+00    4.466828e-01   1.481213e-02
  4.176657e+00    4.851829e-01   1.552180e-02
  4.178868e+00    4.647108e-01   1.527676e-02
  4.181078e+00    5.027542e-01   1.597941e-02
  4.183289e+00    5.054421e-01   1.611358e-02
  4.185499e+00    4.993333e-01   1.611053e-02
  4.187710e+00    5.014117e-01   1.623866e-02
  4.189920e+00    4.757363e-01   1.591264e-02
  4.192130e+00    4.964161e-01   1.635389e-02
  4.194341e+00    4.573293e-01   1.579350e-02
  4.196551e+00    4.749455e-01   1.619655e-02
  4.198762e+00    4.313787e-01   1.553392e-02
  4.200972e+00    4.720709e-01   1.635487e-02
  4.203183e+00    4.913793e-01   1.679628e-02
  4.205393e+00    5.494183e-01   1.787863e-02
  4.207604e+00    5.242499e-01   1.758385e-02
  4.209814e+00    4.507564e-01   1.641644e-02
  4.212025e+00    4.329304e-01   1.620248e-02
  4.214235e+00    5.161328e-01   1.781650e-02
  4.216445e+00    4.922154e-01   1.752456e-02
  4.218656e+00    4.524715e-01   1.692804e-02
  4.220866e+00    5.150186e-01   1.819413e-02
  4.223077e+00    5.119726e-01   1.827951e-02
  4.225287e+00    4.725143e-01   1.769939e-02
  4.227498e+00    4.897339e-01   1.816028e-02
  4.229708e+00    4.230416e-01   1.701557e-02
  4.231919e+00    4.398300e-01   1.749351e-02
  4.234129e+00    5.040292e-01   1.888384e-02
  4.236340e+00    4.643969e-01   1.828131e-02
  4.238550e+00    4.861900e-01   1.887044e-02
  4.240761e+00    5.116913e-01   1.953004e-02
  4.242971e+00    4.889713e-01   1.926635e-02
  4.245181e+00    4.382245e-01   1.841056e-02
  4.247392e+00    4.666859e-01   1.917681e-02
  4.249602e+00    4.515834e-01   1.905111e-02
  4.251813e+00    4.589401e-01   1.939501e-02
  4.254023e+00    4.448730e-01   1.928824e-02
  4.256234e+00    4.158477e-01   1.884718e-02
  4.258444e+00    4.605802e-01   2.004286e-02
  4.260655e+00    4.035134e-01   1.896625e-02
  4.262865e+00    4.439710e-01   2.011991e-02
  4.265076e+00    4.435438e-01   2.033917e-02
  4.267286e+00    4.603888e-01   2.096707e-02
  4.269496e+00    5.383816e-01   2.295086e-02
  4.271707e+00    4.641638e-01   2.157314e-02
  4.273917e+00    5.330736e-01   2.341824e-02
  4.276128e+00    5.040411e-01   2.307425e-02
  4.278338e+00    4.773467e-01   2.275493e-02
  4.280549e+00    4.991034e-01   2.360088e-02
  4.282759e+00    4.760940e-01   2.338167e-02
  4.284970e+00    5.390261e-01   2.524757e-02
  4.287180e+00    5.587839e-01   2.601435e-02
  4.289391e+00    4.326856e-01   2.306365e-02
  4.291601e+00    4.582092e-01   2.392344e-02
  4.293811e+00    4.634254e-01   2.424691e-02
  4.296022e+00    5.169563e-01   2.581534e-02
  4.298232e+00    4.619040e-01   2.460657e-02
  4.300443e+00    4.498213e-01   2.448265e-02
  4.302653e+00    4.668478e-01   2.515759e-02
  4.304864e+00    4.700698e-01   2.546283e-02
  4.307074e+00    5.421517e-01   2.759223e-02
  4.309285e+00    4.947972e-01   2.659813e-02
  4.311495e+00    5.135645e-01   2.735149e-02
  4.313706e+00    4.583053e-01   2.608103e-02
  4.315916e+00    3.938609e-01   2.441631e-02
  4.318126e+00    4.207482e-01   2.548479e-02
  4.320337e+00    4.867360e-01   2.768774e-02
  4.322547e+00    4.811350e-01   2.782086e-02
  4.324758e+00    5.004358e-01   2.866761e-02
  4.326968e+00    4.289059e-01   2.683958e-02
  4.329179e+00    4.691944e-01   2.838031e-02
  4.331389e+00    4.342185e-01   2.761719e-02
  4.333600e+00    4.321559e-01   2.788020e-02
  4.335810e+00    4.630177e-01   2.920210e-02
  4.338021e+00    4.125336e-01   2.791693e-02
  4.340231e+00    4.490067e-01   2.948958e-02
  4.342442e+00    5.213430e-01   3.220339e-02
  4.344652e+00    3.658015e-01   2.734172e-02
  4.346862e+00    4.028223e-01   2.909322e-02
  4.349073e+00    4.813795e-01   3.226742e-02
  4.351283e+00    3.600520e-01   2.832297e-02
  4.353494e+00    3.469685e-01   2.823200e-02
  4.355704e+00    4.648548e-01   3.320545e-02
  4.357915e+00    3.930881e-01   3.104359e-02
  4.360125e+00    4.356551e-01   3.323685e-02
  4.362336e+00    5.466877e-01   3.791243e-02
  4.364546e+00    5.559536e-01   3.892839e-02
  4.366757e+00    5.955113e-01   4.109220e-02
  4.368967e+00    3.705461e-01   3.305997e-02
  4.371177e+00    4.076850e-01   3.541445e-02
  4.373388e+00    4.945363e-01   3.987519e-02
  4.375598e+00    5.827982e-01   4.427678e-02
  4.377809e+00    5.358405e-01   4.353003e-02
  4.380019e+00    4.732605e-01   4.193830e-02
  4.382230e+00    3.686315e-01   3.804459e-02
  4.384440e+00    5.665028e-01   4.852279e-02
  4.386651e+00    5.392848e-01   4.879992e-02
  4.388861e+00    5.619794e-01   5.149003e-02
  4.391072e+00    3.575937e-01   4.251439e-02
  4.393282e+00    3.604476e-01   4.433578e-02
  4.395492e+00    6.202511e-01   6.057395e-02
  4.397703e+00    6.478920e-01   6.474023e-02
  4.399913e+00    5.922060e-01   6.502707e-02
  4.402124e+00    3.438009e-01   5.235568e-02
  4.404334e+00    4.073201e-01   6.057867e-02
  4.406545e+00    2.308486e-01   4.899574e-02
  4.408755e+00    3.765190e-01   6.786222e-02
  4.410966e+00    5.978981e-01   9.464820e-02
  4.413176e+00    3.559019e-01   8.266073e-02
  4.415387e+00   -2.459277e-01            nan
  4.417597e+00   -1.582919e+00            nan
  4.419807e+00    1.372970e-01   1.330704e-01
