# == pyFAI calibration ==
# Distance Sample to Detector: 0.216 m
# PONI: 1.166e-01, 1.308e-01 m
# Rotations: 0.000000 0.000000 0.000000 rad
# 
# == Fit2d calibration ==
# Distance Sample-beamCenter: 216.000 mm
# Center: x=1744.293, y=1555.000 pix
# Tilt: 0.000 deg  TiltPlanRot: 0.000 deg
# 
# Detector Eiger 9M	 PixelSize= 7.500e-05, 7.500e-05 m
#    Detector has a mask: True 
#    Detector has a dark current: False 
#    detector has a flat field: False 
# 
# Wavelength: 9.8e-11 m
# Mask applied: from detector
# Dark current applied: False
# Flat field applied: False
# Polarization factor: None
# Normalization factor: 1.0
# 
# Headers of the input frame:
# {
# "_array_data.header_convention": "SLS_1.0",
# "_array_data.header_contents": "# Detector: Dectris Eiger 9M, S/N E-18-0102\r\n# Pixel_size 75e-6 m x 75e-6 m\r\n# Silicon sensor, thickness 0.000450 m\r\n# Exposure_time 0.024997 s\r\n# Exposure_period 0.025000 s\r\n# Count_cutoff 62318 counts\r\n# Wavelength 0.980106 A\r\n# Detector_distance 0.215992 m\r\n# Beam_xy (1555, 1744) pixels\r\n# Start_angle 0.000000 deg.\r\n# Angle_increment 0.000000 deg.",
# "Content-Type": "application/octet-stream;",
# "conversions": "x-CBF_BYTE_OFFSET",
# "Content-Transfer-Encoding": "BINARY",
# "X-Binary-Size": "10166602",
# "X-Binary-ID": "1",
# "X-Binary-Element-Type": "signed 32-bit integer",
# "X-Binary-Element-Byte-Order": "LITTLE_ENDIAN",
# "Content-MD5": "fXLMtsI+vt/1wC9xEReHYQ==",
# "X-Binary-Number-of-Elements": "10166590",
# "X-Binary-Size-Fastest-Dimension": "3110",
# "X-Binary-Size-Second-Dimension": "3269",
# "X-Binary-Size-Padding": "4095"
# }
# --> H:/Proxima2a_2019-04-05/RAW_DATA/C5_gel17_position5/C5_mesh_1_data.cbf/C5_mesh_1_data.cbf000076.dat
#        q_A^-1              I           sigma 
  1.105228e-03    6.887794e-01   4.490834e-01
  3.315685e-03    1.530095e+00   4.069158e-01
  5.526141e-03    1.171901e+00   2.753706e-01
  7.736597e-03    1.122387e+00   2.276625e-01
  9.947054e-03    1.389897e+00   2.233407e-01
  1.215751e-02    1.546109e+00   2.130044e-01
  1.436797e-02    1.503765e+00   1.932261e-01
  1.657842e-02    1.349853e+00   1.704071e-01
  1.878888e-02    1.386629e+00   1.622346e-01
  2.099934e-02    1.589039e+00   1.643120e-01
  2.320979e-02    1.617139e+00   1.576545e-01
  2.542025e-02    1.510052e+00   1.455813e-01
  2.763070e-02    1.312032e+00   1.301555e-01
  2.984116e-02    1.530950e+00   1.352873e-01
  3.205162e-02    1.416182e+00   1.255584e-01
  3.426207e-02    1.332926e+00   1.178088e-01
  3.647253e-02    1.358304e+00   1.152625e-01
  3.868299e-02    1.423425e+00   1.145811e-01
  4.089344e-02    1.377283e+00   1.096206e-01
  4.310390e-02    1.451061e+00   1.095890e-01
  4.531436e-02    1.419619e+00   1.057187e-01
  4.752481e-02    1.313949e+00   9.931350e-02
  4.973527e-02    1.372526e+00   9.922293e-02
  5.194572e-02    1.253401e+00   9.277866e-02
  5.415618e-02    1.241147e+00   9.041704e-02
  5.636664e-02    1.392810e+00   9.388822e-02
  5.857709e-02    1.411826e+00   9.272675e-02
  6.078755e-02    1.454046e+00   9.237330e-02
  6.299801e-02    1.460026e+00   9.092364e-02
  6.520846e-02    1.314054e+00   8.478467e-02
  6.741892e-02    1.396369e+00   8.595080e-02
  6.962938e-02    1.495257e+00   8.752340e-02
  7.183983e-02    1.497457e+00   8.622820e-02
  7.405029e-02    1.544172e+00   8.624402e-02
  7.626074e-02    1.585876e+00   8.612416e-02
  7.847120e-02    1.568408e+00   8.443130e-02
  8.068166e-02    1.637351e+00   8.507641e-02
  8.289211e-02    1.486595e+00   7.997663e-02
  8.510257e-02    1.449107e+00   7.792909e-02
  8.731303e-02    1.519465e+00   7.877891e-02
  8.952348e-02    1.559085e+00   7.881021e-02
  9.173394e-02    1.565813e+00   7.801962e-02
  9.394439e-02    1.496249e+00   7.536179e-02
  9.615485e-02    1.486588e+00   7.424805e-02
  9.836531e-02    1.534682e+00   7.458501e-02
  1.005758e-01    1.598337e+00   7.527548e-02
  1.027862e-01    1.565805e+00   7.369818e-02
  1.049967e-01    1.504640e+00   7.147865e-02
  1.072071e-01    1.478347e+00   7.011630e-02
  1.094176e-01    1.538725e+00   7.080645e-02
  1.116280e-01    1.611849e+00   7.174670e-02
  1.138385e-01    1.617789e+00   7.117610e-02
  1.160490e-01    1.542920e+00   6.884364e-02
  1.182594e-01    1.624545e+00   6.997633e-02
  1.204699e-01    1.576904e+00   6.830671e-02
  1.226803e-01    1.499562e+00   6.600497e-02
  1.248908e-01    1.542308e+00   6.634330e-02
  1.271012e-01    1.518929e+00   6.526226e-02
  1.293117e-01    1.672112e+00   6.788540e-02
  1.315222e-01    1.628579e+00   6.642899e-02
  1.337326e-01    1.573795e+00   6.475893e-02
  1.359431e-01    1.545437e+00   6.421041e-02
  1.381535e-01    1.519590e+00   6.452587e-02
  1.403640e-01    1.520944e+00   6.483334e-02
  1.425744e-01    1.557483e+00   6.571227e-02
  1.447849e-01    1.550901e+00   6.558840e-02
  1.469953e-01    1.542207e+00   6.536334e-02
  1.492058e-01    1.510623e+00   6.461538e-02
  1.514163e-01    1.586798e+00   6.611454e-02
  1.536267e-01    1.635941e+00   6.699942e-02
  1.558372e-01    1.695373e+00   6.805500e-02
  1.580476e-01    1.683047e+00   6.764263e-02
  1.602581e-01    1.741108e+00   6.862475e-02
  1.624685e-01    1.704273e+00   6.770908e-02
  1.646790e-01    1.653114e+00   6.649362e-02
  1.668895e-01    1.613540e+00   6.550317e-02
  1.690999e-01    1.722344e+00   6.747238e-02
  1.713104e-01    1.784335e+00   6.846280e-02
  1.735208e-01    1.825328e+00   6.902941e-02
  1.757313e-01    1.831142e+00   6.892259e-02
  1.779417e-01    1.880628e+00   6.961986e-02
  1.801522e-01    2.003399e+00   7.162756e-02
  1.823626e-01    2.009800e+00   7.150307e-02
  1.845731e-01    1.959755e+00   7.037851e-02
  1.867836e-01    1.999006e+00   7.083993e-02
  1.889940e-01    1.945874e+00   6.966376e-02
  1.912045e-01    1.952315e+00   6.954595e-02
  1.934149e-01    1.947059e+00   6.921981e-02
  1.956254e-01    2.043814e+00   7.068492e-02
  1.978358e-01    1.994716e+00   6.959146e-02
  2.000463e-01    1.970492e+00   6.893839e-02
  2.022568e-01    1.973080e+00   6.875721e-02
  2.044672e-01    1.980510e+00   6.865056e-02
  2.066777e-01    2.003377e+00   6.881657e-02
  2.088881e-01    1.947519e+00   6.762845e-02
  2.110986e-01    2.036659e+00   6.892166e-02
  2.133090e-01    1.986265e+00   6.784240e-02
  2.155195e-01    2.089617e+00   6.935420e-02
  2.177300e-01    2.068336e+00   6.845811e-02
  2.199404e-01    2.018985e+00   6.585425e-02
  2.221509e-01    1.997343e+00   6.442479e-02
  2.243613e-01    1.961665e+00   6.303740e-02
  2.265718e-01    2.067818e+00   6.400714e-02
  2.287822e-01    2.111653e+00   6.404182e-02
  2.309927e-01    2.112504e+00   6.347119e-02
  2.332031e-01    2.179819e+00   6.392269e-02
  2.354136e-01    2.202359e+00   6.373158e-02
  2.376241e-01    2.179012e+00   6.290083e-02
  2.398345e-01    2.161601e+00   6.218537e-02
  2.420450e-01    2.183249e+00   6.204936e-02
  2.442554e-01    2.167111e+00   6.139370e-02
  2.464659e-01    2.183075e+00   6.120573e-02
  2.486763e-01    2.128465e+00   6.003808e-02
  2.508868e-01    2.091832e+00   5.914370e-02
  2.530973e-01    2.150461e+00   5.959503e-02
  2.553077e-01    2.182390e+00   5.967165e-02
  2.575182e-01    2.121080e+00   5.847945e-02
  2.597286e-01    2.125027e+00   5.819359e-02
  2.619391e-01    2.113354e+00   5.769939e-02
  2.641495e-01    2.045161e+00   5.644672e-02
  2.663600e-01    2.090840e+00   5.675974e-02
  2.685704e-01    2.023080e+00   5.552978e-02
  2.707809e-01    2.085604e+00   5.608207e-02
  2.729914e-01    2.040435e+00   5.518237e-02
  2.752018e-01    2.015662e+00   5.456089e-02
  2.774123e-01    1.976530e+00   5.375269e-02
  2.796227e-01    1.937262e+00   5.295281e-02
  2.818332e-01    1.996130e+00   5.348319e-02
  2.840436e-01    2.011467e+00   5.342802e-02
  2.862541e-01    2.022851e+00   5.332145e-02
  2.884646e-01    2.007680e+00   5.286902e-02
  2.906750e-01    1.933309e+00   5.163457e-02
  2.928855e-01    1.968584e+00   5.186204e-02
  2.950959e-01    2.030453e+00   5.242878e-02
  2.973064e-01    1.996318e+00   5.175257e-02
  2.995168e-01    1.945521e+00   5.085849e-02
  3.017273e-01    1.951980e+00   5.071826e-02
  3.039377e-01    1.959257e+00   5.059021e-02
  3.061482e-01    1.953855e+00   5.030187e-02
  3.083587e-01    1.920172e+00   4.965056e-02
  3.105691e-01    1.920765e+00   4.944612e-02
  3.127796e-01    1.947832e+00   4.958394e-02
  3.149900e-01    1.950333e+00   4.940905e-02
  3.172005e-01    1.983773e+00   4.962705e-02
  3.194109e-01    1.884500e+00   4.816975e-02
  3.216214e-01    1.879692e+00   4.791192e-02
  3.238319e-01    1.922987e+00   4.826857e-02
  3.260423e-01    1.911928e+00   4.793787e-02
  3.282528e-01    1.923238e+00   4.788805e-02
  3.304632e-01    1.887999e+00   4.726349e-02
  3.326737e-01    1.914165e+00   4.740418e-02
  3.348841e-01    1.906544e+00   4.712627e-02
  3.370946e-01    1.887735e+00   4.671681e-02
  3.393050e-01    1.853216e+00   4.611237e-02
  3.415155e-01    1.866843e+00   4.610758e-02
  3.437260e-01    1.882173e+00   4.612490e-02
  3.459364e-01    1.921089e+00   4.642694e-02
  3.481469e-01    1.892650e+00   4.591380e-02
  3.503573e-01    1.861007e+00   4.536251e-02
  3.525678e-01    1.841109e+00   4.495857e-02
  3.547782e-01    1.834764e+00   4.471880e-02
  3.569887e-01    1.805349e+00   4.420173e-02
  3.591992e-01    1.796986e+00   4.394317e-02
  3.614096e-01    1.813252e+00   4.398858e-02
  3.636201e-01    1.828909e+00   4.402280e-02
  3.658305e-01    1.838190e+00   4.398385e-02
  3.680410e-01    1.749945e+00   4.276750e-02
  3.702514e-01    1.817736e+00   4.344141e-02
  3.724619e-01    1.859475e+00   4.378774e-02
  3.746724e-01    1.788125e+00   4.279615e-02
  3.768828e-01    1.812826e+00   4.294573e-02
  3.790933e-01    1.742718e+00   4.196990e-02
  3.813037e-01    1.814379e+00   4.268401e-02
  3.835142e-01    1.776800e+00   4.210095e-02
  3.857246e-01    1.795574e+00   4.218579e-02
  3.879351e-01    1.848244e+00   4.266152e-02
  3.901455e-01    1.813481e+00   4.212388e-02
  3.923560e-01    1.799133e+00   4.182355e-02
  3.945665e-01    1.804361e+00   4.175147e-02
  3.967769e-01    1.816829e+00   4.176425e-02
  3.989874e-01    1.818166e+00   4.164916e-02
  4.011978e-01    1.789444e+00   4.119183e-02
  4.034083e-01    1.758912e+00   4.071350e-02
  4.056187e-01    1.797307e+00   4.102871e-02
  4.078292e-01    1.821433e+00   4.117816e-02
  4.100397e-01    1.826621e+00   4.111087e-02
  4.122501e-01    1.838319e+00   4.111889e-02
  4.144606e-01    1.850850e+00   4.113647e-02
  4.166710e-01    1.793589e+00   4.037473e-02
  4.188815e-01    1.836303e+00   4.073197e-02
  4.210919e-01    1.876794e+00   4.105793e-02
  4.233024e-01    1.834116e+00   4.046902e-02
  4.255128e-01    1.823553e+00   4.023568e-02
  4.277233e-01    1.807225e+00   3.994006e-02
  4.299338e-01    1.800354e+00   3.974935e-02
  4.321442e-01    1.797083e+00   3.959959e-02
  4.343547e-01    1.801100e+00   3.953173e-02
  4.365651e-01    1.765963e+00   3.903300e-02
  4.387756e-01    1.781412e+00   3.909360e-02
  4.409860e-01    1.792781e+00   3.910948e-02
  4.431965e-01    1.785217e+00   3.891899e-02
  4.454070e-01    1.774144e+00   3.869015e-02
  4.476174e-01    1.763541e+00   3.846846e-02
  4.498279e-01    1.779921e+00   3.854154e-02
  4.520383e-01    1.775519e+00   3.838822e-02
  4.542488e-01    1.789790e+00   3.843825e-02
  4.564592e-01    1.789300e+00   3.832989e-02
  4.586697e-01    1.752310e+00   3.783096e-02
  4.608801e-01    1.724885e+00   3.743320e-02
  4.630906e-01    1.728566e+00   3.737389e-02
  4.653011e-01    1.768229e+00   3.770085e-02
  4.675115e-01    1.733889e+00   3.723464e-02
  4.697220e-01    1.745792e+00   3.726441e-02
  4.719324e-01    1.751181e+00   3.722534e-02
  4.741429e-01    1.740730e+00   3.701847e-02
  4.763533e-01    1.692954e+00   3.641333e-02
  4.785638e-01    1.726216e+00   3.667432e-02
  4.807743e-01    1.721037e+00   3.652615e-02
  4.829847e-01    1.705906e+00   3.627335e-02
  4.851952e-01    1.709027e+00   3.621466e-02
  4.874056e-01    1.719316e+00   3.623191e-02
  4.896161e-01    1.702491e+00   3.596478e-02
  4.918265e-01    1.721150e+00   3.607152e-02
  4.940370e-01    1.679089e+00   3.554010e-02
  4.962475e-01    1.689405e+00   3.556105e-02
  4.984579e-01    1.710274e+00   3.569185e-02
  5.006684e-01    1.649765e+00   3.496930e-02
  5.028788e-01    1.713813e+00   3.555527e-02
  5.050893e-01    1.691549e+00   3.523767e-02
  5.072997e-01    1.692211e+00   3.515944e-02
  5.095102e-01    1.695771e+00   3.511210e-02
  5.117206e-01    1.698940e+00   3.506132e-02
  5.139311e-01    1.720135e+00   3.519586e-02
  5.161416e-01    1.673960e+00   3.463821e-02
  5.183520e-01    1.645075e+00   3.425645e-02
  5.205625e-01    1.638386e+00   3.410665e-02
  5.227729e-01    1.657008e+00   3.421991e-02
  5.249834e-01    1.722797e+00   3.481163e-02
  5.271938e-01    1.724549e+00   3.474806e-02
  5.294043e-01    1.755871e+00   3.498127e-02
  5.316148e-01    1.796115e+00   3.529887e-02
  5.338252e-01    1.775357e+00   3.501409e-02
  5.360357e-01    1.765823e+00   3.484044e-02
  5.382461e-01    1.765895e+00   3.476240e-02
  5.404566e-01    1.765654e+00   3.468093e-02
  5.426670e-01    1.709590e+00   3.404898e-02
  5.448775e-01    1.759387e+00   3.446414e-02
  5.470879e-01    1.763600e+00   3.442843e-02
  5.492984e-01    1.751484e+00   3.423369e-02
  5.515089e-01    1.734912e+00   3.399576e-02
  5.537193e-01    1.764554e+00   3.420943e-02
  5.559298e-01    1.777219e+00   3.425667e-02
  5.581402e-01    1.772359e+00   3.413505e-02
  5.603507e-01    1.808127e+00   3.440272e-02
  5.625611e-01    1.851490e+00   3.473727e-02
  5.647716e-01    1.840142e+00   3.455545e-02
  5.669821e-01    1.867006e+00   3.473174e-02
  5.691925e-01    1.857574e+00   3.456954e-02
  5.714030e-01    1.825974e+00   3.420116e-02
  5.736134e-01    1.808852e+00   3.396804e-02
  5.758239e-01    1.725909e+00   3.310931e-02
  5.780343e-01    1.706934e+00   3.285713e-02
  5.802448e-01    1.707260e+00   3.279149e-02
  5.824552e-01    1.677596e+00   3.243715e-02
  5.846657e-01    1.658672e+00   3.218646e-02
  5.868762e-01    1.654303e+00   3.207709e-02
  5.890866e-01    1.724298e+00   3.268073e-02
  5.912971e-01    1.665840e+00   3.205549e-02
  5.935075e-01    1.623677e+00   3.158180e-02
  5.957180e-01    1.663534e+00   3.190148e-02
  5.979284e-01    1.670083e+00   3.189898e-02
  6.001389e-01    1.677509e+00   3.190470e-02
  6.023494e-01    1.648539e+00   3.156381e-02
  6.045598e-01    1.615336e+00   3.118071e-02
  6.067703e-01    1.691374e+00   3.184198e-02
  6.089807e-01    1.702208e+00   3.187959e-02
  6.111912e-01    1.711751e+00   3.190500e-02
  6.134016e-01    1.667952e+00   3.143134e-02
  6.156121e-01    1.699880e+00   3.166768e-02
  6.178226e-01    1.701747e+00   3.162234e-02
  6.200330e-01    1.694612e+00   3.149372e-02
  6.222435e-01    1.714051e+00   3.161109e-02
  6.244539e-01    1.730433e+00   3.169961e-02
  6.266644e-01    1.719422e+00   3.153696e-02
  6.288748e-01    1.718765e+00   3.146955e-02
  6.310853e-01    1.715801e+00   3.138137e-02
  6.332957e-01    1.730233e+00   3.145223e-02
  6.355062e-01    1.716106e+00   3.126269e-02
  6.377167e-01    1.735232e+00   3.137613e-02
  6.399271e-01    1.735180e+00   3.131553e-02
  6.421376e-01    1.723374e+00   3.114925e-02
  6.443480e-01    1.726468e+00   3.111789e-02
  6.465585e-01    1.740557e+00   3.118541e-02
  6.487689e-01    1.702619e+00   3.078543e-02
  6.509794e-01    1.693875e+00   3.064836e-02
  6.531899e-01    1.643175e+00   3.012945e-02
  6.554003e-01    1.664572e+00   3.026796e-02
  6.576108e-01    1.627147e+00   2.987004e-02
  6.598212e-01    1.619980e+00   2.974882e-02
  6.620317e-01    1.620916e+00   2.970224e-02
  6.642421e-01    1.608242e+00   2.953116e-02
  6.664526e-01    1.617942e+00   2.956551e-02
  6.686630e-01    1.619538e+00   2.952540e-02
  6.708735e-01    1.633284e+00   2.959604e-02
  6.730840e-01    1.637408e+00   2.957937e-02
  6.752944e-01    1.624500e+00   2.940896e-02
  6.775049e-01    1.624511e+00   2.935567e-02
  6.797153e-01    1.596009e+00   2.904432e-02
  6.819258e-01    1.586105e+00   2.890183e-02
  6.841362e-01    1.641674e+00   2.935088e-02
  6.863467e-01    1.610641e+00   2.902009e-02
  6.885572e-01    1.594725e+00   2.882460e-02
  6.907676e-01    1.609108e+00   2.890240e-02
  6.929781e-01    1.628897e+00   2.902789e-02
  6.951885e-01    1.620480e+00   2.890153e-02
  6.973990e-01    1.600975e+00   2.867628e-02
  6.996094e-01    1.587830e+00   2.850806e-02
  7.018199e-01    1.575777e+00   2.834980e-02
  7.040303e-01    1.596554e+00   2.848597e-02
  7.062408e-01    1.595768e+00   2.842907e-02
  7.084513e-01    1.606040e+00   2.847082e-02
  7.106617e-01    1.611264e+00   2.846752e-02
  7.128722e-01    1.605156e+00   2.836438e-02
  7.150826e-01    1.558154e+00   2.789783e-02
  7.172931e-01    1.580031e+00   2.804455e-02
  7.195035e-01    1.583547e+00   2.802748e-02
  7.217140e-01    1.595428e+00   2.818221e-02
  7.239245e-01    1.584298e+00   2.831116e-02
  7.261349e-01    1.588914e+00   2.846148e-02
  7.283454e-01    1.585401e+00   2.850264e-02
  7.305558e-01    1.596320e+00   2.865500e-02
  7.327663e-01    1.562629e+00   2.839333e-02
  7.349767e-01    1.579683e+00   2.856423e-02
  7.371872e-01    1.638022e+00   2.907549e-02
  7.393976e-01    1.589442e+00   2.862681e-02
  7.416081e-01    1.550277e+00   2.825584e-02
  7.438186e-01    1.586260e+00   2.843701e-02
  7.460290e-01    1.588620e+00   2.816265e-02
  7.482395e-01    1.557901e+00   2.771876e-02
  7.504499e-01    1.577311e+00   2.775451e-02
  7.526604e-01    1.560152e+00   2.748712e-02
  7.548708e-01    1.564016e+00   2.743202e-02
  7.570813e-01    1.562137e+00   2.736477e-02
  7.592918e-01    1.577080e+00   2.746013e-02
  7.615022e-01    1.571474e+00   2.737751e-02
  7.637127e-01    1.581158e+00   2.742890e-02
  7.659231e-01    1.583226e+00   2.741473e-02
  7.681336e-01    1.604207e+00   2.756388e-02
  7.703440e-01    1.621484e+00   2.768025e-02
  7.725545e-01    1.574299e+00   2.724365e-02
  7.747650e-01    1.606848e+00   2.748524e-02
  7.769754e-01    1.585279e+00   2.724730e-02
  7.791859e-01    1.609060e+00   2.739683e-02
  7.813963e-01    1.630741e+00   2.752735e-02
  7.836068e-01    1.575364e+00   2.700410e-02
  7.858172e-01    1.564080e+00   2.685688e-02
  7.880277e-01    1.587780e+00   2.700812e-02
  7.902381e-01    1.611528e+00   2.715991e-02
  7.924486e-01    1.611028e+00   2.710541e-02
  7.946591e-01    1.606447e+00   2.701845e-02
  7.968695e-01    1.610727e+00   2.700602e-02
  7.990800e-01    1.643182e+00   2.722798e-02
  8.012904e-01    1.662626e+00   2.734123e-02
  8.035009e-01    1.651712e+00   2.720286e-02
  8.057113e-01    1.655735e+00   2.718887e-02
  8.079218e-01    1.613240e+00   2.679138e-02
  8.101323e-01    1.662349e+00   2.714992e-02
  8.123427e-01    1.644454e+00   2.695736e-02
  8.145532e-01    1.648013e+00   2.694036e-02
  8.167636e-01    1.637976e+00   2.681300e-02
  8.189741e-01    1.654950e+00   2.690666e-02
  8.211845e-01    1.625788e+00   2.662385e-02
  8.233950e-01    1.618232e+00   2.651871e-02
  8.256054e-01    1.649675e+00   2.673073e-02
  8.278159e-01    1.675458e+00   2.689434e-02
  8.300264e-01    1.678351e+00   2.687395e-02
  8.322368e-01    1.669308e+00   2.675791e-02
  8.344473e-01    1.677776e+00   2.678182e-02
  8.366577e-01    1.657429e+00   2.657610e-02
  8.388682e-01    1.648811e+00   2.646455e-02
  8.410786e-01    1.680856e+00   2.667789e-02
  8.432891e-01    1.656859e+00   2.644471e-02
  8.454996e-01    1.645342e+00   2.631092e-02
  8.477100e-01    1.621908e+00   2.608143e-02
  8.499205e-01    1.621472e+00   2.603697e-02
  8.521309e-01    1.631614e+00   2.607753e-02
  8.543414e-01    1.663814e+00   2.629251e-02
  8.565518e-01    1.665300e+00   2.626332e-02
  8.587623e-01    1.648683e+00   2.609125e-02
  8.609727e-01    1.660810e+00   2.614645e-02
  8.631832e-01    1.651388e+00   2.603197e-02
  8.653937e-01    1.645430e+00   2.594502e-02
  8.676041e-01    1.626353e+00   2.575529e-02
  8.698146e-01    1.616865e+00   2.564079e-02
  8.720250e-01    1.564529e+00   2.518396e-02
  8.742355e-01    1.589652e+00   2.534669e-02
  8.764459e-01    1.608306e+00   2.545608e-02
  8.786564e-01    1.670409e+00   2.590424e-02
  8.808669e-01    1.640010e+00   2.562854e-02
  8.830773e-01    1.622245e+00   2.545098e-02
  8.852878e-01    1.607695e+00   2.529859e-02
  8.874982e-01    1.631654e+00   2.544942e-02
  8.897087e-01    1.614396e+00   2.527663e-02
  8.919191e-01    1.615689e+00   2.524883e-02
  8.941296e-01    1.600418e+00   2.509193e-02
  8.963401e-01    1.622946e+00   2.523122e-02
  8.985505e-01    1.609427e+00   2.508886e-02
  9.007610e-01    1.609181e+00   2.505008e-02
  9.029714e-01    1.605852e+00   2.498826e-02
  9.051819e-01    1.603591e+00   2.493339e-02
  9.073923e-01    1.598393e+00   2.485640e-02
  9.096028e-01    1.605658e+00   2.487784e-02
  9.118132e-01    1.610651e+00   2.488016e-02
  9.140237e-01    1.602766e+00   2.478253e-02
  9.162342e-01    1.601755e+00   2.474012e-02
  9.184446e-01    1.594055e+00   2.464491e-02
  9.206551e-01    1.576353e+00   2.447235e-02
  9.228655e-01    1.587245e+00   2.452164e-02
  9.250760e-01    1.614711e+00   2.469740e-02
  9.272864e-01    1.620963e+00   2.471072e-02
  9.294969e-01    1.627363e+00   2.472336e-02
  9.317074e-01    1.652233e+00   2.487637e-02
  9.339178e-01    1.636958e+00   2.472729e-02
  9.361283e-01    1.616954e+00   2.453950e-02
  9.383387e-01    1.671641e+00   2.491709e-02
  9.405492e-01    1.674014e+00   2.489997e-02
  9.427596e-01    1.645816e+00   2.465381e-02
  9.449701e-01    1.684130e+00   2.490523e-02
  9.471805e-01    1.707042e+00   2.503857e-02
  9.493910e-01    1.676759e+00   2.478144e-02
  9.516015e-01    1.667837e+00   2.468088e-02
  9.538119e-01    1.723590e+00   2.505565e-02
  9.560224e-01    1.735145e+00   2.510410e-02
  9.582328e-01    1.758795e+00   2.524070e-02
  9.604433e-01    1.769568e+00   2.528204e-02
  9.626537e-01    1.775805e+00   2.529248e-02
  9.648642e-01    1.795223e+00   2.539558e-02
  9.670747e-01    1.800897e+00   2.540059e-02
  9.692851e-01    1.837108e+00   2.562059e-02
  9.714956e-01    1.865385e+00   2.578061e-02
  9.737060e-01    1.862298e+00   2.572545e-02
  9.759165e-01    1.845099e+00   2.557026e-02
  9.781269e-01    1.852223e+00   2.558606e-02
  9.803374e-01    1.896685e+00   2.585553e-02
  9.825478e-01    1.857233e+00   2.555147e-02
  9.847583e-01    1.813921e+00   2.521749e-02
  9.869688e-01    1.788449e+00   2.500626e-02
  9.891792e-01    1.800512e+00   2.505713e-02
  9.913897e-01    1.755320e+00   2.470728e-02
  9.936001e-01    1.718005e+00   2.441124e-02
  9.958106e-01    1.741802e+00   2.454634e-02
  9.980210e-01    1.669024e+00   2.399686e-02
  1.000231e+00    1.710506e+00   2.442631e-02
  1.002442e+00    1.652339e+00   2.413499e-02
  1.004652e+00    1.614351e+00   2.392247e-02
  1.006863e+00    1.618577e+00   2.400346e-02
  1.009073e+00    1.615299e+00   2.401586e-02
  1.011284e+00    1.576930e+00   2.376063e-02
  1.013494e+00    1.572110e+00   2.374781e-02
  1.015705e+00    1.604914e+00   2.401696e-02
  1.017915e+00    1.621908e+00   2.416043e-02
  1.020126e+00    1.599031e+00   2.400566e-02
  1.022336e+00    1.592856e+00   2.397104e-02
  1.024547e+00    1.598505e+00   2.402493e-02
  1.026757e+00    1.608523e+00   2.410860e-02
  1.028967e+00    1.637749e+00   2.433457e-02
  1.031178e+00    1.613913e+00   2.416314e-02
  1.033388e+00    1.623579e+00   2.424060e-02
  1.035599e+00    1.603636e+00   2.409478e-02
  1.037809e+00    1.593951e+00   2.402521e-02
  1.040020e+00    1.685229e+00   2.470487e-02
  1.042230e+00    1.710142e+00   2.488892e-02
  1.044441e+00    1.651562e+00   2.445867e-02
  1.046651e+00    1.720505e+00   2.496411e-02
  1.048862e+00    1.788589e+00   2.545243e-02
  1.051072e+00    1.713809e+00   2.491217e-02
  1.053282e+00    1.671917e+00   2.460480e-02
  1.055493e+00    1.603807e+00   2.409396e-02
  1.057703e+00    1.581277e+00   2.392256e-02
  1.059914e+00    1.575754e+00   2.387635e-02
  1.062124e+00    1.686647e+00   2.469786e-02
  1.064335e+00    1.875517e+00   2.604015e-02
  1.066545e+00    1.934833e+00   2.644193e-02
  1.068756e+00    1.781526e+00   2.536869e-02
  1.070966e+00    1.594604e+00   2.399414e-02
  1.073177e+00    1.547092e+00   2.362773e-02
  1.075387e+00    1.559200e+00   2.371463e-02
  1.077597e+00    1.552137e+00   2.365339e-02
  1.079808e+00    1.525523e+00   2.331425e-02
  1.082018e+00    1.486796e+00   2.282581e-02
  1.084229e+00    1.450783e+00   2.243798e-02
  1.086439e+00    1.491700e+00   2.266366e-02
  1.088650e+00    1.459120e+00   2.233903e-02
  1.090860e+00    1.463674e+00   2.230599e-02
  1.093071e+00    1.465184e+00   2.225502e-02
  1.095281e+00    1.442961e+00   2.202839e-02
  1.097492e+00    1.481727e+00   2.226674e-02
  1.099702e+00    1.452818e+00   2.199685e-02
  1.101912e+00    1.455267e+00   2.196626e-02
  1.104123e+00    1.433002e+00   2.174941e-02
  1.106333e+00    1.410443e+00   2.153346e-02
  1.108544e+00    1.437414e+00   2.169397e-02
  1.110754e+00    1.454927e+00   2.178231e-02
  1.112965e+00    1.444110e+00   2.166033e-02
  1.115175e+00    1.441435e+00   2.159878e-02
  1.117386e+00    1.421745e+00   2.141138e-02
  1.119596e+00    1.427134e+00   2.141386e-02
  1.121807e+00    1.402364e+00   2.118850e-02
  1.124017e+00    1.390291e+00   2.106067e-02
  1.126228e+00    1.397870e+00   2.108231e-02
  1.128438e+00    1.399238e+00   2.105590e-02
  1.130648e+00    1.371318e+00   2.081078e-02
  1.132859e+00    1.388608e+00   2.090730e-02
  1.135069e+00    1.391382e+00   2.089345e-02
  1.137280e+00    1.414345e+00   2.103189e-02
  1.139490e+00    1.374817e+00   2.070300e-02
  1.141701e+00    1.352808e+00   2.050387e-02
  1.143911e+00    1.360945e+00   2.053384e-02
  1.146122e+00    1.381303e+00   2.065483e-02
  1.148332e+00    1.385679e+00   2.065556e-02
  1.150543e+00    1.438438e+00   2.101361e-02
  1.152753e+00    1.425628e+00   2.088846e-02
  1.154963e+00    1.402125e+00   2.068419e-02
  1.157174e+00    1.388144e+00   2.055049e-02
  1.159384e+00    1.357275e+00   2.029100e-02
  1.161595e+00    1.369118e+00   2.034951e-02
  1.163805e+00    1.344212e+00   2.013457e-02
  1.166016e+00    1.361117e+00   2.023142e-02
  1.168226e+00    1.350141e+00   2.012091e-02
  1.170437e+00    1.362738e+00   2.018595e-02
  1.172647e+00    1.387919e+00   2.034247e-02
  1.174858e+00    1.388434e+00   2.031792e-02
  1.177068e+00    1.370110e+00   2.015506e-02
  1.179278e+00    1.362760e+00   2.007234e-02
  1.181489e+00    1.355320e+00   1.999050e-02
  1.183699e+00    1.365710e+00   2.003933e-02
  1.185910e+00    1.368270e+00   2.003023e-02
  1.188120e+00    1.367892e+00   2.000067e-02
  1.190331e+00    1.375372e+00   2.002832e-02
  1.192541e+00    1.381153e+00   2.004272e-02
  1.194752e+00    1.344506e+00   1.974807e-02
  1.196962e+00    1.364120e+00   1.986571e-02
  1.199173e+00    1.388716e+00   2.001715e-02
  1.201383e+00    1.386977e+00   1.997708e-02
  1.203593e+00    1.363083e+00   1.977933e-02
  1.205804e+00    1.362134e+00   1.974639e-02
  1.208014e+00    1.358124e+00   1.969038e-02
  1.210225e+00    1.363587e+00   1.970448e-02
  1.212435e+00    1.367237e+00   1.970590e-02
  1.214646e+00    1.365136e+00   1.966449e-02
  1.216856e+00    1.376273e+00   1.971882e-02
  1.219067e+00    1.352103e+00   1.952043e-02
  1.221277e+00    1.358068e+00   1.953833e-02
  1.223488e+00    1.345649e+00   1.942308e-02
  1.225698e+00    1.352642e+00   1.944655e-02
  1.227909e+00    1.367444e+00   1.952230e-02
  1.230119e+00    1.362392e+00   1.945423e-02
  1.232329e+00    1.325965e+00   1.916193e-02
  1.234540e+00    1.343531e+00   1.925822e-02
  1.236750e+00    1.305887e+00   1.895676e-02
  1.238961e+00    1.323724e+00   1.905904e-02
  1.241171e+00    1.357008e+00   1.927294e-02
  1.243382e+00    1.339365e+00   1.912382e-02
  1.245592e+00    1.341220e+00   1.911304e-02
  1.247803e+00    1.349584e+00   1.914890e-02
  1.250013e+00    1.353206e+00   1.915100e-02
  1.252224e+00    1.355435e+00   1.914347e-02
  1.254434e+00    1.347120e+00   1.906095e-02
  1.256644e+00    1.323932e+00   1.887321e-02
  1.258855e+00    1.326197e+00   1.886626e-02
  1.261065e+00    1.369370e+00   1.914736e-02
  1.263276e+00    1.371993e+00   1.914258e-02
  1.265486e+00    1.353634e+00   1.899115e-02
  1.267697e+00    1.384533e+00   1.918337e-02
  1.269907e+00    1.352821e+00   1.893969e-02
  1.272118e+00    1.348038e+00   1.888362e-02
  1.274328e+00    1.320495e+00   1.866723e-02
  1.276539e+00    1.357483e+00   1.890399e-02
  1.278749e+00    1.354514e+00   1.886102e-02
  1.280959e+00    1.342920e+00   1.875763e-02
  1.283170e+00    1.363173e+00   1.887600e-02
  1.285380e+00    1.369547e+00   1.889749e-02
  1.287591e+00    1.343255e+00   1.869322e-02
  1.289801e+00    1.373350e+00   1.888008e-02
  1.292012e+00    1.351021e+00   1.870886e-02
  1.294222e+00    1.339966e+00   1.861598e-02
  1.296433e+00    1.342998e+00   1.862145e-02
  1.298643e+00    1.361297e+00   1.873136e-02
  1.300854e+00    1.376553e+00   1.881945e-02
  1.303064e+00    1.356197e+00   1.866052e-02
  1.305274e+00    1.360907e+00   1.867136e-02
  1.307485e+00    1.348321e+00   1.856331e-02
  1.309695e+00    1.350695e+00   1.855738e-02
  1.311906e+00    1.372942e+00   1.868770e-02
  1.314116e+00    1.362095e+00   1.859286e-02
  1.316327e+00    1.360959e+00   1.856331e-02
  1.318537e+00    1.368372e+00   1.859177e-02
  1.320748e+00    1.367283e+00   1.856268e-02
  1.322958e+00    1.374582e+00   1.859145e-02
  1.325169e+00    1.368571e+00   1.852961e-02
  1.327379e+00    1.353080e+00   1.840259e-02
  1.329589e+00    1.358469e+00   1.841808e-02
  1.331800e+00    1.385152e+00   1.857709e-02
  1.334010e+00    1.408837e+00   1.871417e-02
  1.336221e+00    1.380204e+00   1.850104e-02
  1.338431e+00    1.360007e+00   1.834423e-02
  1.340642e+00    1.329226e+00   1.819911e-02
  1.342852e+00    1.321600e+00   1.824643e-02
  1.345063e+00    1.345998e+00   1.846348e-02
  1.347273e+00    1.353773e+00   1.855205e-02
  1.349484e+00    1.332151e+00   1.843078e-02
  1.351694e+00    1.336604e+00   1.848415e-02
  1.353905e+00    1.371163e+00   1.873972e-02
  1.356115e+00    1.341435e+00   1.855047e-02
  1.358325e+00    1.338735e+00   1.854505e-02
  1.360536e+00    1.338434e+00   1.855454e-02
  1.362746e+00    1.352260e+00   1.865969e-02
  1.364957e+00    1.370289e+00   1.879140e-02
  1.367167e+00    1.338878e+00   1.858192e-02
  1.369378e+00    1.322199e+00   1.847176e-02
  1.371588e+00    1.323698e+00   1.848734e-02
  1.373799e+00    1.319840e+00   1.846401e-02
  1.376009e+00    1.343436e+00   1.863172e-02
  1.378220e+00    1.333706e+00   1.856667e-02
  1.380430e+00    1.312844e+00   1.842358e-02
  1.382640e+00    1.295576e+00   1.830289e-02
  1.384851e+00    1.322263e+00   1.849133e-02
  1.387061e+00    1.300654e+00   1.833990e-02
  1.389272e+00    1.312958e+00   1.842665e-02
  1.391482e+00    1.291991e+00   1.827826e-02
  1.393693e+00    1.281590e+00   1.820365e-02
  1.395903e+00    1.283074e+00   1.821270e-02
  1.398114e+00    1.290837e+00   1.826633e-02
  1.400324e+00    1.266671e+00   1.809243e-02
  1.402535e+00    1.304273e+00   1.835665e-02
  1.404745e+00    1.300798e+00   1.832982e-02
  1.406955e+00    1.259250e+00   1.803202e-02
  1.409166e+00    1.273985e+00   1.813390e-02
  1.411376e+00    1.262365e+00   1.804791e-02
  1.413587e+00    1.285770e+00   1.821060e-02
  1.415797e+00    1.298148e+00   1.829448e-02
  1.418008e+00    1.287102e+00   1.817432e-02
  1.420218e+00    1.281459e+00   1.798404e-02
  1.422429e+00    1.283672e+00   1.791380e-02
  1.424639e+00    1.269058e+00   1.774686e-02
  1.426850e+00    1.254668e+00   1.759160e-02
  1.429060e+00    1.265018e+00   1.761510e-02
  1.431270e+00    1.269159e+00   1.759962e-02
  1.433481e+00    1.293598e+00   1.772693e-02
  1.435691e+00    1.263680e+00   1.748241e-02
  1.437902e+00    1.273139e+00   1.751120e-02
  1.440112e+00    1.276316e+00   1.749760e-02
  1.442323e+00    1.273005e+00   1.744182e-02
  1.444533e+00    1.292671e+00   1.754317e-02
  1.446744e+00    1.304259e+00   1.759009e-02
  1.448954e+00    1.293893e+00   1.748958e-02
  1.451165e+00    1.277150e+00   1.734622e-02
  1.453375e+00    1.238680e+00   1.705526e-02
  1.455586e+00    1.272982e+00   1.726159e-02
  1.457796e+00    1.268428e+00   1.720323e-02
  1.460006e+00    1.269288e+00   1.718178e-02
  1.462217e+00    1.286457e+00   1.727122e-02
  1.464427e+00    1.293391e+00   1.729185e-02
  1.466638e+00    1.284973e+00   1.721002e-02
  1.468848e+00    1.267333e+00   1.706616e-02
  1.471059e+00    1.276030e+00   1.709946e-02
  1.473269e+00    1.283829e+00   1.712712e-02
  1.475480e+00    1.287413e+00   1.712707e-02
  1.477690e+00    1.276544e+00   1.703070e-02
  1.479901e+00    1.287955e+00   1.708263e-02
  1.482111e+00    1.275721e+00   1.697790e-02
  1.484321e+00    1.271426e+00   1.692613e-02
  1.486532e+00    1.270512e+00   1.689768e-02
  1.488742e+00    1.286977e+00   1.698398e-02
  1.490953e+00    1.299064e+00   1.704063e-02
  1.493163e+00    1.266402e+00   1.680276e-02
  1.495374e+00    1.252752e+00   1.669052e-02
  1.497584e+00    1.277996e+00   1.683608e-02
  1.499795e+00    1.263425e+00   1.671814e-02
  1.502005e+00    1.279670e+00   1.680342e-02
  1.504216e+00    1.284963e+00   1.681690e-02
  1.506426e+00    1.267687e+00   1.668256e-02
  1.508636e+00    1.266312e+00   1.665301e-02
  1.510847e+00    1.258017e+00   1.657653e-02
  1.513057e+00    1.263986e+00   1.659064e-02
  1.515268e+00    1.271453e+00   1.661368e-02
  1.517478e+00    1.266093e+00   1.655336e-02
  1.519689e+00    1.271814e+00   1.656558e-02
  1.521899e+00    1.261850e+00   1.647739e-02
  1.524110e+00    1.250347e+00   1.638180e-02
  1.526320e+00    1.262074e+00   1.643876e-02
  1.528531e+00    1.285403e+00   1.656998e-02
  1.530741e+00    1.261544e+00   1.639625e-02
  1.532951e+00    1.266311e+00   1.640747e-02
  1.535162e+00    1.257250e+00   1.643554e-02
  1.537372e+00    1.252890e+00   1.647402e-02
  1.539583e+00    1.255680e+00   1.652667e-02
  1.541793e+00    1.260902e+00   1.656800e-02
  1.544004e+00    1.246211e+00   1.647146e-02
  1.546214e+00    1.241010e+00   1.643554e-02
  1.548425e+00    1.246214e+00   1.647023e-02
  1.550635e+00    1.238371e+00   1.642797e-02
  1.552846e+00    1.239417e+00   1.644455e-02
  1.555056e+00    1.239285e+00   1.640228e-02
  1.557266e+00    1.234243e+00   1.625889e-02
  1.559477e+00    1.234704e+00   1.620303e-02
  1.561687e+00    1.244046e+00   1.623354e-02
  1.563898e+00    1.270357e+00   1.638698e-02
  1.566108e+00    1.274091e+00   1.639491e-02
  1.568319e+00    1.250511e+00   1.622682e-02
  1.570529e+00    1.254478e+00   1.622730e-02
  1.572740e+00    1.252252e+00   1.618518e-02
  1.574950e+00    1.287991e+00   1.638776e-02
  1.577161e+00    1.273182e+00   1.626752e-02
  1.579371e+00    1.261485e+00   1.616880e-02
  1.581582e+00    1.252777e+00   1.609305e-02
  1.583792e+00    1.223404e+00   1.588541e-02
  1.586002e+00    1.256734e+00   1.608263e-02
  1.588213e+00    1.242882e+00   1.597654e-02
  1.590423e+00    1.224707e+00   1.583936e-02
  1.592634e+00    1.247017e+00   1.596132e-02
  1.594844e+00    1.257580e+00   1.600726e-02
  1.597055e+00    1.256395e+00   1.597913e-02
  1.599265e+00    1.232070e+00   1.580303e-02
  1.601476e+00    1.255191e+00   1.593020e-02
  1.603686e+00    1.239148e+00   1.580832e-02
  1.605897e+00    1.238223e+00   1.578225e-02
  1.608107e+00    1.250325e+00   1.583954e-02
  1.610317e+00    1.220918e+00   1.563299e-02
  1.612528e+00    1.214602e+00   1.557347e-02
  1.614738e+00    1.237689e+00   1.570178e-02
  1.616949e+00    1.222535e+00   1.558643e-02
  1.619159e+00    1.202172e+00   1.543751e-02
  1.621370e+00    1.193707e+00   1.536480e-02
  1.623580e+00    1.172822e+00   1.521178e-02
  1.625791e+00    1.182532e+00   1.525655e-02
  1.628001e+00    1.189093e+00   1.528066e-02
  1.630212e+00    1.175633e+00   1.517630e-02
  1.632422e+00    1.209721e+00   1.537668e-02
  1.634632e+00    1.180675e+00   1.517366e-02
  1.636843e+00    1.171635e+00   1.509796e-02
  1.639053e+00    1.173898e+00   1.509525e-02
  1.641264e+00    1.150546e+00   1.492740e-02
  1.643474e+00    1.150143e+00   1.490748e-02
  1.645685e+00    1.141108e+00   1.483228e-02
  1.647895e+00    1.129421e+00   1.473972e-02
  1.650106e+00    1.126427e+00   1.470335e-02
  1.652316e+00    1.120402e+00   1.464769e-02
  1.654527e+00    1.119433e+00   1.462486e-02
  1.656737e+00    1.109065e+00   1.454060e-02
  1.658947e+00    1.151760e+00   1.480140e-02
  1.661158e+00    1.152126e+00   1.478734e-02
  1.663368e+00    1.160716e+00   1.482607e-02
  1.665579e+00    1.155317e+00   1.477512e-02
  1.667789e+00    1.163976e+00   1.481382e-02
  1.670000e+00    1.116664e+00   1.449413e-02
  1.672210e+00    1.106935e+00   1.441496e-02
  1.674421e+00    1.117806e+00   1.447017e-02
  1.676631e+00    1.112862e+00   1.442218e-02
  1.678842e+00    1.107248e+00   1.436993e-02
  1.681052e+00    1.102139e+00   1.432129e-02
  1.683263e+00    1.083460e+00   1.418433e-02
  1.685473e+00    1.056696e+00   1.399309e-02
  1.687683e+00    1.076376e+00   1.410739e-02
  1.689894e+00    1.081661e+00   1.412623e-02
  1.692104e+00    1.065522e+00   1.400561e-02
  1.694315e+00    1.058228e+00   1.394316e-02
  1.696525e+00    1.061336e+00   1.394854e-02
  1.698736e+00    1.057889e+00   1.391109e-02
  1.700946e+00    1.052078e+00   1.385776e-02
  1.703157e+00    1.046781e+00   1.380826e-02
  1.705367e+00    1.052141e+00   1.382906e-02
  1.707578e+00    1.054989e+00   1.383318e-02
  1.709788e+00    1.034894e+00   1.368674e-02
  1.711998e+00    1.050437e+00   1.377408e-02
  1.714209e+00    1.020968e+00   1.356519e-02
  1.716419e+00    1.032134e+00   1.362489e-02
  1.718630e+00    1.026199e+00   1.357146e-02
  1.720840e+00    1.019680e+00   1.351413e-02
  1.723051e+00    1.013296e+00   1.345801e-02
  1.725261e+00    9.878227e-01   1.327331e-02
  1.727472e+00    1.019018e+00   1.346708e-02
  1.729682e+00    1.001611e+00   1.333821e-02
  1.731893e+00    9.883486e-01   1.323586e-02
  1.734103e+00    9.965341e-01   1.327683e-02
  1.736313e+00    1.033070e+00   1.350383e-02
  1.738524e+00    1.018909e+00   1.339704e-02
  1.740734e+00    1.002560e+00   1.327539e-02
  1.742945e+00    9.969853e-01   1.322497e-02
  1.745155e+00    9.854709e-01   1.313499e-02
  1.747366e+00    9.512591e-01   1.289141e-02
  1.749576e+00    9.699157e-01   1.300366e-02
  1.751787e+00    9.751290e-01   1.302526e-02
  1.753997e+00    9.744092e-01   1.300712e-02
  1.756208e+00    9.611408e-01   1.290517e-02
  1.758418e+00    9.416322e-01   1.276059e-02
  1.760628e+00    9.908492e-01   1.307632e-02
  1.762839e+00    9.881638e-01   1.304524e-02
  1.765049e+00    9.481803e-01   1.276557e-02
  1.767260e+00    9.412091e-01   1.270586e-02
  1.769470e+00    9.387376e-01   1.267629e-02
  1.771681e+00    9.321786e-01   1.261894e-02
  1.773891e+00    9.226816e-01   1.254162e-02
  1.776102e+00    9.524596e-01   1.272948e-02
  1.778312e+00    9.405447e-01   1.263692e-02
  1.780523e+00    9.418091e-01   1.263267e-02
  1.782733e+00    9.458473e-01   1.264699e-02
  1.784944e+00    9.633433e-01   1.275035e-02
  1.787154e+00    1.035479e+00   1.320585e-02
  1.789364e+00    1.176378e+00   1.406169e-02
  1.791575e+00    1.116663e+00   1.368643e-02
  1.793785e+00    1.022720e+00   1.308502e-02
  1.795996e+00    9.636673e-01   1.268880e-02
  1.798206e+00    9.441506e-01   1.254697e-02
  1.800417e+00    9.491540e-01   1.256724e-02
  1.802627e+00    9.931406e-01   1.284270e-02
  1.804838e+00    9.974781e-01   1.285809e-02
  1.807048e+00    9.462348e-01   1.251036e-02
  1.809259e+00    9.292239e-01   1.238361e-02
  1.811469e+00    9.308552e-01   1.237930e-02
  1.813679e+00    9.312974e-01   1.236702e-02
  1.815890e+00    9.234795e-01   1.230005e-02
  1.818100e+00    9.059348e-01   1.216747e-02
  1.820311e+00    9.135727e-01   1.220371e-02
  1.822521e+00    8.750005e-01   1.192861e-02
  1.824732e+00    8.912053e-01   1.202370e-02
  1.826942e+00    9.007903e-01   1.207578e-02
  1.829153e+00    8.893774e-01   1.198731e-02
  1.831363e+00    8.701392e-01   1.184503e-02
  1.833574e+00    8.484293e-01   1.168485e-02
  1.835784e+00    8.570432e-01   1.173274e-02
  1.837994e+00    8.696274e-01   1.180691e-02
  1.840205e+00    8.621936e-01   1.174524e-02
  1.842415e+00    8.624036e-01   1.173498e-02
  1.844626e+00    8.482232e-01   1.162668e-02
  1.846836e+00    8.777353e-01   1.181572e-02
  1.849047e+00    8.628620e-01   1.170361e-02
  1.851257e+00    8.632231e-01   1.169648e-02
  1.853468e+00    8.755478e-01   1.177081e-02
  1.855678e+00    8.683506e-01   1.171342e-02
  1.857889e+00    8.551190e-01   1.161535e-02
  1.860099e+00    8.486472e-01   1.156272e-02
  1.862309e+00    8.437273e-01   1.152071e-02
  1.864520e+00    8.607191e-01   1.162754e-02
  1.866730e+00    8.583552e-01   1.160216e-02
  1.868941e+00    8.507236e-01   1.153953e-02
  1.871151e+00    8.508305e-01   1.152888e-02
  1.873362e+00    8.402710e-01   1.144583e-02
  1.875572e+00    8.418658e-01   1.144580e-02
  1.877783e+00    8.598133e-01   1.155564e-02
  1.879993e+00    8.478397e-01   1.146375e-02
  1.882204e+00    8.614532e-01   1.154439e-02
  1.884414e+00    8.703374e-01   1.159254e-02
  1.886624e+00    8.596581e-01   1.151003e-02
  1.888835e+00    8.717716e-01   1.157965e-02
  1.891045e+00    8.738769e-01   1.158255e-02
  1.893256e+00    8.543984e-01   1.144153e-02
  1.895466e+00    8.313885e-01   1.127530e-02
  1.897677e+00    8.191343e-01   1.118106e-02
  1.899887e+00    8.376738e-01   1.129588e-02
  1.902098e+00    8.220041e-01   1.117897e-02
  1.904308e+00    8.121082e-01   1.110100e-02
  1.906519e+00    8.090050e-01   1.106907e-02
  1.908729e+00    8.073696e-01   1.104741e-02
  1.910940e+00    8.120471e-01   1.106834e-02
  1.913150e+00    8.223366e-01   1.112768e-02
  1.915360e+00    8.199173e-01   1.110070e-02
  1.917571e+00    8.332078e-01   1.117938e-02
  1.919781e+00    8.213335e-01   1.108874e-02
  1.921992e+00    8.078015e-01   1.098648e-02
  1.924202e+00    7.910218e-01   1.086119e-02
  1.926413e+00    8.068383e-01   1.095897e-02
  1.928623e+00    8.212034e-01   1.104554e-02
  1.930834e+00    8.102749e-01   1.096137e-02
  1.933044e+00    8.256656e-01   1.105422e-02
  1.935255e+00    8.250329e-01   1.103959e-02
  1.937465e+00    8.076762e-01   1.091243e-02
  1.939675e+00    8.157030e-01   1.095562e-02
  1.941886e+00    8.166708e-01   1.095176e-02
  1.944096e+00    8.153245e-01   1.093247e-02
  1.946307e+00    7.875742e-01   1.073458e-02
  1.948517e+00    7.908270e-01   1.074631e-02
  1.950728e+00    8.134314e-01   1.088848e-02
  1.952938e+00    7.964985e-01   1.076449e-02
  1.955149e+00    7.806229e-01   1.064652e-02
  1.957359e+00    7.958085e-01   1.073953e-02
  1.959570e+00    8.065248e-01   1.080066e-02
  1.961780e+00    8.056279e-01   1.078465e-02
  1.963990e+00    8.104641e-01   1.080675e-02
  1.966201e+00    8.115433e-01   1.080374e-02
  1.968411e+00    8.151021e-01   1.081710e-02
  1.970622e+00    8.071317e-01   1.075386e-02
  1.972832e+00    7.910276e-01   1.063606e-02
  1.975043e+00    7.804876e-01   1.055493e-02
  1.977253e+00    7.886733e-01   1.060017e-02
  1.979464e+00    7.889540e-01   1.059199e-02
  1.981674e+00    7.964783e-01   1.063201e-02
  1.983885e+00    7.879207e-01   1.056471e-02
  1.986095e+00    7.869693e-01   1.054857e-02
  1.988305e+00    7.887939e-01   1.055084e-02
  1.990516e+00    7.923490e-01   1.056458e-02
  1.992726e+00    7.935846e-01   1.056304e-02
  1.994937e+00    7.935246e-01   1.055242e-02
  1.997147e+00    7.929025e-01   1.053844e-02
  1.999358e+00    7.881932e-01   1.049716e-02
  2.001568e+00    7.813348e-01   1.044053e-02
  2.003779e+00    7.803864e-01   1.042221e-02
  2.005989e+00    7.854158e-01   1.044361e-02
  2.008200e+00    7.903369e-01   1.046460e-02
  2.010410e+00    7.711091e-01   1.032478e-02
  2.012621e+00    7.572708e-01   1.022008e-02
  2.014831e+00    7.684586e-01   1.028381e-02
  2.017041e+00    7.645258e-01   1.024712e-02
  2.019252e+00    7.643363e-01   1.023588e-02
  2.021462e+00    7.722422e-01   1.027913e-02
  2.023673e+00    7.690855e-01   1.024870e-02
  2.025883e+00    7.676474e-01   1.022954e-02
  2.028094e+00    7.805627e-01   1.030549e-02
  2.030304e+00    7.805009e-01   1.029542e-02
  2.032515e+00    7.790000e-01   1.027613e-02
  2.034725e+00    7.630339e-01   1.016080e-02
  2.036936e+00    7.481670e-01   1.005205e-02
  2.039146e+00    7.422153e-01   1.000250e-02
  2.041356e+00    7.613742e-01   1.012110e-02
  2.043567e+00    7.701916e-01   1.017016e-02
  2.045777e+00    7.458450e-01   9.998927e-03
  2.047988e+00    7.480963e-01   1.000469e-02
  2.050198e+00    7.306770e-01   9.879210e-03
  2.052409e+00    7.407398e-01   9.939405e-03
  2.054619e+00    7.624745e-01   1.007675e-02
  2.056830e+00    7.759481e-01   1.015810e-02
  2.059040e+00    7.754224e-01   1.014703e-02
  2.061251e+00    7.521400e-01   9.986285e-03
  2.063461e+00    7.532802e-01   9.986209e-03
  2.065671e+00    7.678921e-01   1.007378e-02
  2.067882e+00    7.612614e-01   1.002112e-02
  2.070092e+00    7.572409e-01   9.985371e-03
  2.072303e+00    7.486966e-01   9.919708e-03
  2.074513e+00    7.708420e-01   1.005587e-02
  2.076724e+00    7.681736e-01   1.002884e-02
  2.078934e+00    7.681042e-01   1.001924e-02
  2.081145e+00    7.566419e-01   9.935036e-03
  2.083355e+00    7.457818e-01   9.854281e-03
  2.085566e+00    7.439311e-01   9.833103e-03
  2.087776e+00    7.539269e-01   9.889366e-03
  2.089986e+00    7.365165e-01   9.765734e-03
  2.092197e+00    7.459514e-01   9.819071e-03
  2.094407e+00    7.380781e-01   9.757880e-03
  2.096618e+00    7.433081e-01   9.783437e-03
  2.098828e+00    7.454763e-01   9.788327e-03
  2.101039e+00    7.348027e-01   9.709006e-03
  2.103249e+00    7.297529e-01   9.666931e-03
  2.105460e+00    7.322254e-01   9.674245e-03
  2.107670e+00    7.379290e-01   9.703084e-03
  2.109881e+00    7.291317e-01   9.635877e-03
  2.112091e+00    7.278678e-01   9.618537e-03
  2.114301e+00    7.325598e-01   9.640646e-03
  2.116512e+00    7.280518e-01   9.602127e-03
  2.118722e+00    7.171170e-01   9.520943e-03
  2.120933e+00    7.242643e-01   9.559385e-03
  2.123143e+00    7.234478e-01   9.545071e-03
  2.125354e+00    7.101336e-01   9.448340e-03
  2.127564e+00    7.176254e-01   9.489308e-03
  2.129775e+00    7.103073e-01   9.432100e-03
  2.131985e+00    7.166322e-01   9.464934e-03
  2.134196e+00    7.165505e-01   9.455785e-03
  2.136406e+00    7.140293e-01   9.430393e-03
  2.138617e+00    7.126520e-01   9.412804e-03
  2.140827e+00    7.217472e-01   9.488894e-03
  2.143037e+00    7.183614e-01   9.512444e-03
  2.145248e+00    7.087666e-01   9.470765e-03
  2.147458e+00    7.096604e-01   9.491927e-03
  2.149669e+00    6.995501e-01   9.435875e-03
  2.151879e+00    7.035703e-01   9.472191e-03
  2.154090e+00    7.049765e-01   9.488992e-03
  2.156300e+00    6.966713e-01   9.439514e-03
  2.158511e+00    6.974007e-01   9.449742e-03
  2.160721e+00    7.012577e-01   9.480677e-03
  2.162932e+00    6.927358e-01   9.426619e-03
  2.165142e+00    6.963396e-01   9.454120e-03
  2.167352e+00    7.021745e-01   9.496580e-03
  2.169563e+00    7.016863e-01   9.495228e-03
  2.171773e+00    7.018186e-01   9.498606e-03
  2.173984e+00    7.071339e-01   9.535908e-03
  2.176194e+00    7.042137e-01   9.517439e-03
  2.178405e+00    6.976799e-01   9.473857e-03
  2.180615e+00    6.931963e-01   9.444060e-03
  2.182826e+00    7.051442e-01   9.525786e-03
  2.185036e+00    6.991509e-01   9.485261e-03
  2.187247e+00    6.992361e-01   9.485808e-03
  2.189457e+00    6.964518e-01   9.466467e-03
  2.191667e+00    7.011822e-01   9.498412e-03
  2.193878e+00    6.927704e-01   9.440682e-03
  2.196088e+00    6.965657e-01   9.465810e-03
  2.198299e+00    7.095829e-01   9.552742e-03
  2.200509e+00    6.967781e-01   9.465107e-03
  2.202720e+00    6.929244e-01   9.437729e-03
  2.204930e+00    6.763000e-01   9.322587e-03
  2.207141e+00    6.863936e-01   9.390780e-03
  2.209351e+00    6.805823e-01   9.349054e-03
  2.211562e+00    6.885611e-01   9.402070e-03
  2.213772e+00    6.769139e-01   9.266726e-03
  2.215982e+00    6.778690e-01   9.228979e-03
  2.218193e+00    7.069392e-01   9.394480e-03
  2.220403e+00    6.859548e-01   9.229244e-03
  2.222614e+00    6.672362e-01   9.081577e-03
  2.224824e+00    6.805690e-01   9.152373e-03
  2.227035e+00    6.804888e-01   9.134294e-03
  2.229245e+00    6.706046e-01   9.050773e-03
  2.231456e+00    6.818513e-01   9.110576e-03
  2.233666e+00    6.995440e-01   9.212649e-03
  2.235877e+00    6.790784e-01   9.062515e-03
  2.238087e+00    6.950287e-01   9.154597e-03
  2.240298e+00    6.740396e-01   9.001499e-03
  2.242508e+00    6.743020e-01   8.988060e-03
  2.244718e+00    6.623386e-01   8.892227e-03
  2.246929e+00    6.740679e-01   8.956138e-03
  2.249139e+00    6.663108e-01   8.892097e-03
  2.251350e+00    6.613443e-01   8.847227e-03
  2.253560e+00    6.566913e-01   8.804574e-03
  2.255771e+00    6.648062e-01   8.847390e-03
  2.257981e+00    6.720696e-01   8.884371e-03
  2.260192e+00    6.717032e-01   8.870770e-03
  2.262402e+00    6.638325e-01   8.807815e-03
  2.264613e+00    6.635318e-01   8.794954e-03
  2.266823e+00    6.804664e-01   8.895968e-03
  2.269033e+00    6.643828e-01   8.779821e-03
  2.271244e+00    6.698268e-01   8.805242e-03
  2.273454e+00    6.787074e-01   8.853049e-03
  2.275665e+00    6.766305e-01   8.829083e-03
  2.277875e+00    6.666000e-01   8.753424e-03
  2.280086e+00    6.670073e-01   8.745993e-03
  2.282296e+00    6.667917e-01   8.735130e-03
  2.284507e+00    6.567985e-01   8.659311e-03
  2.286717e+00    6.598446e-01   8.669887e-03
  2.288928e+00    6.506534e-01   8.599477e-03
  2.291138e+00    6.557507e-01   8.623672e-03
  2.293348e+00    6.604402e-01   8.644868e-03
  2.295559e+00    6.786817e-01   8.753978e-03
  2.297769e+00    6.681972e-01   8.676763e-03
  2.299980e+00    6.709181e-01   8.684942e-03
  2.302190e+00    6.646470e-01   8.635058e-03
  2.304401e+00    6.603066e-01   8.597435e-03
  2.306611e+00    6.588094e-01   8.578431e-03
  2.308822e+00    6.530564e-01   8.532509e-03
  2.311032e+00    6.440715e-01   8.467178e-03
  2.313243e+00    6.631645e-01   8.585430e-03
  2.315453e+00    6.581364e-01   8.545206e-03
  2.317663e+00    6.443777e-01   8.446301e-03
  2.319874e+00    6.414784e-01   8.418578e-03
  2.322084e+00    6.434633e-01   8.422651e-03
  2.324295e+00    6.559734e-01   8.495830e-03
  2.326505e+00    6.596686e-01   8.510582e-03
  2.328716e+00    6.435549e-01   8.397437e-03
  2.330926e+00    6.601621e-01   8.496177e-03
  2.333137e+00    6.646392e-01   8.516433e-03
  2.335347e+00    6.497952e-01   8.411863e-03
  2.337558e+00    6.403775e-01   8.342448e-03
  2.339768e+00    6.571551e-01   8.442332e-03
  2.341979e+00    6.342667e-01   8.285684e-03
  2.344189e+00    6.401978e-01   8.315917e-03
  2.346399e+00    6.379400e-01   8.292728e-03
  2.348610e+00    6.311725e-01   8.240208e-03
  2.350820e+00    6.314246e-01   8.233679e-03
  2.353031e+00    6.413067e-01   8.289537e-03
  2.355241e+00    6.362773e-01   8.248902e-03
  2.357452e+00    6.224848e-01   8.150643e-03
  2.359662e+00    6.252438e-01   8.160500e-03
  2.361873e+00    6.313031e-01   8.191722e-03
  2.364083e+00    6.311799e-01   8.182905e-03
  2.366294e+00    6.367278e-01   8.210635e-03
  2.368504e+00    6.285785e-01   8.149833e-03
  2.370714e+00    6.295780e-01   8.148222e-03
  2.372925e+00    6.304467e-01   8.145764e-03
  2.375135e+00    6.303317e-01   8.136910e-03
  2.377346e+00    6.361344e-01   8.166270e-03
  2.379556e+00    6.294431e-01   8.115268e-03
  2.381767e+00    6.358141e-01   8.148263e-03
  2.383977e+00    6.343666e-01   8.130985e-03
  2.386188e+00    6.327094e-01   8.112352e-03
  2.388398e+00    6.159933e-01   7.996522e-03
  2.390609e+00    6.244870e-01   8.043705e-03
  2.392819e+00    6.119899e-01   7.955054e-03
  2.395029e+00    6.148798e-01   7.966173e-03
  2.397240e+00    6.104734e-01   7.929727e-03
  2.399450e+00    6.225109e-01   7.999650e-03
  2.401661e+00    6.183065e-01   7.964886e-03
  2.403871e+00    6.204701e-01   7.970996e-03
  2.406082e+00    6.078348e-01   7.881980e-03
  2.408292e+00    6.115544e-01   7.898264e-03
  2.410503e+00    6.087129e-01   7.872400e-03
  2.412713e+00    6.204497e-01   7.940053e-03
  2.414924e+00    6.015041e-01   7.810432e-03
  2.417134e+00    6.071573e-01   7.839400e-03
  2.419344e+00    6.032726e-01   7.806861e-03
  2.421555e+00    6.193543e-01   7.902616e-03
  2.423765e+00    6.212873e-01   7.907418e-03
  2.425976e+00    6.192482e-01   7.886499e-03
  2.428186e+00    5.966094e-01   7.733797e-03
  2.430397e+00    5.887182e-01   7.675037e-03
  2.432607e+00    5.977139e-01   7.726174e-03
  2.434818e+00    5.958411e-01   7.706508e-03
  2.437028e+00    5.941997e-01   7.688740e-03
  2.439239e+00    5.981646e-01   7.706663e-03
  2.441449e+00    6.094989e-01   7.772028e-03
  2.443659e+00    5.999584e-01   7.703575e-03
  2.445870e+00    5.947936e-01   7.682628e-03
  2.448080e+00    5.917796e-01   7.698221e-03
  2.450291e+00    5.872957e-01   7.685729e-03
  2.452501e+00    5.976443e-01   7.764534e-03
  2.454712e+00    5.863139e-01   7.699101e-03
  2.456922e+00    5.644828e-01   7.561007e-03
  2.459133e+00    5.685754e-01   7.593770e-03
  2.461343e+00    5.688385e-01   7.599907e-03
  2.463554e+00    5.574058e-01   7.526596e-03
  2.465764e+00    5.509192e-01   7.485767e-03
  2.467975e+00    5.645583e-01   7.580149e-03
  2.470185e+00    5.803326e-01   7.687625e-03
  2.472395e+00    5.627948e-01   7.571807e-03
  2.474606e+00    5.698824e-01   7.620921e-03
  2.476816e+00    5.509551e-01   7.494033e-03
  2.479027e+00    5.468954e-01   7.467214e-03
  2.481237e+00    5.490375e-01   7.482096e-03
  2.483448e+00    5.542071e-01   7.517553e-03
  2.485658e+00    5.513016e-01   7.497668e-03
  2.487869e+00    5.443310e-01   7.450169e-03
  2.490079e+00    5.363028e-01   7.394505e-03
  2.492290e+00    5.336176e-01   7.375529e-03
  2.494500e+00    5.415274e-01   7.429255e-03
  2.496710e+00    5.499617e-01   7.486190e-03
  2.498921e+00    5.464294e-01   7.461110e-03
  2.501131e+00    5.276778e-01   7.331034e-03
  2.503342e+00    5.194312e-01   7.272262e-03
  2.505552e+00    5.522279e-01   7.497168e-03
  2.507763e+00    5.512683e-01   7.489232e-03
  2.509973e+00    5.370350e-01   7.390514e-03
  2.512184e+00    5.264871e-01   7.315947e-03
  2.514394e+00    5.328915e-01   7.350907e-03
  2.516605e+00    5.398278e-01   7.350916e-03
  2.518815e+00    5.476932e-01   7.375394e-03
  2.521025e+00    5.447062e-01   7.333906e-03
  2.523236e+00    5.327211e-01   7.234675e-03
  2.525446e+00    5.334975e-01   7.224212e-03
  2.527657e+00    5.323949e-01   7.202043e-03
  2.529867e+00    5.474069e-01   7.288396e-03
  2.532078e+00    5.257512e-01   7.127735e-03
  2.534288e+00    5.441810e-01   7.237437e-03
  2.536499e+00    5.443033e-01   7.226097e-03
  2.538709e+00    5.502175e-01   7.253979e-03
  2.540920e+00    5.446077e-01   7.206062e-03
  2.543130e+00    5.348009e-01   7.130415e-03
  2.545340e+00    5.394112e-01   7.150875e-03
  2.547551e+00    5.358548e-01   7.117186e-03
  2.549761e+00    5.295578e-01   7.065608e-03
  2.551972e+00    5.187866e-01   6.984057e-03
  2.554182e+00    5.176742e-01   6.967406e-03
  2.556393e+00    5.216498e-01   6.985023e-03
  2.558603e+00    5.039307e-01   6.856431e-03
  2.560814e+00    5.191303e-01   6.950360e-03
  2.563024e+00    5.250301e-01   6.981124e-03
  2.565235e+00    5.163368e-01   6.913612e-03
  2.567445e+00    5.157934e-01   6.900440e-03
  2.569656e+00    5.090746e-01   6.845691e-03
  2.571866e+00    5.103934e-01   6.845267e-03
  2.574076e+00    5.009412e-01   6.772447e-03
  2.576287e+00    5.116512e-01   6.836195e-03
  2.578497e+00    5.032102e-01   6.771797e-03
  2.580708e+00    5.187403e-01   6.867409e-03
  2.582918e+00    5.183524e-01   6.857031e-03
  2.585129e+00    5.224873e-01   6.876534e-03
  2.587339e+00    5.133680e-01   6.808580e-03
  2.589550e+00    5.123177e-01   6.794074e-03
  2.591760e+00    5.016173e-01   6.715081e-03
  2.593971e+00    5.215894e-01   6.839843e-03
  2.596181e+00    5.212354e-01   6.831256e-03
  2.598391e+00    5.155982e-01   6.789018e-03
  2.600602e+00    5.102816e-01   6.747982e-03
  2.602812e+00    5.160885e-01   6.778695e-03
  2.605023e+00    5.096424e-01   6.729054e-03
  2.607233e+00    5.151470e-01   6.758092e-03
  2.609444e+00    5.113519e-01   6.725919e-03
  2.611654e+00    5.113762e-01   6.718706e-03
  2.613865e+00    5.180269e-01   6.755142e-03
  2.616075e+00    5.265615e-01   6.803280e-03
  2.618286e+00    5.149330e-01   6.720686e-03
  2.620496e+00    5.037578e-01   6.640671e-03
  2.622706e+00    4.982124e-01   6.598305e-03
  2.624917e+00    5.166821e-01   6.713578e-03
  2.627127e+00    5.180592e-01   6.716704e-03
  2.629338e+00    5.044453e-01   6.621887e-03
  2.631548e+00    4.987607e-01   6.578334e-03
  2.633759e+00    4.959047e-01   6.552347e-03
  2.635969e+00    5.101766e-01   6.639234e-03
  2.638180e+00    5.207423e-01   6.700508e-03
  2.640390e+00    5.124557e-01   6.640328e-03
  2.642601e+00    4.995505e-01   6.549505e-03
  2.644811e+00    5.075995e-01   6.594942e-03
  2.647021e+00    5.005998e-01   6.542746e-03
  2.649232e+00    4.920649e-01   6.480070e-03
  2.651442e+00    4.962046e-01   6.500758e-03
  2.653653e+00    4.970986e-01   6.499861e-03
  2.655863e+00    5.112364e-01   6.584845e-03
  2.658074e+00    5.169131e-01   6.614587e-03
  2.660284e+00    5.084768e-01   6.553970e-03
  2.662495e+00    5.057735e-01   6.529700e-03
  2.664705e+00    4.969441e-01   6.465895e-03
  2.666916e+00    4.965249e-01   6.456696e-03
  2.669126e+00    4.980199e-01   6.459939e-03
  2.671337e+00    4.967543e-01   6.445136e-03
  2.673547e+00    4.980079e-01   6.446871e-03
  2.675757e+00    4.803306e-01   6.325052e-03
  2.677968e+00    5.006478e-01   6.450878e-03
  2.680178e+00    4.901894e-01   6.376777e-03
  2.682389e+00    4.933202e-01   6.390688e-03
  2.684599e+00    4.936458e-01   6.386631e-03
  2.686810e+00    4.826039e-01   6.308240e-03
  2.689020e+00    4.926063e-01   6.366976e-03
  2.691231e+00    5.048078e-01   6.438980e-03
  2.693441e+00    4.915087e-01   6.347454e-03
  2.695652e+00    4.871866e-01   6.312977e-03
  2.697862e+00    4.982672e-01   6.377965e-03
  2.700072e+00    5.009503e-01   6.388965e-03
  2.702283e+00    5.036235e-01   6.399695e-03
  2.704493e+00    4.916424e-01   6.316798e-03
  2.706704e+00    4.953955e-01   6.334411e-03
  2.708914e+00    4.982386e-01   6.346535e-03
  2.711125e+00    4.979409e-01   6.338328e-03
  2.713335e+00    4.947708e-01   6.311981e-03
  2.715546e+00    4.936857e-01   6.298561e-03
  2.717756e+00    4.933411e-01   6.290422e-03
  2.719967e+00    4.978624e-01   6.312906e-03
  2.722177e+00    4.816531e-01   6.203182e-03
  2.724387e+00    4.895576e-01   6.247748e-03
  2.726598e+00    4.812011e-01   6.188156e-03
  2.728808e+00    4.801801e-01   6.175483e-03
  2.731019e+00    4.847598e-01   6.198715e-03
  2.733229e+00    4.971147e-01   6.271339e-03
  2.735440e+00    4.830219e-01   6.175564e-03
  2.737650e+00    4.882284e-01   6.202687e-03
  2.739861e+00    5.010958e-01   6.277718e-03
  2.742071e+00    4.952372e-01   6.235111e-03
  2.744282e+00    4.769999e-01   6.113017e-03
  2.746492e+00    4.839148e-01   6.151102e-03
  2.748702e+00    4.761900e-01   6.095954e-03
  2.750913e+00    4.824233e-01   6.129921e-03
  2.753123e+00    4.934031e-01   6.193096e-03
  2.755334e+00    4.786993e-01   6.094061e-03
  2.757544e+00    4.822581e-01   6.110914e-03
  2.759755e+00    4.862946e-01   6.130513e-03
  2.761965e+00    4.817621e-01   6.095913e-03
  2.764176e+00    4.813462e-01   6.087245e-03
  2.766386e+00    4.871330e-01   6.117924e-03
  2.768597e+00    4.714138e-01   6.012584e-03
  2.770807e+00    4.757166e-01   6.034090e-03
  2.773017e+00    4.899675e-01   6.117776e-03
  2.775228e+00    4.837507e-01   6.073029e-03
  2.777438e+00    4.845549e-01   6.072234e-03
  2.779649e+00    4.764376e-01   6.015277e-03
  2.781859e+00    4.768184e-01   6.011922e-03
  2.784070e+00    4.781967e-01   6.014720e-03
  2.786280e+00    4.833236e-01   6.041097e-03
  2.788491e+00    4.834284e-01   6.035863e-03
  2.790701e+00    4.733914e-01   5.967261e-03
  2.792912e+00    4.805948e-01   6.006474e-03
  2.795122e+00    4.829337e-01   6.015323e-03
  2.797333e+00    4.707676e-01   5.933531e-03
  2.799543e+00    4.705016e-01   5.926016e-03
  2.801753e+00    4.743516e-01   5.944364e-03
  2.803964e+00    4.781947e-01   5.962730e-03
  2.806174e+00    4.708616e-01   5.910699e-03
  2.808385e+00    4.755856e-01   5.933488e-03
  2.810595e+00    4.741786e-01   5.917826e-03
  2.812806e+00    4.819511e-01   5.959477e-03
  2.815016e+00    4.818349e-01   5.953973e-03
  2.817227e+00    4.809057e-01   5.974344e-03
  2.819437e+00    4.756465e-01   5.952707e-03
  2.821648e+00    4.594569e-01   5.852766e-03
  2.823858e+00    4.695531e-01   5.922029e-03
  2.826068e+00    4.788775e-01   5.985552e-03
  2.828279e+00    4.852847e-01   6.029562e-03
  2.830489e+00    4.737486e-01   5.960816e-03
  2.832700e+00    4.622197e-01   5.890361e-03
  2.834910e+00    4.806958e-01   6.009007e-03
  2.837121e+00    4.762950e-01   5.983170e-03
  2.839331e+00    4.746559e-01   5.974103e-03
  2.841542e+00    4.592875e-01   5.877598e-03
  2.843752e+00    4.731622e-01   5.966484e-03
  2.845963e+00    4.696783e-01   5.944889e-03
  2.848173e+00    4.707263e-01   5.951602e-03
  2.850383e+00    4.772310e-01   5.992866e-03
  2.852594e+00    4.788576e-01   6.003014e-03
  2.854804e+00    4.751496e-01   5.979206e-03
  2.857015e+00    4.670107e-01   5.927343e-03
  2.859225e+00    4.741442e-01   5.972188e-03
  2.861436e+00    4.714964e-01   5.954834e-03
  2.863646e+00    4.735613e-01   5.967889e-03
  2.865857e+00    4.774288e-01   5.992569e-03
  2.868067e+00    4.709291e-01   5.951852e-03
  2.870278e+00    4.649006e-01   5.913279e-03
  2.872488e+00    4.669453e-01   5.925108e-03
  2.874698e+00    4.550864e-01   5.848352e-03
  2.876909e+00    4.682328e-01   5.930869e-03
  2.879119e+00    4.840486e-01   6.028560e-03
  2.881330e+00    4.723764e-01   5.953957e-03
  2.883540e+00    4.617242e-01   5.885038e-03
  2.885751e+00    4.638785e-01   5.897111e-03
  2.887961e+00    4.656832e-01   5.906672e-03
  2.890172e+00    4.636140e-01   5.891935e-03
  2.892382e+00    4.600524e-01   5.867464e-03
  2.894593e+00    4.443313e-01   5.764539e-03
  2.896803e+00    4.713925e-01   5.935472e-03
  2.899014e+00    4.746158e-01   5.953812e-03
  2.901224e+00    4.634562e-01   5.881408e-03
  2.903434e+00    4.504163e-01   5.796136e-03
  2.905645e+00    4.661014e-01   5.893956e-03
  2.907855e+00    4.482858e-01   5.778146e-03
  2.910066e+00    4.587604e-01   5.843178e-03
  2.912276e+00    4.778580e-01   5.961402e-03
  2.914487e+00    4.630993e-01   5.866157e-03
  2.916697e+00    4.600477e-01   5.844571e-03
  2.918908e+00    4.599040e-01   5.841642e-03
  2.921118e+00    4.614303e-01   5.848619e-03
  2.923329e+00    4.591448e-01   5.831811e-03
  2.925539e+00    4.649813e-01   5.866450e-03
  2.927749e+00    4.646943e-01   5.862314e-03
  2.929960e+00    4.592580e-01   5.825141e-03
  2.932170e+00    4.560652e-01   5.802542e-03
  2.934381e+00    4.552723e-01   5.795022e-03
  2.936591e+00    4.680729e-01   5.873343e-03
  2.938802e+00    4.617928e-01   5.831071e-03
  2.941012e+00    4.668461e-01   5.860534e-03
  2.943223e+00    4.650964e-01   5.846818e-03
  2.945433e+00    4.551993e-01   5.780534e-03
  2.947644e+00    4.575034e-01   5.791005e-03
  2.949854e+00    4.659838e-01   5.840113e-03
  2.952064e+00    4.569453e-01   5.778961e-03
  2.954275e+00    4.562223e-01   5.769975e-03
  2.956485e+00    4.561765e-01   5.765484e-03
  2.958696e+00    4.631182e-01   5.804772e-03
  2.960906e+00    4.698350e-01   5.842480e-03
  2.963117e+00    4.625888e-01   5.792725e-03
  2.965327e+00    4.569480e-01   5.753377e-03
  2.967538e+00    4.589167e-01   5.762832e-03
  2.969748e+00    4.650877e-01   5.798600e-03
  2.971959e+00    4.569525e-01   5.744529e-03
  2.974169e+00    4.589068e-01   5.754192e-03
  2.976379e+00    4.595766e-01   5.755443e-03
  2.978590e+00    4.710025e-01   5.823379e-03
  2.980800e+00    4.633943e-01   5.773313e-03
  2.983011e+00    4.587441e-01   5.741472e-03
  2.985221e+00    4.522519e-01   5.697551e-03
  2.987432e+00    4.463863e-01   5.657393e-03
  2.989642e+00    4.555487e-01   5.712527e-03
  2.991853e+00    4.508483e-01   5.679721e-03
  2.994063e+00    4.463123e-01   5.648179e-03
  2.996274e+00    4.628304e-01   5.748526e-03
  2.998484e+00    4.692155e-01   5.785333e-03
  3.000694e+00    4.580215e-01   5.712410e-03
  3.002905e+00    4.668100e-01   5.763981e-03
  3.005115e+00    4.646192e-01   5.747424e-03
  3.007326e+00    4.533628e-01   5.674232e-03
  3.009536e+00    4.595863e-01   5.709748e-03
  3.011747e+00    4.599590e-01   5.709139e-03
  3.013957e+00    4.615081e-01   5.715529e-03
  3.016168e+00    4.474765e-01   5.624749e-03
  3.018378e+00    4.414340e-01   5.583630e-03
  3.020589e+00    4.519425e-01   5.646471e-03
  3.022799e+00    4.558882e-01   5.667914e-03
  3.025010e+00    4.481843e-01   5.616587e-03
  3.027220e+00    4.666183e-01   5.727766e-03
  3.029430e+00    4.622140e-01   5.697412e-03
  3.031641e+00    4.515024e-01   5.627842e-03
  3.033851e+00    4.592330e-01   5.672293e-03
  3.036062e+00    4.514668e-01   5.621336e-03
  3.038272e+00    4.574084e-01   5.654606e-03
  3.040483e+00    4.626979e-01   5.683951e-03
  3.042693e+00    4.579432e-01   5.651389e-03
  3.044904e+00    4.425153e-01   5.551378e-03
  3.047114e+00    4.636081e-01   5.677272e-03
  3.049325e+00    4.630822e-01   5.669597e-03
  3.051535e+00    4.743311e-01   5.733545e-03
  3.053745e+00    4.718114e-01   5.713437e-03
  3.055956e+00    4.529135e-01   5.593269e-03
  3.058166e+00    4.413888e-01   5.517413e-03
  3.060377e+00    4.580099e-01   5.615524e-03
  3.062587e+00    4.502034e-01   5.562844e-03
  3.064798e+00    4.490823e-01   5.551653e-03
  3.067008e+00    4.597579e-01   5.612459e-03
  3.069219e+00    4.668612e-01   5.651074e-03
  3.071429e+00    4.546812e-01   5.573339e-03
  3.073640e+00    4.558941e-01   5.577408e-03
  3.075850e+00    4.433598e-01   5.496636e-03
  3.078060e+00    4.467479e-01   5.514499e-03
  3.080271e+00    4.622116e-01   5.605611e-03
  3.082481e+00    4.584102e-01   5.579027e-03
  3.084692e+00    4.475808e-01   5.509353e-03
  3.086902e+00    4.470727e-01   5.502989e-03
  3.089113e+00    4.550994e-01   5.548574e-03
  3.091323e+00    4.494878e-01   5.510858e-03
  3.093534e+00    4.621619e-01   5.584619e-03
  3.095744e+00    4.560954e-01   5.544419e-03
  3.097955e+00    4.539537e-01   5.527818e-03
  3.100165e+00    4.556991e-01   5.535070e-03
  3.102375e+00    4.461060e-01   5.473085e-03
  3.104586e+00    4.429610e-01   5.450283e-03
  3.106796e+00    4.440649e-01   5.453550e-03
  3.109007e+00    4.576385e-01   5.533015e-03
  3.111217e+00    4.505242e-01   5.486128e-03
  3.113428e+00    4.513334e-01   5.487625e-03
  3.115638e+00    4.508336e-01   5.481326e-03
  3.117849e+00    4.522772e-01   5.486345e-03
  3.120059e+00    4.487851e-01   5.461652e-03
  3.122270e+00    4.361705e-01   5.381103e-03
  3.124480e+00    4.392138e-01   5.396204e-03
  3.126691e+00    4.510140e-01   5.464601e-03
  3.128901e+00    4.469723e-01   5.436932e-03
  3.131111e+00    4.615997e-01   5.521276e-03
  3.133322e+00    4.508183e-01   5.452946e-03
  3.135532e+00    4.512333e-01   5.452025e-03
  3.137743e+00    4.375640e-01   5.365365e-03
  3.139953e+00    4.340681e-01   5.340239e-03
  3.142164e+00    4.422980e-01   5.402606e-03
  3.144374e+00    4.574879e-01   5.523515e-03
  3.146585e+00    4.486630e-01   5.484625e-03
  3.148795e+00    4.442248e-01   5.468252e-03
  3.151006e+00    4.488705e-01   5.505360e-03
  3.153216e+00    4.528256e-01   5.536808e-03
  3.155426e+00    4.591982e-01   5.582054e-03
  3.157637e+00    4.484584e-01   5.521977e-03
  3.159847e+00    4.449873e-01   5.505458e-03
  3.162058e+00    4.561463e-01   5.578568e-03
  3.164268e+00    4.429164e-01   5.501158e-03
  3.166479e+00    4.481730e-01   5.537392e-03
  3.168689e+00    4.491081e-01   5.546558e-03
  3.170900e+00    4.495994e-01   5.552811e-03
  3.173110e+00    4.423450e-01   5.510712e-03
  3.175321e+00    4.390408e-01   5.492586e-03
  3.177531e+00    4.433405e-01   5.522167e-03
  3.179741e+00    4.478700e-01   5.552415e-03
  3.181952e+00    4.517040e-01   5.578249e-03
  3.184162e+00    4.407665e-01   5.512540e-03
  3.186373e+00    4.270464e-01   5.427620e-03
  3.188583e+00    4.355605e-01   5.483232e-03
  3.190794e+00    4.459208e-01   5.549852e-03
  3.193004e+00    4.311292e-01   5.458266e-03
  3.195215e+00    4.323077e-01   5.467218e-03
  3.197425e+00    4.247256e-01   5.420242e-03
  3.199636e+00    4.391167e-01   5.510544e-03
  3.201846e+00    4.370426e-01   5.496913e-03
  3.204056e+00    4.371462e-01   5.498434e-03
  3.206267e+00    4.471382e-01   5.561802e-03
  3.208477e+00    4.234404e-01   5.413336e-03
  3.210688e+00    4.263628e-01   5.432791e-03
  3.212898e+00    4.310540e-01   5.463187e-03
  3.215109e+00    4.257624e-01   5.430290e-03
  3.217319e+00    4.284342e-01   5.447952e-03
  3.219530e+00    4.249731e-01   5.426263e-03
  3.221740e+00    4.265227e-01   5.436740e-03
  3.223951e+00    4.099114e-01   5.330255e-03
  3.226161e+00    4.347750e-01   5.489701e-03
  3.228372e+00    4.343295e-01   5.487462e-03
  3.230582e+00    4.260224e-01   5.434852e-03
  3.232792e+00    4.299074e-01   5.459814e-03
  3.235003e+00    4.207363e-01   5.401486e-03
  3.237213e+00    4.413973e-01   5.532628e-03
  3.239424e+00    4.437086e-01   5.547099e-03
  3.241634e+00    4.256431e-01   5.433140e-03
  3.243845e+00    4.256345e-01   5.433134e-03
  3.246055e+00    4.372134e-01   5.506268e-03
  3.248266e+00    4.336779e-01   5.484172e-03
  3.250476e+00    4.316280e-01   5.470887e-03
  3.252687e+00    4.169948e-01   5.377268e-03
  3.254897e+00    4.340932e-01   5.486270e-03
  3.257107e+00    4.278862e-01   5.446624e-03
  3.259318e+00    4.311410e-01   5.467045e-03
  3.261528e+00    4.236819e-01   5.419410e-03
  3.263739e+00    4.304679e-01   5.462076e-03
  3.265949e+00    4.237666e-01   5.419271e-03
  3.268160e+00    4.417098e-01   5.532378e-03
  3.270370e+00    4.331629e-01   5.478110e-03
  3.272581e+00    4.212217e-01   5.401775e-03
  3.274791e+00    4.241847e-01   5.420221e-03
  3.277002e+00    4.314442e-01   5.465820e-03
  3.279212e+00    4.269197e-01   5.436721e-03
  3.281422e+00    4.238881e-01   5.416811e-03
  3.283633e+00    4.178291e-01   5.377274e-03
  3.285843e+00    4.186887e-01   5.382475e-03
  3.288054e+00    4.153837e-01   5.360237e-03
  3.290264e+00    4.344798e-01   5.481765e-03
  3.292475e+00    4.327334e-01   5.469888e-03
  3.294685e+00    4.300240e-01   5.452109e-03
  3.296896e+00    4.277394e-01   5.436833e-03
  3.299106e+00    4.283468e-01   5.440142e-03
  3.301317e+00    4.225871e-01   5.402426e-03
  3.303527e+00    4.391053e-01   5.506495e-03
  3.305737e+00    4.347761e-01   5.478258e-03
  3.307948e+00    4.257630e-01   5.420496e-03
  3.310158e+00    4.193514e-01   5.378664e-03
  3.312369e+00    4.470919e-01   5.552825e-03
  3.314579e+00    4.153726e-01   5.351332e-03
  3.316790e+00    4.235163e-01   5.402815e-03
  3.319000e+00    4.287457e-01   5.434875e-03
  3.321211e+00    4.196907e-01   5.376570e-03
  3.323421e+00    4.222023e-01   5.391435e-03
  3.325632e+00    4.322478e-01   5.454299e-03
  3.327842e+00    4.258581e-01   5.412916e-03
  3.330052e+00    4.260110e-01   5.412817e-03
  3.332263e+00    4.175127e-01   5.357529e-03
  3.334473e+00    4.204516e-01   5.375451e-03
  3.336684e+00    4.390368e-01   5.491681e-03
  3.338894e+00    4.403155e-01   5.498812e-03
  3.341105e+00    4.324323e-01   5.448136e-03
  3.343315e+00    4.352836e-01   5.464915e-03
  3.345526e+00    4.379299e-01   5.480597e-03
  3.347736e+00    4.184766e-01   5.356065e-03
  3.349947e+00    4.273440e-01   5.411581e-03
  3.352157e+00    4.150401e-01   5.331934e-03
  3.354368e+00    4.265022e-01   5.403754e-03
  3.356578e+00    4.278294e-01   5.411120e-03
  3.358788e+00    4.336430e-01   5.446424e-03
  3.360999e+00    4.186416e-01   5.350134e-03
  3.363209e+00    4.230002e-01   5.376888e-03
  3.365420e+00    4.242855e-01   5.383526e-03
  3.367630e+00    4.172063e-01   5.337405e-03
  3.369841e+00    4.101170e-01   5.290461e-03
  3.372051e+00    4.100352e-01   5.287964e-03
  3.374262e+00    4.269889e-01   5.393686e-03
  3.376472e+00    4.202069e-01   5.348273e-03
  3.378683e+00    4.232439e-01   5.364992e-03
  3.380893e+00    4.180751e-01   5.329822e-03
  3.383103e+00    4.221461e-01   5.352947e-03
  3.385314e+00    4.292696e-01   5.395697e-03
  3.387524e+00    4.139595e-01   5.295842e-03
  3.389735e+00    4.163873e-01   5.308723e-03
  3.391945e+00    4.150009e-01   5.296195e-03
  3.394156e+00    4.108791e-01   5.265620e-03
  3.396366e+00    4.072716e-01   5.239069e-03
  3.398577e+00    4.048660e-01   5.220535e-03
  3.400787e+00    4.124849e-01   5.281382e-03
  3.402998e+00    4.144500e-01   5.332213e-03
  3.405208e+00    3.877753e-01   5.177973e-03
  3.407418e+00    3.927390e-01   5.226595e-03
  3.409629e+00    4.009647e-01   5.295043e-03
  3.411839e+00    3.979451e-01   5.286801e-03
  3.414050e+00    4.084715e-01   5.367433e-03
  3.416260e+00    3.936803e-01   5.278982e-03
  3.418471e+00    4.026156e-01   5.348071e-03
  3.420681e+00    4.096870e-01   5.403511e-03
  3.422892e+00    4.061511e-01   5.388322e-03
  3.425102e+00    3.938023e-01   5.313615e-03
  3.427313e+00    3.919798e-01   5.308525e-03
  3.429523e+00    4.008571e-01   5.375511e-03
  3.431733e+00    3.767047e-01   5.217606e-03
  3.433944e+00    3.837711e-01   5.272800e-03
  3.436154e+00    3.800399e-01   5.253347e-03
  3.438365e+00    3.849946e-01   5.293402e-03
  3.440575e+00    3.823412e-01   5.281089e-03
  3.442786e+00    3.802294e-01   5.272103e-03
  3.444996e+00    3.858882e-01   5.316736e-03
  3.447207e+00    3.787658e-01   5.272786e-03
  3.449417e+00    3.680386e-01   5.238184e-03
  3.451628e+00    3.599335e-01   5.209283e-03
  3.453838e+00    3.668119e-01   5.279943e-03
  3.456049e+00    3.731155e-01   5.349218e-03
  3.458259e+00    3.743184e-01   5.380018e-03
  3.460469e+00    3.660128e-01   5.339770e-03
  3.462680e+00    3.700607e-01   5.388366e-03
  3.464890e+00    3.719434e-01   5.419980e-03
  3.467101e+00    3.663132e-01   5.396261e-03
  3.469311e+00    3.676762e-01   5.422758e-03
  3.471522e+00    3.771597e-01   5.508690e-03
  3.473732e+00    3.870669e-01   5.596722e-03
  3.475943e+00    3.932199e-01   5.656919e-03
  3.478153e+00    4.172922e-01   5.843524e-03
  3.480364e+00    4.143058e-01   5.838137e-03
  3.482574e+00    4.264541e-01   5.938871e-03
  3.484784e+00    4.271100e-01   5.958604e-03
  3.486995e+00    4.261008e-01   5.966834e-03
  3.489205e+00    4.359990e-01   6.050649e-03
  3.491416e+00    4.256694e-01   5.993420e-03
  3.493626e+00    4.503712e-01   6.179703e-03
  3.495837e+00    4.524847e-01   6.209159e-03
  3.498047e+00    4.492878e-01   6.201748e-03
  3.500258e+00    4.767619e-01   6.403522e-03
  3.502468e+00    4.518608e-01   6.248449e-03
  3.504679e+00    4.653576e-01   6.355642e-03
  3.506889e+00    4.749897e-01   6.435653e-03
  3.509099e+00    4.697132e-01   6.414128e-03
  3.511310e+00    4.987099e-01   6.623950e-03
  3.513520e+00    4.990703e-01   6.641039e-03
  3.515731e+00    5.015806e-01   6.672310e-03
  3.517941e+00    5.205160e-01   6.811890e-03
  3.520152e+00    5.164822e-01   6.800069e-03
  3.522362e+00    5.308033e-01   6.908633e-03
  3.524573e+00    5.124509e-01   6.802512e-03
  3.526783e+00    5.355420e-01   6.967730e-03
  3.528994e+00    5.296189e-01   6.941537e-03
  3.531204e+00    5.305250e-01   6.959989e-03
  3.533414e+00    5.511683e-01   7.106479e-03
  3.535625e+00    5.383845e-01   7.036120e-03
  3.537835e+00    5.402952e-01   7.060749e-03
  3.540046e+00    5.530928e-01   7.152971e-03
  3.542256e+00    5.439734e-01   7.101347e-03
  3.544467e+00    5.629206e-01   7.231780e-03
  3.546677e+00    5.511128e-01   7.163213e-03
  3.548888e+00    5.479510e-01   7.150220e-03
  3.551098e+00    5.471001e-01   7.152035e-03
  3.553309e+00    5.282421e-01   7.035807e-03
  3.555519e+00    5.322838e-01   7.073878e-03
  3.557729e+00    5.344648e-01   7.100111e-03
  3.559940e+00    5.269538e-01   7.061477e-03
  3.562150e+00    5.408770e-01   7.165909e-03
  3.564361e+00    5.510800e-01   7.246698e-03
  3.566571e+00    5.472087e-01   7.235160e-03
  3.568782e+00    5.403091e-01   7.203613e-03
  3.570992e+00    5.403792e-01   7.217875e-03
  3.573203e+00    5.379694e-01   7.215924e-03
  3.575413e+00    5.460472e-01   7.283786e-03
  3.577624e+00    5.563603e-01   7.366661e-03
  3.579834e+00    5.421056e-01   7.285642e-03
  3.582045e+00    5.318285e-01   7.230218e-03
  3.584255e+00    5.366489e-01   7.276970e-03
  3.586465e+00    5.439130e-01   7.340095e-03
  3.588676e+00    5.315045e-01   7.270029e-03
  3.590886e+00    5.489749e-01   7.402399e-03
  3.593097e+00    5.477102e-01   7.408537e-03
  3.595307e+00    5.464128e-01   7.413832e-03
  3.597518e+00    5.414059e-01   7.394071e-03
  3.599728e+00    5.434950e-01   7.422523e-03
  3.601939e+00    5.443366e-01   7.442448e-03
  3.604149e+00    5.481136e-01   7.482803e-03
  3.606360e+00    5.381831e-01   7.428892e-03
  3.608570e+00    5.445673e-01   7.487086e-03
  3.610780e+00    5.328238e-01   7.416996e-03
  3.612991e+00    5.338380e-01   7.434015e-03
  3.615201e+00    5.423307e-01   7.502775e-03
  3.617412e+00    5.432221e-01   7.516310e-03
  3.619622e+00    5.384640e-01   7.489252e-03
  3.621833e+00    5.493608e-01   7.571487e-03
  3.624043e+00    5.332223e-01   7.468952e-03
  3.626254e+00    5.183033e-01   7.373249e-03
  3.628464e+00    5.549332e-01   7.640533e-03
  3.630675e+00    5.594978e-01   7.686346e-03
  3.632885e+00    5.571064e-01   7.684669e-03
  3.635095e+00    5.621034e-01   7.733812e-03
  3.637306e+00    5.731335e-01   7.824254e-03
  3.639516e+00    5.542794e-01   7.709286e-03
  3.641727e+00    5.498515e-01   7.693211e-03
  3.643937e+00    5.511040e-01   7.716771e-03
  3.646148e+00    5.359994e-01   7.624952e-03
  3.648358e+00    5.370612e-01   7.647365e-03
  3.650569e+00    5.446365e-01   7.716046e-03
  3.652779e+00    5.318606e-01   7.639744e-03
  3.654990e+00    5.287551e-01   7.632262e-03
  3.657200e+00    5.382114e-01   7.715175e-03
  3.659410e+00    5.303914e-01   7.673878e-03
  3.661621e+00    5.303959e-01   7.688969e-03
  3.663831e+00    5.178262e-01   7.612256e-03
  3.666042e+00    5.253555e-01   7.682457e-03
  3.668252e+00    5.267722e-01   7.707968e-03
  3.670463e+00    5.426448e-01   7.838663e-03
  3.672673e+00    5.280045e-01   7.747555e-03
  3.674884e+00    5.381975e-01   7.837480e-03
  3.677094e+00    5.435219e-01   7.891882e-03
  3.679305e+00    5.494732e-01   7.950800e-03
  3.681515e+00    5.387250e-01   7.888389e-03
  3.683726e+00    5.396353e-01   7.910996e-03
  3.685936e+00    5.309914e-01   7.863133e-03
  3.688146e+00    5.109910e-01   7.729155e-03
  3.690357e+00    5.160711e-01   7.783222e-03
  3.692567e+00    5.182682e-01   7.815753e-03
  3.694778e+00    5.457754e-01   8.036815e-03
  3.696988e+00    5.399626e-01   8.010147e-03
  3.699199e+00    4.958791e-01   7.691965e-03
  3.701409e+00    5.136221e-01   7.844548e-03
  3.703620e+00    5.101339e-01   7.833923e-03
  3.705830e+00    5.307733e-01   8.007345e-03
  3.708041e+00    5.404250e-01   8.096694e-03
  3.710251e+00    5.270618e-01   8.012704e-03
  3.712461e+00    5.348949e-01   8.088965e-03
  3.714672e+00    5.362077e-01   8.115865e-03
  3.716882e+00    5.379999e-01   8.146382e-03
  3.719093e+00    5.290137e-01   8.095361e-03
  3.721303e+00    5.092413e-01   7.959411e-03
  3.723514e+00    5.307177e-01   8.142957e-03
  3.725724e+00    5.317506e-01   8.168289e-03
  3.727935e+00    5.329567e-01   8.195217e-03
  3.730145e+00    5.419829e-01   8.282084e-03
  3.732356e+00    5.257102e-01   8.174540e-03
  3.734566e+00    5.162094e-01   8.117809e-03
  3.736776e+00    5.396019e-01   8.317923e-03
  3.738987e+00    5.172833e-01   8.161887e-03
  3.741197e+00    5.182084e-01   8.187277e-03
  3.743408e+00    5.370024e-01   8.352879e-03
  3.745618e+00    5.045008e-01   8.114313e-03
  3.747829e+00    5.123675e-01   8.195453e-03
  3.750039e+00    5.131902e-01   8.220431e-03
  3.752250e+00    4.954249e-01   8.095097e-03
  3.754460e+00    5.094291e-01   8.227190e-03
  3.756671e+00    5.141400e-01   8.284079e-03
  3.758881e+00    4.917275e-01   8.119837e-03
  3.761091e+00    5.189068e-01   8.360489e-03
  3.763302e+00    5.109535e-01   8.315383e-03
  3.765512e+00    5.135064e-01   8.355456e-03
  3.767723e+00    5.348555e-01   8.547217e-03
  3.769933e+00    5.368375e-01   8.582987e-03
  3.772144e+00    5.322770e-01   8.566530e-03
  3.774354e+00    5.245352e-01   8.524264e-03
  3.776565e+00    4.825859e-01   8.195641e-03
  3.778775e+00    5.075444e-01   8.424906e-03
  3.780986e+00    5.306427e-01   8.635337e-03
  3.783196e+00    5.275874e-01   8.631170e-03
  3.785407e+00    5.119620e-01   8.523047e-03
  3.787617e+00    5.190728e-01   8.603035e-03
  3.789827e+00    5.314356e-01   8.726065e-03
  3.792038e+00    4.957493e-01   8.448661e-03
  3.794248e+00    5.259593e-01   8.723957e-03
  3.796459e+00    5.229440e-01   8.720715e-03
  3.798669e+00    5.330345e-01   8.826540e-03
  3.800880e+00    4.986461e-01   8.558488e-03
  3.803090e+00    5.145368e-01   8.715884e-03
  3.805301e+00    5.218825e-01   8.800436e-03
  3.807511e+00    5.258495e-01   8.856428e-03
  3.809722e+00    5.077665e-01   8.725223e-03
  3.811932e+00    4.965753e-01   8.650623e-03
  3.814142e+00    5.137941e-01   8.822617e-03
  3.816353e+00    5.040301e-01   8.761291e-03
  3.818563e+00    5.155396e-01   8.884260e-03
  3.820774e+00    5.138127e-01   8.892891e-03
  3.822984e+00    4.955864e-01   8.757062e-03
  3.825195e+00    4.963610e-01   8.787601e-03
  3.827405e+00    5.132515e-01   8.960078e-03
  3.829616e+00    5.085554e-01   8.943339e-03
  3.831826e+00    5.116693e-01   8.995205e-03
  3.834037e+00    5.006464e-01   8.922389e-03
  3.836247e+00    5.159230e-01   9.082641e-03
  3.838457e+00    4.841257e-01   8.822998e-03
  3.840668e+00    5.259704e-01   9.222325e-03
  3.842878e+00    5.092043e-01   9.100043e-03
  3.845089e+00    5.152877e-01   9.180288e-03
  3.847299e+00    5.233346e-01   9.278190e-03
  3.849510e+00    5.217683e-01   9.290836e-03
  3.851720e+00    5.267937e-01   9.357580e-03
  3.853931e+00    5.320172e-01   9.423558e-03
  3.856141e+00    5.171489e-01   9.310379e-03
  3.858352e+00    4.907755e-01   9.089055e-03
  3.860562e+00    4.918061e-01   9.117850e-03
  3.862772e+00    5.029166e-01   9.239992e-03
  3.864983e+00    4.940938e-01   9.178327e-03
  3.867193e+00    5.019382e-01   9.270802e-03
  3.869404e+00    4.946704e-01   9.223278e-03
  3.871614e+00    4.842067e-01   9.144992e-03
  3.873825e+00    4.852035e-01   9.174590e-03
  3.876035e+00    4.590136e-01   8.943370e-03
  3.878246e+00    4.698736e-01   9.073719e-03
  3.880456e+00    4.859281e-01   9.256232e-03
  3.882667e+00    4.978875e-01   9.398952e-03
  3.884877e+00    4.778657e-01   9.237340e-03
  3.887087e+00    4.814378e-01   9.301434e-03
  3.889298e+00    4.780082e-01   9.298242e-03
  3.891508e+00    4.935132e-01   9.478382e-03
  3.893719e+00    4.987746e-01   9.560066e-03
  3.895929e+00    4.736924e-01   9.347479e-03
  3.898140e+00    4.630225e-01   9.272393e-03
  3.900350e+00    4.910882e-01   9.581374e-03
  3.902561e+00    4.927055e-01   9.629615e-03
  3.904771e+00    5.106505e-01   9.836940e-03
  3.906982e+00    5.018224e-01   9.785108e-03
  3.909192e+00    5.084110e-01   9.883242e-03
  3.911403e+00    4.859994e-01   9.696863e-03
  3.913613e+00    4.954309e-01   9.825018e-03
  3.915823e+00    5.104132e-01   1.000802e-02
  3.918034e+00    4.841169e-01   9.782035e-03
  3.920244e+00    4.795500e-01   9.771025e-03
  3.922455e+00    4.779283e-01   9.790299e-03
  3.924665e+00    5.026559e-01   1.007729e-02
  3.926876e+00    4.804226e-01   9.888752e-03
  3.929086e+00    4.977761e-01   1.010346e-02
  3.931297e+00    4.887492e-01   1.004637e-02
  3.933507e+00    4.826520e-01   1.001228e-02
  3.935718e+00    4.800071e-01   1.001329e-02
  3.937928e+00    5.159426e-01   1.041165e-02
  3.940138e+00    5.081527e-01   1.036274e-02
  3.942349e+00    4.977345e-01   1.028613e-02
  3.944559e+00    4.893549e-01   1.022924e-02
  3.946770e+00    4.622054e-01   9.970899e-03
  3.948980e+00    4.756673e-01   1.014533e-02
  3.951191e+00    5.018711e-01   1.045239e-02
  3.953401e+00    4.933325e-01   1.039469e-02
  3.955612e+00    5.062692e-01   1.056236e-02
  3.957822e+00    5.207614e-01   1.074529e-02
  3.960033e+00    4.871284e-01   1.042525e-02
  3.962243e+00    4.997520e-01   1.059265e-02
  3.964453e+00    4.838606e-01   1.045601e-02
  3.966664e+00    4.941990e-01   1.060080e-02
  3.968874e+00    4.817779e-01   1.049499e-02
  3.971085e+00    4.971254e-01   1.068298e-02
  3.973295e+00    4.834604e-01   1.055662e-02
  3.975506e+00    5.140479e-01   1.090768e-02
  3.977716e+00    4.859242e-01   1.062715e-02
  3.979927e+00    5.057450e-01   1.086424e-02
  3.982137e+00    4.692853e-01   1.048727e-02
  3.984348e+00    4.818979e-01   1.064972e-02
  3.986558e+00    5.198038e-01   1.108371e-02
  3.988768e+00    4.871142e-01   1.075266e-02
  3.990979e+00    5.049143e-01   1.097046e-02
  3.993189e+00    5.185764e-01   1.114181e-02
  3.995400e+00    4.922163e-01   1.087873e-02
  3.997610e+00    5.129451e-01   1.113604e-02
  3.999821e+00    5.139037e-01   1.118500e-02
  4.002031e+00    5.190011e-01   1.128013e-02
  4.004242e+00    5.098707e-01   1.121992e-02
  4.006452e+00    5.027825e-01   1.118183e-02
  4.008663e+00    5.062705e-01   1.126131e-02
  4.010873e+00    4.991732e-01   1.122276e-02
  4.013084e+00    4.925289e-01   1.118903e-02
  4.015294e+00    5.087717e-01   1.141412e-02
  4.017504e+00    4.869110e-01   1.120815e-02
  4.019715e+00    4.909907e-01   1.129766e-02
  4.021925e+00    5.111055e-01   1.157105e-02
  4.024136e+00    4.695664e-01   1.113399e-02
  4.026346e+00    4.839383e-01   1.134708e-02
  4.028557e+00    4.922564e-01   1.148898e-02
  4.030767e+00    4.826995e-01   1.142238e-02
  4.032978e+00    4.645163e-01   1.125078e-02
  4.035188e+00    4.301602e-01   1.087010e-02
  4.037399e+00    4.749454e-01   1.146908e-02
  4.039609e+00    5.209053e-01   1.206078e-02
  4.041819e+00    4.857472e-01   1.169564e-02
  4.044030e+00    4.941995e-01   1.184730e-02
  4.046240e+00    4.922445e-01   1.187418e-02
  4.048451e+00    5.000414e-01   1.201973e-02
  4.050661e+00    5.004872e-01   1.207756e-02
  4.052872e+00    4.839764e-01   1.192935e-02
  4.055082e+00    4.734413e-01   1.185180e-02
  4.057293e+00    4.915888e-01   1.213098e-02
  4.059503e+00    4.997185e-01   1.228660e-02
  4.061714e+00    4.937591e-01   1.227027e-02
  4.063924e+00    4.820307e-01   1.218042e-02
  4.066134e+00    4.961758e-01   1.241603e-02
  4.068345e+00    4.953656e-01   1.246565e-02
  4.070555e+00    4.967818e-01   1.254364e-02
  4.072766e+00    5.169313e-01   1.285851e-02
  4.074976e+00    5.267707e-01   1.304512e-02
  4.077187e+00    5.295847e-01   1.314495e-02
  4.079397e+00    4.761487e-01   1.252771e-02
  4.081608e+00    5.007814e-01   1.291456e-02
  4.083818e+00    4.979950e-01   1.294540e-02
  4.086029e+00    5.146019e-01   1.322907e-02
  4.088239e+00    4.896449e-01   1.297377e-02
  4.090449e+00    4.736432e-01   1.282908e-02
  4.092660e+00    4.823983e-01   1.301848e-02
  4.094870e+00    4.656277e-01   1.286119e-02
  4.097081e+00    4.971495e-01   1.336221e-02
  4.099291e+00    4.797632e-01   1.318083e-02
  4.101502e+00    5.061626e-01   1.358920e-02
  4.103712e+00    4.897251e-01   1.341643e-02
  4.105923e+00    4.839432e-01   1.338872e-02
  4.108133e+00    4.876538e-01   1.349162e-02
  4.110344e+00    5.117484e-01   1.387391e-02
  4.112554e+00    4.618337e-01   1.323192e-02
  4.114764e+00    5.316926e-01   1.425454e-02
  4.116975e+00    5.024577e-01   1.391182e-02
  4.119185e+00    5.187657e-01   1.419311e-02
  4.121396e+00    5.369588e-01   1.449943e-02
  4.123606e+00    5.175996e-01   1.429417e-02
  4.125817e+00    4.791445e-01   1.381050e-02
  4.128027e+00    5.014135e-01   1.418734e-02
  4.130238e+00    4.607721e-01   1.365841e-02
  4.132448e+00    5.015254e-01   1.431148e-02
  4.134659e+00    5.026609e-01   1.438947e-02
  4.136869e+00    5.054575e-01   1.449369e-02
  4.139080e+00    4.819445e-01   1.421630e-02
  4.141290e+00    5.041375e-01   1.460446e-02
  4.143500e+00    4.836487e-01   1.437064e-02
  4.145711e+00    4.626687e-01   1.412105e-02
  4.147921e+00    4.645095e-01   1.421394e-02
  4.150132e+00    4.934680e-01   1.472035e-02
  4.152342e+00    4.861988e-01   1.468234e-02
  4.154553e+00    4.480018e-01   1.416068e-02
  4.156763e+00    4.560575e-01   1.435832e-02
  4.158974e+00    4.880435e-01   1.492763e-02
  4.161184e+00    4.987946e-01   1.516651e-02
  4.163395e+00    4.650255e-01   1.471848e-02
  4.165605e+00    5.045935e-01   1.541179e-02
  4.167815e+00    4.802771e-01   1.511437e-02
  4.170026e+00    5.297771e-01   1.595754e-02
  4.172236e+00    5.308567e-01   1.606049e-02
  4.174447e+00    4.523250e-01   1.490540e-02
  4.176657e+00    4.683336e-01   1.524988e-02
  4.178868e+00    5.315139e-01   1.633799e-02
  4.181078e+00    4.394777e-01   1.494011e-02
  4.183289e+00    4.986328e-01   1.600462e-02
  4.185499e+00    5.050364e-01   1.620223e-02
  4.187710e+00    4.919026e-01   1.608408e-02
  4.189920e+00    4.781617e-01   1.595289e-02
  4.192130e+00    5.127504e-01   1.662109e-02
  4.194341e+00    5.047307e-01   1.659154e-02
  4.196551e+00    5.305891e-01   1.711919e-02
  4.198762e+00    4.825254e-01   1.642892e-02
  4.200972e+00    4.888545e-01   1.664336e-02
  4.203183e+00    4.929264e-01   1.682258e-02
  4.205393e+00    5.047280e-01   1.713605e-02
  4.207604e+00    5.149039e-01   1.742639e-02
  4.209814e+00    4.861138e-01   1.704803e-02
  4.212025e+00    5.059955e-01   1.751654e-02
  4.214235e+00    5.001376e-01   1.753835e-02
  4.216445e+00    4.628971e-01   1.699453e-02
  4.218656e+00    4.382153e-01   1.665937e-02
  4.220866e+00    4.793273e-01   1.755226e-02
  4.223077e+00    4.462219e-01   1.706542e-02
  4.225287e+00    4.935634e-01   1.808920e-02
  4.227498e+00    4.508210e-01   1.742380e-02
  4.229708e+00    4.842314e-01   1.820485e-02
  4.231919e+00    5.189846e-01   1.900226e-02
  4.234129e+00    5.037090e-01   1.887814e-02
  4.236340e+00    4.845169e-01   1.867316e-02
  4.238550e+00    4.713568e-01   1.858042e-02
  4.240761e+00    4.681061e-01   1.867968e-02
  4.242971e+00    4.795868e-01   1.908044e-02
  4.245181e+00    5.285716e-01   2.021950e-02
  4.247392e+00    5.048856e-01   1.994634e-02
  4.249602e+00    4.763639e-01   1.956682e-02
  4.251813e+00    4.506465e-01   1.921912e-02
  4.254023e+00    4.219571e-01   1.878460e-02
  4.256234e+00    4.923767e-01   2.050781e-02
  4.258444e+00    5.599309e-01   2.209910e-02
  4.260655e+00    5.103744e-01   2.133054e-02
  4.262865e+00    5.058861e-01   2.147716e-02
  4.265076e+00    4.758630e-01   2.106697e-02
  4.267286e+00    5.129408e-01   2.213160e-02
  4.269496e+00    4.715099e-01   2.147861e-02
  4.271707e+00    4.791052e-01   2.191759e-02
  4.273917e+00    4.597315e-01   2.174768e-02
  4.276128e+00    3.942417e-01   2.040665e-02
  4.278338e+00    4.427485e-01   2.191423e-02
  4.280549e+00    4.791551e-01   2.312506e-02
  4.282759e+00    4.336684e-01   2.231563e-02
  4.284970e+00    4.828458e-01   2.389551e-02
  4.287180e+00    4.913303e-01   2.439363e-02
  4.289391e+00    4.646596e-01   2.390059e-02
  4.291601e+00    4.265633e-01   2.308221e-02
  4.293811e+00    4.742266e-01   2.452811e-02
  4.296022e+00    5.371696e-01   2.631504e-02
  4.298232e+00    5.400881e-01   2.660733e-02
  4.300443e+00    5.165219e-01   2.623554e-02
  4.302653e+00    4.702497e-01   2.524916e-02
  4.304864e+00    4.982219e-01   2.621432e-02
  4.307074e+00    5.616352e-01   2.808270e-02
  4.309285e+00    5.413036e-01   2.782069e-02
  4.311495e+00    4.992008e-01   2.696620e-02
  4.313706e+00    4.327117e-01   2.534258e-02
  4.315916e+00    5.053524e-01   2.765635e-02
  4.318126e+00    5.876985e-01   3.012043e-02
  4.320337e+00    3.902644e-01   2.479320e-02
  4.322547e+00    4.374947e-01   2.652824e-02
  4.324758e+00    4.526457e-01   2.726384e-02
  4.326968e+00    5.850328e-01   3.134530e-02
  4.329179e+00    4.857381e-01   2.887706e-02
  4.331389e+00    4.702059e-01   2.873922e-02
  4.333600e+00    4.230297e-01   2.758415e-02
  4.335810e+00    5.442560e-01   3.165911e-02
  4.338021e+00    6.293389e-01   3.448142e-02
  4.340231e+00    5.227961e-01   3.182139e-02
  4.342442e+00    4.907708e-01   3.124559e-02
  4.344652e+00    4.858350e-01   3.150928e-02
  4.346862e+00    4.101274e-01   2.935679e-02
  4.349073e+00    3.655792e-01   2.811827e-02
  4.351283e+00    5.563990e-01   3.520807e-02
  4.353494e+00    4.612780e-01   3.255332e-02
  4.355704e+00    4.384583e-01   3.224854e-02
  4.357915e+00    4.497982e-01   3.320672e-02
  4.360125e+00    4.560297e-01   3.400669e-02
  4.362336e+00    5.647699e-01   3.853391e-02
  4.364546e+00    4.502771e-01   3.503377e-02
  4.366757e+00    4.675856e-01   3.641159e-02
  4.368967e+00    4.358530e-01   3.585523e-02
  4.371177e+00    3.977986e-01   3.498238e-02
  4.373388e+00    4.965348e-01   3.995708e-02
  4.375598e+00    4.885049e-01   4.053721e-02
  4.377809e+00    5.500276e-01   4.410111e-02
  4.380019e+00    4.978268e-01   4.301272e-02
  4.382230e+00    3.971321e-01   3.948925e-02
  4.384440e+00    3.501660e-01   3.814567e-02
  4.386651e+00    5.009623e-01   4.703474e-02
  4.388861e+00    4.496025e-01   4.605426e-02
  4.391072e+00    4.499540e-01   4.769142e-02
  4.393282e+00    3.703366e-01   4.493942e-02
  4.395492e+00    3.548466e-01   4.581719e-02
  4.397703e+00    2.867567e-01   4.306979e-02
  4.399913e+00    4.100467e-01   5.410800e-02
  4.402124e+00    3.629228e-01   5.379380e-02
  4.404334e+00    4.274130e-01   6.205275e-02
  4.406545e+00    1.659246e-01   4.153907e-02
  4.408755e+00    5.054986e-01   7.863507e-02
  4.410966e+00    1.142709e-01   4.138041e-02
  4.413176e+00    4.230134e-01   9.011458e-02
  4.415387e+00   -1.116476e-01            nan
  4.417597e+00   -1.884927e+00            nan
  4.419807e+00   -3.766224e-01            nan
