# == pyFAI calibration ==
# Distance Sample to Detector: 0.216 m
# PONI: 1.166e-01, 1.308e-01 m
# Rotations: 0.000000 0.000000 0.000000 rad
# 
# == Fit2d calibration ==
# Distance Sample-beamCenter: 216.000 mm
# Center: x=1744.293, y=1555.000 pix
# Tilt: 0.000 deg  TiltPlanRot: 0.000 deg
# 
# Detector Eiger 9M	 PixelSize= 7.500e-05, 7.500e-05 m
#    Detector has a mask: True 
#    Detector has a dark current: False 
#    detector has a flat field: False 
# 
# Wavelength: 9.8e-11 m
# Mask applied: from detector
# Dark current applied: False
# Flat field applied: False
# Polarization factor: None
# Normalization factor: 1.0
# 
# Headers of the input frame:
# {
# "_array_data.header_convention": "SLS_1.0",
# "_array_data.header_contents": "# Detector: Dectris Eiger 9M, S/N E-18-0102\r\n# Pixel_size 75e-6 m x 75e-6 m\r\n# Silicon sensor, thickness 0.000450 m\r\n# Exposure_time 0.024997 s\r\n# Exposure_period 0.025000 s\r\n# Count_cutoff 62318 counts\r\n# Wavelength 0.980106 A\r\n# Detector_distance 0.215992 m\r\n# Beam_xy (1555, 1744) pixels\r\n# Start_angle 0.000000 deg.\r\n# Angle_increment 0.000000 deg.",
# "Content-Type": "application/octet-stream;",
# "conversions": "x-CBF_BYTE_OFFSET",
# "Content-Transfer-Encoding": "BINARY",
# "X-Binary-Size": "10166600",
# "X-Binary-ID": "1",
# "X-Binary-Element-Type": "signed 32-bit integer",
# "X-Binary-Element-Byte-Order": "LITTLE_ENDIAN",
# "Content-MD5": "7Hkv76Sc6ZrIOXygH6gDEA==",
# "X-Binary-Number-of-Elements": "10166590",
# "X-Binary-Size-Fastest-Dimension": "3110",
# "X-Binary-Size-Second-Dimension": "3269",
# "X-Binary-Size-Padding": "4095"
# }
# --> H:/Proxima2a_2019-04-05/RAW_DATA/C5_gel17_position5/C5_mesh_1_data.cbf/C5_mesh_1_data.cbf000081.dat
#        q_A^-1              I           sigma 
  1.105228e-03    2.203630e+00   8.032602e-01
  3.315685e-03    1.276779e+00   3.717092e-01
  5.526141e-03    1.417708e+00   3.028765e-01
  7.736597e-03    1.276371e+00   2.427776e-01
  9.947054e-03    1.303219e+00   2.162645e-01
  1.215751e-02    1.537940e+00   2.124410e-01
  1.436797e-02    1.218690e+00   1.739492e-01
  1.657842e-02    1.310199e+00   1.678855e-01
  1.878888e-02    1.407232e+00   1.634355e-01
  2.099934e-02    1.472958e+00   1.581966e-01
  2.320979e-02    1.418395e+00   1.476493e-01
  2.542025e-02    1.373958e+00   1.388661e-01
  2.763070e-02    1.433237e+00   1.360346e-01
  2.984116e-02    1.371827e+00   1.280637e-01
  3.205162e-02    1.419250e+00   1.256943e-01
  3.426207e-02    1.434229e+00   1.222037e-01
  3.647253e-02    1.401099e+00   1.170642e-01
  3.868299e-02    1.422754e+00   1.145541e-01
  4.089344e-02    1.373350e+00   1.094640e-01
  4.310390e-02    1.325138e+00   1.047260e-01
  4.531436e-02    1.393746e+00   1.047509e-01
  4.752481e-02    1.443220e+00   1.040843e-01
  4.973527e-02    1.353976e+00   9.855018e-02
  5.194572e-02    1.486017e+00   1.010217e-01
  5.415618e-02    1.399073e+00   9.599727e-02
  5.636664e-02    1.391438e+00   9.384196e-02
  5.857709e-02    1.623532e+00   9.943628e-02
  6.078755e-02    1.634486e+00   9.793728e-02
  6.299801e-02    1.476082e+00   9.142222e-02
  6.520846e-02    1.409511e+00   8.781019e-02
  6.741892e-02    1.501210e+00   8.911904e-02
  6.962938e-02    1.491503e+00   8.741349e-02
  7.183983e-02    1.471381e+00   8.547412e-02
  7.405029e-02    1.436700e+00   8.318870e-02
  7.626074e-02    1.347552e+00   7.938951e-02
  7.847120e-02    1.361571e+00   7.866727e-02
  8.068166e-02    1.442597e+00   7.985660e-02
  8.289211e-02    1.338834e+00   7.589798e-02
  8.510257e-02    1.403287e+00   7.668715e-02
  8.731303e-02    1.470597e+00   7.750176e-02
  8.952348e-02    1.529722e+00   7.806455e-02
  9.173394e-02    1.487390e+00   7.604074e-02
  9.394439e-02    1.514365e+00   7.581667e-02
  9.615485e-02    1.449735e+00   7.332195e-02
  9.836531e-02    1.415264e+00   7.162440e-02
  1.005758e-01    1.479743e+00   7.242900e-02
  1.027862e-01    1.495155e+00   7.201631e-02
  1.049967e-01    1.552581e+00   7.260844e-02
  1.072071e-01    1.471795e+00   6.996075e-02
  1.094176e-01    1.491734e+00   6.971691e-02
  1.116280e-01    1.555333e+00   7.047762e-02
  1.138385e-01    1.594786e+00   7.066828e-02
  1.160490e-01    1.573628e+00   6.952532e-02
  1.182594e-01    1.564811e+00   6.867780e-02
  1.204699e-01    1.555777e+00   6.784756e-02
  1.226803e-01    1.560969e+00   6.734285e-02
  1.248908e-01    1.426558e+00   6.380524e-02
  1.271012e-01    1.473414e+00   6.427699e-02
  1.293117e-01    1.549989e+00   6.535941e-02
  1.315222e-01    1.519922e+00   6.417469e-02
  1.337326e-01    1.532290e+00   6.389931e-02
  1.359431e-01    1.558878e+00   6.448904e-02
  1.381535e-01    1.603666e+00   6.628685e-02
  1.403640e-01    1.642331e+00   6.737084e-02
  1.425744e-01    1.668257e+00   6.800902e-02
  1.447849e-01    1.577033e+00   6.613864e-02
  1.469953e-01    1.562019e+00   6.578185e-02
  1.492058e-01    1.549110e+00   6.543332e-02
  1.514163e-01    1.536741e+00   6.506336e-02
  1.536267e-01    1.661913e+00   6.752917e-02
  1.558372e-01    1.669057e+00   6.752477e-02
  1.580476e-01    1.608080e+00   6.611901e-02
  1.602581e-01    1.524976e+00   6.422432e-02
  1.624685e-01    1.579480e+00   6.518301e-02
  1.646790e-01    1.575055e+00   6.490472e-02
  1.668895e-01    1.630889e+00   6.585435e-02
  1.690999e-01    1.721555e+00   6.745695e-02
  1.713104e-01    1.727600e+00   6.736556e-02
  1.735208e-01    1.677028e+00   6.616587e-02
  1.757313e-01    1.758150e+00   6.753494e-02
  1.779417e-01    1.839450e+00   6.885347e-02
  1.801522e-01    1.890283e+00   6.957607e-02
  1.823626e-01    1.802345e+00   6.771225e-02
  1.845731e-01    1.875825e+00   6.885497e-02
  1.867836e-01    1.860247e+00   6.833708e-02
  1.889940e-01    1.866445e+00   6.822712e-02
  1.912045e-01    1.989075e+00   7.019762e-02
  1.934149e-01    1.967368e+00   6.957989e-02
  1.956254e-01    2.037186e+00   7.057023e-02
  1.978358e-01    1.980189e+00   6.933757e-02
  2.000463e-01    2.059975e+00   7.048631e-02
  2.022568e-01    1.966346e+00   6.863979e-02
  2.044672e-01    1.953560e+00   6.818189e-02
  2.066777e-01    1.913665e+00   6.725810e-02
  2.088881e-01    1.948745e+00   6.764973e-02
  2.110986e-01    1.937529e+00   6.722344e-02
  2.133090e-01    2.025047e+00   6.850149e-02
  2.155195e-01    1.963634e+00   6.723107e-02
  2.177300e-01    1.909679e+00   6.578007e-02
  2.199404e-01    1.942910e+00   6.460164e-02
  2.221509e-01    1.889292e+00   6.265797e-02
  2.243613e-01    1.906189e+00   6.213962e-02
  2.265718e-01    2.056149e+00   6.382630e-02
  2.287822e-01    2.125612e+00   6.425314e-02
  2.309927e-01    2.108111e+00   6.340519e-02
  2.332031e-01    2.020481e+00   6.154209e-02
  2.354136e-01    2.195166e+00   6.362739e-02
  2.376241e-01    2.161322e+00   6.264499e-02
  2.398345e-01    2.232367e+00   6.319507e-02
  2.420450e-01    2.220515e+00   6.257667e-02
  2.442554e-01    2.107404e+00   6.054207e-02
  2.464659e-01    2.137335e+00   6.056112e-02
  2.486763e-01    2.088920e+00   5.947774e-02
  2.508868e-01    2.088034e+00   5.908999e-02
  2.530973e-01    2.121220e+00   5.918846e-02
  2.553077e-01    2.109850e+00   5.867156e-02
  2.575182e-01    2.073179e+00   5.781534e-02
  2.597286e-01    2.146679e+00   5.848927e-02
  2.619391e-01    2.105799e+00   5.759620e-02
  2.641495e-01    2.105175e+00   5.726891e-02
  2.663600e-01    2.123416e+00   5.720021e-02
  2.685704e-01    2.078163e+00   5.628068e-02
  2.707809e-01    2.005878e+00   5.499972e-02
  2.729914e-01    2.044938e+00   5.524320e-02
  2.752018e-01    2.083637e+00   5.547326e-02
  2.774123e-01    2.034147e+00   5.453052e-02
  2.796227e-01    2.058318e+00   5.458222e-02
  2.818332e-01    1.947724e+00   5.283075e-02
  2.840436e-01    1.953461e+00   5.265202e-02
  2.862541e-01    2.011400e+00   5.317032e-02
  2.884646e-01    1.993572e+00   5.268293e-02
  2.906750e-01    2.041795e+00   5.306349e-02
  2.928855e-01    2.013914e+00   5.245579e-02
  2.950959e-01    1.985414e+00   5.184404e-02
  2.973064e-01    1.960781e+00   5.128987e-02
  2.995168e-01    1.954056e+00   5.096994e-02
  3.017273e-01    1.868181e+00   4.961765e-02
  3.039377e-01    1.875706e+00   4.949976e-02
  3.061482e-01    1.989568e+00   5.075950e-02
  3.083587e-01    2.019623e+00   5.092010e-02
  3.105691e-01    1.960554e+00   4.995564e-02
  3.127796e-01    1.930964e+00   4.936878e-02
  3.149900e-01    1.924485e+00   4.908055e-02
  3.172005e-01    1.914365e+00   4.875116e-02
  3.194109e-01    1.922340e+00   4.865095e-02
  3.216214e-01    1.880496e+00   4.792218e-02
  3.238319e-01    1.905997e+00   4.805488e-02
  3.260423e-01    1.902899e+00   4.782454e-02
  3.282528e-01    1.888792e+00   4.745727e-02
  3.304632e-01    1.915306e+00   4.760405e-02
  3.326737e-01    1.884315e+00   4.703314e-02
  3.348841e-01    1.789382e+00   4.565530e-02
  3.370946e-01    1.873549e+00   4.654095e-02
  3.393050e-01    1.840576e+00   4.595483e-02
  3.415155e-01    1.823474e+00   4.556888e-02
  3.437260e-01    1.805417e+00   4.517461e-02
  3.459364e-01    1.819355e+00   4.518091e-02
  3.481469e-01    1.852252e+00   4.542113e-02
  3.503573e-01    1.807644e+00   4.470743e-02
  3.525678e-01    1.796902e+00   4.441553e-02
  3.547782e-01    1.789104e+00   4.415885e-02
  3.569887e-01    1.822985e+00   4.441709e-02
  3.591992e-01    1.800742e+00   4.398908e-02
  3.614096e-01    1.816248e+00   4.402488e-02
  3.636201e-01    1.824852e+00   4.397397e-02
  3.658305e-01    1.823775e+00   4.381105e-02
  3.680410e-01    1.829449e+00   4.372821e-02
  3.702514e-01    1.815450e+00   4.341409e-02
  3.724619e-01    1.820694e+00   4.332872e-02
  3.746724e-01    1.795025e+00   4.287864e-02
  3.768828e-01    1.802235e+00   4.282010e-02
  3.790933e-01    1.772142e+00   4.232274e-02
  3.813037e-01    1.780907e+00   4.228846e-02
  3.835142e-01    1.759132e+00   4.189109e-02
  3.857246e-01    1.803786e+00   4.228216e-02
  3.879351e-01    1.749252e+00   4.150334e-02
  3.901455e-01    1.780378e+00   4.173763e-02
  3.923560e-01    1.802382e+00   4.186131e-02
  3.945665e-01    1.792696e+00   4.161627e-02
  3.967769e-01    1.822825e+00   4.183311e-02
  3.989874e-01    1.768105e+00   4.107180e-02
  4.011978e-01    1.772122e+00   4.099195e-02
  4.034083e-01    1.766469e+00   4.080089e-02
  4.056187e-01    1.799353e+00   4.105205e-02
  4.078292e-01    1.799213e+00   4.092623e-02
  4.100397e-01    1.794002e+00   4.074214e-02
  4.122501e-01    1.814496e+00   4.085161e-02
  4.144606e-01    1.764882e+00   4.016977e-02
  4.166710e-01    1.797652e+00   4.042041e-02
  4.188815e-01    1.851369e+00   4.089873e-02
  4.210919e-01    1.823663e+00   4.047258e-02
  4.233024e-01    1.829705e+00   4.042034e-02
  4.255128e-01    1.788019e+00   3.984175e-02
  4.277233e-01    1.788798e+00   3.973591e-02
  4.299338e-01    1.847455e+00   4.026595e-02
  4.321442e-01    1.855803e+00   4.024135e-02
  4.343547e-01    1.773927e+00   3.923240e-02
  4.365651e-01    1.718900e+00   3.850939e-02
  4.387756e-01    1.730525e+00   3.853117e-02
  4.409860e-01    1.755520e+00   3.870094e-02
  4.431965e-01    1.761968e+00   3.866472e-02
  4.454070e-01    1.783559e+00   3.879270e-02
  4.476174e-01    1.723959e+00   3.803430e-02
  4.498279e-01    1.728546e+00   3.798125e-02
  4.520383e-01    1.707848e+00   3.764956e-02
  4.542488e-01    1.713309e+00   3.760801e-02
  4.564592e-01    1.745391e+00   3.785666e-02
  4.586697e-01    1.708095e+00   3.735062e-02
  4.608801e-01    1.724753e+00   3.743176e-02
  4.630906e-01    1.752494e+00   3.763168e-02
  4.653011e-01    1.714042e+00   3.711870e-02
  4.675115e-01    1.683528e+00   3.668990e-02
  4.697220e-01    1.753456e+00   3.734611e-02
  4.719324e-01    1.710277e+00   3.678803e-02
  4.741429e-01    1.688226e+00   3.645591e-02
  4.763533e-01    1.682245e+00   3.629799e-02
  4.785638e-01    1.685743e+00   3.624183e-02
  4.807743e-01    1.724445e+00   3.656229e-02
  4.829847e-01    1.711241e+00   3.633001e-02
  4.851952e-01    1.724356e+00   3.637670e-02
  4.874056e-01    1.692290e+00   3.594602e-02
  4.896161e-01    1.714554e+00   3.609196e-02
  4.918265e-01    1.771444e+00   3.659476e-02
  4.940370e-01    1.704229e+00   3.580516e-02
  4.962475e-01    1.721430e+00   3.589654e-02
  4.984579e-01    1.698617e+00   3.556999e-02
  5.006684e-01    1.686785e+00   3.535949e-02
  5.028788e-01    1.643424e+00   3.481746e-02
  5.050893e-01    1.704702e+00   3.537438e-02
  5.072997e-01    1.708239e+00   3.532555e-02
  5.095102e-01    1.675164e+00   3.489811e-02
  5.117206e-01    1.668409e+00   3.474487e-02
  5.139311e-01    1.638194e+00   3.434732e-02
  5.161416e-01    1.674217e+00   3.464086e-02
  5.183520e-01    1.645315e+00   3.425896e-02
  5.205625e-01    1.619474e+00   3.390922e-02
  5.227729e-01    1.653178e+00   3.418035e-02
  5.249834e-01    1.656504e+00   3.413530e-02
  5.271938e-01    1.704795e+00   3.454846e-02
  5.294043e-01    1.729478e+00   3.471739e-02
  5.316148e-01    1.700645e+00   3.434792e-02
  5.338252e-01    1.778079e+00   3.504091e-02
  5.360357e-01    1.750259e+00   3.468658e-02
  5.382461e-01    1.717339e+00   3.428113e-02
  5.404566e-01    1.735728e+00   3.438577e-02
  5.426670e-01    1.738909e+00   3.433970e-02
  5.448775e-01    1.752805e+00   3.439961e-02
  5.470879e-01    1.749154e+00   3.428714e-02
  5.492984e-01    1.797399e+00   3.467947e-02
  5.515089e-01    1.812150e+00   3.474429e-02
  5.537193e-01    1.777119e+00   3.433100e-02
  5.559298e-01    1.830332e+00   3.476479e-02
  5.581402e-01    1.814207e+00   3.453568e-02
  5.603507e-01    1.828122e+00   3.459244e-02
  5.625611e-01    1.793470e+00   3.418865e-02
  5.647716e-01    1.830642e+00   3.446614e-02
  5.669821e-01    1.782262e+00   3.393437e-02
  5.691925e-01    1.725686e+00   3.331972e-02
  5.714030e-01    1.786828e+00   3.383255e-02
  5.736134e-01    1.793949e+00   3.382782e-02
  5.758239e-01    1.760091e+00   3.343556e-02
  5.780343e-01    1.753023e+00   3.329777e-02
  5.802448e-01    1.698848e+00   3.271062e-02
  5.824552e-01    1.669133e+00   3.235522e-02
  5.846657e-01    1.629586e+00   3.190301e-02
  5.868762e-01    1.603313e+00   3.157888e-02
  5.890866e-01    1.656365e+00   3.203051e-02
  5.912971e-01    1.614857e+00   3.156113e-02
  5.935075e-01    1.632859e+00   3.167098e-02
  5.957180e-01    1.668478e+00   3.194886e-02
  5.979284e-01    1.668089e+00   3.187992e-02
  6.001389e-01    1.636783e+00   3.151507e-02
  6.023494e-01    1.599031e+00   3.108622e-02
  6.045598e-01    1.663211e+00   3.163939e-02
  6.067703e-01    1.692371e+00   3.185138e-02
  6.089807e-01    1.640754e+00   3.129884e-02
  6.111912e-01    1.686671e+00   3.167038e-02
  6.134016e-01    1.683185e+00   3.157456e-02
  6.156121e-01    1.698679e+00   3.165647e-02
  6.178226e-01    1.719366e+00   3.178562e-02
  6.200330e-01    1.735802e+00   3.187416e-02
  6.222435e-01    1.746293e+00   3.190703e-02
  6.244539e-01    1.710329e+00   3.151493e-02
  6.266644e-01    1.707222e+00   3.142488e-02
  6.288748e-01    1.689283e+00   3.119849e-02
  6.310853e-01    1.680886e+00   3.106044e-02
  6.332957e-01    1.680851e+00   3.100013e-02
  6.355062e-01    1.711756e+00   3.122307e-02
  6.377167e-01    1.683212e+00   3.090223e-02
  6.399271e-01    1.670543e+00   3.072674e-02
  6.421376e-01    1.670745e+00   3.066992e-02
  6.443480e-01    1.709224e+00   3.096210e-02
  6.465585e-01    1.682643e+00   3.066219e-02
  6.487689e-01    1.738129e+00   3.110481e-02
  6.509794e-01    1.683680e+00   3.055600e-02
  6.531899e-01    1.653715e+00   3.022592e-02
  6.554003e-01    1.617334e+00   2.983540e-02
  6.576108e-01    1.605022e+00   2.966626e-02
  6.598212e-01    1.616834e+00   2.971992e-02
  6.620317e-01    1.598777e+00   2.949871e-02
  6.642421e-01    1.573251e+00   2.920814e-02
  6.664526e-01    1.619307e+00   2.957796e-02
  6.686630e-01    1.638459e+00   2.969737e-02
  6.708735e-01    1.608876e+00   2.937408e-02
  6.730840e-01    1.561850e+00   2.888883e-02
  6.752944e-01    1.591576e+00   2.910941e-02
  6.775049e-01    1.576393e+00   2.891763e-02
  6.797153e-01    1.607052e+00   2.914462e-02
  6.819258e-01    1.589567e+00   2.893337e-02
  6.841362e-01    1.568054e+00   2.868523e-02
  6.863467e-01    1.582368e+00   2.876424e-02
  6.885572e-01    1.603852e+00   2.890696e-02
  6.907676e-01    1.620990e+00   2.900891e-02
  6.929781e-01    1.613851e+00   2.889354e-02
  6.951885e-01    1.600170e+00   2.871983e-02
  6.973990e-01    1.596846e+00   2.863927e-02
  6.996094e-01    1.616952e+00   2.876830e-02
  7.018199e-01    1.590130e+00   2.847863e-02
  7.040303e-01    1.568269e+00   2.823251e-02
  7.062408e-01    1.584462e+00   2.832818e-02
  7.084513e-01    1.556345e+00   2.802688e-02
  7.106617e-01    1.576368e+00   2.815756e-02
  7.128722e-01    1.598704e+00   2.830730e-02
  7.150826e-01    1.571573e+00   2.801770e-02
  7.172931e-01    1.601346e+00   2.823309e-02
  7.195035e-01    1.564274e+00   2.785641e-02
  7.217140e-01    1.566176e+00   2.792264e-02
  7.239245e-01    1.559852e+00   2.809189e-02
  7.261349e-01    1.561005e+00   2.821040e-02
  7.283454e-01    1.540842e+00   2.809926e-02
  7.305558e-01    1.538381e+00   2.813015e-02
  7.327663e-01    1.559350e+00   2.836353e-02
  7.349767e-01    1.569827e+00   2.847498e-02
  7.371872e-01    1.592446e+00   2.866816e-02
  7.393976e-01    1.599660e+00   2.871864e-02
  7.416081e-01    1.575184e+00   2.848193e-02
  7.438186e-01    1.581279e+00   2.839233e-02
  7.460290e-01    1.578592e+00   2.807361e-02
  7.482395e-01    1.569808e+00   2.782449e-02
  7.504499e-01    1.555238e+00   2.755962e-02
  7.526604e-01    1.574725e+00   2.761520e-02
  7.548708e-01    1.563249e+00   2.742529e-02
  7.570813e-01    1.552263e+00   2.727815e-02
  7.592918e-01    1.543215e+00   2.716369e-02
  7.615022e-01    1.576249e+00   2.741909e-02
  7.637127e-01    1.578407e+00   2.740500e-02
  7.659231e-01    1.571272e+00   2.731106e-02
  7.681336e-01    1.532845e+00   2.694384e-02
  7.703440e-01    1.568461e+00   2.722390e-02
  7.725545e-01    1.570560e+00   2.721127e-02
  7.747650e-01    1.629646e+00   2.767953e-02
  7.769754e-01    1.620803e+00   2.755090e-02
  7.791859e-01    1.597267e+00   2.729626e-02
  7.813963e-01    1.583193e+00   2.712307e-02
  7.836068e-01    1.586306e+00   2.709772e-02
  7.858172e-01    1.581137e+00   2.700293e-02
  7.880277e-01    1.622182e+00   2.729914e-02
  7.902381e-01    1.631310e+00   2.732611e-02
  7.924486e-01    1.644851e+00   2.738845e-02
  7.946591e-01    1.639612e+00   2.729592e-02
  7.968695e-01    1.654584e+00   2.737122e-02
  7.990800e-01    1.604957e+00   2.690944e-02
  8.012904e-01    1.616910e+00   2.696271e-02
  8.035009e-01    1.638909e+00   2.709723e-02
  8.057113e-01    1.640836e+00   2.706626e-02
  8.079218e-01    1.652757e+00   2.711753e-02
  8.101323e-01    1.628418e+00   2.687143e-02
  8.123427e-01    1.637145e+00   2.689737e-02
  8.145532e-01    1.626787e+00   2.676631e-02
  8.167636e-01    1.618638e+00   2.665425e-02
  8.189741e-01    1.665396e+00   2.699143e-02
  8.211845e-01    1.683352e+00   2.709108e-02
  8.233950e-01    1.649131e+00   2.677069e-02
  8.256054e-01    1.699735e+00   2.713327e-02
  8.278159e-01    1.673449e+00   2.687823e-02
  8.300264e-01    1.656036e+00   2.669468e-02
  8.322368e-01    1.679461e+00   2.683917e-02
  8.344473e-01    1.686514e+00   2.685146e-02
  8.366577e-01    1.672684e+00   2.669814e-02
  8.388682e-01    1.641482e+00   2.640568e-02
  8.410786e-01    1.635414e+00   2.631480e-02
  8.432891e-01    1.679446e+00   2.662434e-02
  8.454996e-01    1.674779e+00   2.654524e-02
  8.477100e-01    1.662820e+00   2.640834e-02
  8.499205e-01    1.650100e+00   2.626579e-02
  8.521309e-01    1.670734e+00   2.638831e-02
  8.543414e-01    1.668213e+00   2.632726e-02
  8.565518e-01    1.604867e+00   2.578238e-02
  8.587623e-01    1.577982e+00   2.552567e-02
  8.609727e-01    1.609976e+00   2.574318e-02
  8.631832e-01    1.609324e+00   2.569828e-02
  8.653937e-01    1.637679e+00   2.588384e-02
  8.676041e-01    1.630173e+00   2.578553e-02
  8.698146e-01    1.574952e+00   2.530626e-02
  8.720250e-01    1.587048e+00   2.536453e-02
  8.742355e-01    1.619217e+00   2.558132e-02
  8.764459e-01    1.611980e+00   2.548516e-02
  8.786564e-01    1.596078e+00   2.532134e-02
  8.808669e-01    1.611197e+00   2.540239e-02
  8.830773e-01    1.622237e+00   2.545093e-02
  8.852878e-01    1.567650e+00   2.498154e-02
  8.874982e-01    1.567952e+00   2.494768e-02
  8.897087e-01    1.587391e+00   2.506434e-02
  8.919191e-01    1.612496e+00   2.522385e-02
  8.941296e-01    1.650818e+00   2.548396e-02
  8.963401e-01    1.618758e+00   2.519867e-02
  8.985505e-01    1.586911e+00   2.491273e-02
  9.007610e-01    1.620659e+00   2.513927e-02
  9.029714e-01    1.601504e+00   2.495441e-02
  9.051819e-01    1.599447e+00   2.490116e-02
  9.073923e-01    1.585677e+00   2.475733e-02
  9.096028e-01    1.583051e+00   2.470209e-02
  9.118132e-01    1.592903e+00   2.474269e-02
  9.140237e-01    1.596934e+00   2.473738e-02
  9.162342e-01    1.634680e+00   2.499311e-02
  9.184446e-01    1.620766e+00   2.485052e-02
  9.206551e-01    1.629580e+00   2.488208e-02
  9.228655e-01    1.609336e+00   2.469172e-02
  9.250760e-01    1.618760e+00   2.472834e-02
  9.272864e-01    1.623223e+00   2.472794e-02
  9.294969e-01    1.638301e+00   2.480631e-02
  9.317074e-01    1.647651e+00   2.484184e-02
  9.339178e-01    1.634666e+00   2.470998e-02
  9.361283e-01    1.622113e+00   2.457862e-02
  9.383387e-01    1.644433e+00   2.471349e-02
  9.405492e-01    1.632832e+00   2.459178e-02
  9.427596e-01    1.640275e+00   2.461227e-02
  9.449701e-01    1.648262e+00   2.463860e-02
  9.471805e-01    1.665303e+00   2.473055e-02
  9.493910e-01    1.679759e+00   2.480357e-02
  9.516015e-01    1.691362e+00   2.485435e-02
  9.538119e-01    1.745991e+00   2.521792e-02
  9.560224e-01    1.755391e+00   2.525015e-02
  9.582328e-01    1.753565e+00   2.520314e-02
  9.604433e-01    1.783791e+00   2.538344e-02
  9.626537e-01    1.798280e+00   2.545205e-02
  9.648642e-01    1.831525e+00   2.565105e-02
  9.670747e-01    1.860499e+00   2.581750e-02
  9.692851e-01    1.835386e+00   2.560860e-02
  9.714956e-01    1.826431e+00   2.551002e-02
  9.737060e-01    1.830364e+00   2.550392e-02
  9.759165e-01    1.828357e+00   2.545399e-02
  9.781269e-01    1.815462e+00   2.533089e-02
  9.803374e-01    1.856356e+00   2.557916e-02
  9.825478e-01    1.857022e+00   2.555002e-02
  9.847583e-01    1.825703e+00   2.529924e-02
  9.869688e-01    1.828558e+00   2.528511e-02
  9.891792e-01    1.834375e+00   2.529167e-02
  9.913897e-01    1.766718e+00   2.478738e-02
  9.936001e-01    1.694026e+00   2.424029e-02
  9.958106e-01    1.697706e+00   2.423362e-02
  9.980210e-01    1.699864e+00   2.421754e-02
  1.000231e+00    1.684956e+00   2.424321e-02
  1.002442e+00    1.648267e+00   2.410522e-02
  1.004652e+00    1.625993e+00   2.400858e-02
  1.006863e+00    1.603194e+00   2.388912e-02
  1.009073e+00    1.613937e+00   2.400573e-02
  1.011284e+00    1.571127e+00   2.371687e-02
  1.013494e+00    1.666268e+00   2.444858e-02
  1.015705e+00    1.740961e+00   2.501423e-02
  1.017915e+00    1.773355e+00   2.526324e-02
  1.020126e+00    1.799704e+00   2.546746e-02
  1.022336e+00    1.707284e+00   2.481719e-02
  1.024547e+00    1.549488e+00   2.365372e-02
  1.026757e+00    1.543168e+00   2.361376e-02
  1.028967e+00    1.522789e+00   2.346496e-02
  1.031178e+00    1.507842e+00   2.335561e-02
  1.033388e+00    1.521537e+00   2.346647e-02
  1.035599e+00    1.526789e+00   2.351037e-02
  1.037809e+00    1.539649e+00   2.361243e-02
  1.040020e+00    1.551961e+00   2.370796e-02
  1.042230e+00    1.595194e+00   2.403785e-02
  1.044441e+00    1.624913e+00   2.426057e-02
  1.046651e+00    1.561307e+00   2.378115e-02
  1.048862e+00    1.578155e+00   2.390829e-02
  1.051072e+00    1.582250e+00   2.393689e-02
  1.053282e+00    1.538130e+00   2.359983e-02
  1.055493e+00    1.563306e+00   2.378777e-02
  1.057703e+00    1.565505e+00   2.380295e-02
  1.059914e+00    1.545119e+00   2.364313e-02
  1.062124e+00    1.541734e+00   2.361309e-02
  1.064335e+00    1.519969e+00   2.344234e-02
  1.066545e+00    1.516494e+00   2.340946e-02
  1.068756e+00    1.488399e+00   2.318787e-02
  1.070966e+00    1.449103e+00   2.287325e-02
  1.073177e+00    1.476307e+00   2.308086e-02
  1.075387e+00    1.493583e+00   2.321027e-02
  1.077597e+00    1.538110e+00   2.354626e-02
  1.079808e+00    1.534742e+00   2.338460e-02
  1.082018e+00    1.477999e+00   2.275818e-02
  1.084229e+00    1.446632e+00   2.240586e-02
  1.086439e+00    1.463043e+00   2.244491e-02
  1.088650e+00    1.476271e+00   2.246992e-02
  1.090860e+00    1.484559e+00   2.246459e-02
  1.093071e+00    1.438783e+00   2.205360e-02
  1.095281e+00    1.455700e+00   2.212541e-02
  1.097492e+00    1.478104e+00   2.223951e-02
  1.099702e+00    1.447010e+00   2.195283e-02
  1.101912e+00    1.488898e+00   2.221862e-02
  1.104123e+00    1.517996e+00   2.238510e-02
  1.106333e+00    1.519379e+00   2.234956e-02
  1.108544e+00    1.528244e+00   2.236891e-02
  1.110754e+00    1.488055e+00   2.202890e-02
  1.112965e+00    1.478104e+00   2.191378e-02
  1.115175e+00    1.450944e+00   2.166991e-02
  1.117386e+00    1.457076e+00   2.167578e-02
  1.119596e+00    1.449979e+00   2.158458e-02
  1.121807e+00    1.419167e+00   2.131505e-02
  1.124017e+00    1.442341e+00   2.145127e-02
  1.126228e+00    1.422211e+00   2.126508e-02
  1.128438e+00    1.423239e+00   2.123571e-02
  1.130648e+00    1.400294e+00   2.102951e-02
  1.132859e+00    1.399866e+00   2.099188e-02
  1.135069e+00    1.391285e+00   2.089275e-02
  1.137280e+00    1.376643e+00   2.074966e-02
  1.139490e+00    1.382821e+00   2.076317e-02
  1.141701e+00    1.371517e+00   2.064517e-02
  1.143911e+00    1.373977e+00   2.063191e-02
  1.146122e+00    1.381047e+00   2.065292e-02
  1.148332e+00    1.356125e+00   2.043412e-02
  1.150543e+00    1.355832e+00   2.040130e-02
  1.152753e+00    1.356697e+00   2.037721e-02
  1.154963e+00    1.347167e+00   2.027474e-02
  1.157174e+00    1.374821e+00   2.045163e-02
  1.159384e+00    1.385286e+00   2.049930e-02
  1.161595e+00    1.389496e+00   2.050040e-02
  1.163805e+00    1.382858e+00   2.042196e-02
  1.166016e+00    1.385832e+00   2.041428e-02
  1.168226e+00    1.363443e+00   2.021979e-02
  1.170437e+00    1.368824e+00   2.023097e-02
  1.172647e+00    1.356049e+00   2.010758e-02
  1.174858e+00    1.364681e+00   2.014334e-02
  1.177068e+00    1.361927e+00   2.009480e-02
  1.179278e+00    1.367844e+00   2.010972e-02
  1.181489e+00    1.381686e+00   2.018401e-02
  1.183699e+00    1.408582e+00   2.035144e-02
  1.185910e+00    1.392072e+00   2.020370e-02
  1.188120e+00    1.408977e+00   2.029881e-02
  1.190331e+00    1.355582e+00   1.988372e-02
  1.192541e+00    1.336025e+00   1.971256e-02
  1.194752e+00    1.366528e+00   1.990912e-02
  1.196962e+00    1.389258e+00   2.004794e-02
  1.199173e+00    1.361089e+00   1.981704e-02
  1.201383e+00    1.368694e+00   1.984497e-02
  1.203593e+00    1.357223e+00   1.973676e-02
  1.205804e+00    1.355932e+00   1.970139e-02
  1.208014e+00    1.325216e+00   1.945038e-02
  1.210225e+00    1.314489e+00   1.934648e-02
  1.212435e+00    1.319884e+00   1.936164e-02
  1.214646e+00    1.322145e+00   1.935237e-02
  1.216856e+00    1.331701e+00   1.939687e-02
  1.219067e+00    1.366376e+00   1.962317e-02
  1.221277e+00    1.372720e+00   1.964344e-02
  1.223488e+00    1.356942e+00   1.950442e-02
  1.225698e+00    1.349428e+00   1.942343e-02
  1.227909e+00    1.351166e+00   1.940577e-02
  1.230119e+00    1.356316e+00   1.941078e-02
  1.232329e+00    1.322597e+00   1.913759e-02
  1.234540e+00    1.328288e+00   1.914866e-02
  1.236750e+00    1.355163e+00   1.931106e-02
  1.238961e+00    1.361318e+00   1.932783e-02
  1.241171e+00    1.329366e+00   1.907563e-02
  1.243382e+00    1.358862e+00   1.926250e-02
  1.245592e+00    1.370528e+00   1.932075e-02
  1.247803e+00    1.348215e+00   1.913919e-02
  1.250013e+00    1.324007e+00   1.894326e-02
  1.252224e+00    1.333955e+00   1.899118e-02
  1.254434e+00    1.344295e+00   1.904094e-02
  1.256644e+00    1.327300e+00   1.889720e-02
  1.258855e+00    1.323388e+00   1.884629e-02
  1.261065e+00    1.331705e+00   1.888219e-02
  1.263276e+00    1.349982e+00   1.898839e-02
  1.265486e+00    1.359437e+00   1.903182e-02
  1.267697e+00    1.350514e+00   1.894624e-02
  1.269907e+00    1.353695e+00   1.894580e-02
  1.272118e+00    1.340312e+00   1.882944e-02
  1.274328e+00    1.317694e+00   1.864741e-02
  1.276539e+00    1.304353e+00   1.853038e-02
  1.278749e+00    1.341154e+00   1.876775e-02
  1.280959e+00    1.371008e+00   1.895278e-02
  1.283170e+00    1.347523e+00   1.876736e-02
  1.285380e+00    1.333336e+00   1.864598e-02
  1.287591e+00    1.335942e+00   1.864227e-02
  1.289801e+00    1.354747e+00   1.875175e-02
  1.292012e+00    1.326409e+00   1.853767e-02
  1.294222e+00    1.324645e+00   1.850923e-02
  1.296433e+00    1.353952e+00   1.869724e-02
  1.298643e+00    1.366251e+00   1.876541e-02
  1.300854e+00    1.350159e+00   1.863816e-02
  1.303064e+00    1.358126e+00   1.867378e-02
  1.305274e+00    1.372735e+00   1.875234e-02
  1.307485e+00    1.355958e+00   1.861580e-02
  1.309695e+00    1.344301e+00   1.851342e-02
  1.311906e+00    1.347730e+00   1.851532e-02
  1.314116e+00    1.358694e+00   1.856961e-02
  1.316327e+00    1.375725e+00   1.866375e-02
  1.318537e+00    1.376443e+00   1.864652e-02
  1.320748e+00    1.380140e+00   1.864975e-02
  1.322958e+00    1.375018e+00   1.859440e-02
  1.325169e+00    1.373162e+00   1.856065e-02
  1.327379e+00    1.367608e+00   1.850113e-02
  1.329589e+00    1.372354e+00   1.851195e-02
  1.331800e+00    1.370890e+00   1.848122e-02
  1.334010e+00    1.397786e+00   1.864062e-02
  1.336221e+00    1.372120e+00   1.844677e-02
  1.338431e+00    1.391282e+00   1.855393e-02
  1.340642e+00    1.393935e+00   1.863683e-02
  1.342852e+00    1.382592e+00   1.866272e-02
  1.345063e+00    1.388165e+00   1.875048e-02
  1.347273e+00    1.361905e+00   1.860769e-02
  1.349484e+00    1.341141e+00   1.849288e-02
  1.351694e+00    1.345482e+00   1.854542e-02
  1.353905e+00    1.372677e+00   1.875008e-02
  1.356115e+00    1.375338e+00   1.878342e-02
  1.358325e+00    1.332812e+00   1.850400e-02
  1.360536e+00    1.345013e+00   1.860006e-02
  1.362746e+00    1.343026e+00   1.859589e-02
  1.364957e+00    1.336334e+00   1.855712e-02
  1.367167e+00    1.317245e+00   1.843118e-02
  1.369378e+00    1.314213e+00   1.841589e-02
  1.371588e+00    1.338197e+00   1.858828e-02
  1.373799e+00    1.372949e+00   1.883184e-02
  1.376009e+00    1.358918e+00   1.873877e-02
  1.378220e+00    1.378461e+00   1.887560e-02
  1.380430e+00    1.375410e+00   1.885747e-02
  1.382640e+00    1.346541e+00   1.865944e-02
  1.384851e+00    1.319120e+00   1.846934e-02
  1.387061e+00    1.314833e+00   1.843959e-02
  1.389272e+00    1.326853e+00   1.852390e-02
  1.391482e+00    1.298287e+00   1.832274e-02
  1.393693e+00    1.281022e+00   1.819963e-02
  1.395903e+00    1.265446e+00   1.808716e-02
  1.398114e+00    1.263161e+00   1.806945e-02
  1.400324e+00    1.310689e+00   1.840409e-02
  1.402535e+00    1.306181e+00   1.837009e-02
  1.404745e+00    1.298654e+00   1.831469e-02
  1.406955e+00    1.295163e+00   1.828734e-02
  1.409166e+00    1.289546e+00   1.824433e-02
  1.411376e+00    1.275248e+00   1.813976e-02
  1.413587e+00    1.271405e+00   1.810860e-02
  1.415797e+00    1.261077e+00   1.803137e-02
  1.418008e+00    1.276479e+00   1.809917e-02
  1.420218e+00    1.244571e+00   1.772331e-02
  1.422429e+00    1.264639e+00   1.778048e-02
  1.424639e+00    1.301301e+00   1.797089e-02
  1.426850e+00    1.280784e+00   1.777375e-02
  1.429060e+00    1.278173e+00   1.770645e-02
  1.431270e+00    1.305478e+00   1.784967e-02
  1.433481e+00    1.256959e+00   1.747409e-02
  1.435691e+00    1.264702e+00   1.748946e-02
  1.437902e+00    1.263762e+00   1.744661e-02
  1.440112e+00    1.268625e+00   1.744480e-02
  1.442323e+00    1.278242e+00   1.747765e-02
  1.444533e+00    1.300608e+00   1.759696e-02
  1.446744e+00    1.267551e+00   1.734081e-02
  1.448954e+00    1.284814e+00   1.742809e-02
  1.451165e+00    1.280388e+00   1.736820e-02
  1.453375e+00    1.272623e+00   1.728737e-02
  1.455586e+00    1.269952e+00   1.724105e-02
  1.457796e+00    1.275672e+00   1.725226e-02
  1.460006e+00    1.287886e+00   1.730721e-02
  1.462217e+00    1.280675e+00   1.723236e-02
  1.464427e+00    1.269203e+00   1.712942e-02
  1.466638e+00    1.255191e+00   1.700940e-02
  1.468848e+00    1.266649e+00   1.706154e-02
  1.471059e+00    1.288514e+00   1.718290e-02
  1.473269e+00    1.267919e+00   1.702067e-02
  1.475480e+00    1.264473e+00   1.697380e-02
  1.477690e+00    1.246329e+00   1.682793e-02
  1.479901e+00    1.266421e+00   1.693922e-02
  1.482111e+00    1.278523e+00   1.699653e-02
  1.484321e+00    1.259501e+00   1.684658e-02
  1.486532e+00    1.279871e+00   1.695980e-02
  1.488742e+00    1.261914e+00   1.681780e-02
  1.490953e+00    1.264751e+00   1.681408e-02
  1.493163e+00    1.253278e+00   1.671546e-02
  1.495374e+00    1.240895e+00   1.661136e-02
  1.497584e+00    1.251223e+00   1.665878e-02
  1.499795e+00    1.274426e+00   1.679077e-02
  1.502005e+00    1.273633e+00   1.676376e-02
  1.504216e+00    1.258384e+00   1.664205e-02
  1.506426e+00    1.256362e+00   1.660788e-02
  1.508636e+00    1.287166e+00   1.678956e-02
  1.510847e+00    1.281950e+00   1.673349e-02
  1.513057e+00    1.256953e+00   1.654443e-02
  1.515268e+00    1.244557e+00   1.643703e-02
  1.517478e+00    1.258375e+00   1.650283e-02
  1.519689e+00    1.243749e+00   1.638179e-02
  1.521899e+00    1.247361e+00   1.638250e-02
  1.524110e+00    1.272167e+00   1.652410e-02
  1.526320e+00    1.274146e+00   1.651721e-02
  1.528531e+00    1.265967e+00   1.644423e-02
  1.530741e+00    1.279363e+00   1.651163e-02
  1.532951e+00    1.286283e+00   1.653636e-02
  1.535162e+00    1.250425e+00   1.639087e-02
  1.537372e+00    1.228415e+00   1.631231e-02
  1.539583e+00    1.236308e+00   1.639871e-02
  1.541793e+00    1.251781e+00   1.650795e-02
  1.544004e+00    1.251511e+00   1.650644e-02
  1.546214e+00    1.244081e+00   1.645588e-02
  1.548425e+00    1.223386e+00   1.631868e-02
  1.550635e+00    1.231008e+00   1.637907e-02
  1.552846e+00    1.233774e+00   1.640706e-02
  1.555056e+00    1.244427e+00   1.643627e-02
  1.557266e+00    1.226479e+00   1.620768e-02
  1.559477e+00    1.212406e+00   1.605605e-02
  1.561687e+00    1.234817e+00   1.617322e-02
  1.563898e+00    1.252885e+00   1.627389e-02
  1.566108e+00    1.260012e+00   1.630408e-02
  1.568319e+00    1.235869e+00   1.613155e-02
  1.570529e+00    1.241039e+00   1.614014e-02
  1.572740e+00    1.253084e+00   1.619056e-02
  1.574950e+00    1.248507e+00   1.613463e-02
  1.577161e+00    1.251311e+00   1.612718e-02
  1.579371e+00    1.269302e+00   1.621881e-02
  1.581582e+00    1.246082e+00   1.605000e-02
  1.583792e+00    1.265188e+00   1.615439e-02
  1.586002e+00    1.260087e+00   1.610409e-02
  1.588213e+00    1.242341e+00   1.597303e-02
  1.590423e+00    1.275912e+00   1.616709e-02
  1.592634e+00    1.253652e+00   1.600375e-02
  1.594844e+00    1.236623e+00   1.587332e-02
  1.597055e+00    1.237037e+00   1.585555e-02
  1.599265e+00    1.226090e+00   1.576462e-02
  1.601476e+00    1.236652e+00   1.581212e-02
  1.603686e+00    1.261386e+00   1.594952e-02
  1.605897e+00    1.266045e+00   1.595858e-02
  1.608107e+00    1.269026e+00   1.595754e-02
  1.610317e+00    1.264121e+00   1.590718e-02
  1.612528e+00    1.242339e+00   1.575030e-02
  1.614738e+00    1.232701e+00   1.567012e-02
  1.616949e+00    1.227257e+00   1.561649e-02
  1.619159e+00    1.217813e+00   1.553761e-02
  1.621370e+00    1.209616e+00   1.546685e-02
  1.623580e+00    1.183303e+00   1.527960e-02
  1.625791e+00    1.204060e+00   1.539479e-02
  1.628001e+00    1.194266e+00   1.531387e-02
  1.630212e+00    1.189014e+00   1.526243e-02
  1.632422e+00    1.154810e+00   1.502365e-02
  1.634632e+00    1.156996e+00   1.502073e-02
  1.636843e+00    1.129983e+00   1.482717e-02
  1.639053e+00    1.135595e+00   1.484693e-02
  1.641264e+00    1.149435e+00   1.492018e-02
  1.643474e+00    1.162948e+00   1.499023e-02
  1.645685e+00    1.151856e+00   1.490197e-02
  1.647895e+00    1.155745e+00   1.491049e-02
  1.650106e+00    1.156264e+00   1.489681e-02
  1.652316e+00    1.134304e+00   1.473829e-02
  1.654527e+00    1.128646e+00   1.468491e-02
  1.656737e+00    1.120575e+00   1.461587e-02
  1.658947e+00    1.109380e+00   1.452655e-02
  1.661158e+00    1.115282e+00   1.454898e-02
  1.663368e+00    1.096021e+00   1.440695e-02
  1.665579e+00    1.103481e+00   1.443987e-02
  1.667789e+00    1.105915e+00   1.443963e-02
  1.670000e+00    1.100494e+00   1.438879e-02
  1.672210e+00    1.087476e+00   1.428771e-02
  1.674421e+00    1.104018e+00   1.438064e-02
  1.676631e+00    1.102371e+00   1.435404e-02
  1.678842e+00    1.092367e+00   1.427304e-02
  1.681052e+00    1.081602e+00   1.418723e-02
  1.683263e+00    1.046517e+00   1.394040e-02
  1.685473e+00    1.065332e+00   1.405014e-02
  1.687683e+00    1.070954e+00   1.407183e-02
  1.689894e+00    1.068321e+00   1.403884e-02
  1.692104e+00    1.060175e+00   1.397042e-02
  1.694315e+00    1.069114e+00   1.401470e-02
  1.696525e+00    1.073944e+00   1.403115e-02
  1.698736e+00    1.044502e+00   1.382279e-02
  1.700946e+00    1.066211e+00   1.395052e-02
  1.703157e+00    1.054576e+00   1.385958e-02
  1.705367e+00    1.046961e+00   1.379500e-02
  1.707578e+00    1.033835e+00   1.369377e-02
  1.709788e+00    1.046577e+00   1.376378e-02
  1.711998e+00    1.043143e+00   1.372618e-02
  1.714209e+00    1.032426e+00   1.364108e-02
  1.716419e+00    1.023890e+00   1.357040e-02
  1.718630e+00    1.012537e+00   1.348079e-02
  1.720840e+00    1.012005e+00   1.346320e-02
  1.723051e+00    1.014221e+00   1.346411e-02
  1.725261e+00    1.019361e+00   1.348356e-02
  1.727472e+00    9.868873e-01   1.325307e-02
  1.729682e+00    9.890316e-01   1.325418e-02
  1.731893e+00    9.880763e-01   1.323402e-02
  1.734103e+00    1.019053e+00   1.342601e-02
  1.736313e+00    1.014249e+00   1.338028e-02
  1.738524e+00    9.802293e-01   1.314028e-02
  1.740734e+00    9.841039e-01   1.315263e-02
  1.742945e+00    9.887422e-01   1.317017e-02
  1.745155e+00    9.885165e-01   1.315526e-02
  1.747366e+00    9.769877e-01   1.306460e-02
  1.749576e+00    9.714518e-01   1.301394e-02
  1.751787e+00    9.958420e-01   1.316287e-02
  1.753997e+00    9.979243e-01   1.316314e-02
  1.756208e+00    9.993587e-01   1.315922e-02
  1.758418e+00    1.020824e+00   1.328634e-02
  1.760628e+00    1.026966e+00   1.331252e-02
  1.762839e+00    1.004144e+00   1.315031e-02
  1.765049e+00    9.823825e-01   1.299374e-02
  1.767260e+00    1.004661e+00   1.312718e-02
  1.769470e+00    9.598284e-01   1.281791e-02
  1.771681e+00    9.506471e-01   1.274332e-02
  1.773891e+00    9.562287e-01   1.276758e-02
  1.776102e+00    9.464754e-01   1.268946e-02
  1.778312e+00    9.375651e-01   1.261687e-02
  1.780523e+00    9.507068e-01   1.269222e-02
  1.782733e+00    9.266773e-01   1.251817e-02
  1.784944e+00    9.382709e-01   1.258335e-02
  1.787154e+00    9.297495e-01   1.251355e-02
  1.789364e+00    9.451436e-01   1.260414e-02
  1.791575e+00    9.283816e-01   1.247934e-02
  1.793785e+00    9.269115e-01   1.245701e-02
  1.795996e+00    9.293276e-01   1.246066e-02
  1.798206e+00    9.116350e-01   1.232903e-02
  1.800417e+00    8.974086e-01   1.221988e-02
  1.802627e+00    9.077052e-01   1.227790e-02
  1.804838e+00    9.191497e-01   1.234289e-02
  1.807048e+00    1.004341e+00   1.288866e-02
  1.809259e+00    1.123061e+00   1.361411e-02
  1.811469e+00    1.008174e+00   1.288322e-02
  1.813679e+00    9.140142e-01   1.225174e-02
  1.815890e+00    8.902766e-01   1.207691e-02
  1.818100e+00    8.980798e-01   1.211459e-02
  1.820311e+00    9.101075e-01   1.218055e-02
  1.822521e+00    8.905329e-01   1.203400e-02
  1.824732e+00    8.654895e-01   1.184898e-02
  1.826942e+00    8.719722e-01   1.188103e-02
  1.829153e+00    8.833405e-01   1.194655e-02
  1.831363e+00    8.844321e-01   1.194190e-02
  1.833574e+00    9.124434e-01   1.211764e-02
  1.835784e+00    9.207063e-01   1.216070e-02
  1.837994e+00    9.248598e-01   1.217608e-02
  1.840205e+00    9.104539e-01   1.206949e-02
  1.842415e+00    8.931448e-01   1.194228e-02
  1.844626e+00    8.928754e-01   1.192880e-02
  1.846836e+00    8.672805e-01   1.174515e-02
  1.849047e+00    8.671580e-01   1.173270e-02
  1.851257e+00    8.578798e-01   1.166022e-02
  1.853468e+00    8.614874e-01   1.167592e-02
  1.855678e+00    8.791715e-01   1.178617e-02
  1.857889e+00    8.585348e-01   1.163852e-02
  1.860099e+00    8.626468e-01   1.165771e-02
  1.862309e+00    8.576102e-01   1.161509e-02
  1.864520e+00    8.418859e-01   1.149965e-02
  1.866730e+00    8.477437e-01   1.153019e-02
  1.868941e+00    8.699093e-01   1.166893e-02
  1.871151e+00    8.656507e-01   1.162884e-02
  1.873362e+00    8.718607e-01   1.165899e-02
  1.875572e+00    9.023576e-01   1.184987e-02
  1.877783e+00    9.157876e-01   1.192586e-02
  1.879993e+00    9.179023e-01   1.192802e-02
  1.882204e+00    8.819174e-01   1.168073e-02
  1.884414e+00    8.780737e-01   1.164396e-02
  1.886624e+00    8.390504e-01   1.137124e-02
  1.888835e+00    8.357319e-01   1.133778e-02
  1.891045e+00    8.698953e-01   1.155610e-02
  1.893256e+00    9.055952e-01   1.177934e-02
  1.895466e+00    9.425306e-01   1.200529e-02
  1.897677e+00    9.431618e-01   1.199775e-02
  1.899887e+00    8.606358e-01   1.144967e-02
  1.902098e+00    8.621468e-01   1.144866e-02
  1.904308e+00    8.454534e-01   1.132663e-02
  1.906519e+00    8.356003e-01   1.124954e-02
  1.908729e+00    8.333185e-01   1.122355e-02
  1.910940e+00    8.127064e-01   1.107282e-02
  1.913150e+00    8.344265e-01   1.120917e-02
  1.915360e+00    8.424474e-01   1.125219e-02
  1.917571e+00    8.218025e-01   1.110261e-02
  1.919781e+00    8.118773e-01   1.102472e-02
  1.921992e+00    8.217889e-01   1.108118e-02
  1.924202e+00    8.226368e-01   1.107611e-02
  1.926413e+00    7.984220e-01   1.090168e-02
  1.928623e+00    7.999872e-01   1.090192e-02
  1.930834e+00    8.023381e-01   1.090755e-02
  1.933044e+00    8.024634e-01   1.089781e-02
  1.935255e+00    7.765593e-01   1.071036e-02
  1.937465e+00    7.851033e-01   1.075885e-02
  1.939675e+00    7.943726e-01   1.081143e-02
  1.941886e+00    8.142624e-01   1.093559e-02
  1.944096e+00    8.135227e-01   1.092039e-02
  1.946307e+00    7.972963e-01   1.080062e-02
  1.948517e+00    8.105540e-01   1.087953e-02
  1.950728e+00    8.009776e-01   1.080482e-02
  1.952938e+00    7.949480e-01   1.075399e-02
  1.955149e+00    7.928389e-01   1.072951e-02
  1.957359e+00    7.995136e-01   1.076452e-02
  1.959570e+00    7.970905e-01   1.073730e-02
  1.961780e+00    7.987065e-01   1.073823e-02
  1.963990e+00    8.204598e-01   1.087317e-02
  1.966201e+00    8.406938e-01   1.099606e-02
  1.968411e+00    8.202586e-01   1.085127e-02
  1.970622e+00    8.065536e-01   1.075000e-02
  1.972832e+00    8.058826e-01   1.073545e-02
  1.975043e+00    7.956847e-01   1.065720e-02
  1.977253e+00    7.910246e-01   1.061596e-02
  1.979464e+00    7.893431e-01   1.059460e-02
  1.981674e+00    7.793314e-01   1.051696e-02
  1.983885e+00    7.865793e-01   1.055570e-02
  1.986095e+00    7.675323e-01   1.041749e-02
  1.988305e+00    7.789761e-01   1.048498e-02
  1.990516e+00    7.673584e-01   1.039664e-02
  1.992726e+00    7.810818e-01   1.047951e-02
  1.994937e+00    7.614440e-01   1.033691e-02
  1.997147e+00    7.739838e-01   1.041195e-02
  1.999358e+00    7.758608e-01   1.041473e-02
  2.001568e+00    7.730564e-01   1.038505e-02
  2.003779e+00    7.765911e-01   1.039685e-02
  2.005989e+00    7.757386e-01   1.037906e-02
  2.008200e+00    7.744607e-01   1.035897e-02
  2.010410e+00    7.706754e-01   1.032186e-02
  2.012621e+00    7.683813e-01   1.029478e-02
  2.014831e+00    7.634474e-01   1.025023e-02
  2.017041e+00    7.701566e-01   1.028477e-02
  2.019252e+00    7.689529e-01   1.026675e-02
  2.021462e+00    7.697135e-01   1.026228e-02
  2.023673e+00    7.718924e-01   1.026738e-02
  2.025883e+00    7.693473e-01   1.024086e-02
  2.028094e+00    7.765166e-01   1.027875e-02
  2.030304e+00    7.712466e-01   1.023421e-02
  2.032515e+00    7.628171e-01   1.016881e-02
  2.034725e+00    7.735609e-01   1.023066e-02
  2.036936e+00    7.504219e-01   1.006718e-02
  2.039146e+00    7.479801e-01   1.004128e-02
  2.041356e+00    7.615017e-01   1.012195e-02
  2.043567e+00    7.611216e-01   1.011009e-02
  2.045777e+00    7.650583e-01   1.012689e-02
  2.047988e+00    7.678069e-01   1.013562e-02
  2.050198e+00    7.473699e-01   9.991446e-03
  2.052409e+00    7.428478e-01   9.953529e-03
  2.054619e+00    7.634521e-01   1.008321e-02
  2.056830e+00    7.520502e-01   1.000046e-02
  2.059040e+00    7.425334e-01   9.929496e-03
  2.061251e+00    7.595544e-01   1.003538e-02
  2.063461e+00    7.599847e-01   1.003055e-02
  2.065671e+00    7.730370e-01   1.010748e-02
  2.067882e+00    7.680914e-01   1.006597e-02
  2.070092e+00    7.445899e-01   9.901615e-03
  2.072303e+00    7.377968e-01   9.847241e-03
  2.074513e+00    7.539647e-01   9.945175e-03
  2.076724e+00    7.508449e-01   9.915081e-03
  2.078934e+00    7.418445e-01   9.846489e-03
  2.081145e+00    7.346232e-01   9.789400e-03
  2.083355e+00    7.514394e-01   9.891582e-03
  2.085566e+00    7.359966e-01   9.780545e-03
  2.087776e+00    7.377502e-01   9.782688e-03
  2.089986e+00    7.330387e-01   9.742646e-03
  2.092197e+00    7.366254e-01   9.757498e-03
  2.094407e+00    7.352414e-01   9.739109e-03
  2.096618e+00    7.399291e-01   9.761178e-03
  2.098828e+00    7.341152e-01   9.713450e-03
  2.101039e+00    7.348400e-01   9.709251e-03
  2.103249e+00    7.400136e-01   9.734652e-03
  2.105460e+00    7.117184e-01   9.537837e-03
  2.107670e+00    7.257400e-01   9.622590e-03
  2.109881e+00    7.175459e-01   9.559032e-03
  2.112091e+00    7.211447e-01   9.573991e-03
  2.114301e+00    7.503018e-01   9.756697e-03
  2.116512e+00    7.285106e-01   9.605153e-03
  2.118722e+00    7.367407e-01   9.650328e-03
  2.120933e+00    7.181743e-01   9.519123e-03
  2.123143e+00    7.202919e-01   9.524210e-03
  2.125354e+00    7.237368e-01   9.538410e-03
  2.127564e+00    7.105857e-01   9.442651e-03
  2.129775e+00    7.018694e-01   9.375922e-03
  2.131985e+00    7.053223e-01   9.389942e-03
  2.134196e+00    7.138577e-01   9.437996e-03
  2.136406e+00    7.120100e-01   9.417048e-03
  2.138617e+00    6.982707e-01   9.317358e-03
  2.140827e+00    7.041864e-01   9.372743e-03
  2.143037e+00    7.026798e-01   9.408045e-03
  2.145248e+00    6.943181e-01   9.373730e-03
  2.147458e+00    7.112256e-01   9.502364e-03
  2.149669e+00    7.249737e-01   9.605816e-03
  2.151879e+00    7.157269e-01   9.553687e-03
  2.154090e+00    7.041485e-01   9.483410e-03
  2.156300e+00    7.073970e-01   9.511909e-03
  2.158511e+00    7.005431e-01   9.471017e-03
  2.160721e+00    6.912940e-01   9.413073e-03
  2.162932e+00    7.073886e-01   9.525786e-03
  2.165142e+00    7.097096e-01   9.544465e-03
  2.167352e+00    6.821758e-01   9.360367e-03
  2.169563e+00    6.926829e-01   9.434121e-03
  2.171773e+00    6.888135e-01   9.410175e-03
  2.173984e+00    6.942595e-01   9.448712e-03
  2.176194e+00    6.977867e-01   9.473894e-03
  2.178405e+00    6.982733e-01   9.477893e-03
  2.180615e+00    6.991103e-01   9.484259e-03
  2.182826e+00    6.817806e-01   9.366649e-03
  2.185036e+00    6.799505e-01   9.354121e-03
  2.187247e+00    6.821401e-01   9.369105e-03
  2.189457e+00    6.922501e-01   9.437887e-03
  2.191667e+00    6.719052e-01   9.297992e-03
  2.193878e+00    6.772066e-01   9.334031e-03
  2.196088e+00    6.792296e-01   9.347286e-03
  2.198299e+00    6.828677e-01   9.371180e-03
  2.200509e+00    6.942385e-01   9.447847e-03
  2.202720e+00    6.754808e-01   9.318166e-03
  2.204930e+00    6.896081e-01   9.413863e-03
  2.207141e+00    6.758443e-01   9.318343e-03
  2.209351e+00    6.817267e-01   9.356899e-03
  2.211562e+00    6.823556e-01   9.359621e-03
  2.213772e+00    6.676872e-01   9.203347e-03
  2.215982e+00    6.777788e-01   9.228371e-03
  2.218193e+00    6.725798e-01   9.163348e-03
  2.220403e+00    6.728969e-01   9.140952e-03
  2.222614e+00    6.839261e-01   9.194455e-03
  2.224824e+00    6.783904e-01   9.137718e-03
  2.227035e+00    6.799611e-01   9.130756e-03
  2.229245e+00    6.768056e-01   9.092514e-03
  2.231456e+00    6.796334e-01   9.095768e-03
  2.233666e+00    6.780969e-01   9.070315e-03
  2.235877e+00    6.699475e-01   9.001387e-03
  2.238087e+00    6.700431e-01   8.988536e-03
  2.240298e+00    6.894617e-01   9.103880e-03
  2.242508e+00    6.702784e-01   8.961218e-03
  2.244718e+00    6.613382e-01   8.885510e-03
  2.246929e+00    6.558512e-01   8.834290e-03
  2.249139e+00    6.754768e-01   8.953032e-03
  2.251350e+00    6.814954e-01   8.981007e-03
  2.253560e+00    6.657282e-01   8.864949e-03
  2.255771e+00    6.682734e-01   8.870441e-03
  2.257981e+00    6.651962e-01   8.838828e-03
  2.260192e+00    6.539291e-01   8.752608e-03
  2.262402e+00    6.579240e-01   8.768525e-03
  2.264613e+00    6.774231e-01   8.886540e-03
  2.266823e+00    6.762689e-01   8.868498e-03
  2.269033e+00    6.694653e-01   8.813324e-03
  2.271244e+00    6.542723e-01   8.702435e-03
  2.273454e+00    6.601180e-01   8.730963e-03
  2.275665e+00    6.605210e-01   8.723345e-03
  2.277875e+00    6.642884e-01   8.738217e-03
  2.280086e+00    6.646960e-01   8.730840e-03
  2.282296e+00    6.635416e-01   8.713811e-03
  2.284507e+00    6.549127e-01   8.646881e-03
  2.286717e+00    6.531747e-01   8.625940e-03
  2.288928e+00    6.738783e-01   8.751599e-03
  2.291138e+00    6.656576e-01   8.688584e-03
  2.293348e+00    6.463219e-01   8.551979e-03
  2.295559e+00    6.666186e-01   8.675820e-03
  2.297769e+00    6.583661e-01   8.612702e-03
  2.299980e+00    6.495018e-01   8.545201e-03
  2.302190e+00    6.399972e-01   8.473434e-03
  2.304401e+00    6.336781e-01   8.422276e-03
  2.306611e+00    6.595555e-01   8.583291e-03
  2.308822e+00    6.472879e-01   8.494735e-03
  2.311032e+00    6.626336e-01   8.588311e-03
  2.313243e+00    6.618225e-01   8.576757e-03
  2.315453e+00    6.377246e-01   8.411647e-03
  2.317663e+00    6.521603e-01   8.497141e-03
  2.319874e+00    6.435784e-01   8.432365e-03
  2.322084e+00    6.543000e-01   8.493270e-03
  2.324295e+00    6.357127e-01   8.363618e-03
  2.326505e+00    6.396528e-01   8.380455e-03
  2.328716e+00    6.571308e-01   8.485539e-03
  2.330926e+00    6.529438e-01   8.449608e-03
  2.333137e+00    6.505533e-01   8.425702e-03
  2.335347e+00    6.514688e-01   8.422690e-03
  2.337558e+00    6.459376e-01   8.378578e-03
  2.339768e+00    6.465516e-01   8.373956e-03
  2.341979e+00    6.409856e-01   8.329439e-03
  2.344189e+00    6.367319e-01   8.293390e-03
  2.346399e+00    6.374546e-01   8.289574e-03
  2.348610e+00    6.258309e-01   8.205253e-03
  2.350820e+00    6.324883e-01   8.240617e-03
  2.353031e+00    6.359509e-01   8.254854e-03
  2.355241e+00    6.251308e-01   8.176321e-03
  2.357452e+00    6.298197e-01   8.198522e-03
  2.359662e+00    6.320255e-01   8.204641e-03
  2.361873e+00    6.329106e-01   8.202136e-03
  2.364083e+00    6.236007e-01   8.133638e-03
  2.366294e+00    6.457551e-01   8.268614e-03
  2.368504e+00    6.422130e-01   8.237757e-03
  2.370714e+00    6.313658e-01   8.159791e-03
  2.372925e+00    6.171397e-01   8.059340e-03
  2.375135e+00    6.141495e-01   8.031792e-03
  2.377346e+00    6.194659e-01   8.058561e-03
  2.379556e+00    6.372647e-01   8.165520e-03
  2.381767e+00    6.298587e-01   8.110039e-03
  2.383977e+00    6.051510e-01   7.941540e-03
  2.386188e+00    6.055962e-01   7.936623e-03
  2.388398e+00    6.040871e-01   7.918875e-03
  2.390609e+00    6.058159e-01   7.922528e-03
  2.392819e+00    6.141008e-01   7.968767e-03
  2.395029e+00    6.147193e-01   7.965132e-03
  2.397240e+00    5.871781e-01   7.776963e-03
  2.399450e+00    6.001676e-01   7.854777e-03
  2.401661e+00    6.141370e-01   7.937972e-03
  2.403871e+00    6.180769e-01   7.955604e-03
  2.406082e+00    6.062139e-01   7.871476e-03
  2.408292e+00    6.064011e-01   7.864916e-03
  2.410503e+00    5.986018e-01   7.806747e-03
  2.412713e+00    6.156170e-01   7.909050e-03
  2.414924e+00    6.170053e-01   7.910447e-03
  2.417134e+00    6.066950e-01   7.836403e-03
  2.419344e+00    5.976173e-01   7.770203e-03
  2.421555e+00    5.948930e-01   7.744994e-03
  2.423765e+00    5.939631e-01   7.731571e-03
  2.425976e+00    5.972714e-01   7.745284e-03
  2.428186e+00    5.933152e-01   7.712416e-03
  2.430397e+00    5.898369e-01   7.682327e-03
  2.432607e+00    5.950398e-01   7.708865e-03
  2.434818e+00    5.927520e-01   7.686513e-03
  2.437028e+00    5.978507e-01   7.712321e-03
  2.439239e+00    5.902492e-01   7.655505e-03
  2.441449e+00    5.859359e-01   7.620330e-03
  2.443659e+00    5.818776e-01   7.586592e-03
  2.445870e+00    5.730521e-01   7.540926e-03
  2.448080e+00    5.767498e-01   7.599809e-03
  2.450291e+00    5.875214e-01   7.687215e-03
  2.452501e+00    5.918863e-01   7.727039e-03
  2.454712e+00    5.876069e-01   7.707584e-03
  2.456922e+00    5.751154e-01   7.631881e-03
  2.459133e+00    5.555620e-01   7.506379e-03
  2.461343e+00    5.617788e-01   7.552593e-03
  2.463554e+00    5.600649e-01   7.544518e-03
  2.465764e+00    5.445435e-01   7.442338e-03
  2.467975e+00    5.568724e-01   7.528368e-03
  2.470185e+00    5.563452e-01   7.527082e-03
  2.472395e+00    5.329017e-01   7.367982e-03
  2.474606e+00    5.312114e-01   7.357797e-03
  2.476816e+00    5.455975e-01   7.457493e-03
  2.479027e+00    5.490345e-01   7.481799e-03
  2.481237e+00    5.613459e-01   7.565513e-03
  2.483448e+00    5.408085e-01   7.426119e-03
  2.485658e+00    5.561238e-01   7.530394e-03
  2.487869e+00    5.386775e-01   7.411367e-03
  2.490079e+00    5.400250e-01   7.420124e-03
  2.492290e+00    5.367011e-01   7.396800e-03
  2.494500e+00    5.489083e-01   7.479724e-03
  2.496710e+00    5.388896e-01   7.410455e-03
  2.498921e+00    5.520306e-01   7.499240e-03
  2.501131e+00    5.510554e-01   7.491659e-03
  2.503342e+00    5.472116e-01   7.464211e-03
  2.505552e+00    5.359612e-01   7.385940e-03
  2.507763e+00    5.407917e-01   7.417718e-03
  2.509973e+00    5.317608e-01   7.354119e-03
  2.512184e+00    5.373493e-01   7.391037e-03
  2.514394e+00    5.419729e-01   7.413266e-03
  2.516605e+00    5.340990e-01   7.311839e-03
  2.518815e+00    5.250114e-01   7.221043e-03
  2.521025e+00    5.347770e-01   7.266764e-03
  2.523236e+00    5.316564e-01   7.227435e-03
  2.525446e+00    5.238281e-01   7.158443e-03
  2.527657e+00    5.368595e-01   7.232180e-03
  2.529867e+00    5.260841e-01   7.145054e-03
  2.532078e+00    5.250406e-01   7.122888e-03
  2.534288e+00    5.431404e-01   7.230535e-03
  2.536499e+00    5.190346e-01   7.056367e-03
  2.538709e+00    5.304073e-01   7.122196e-03
  2.540920e+00    5.279538e-01   7.095033e-03
  2.543130e+00    5.199136e-01   7.030463e-03
  2.545340e+00    5.287659e-01   7.079957e-03
  2.547551e+00    5.313022e-01   7.086891e-03
  2.549761e+00    5.250764e-01   7.035648e-03
  2.551972e+00    5.327307e-01   7.077283e-03
  2.554182e+00    5.183180e-01   6.971749e-03
  2.556393e+00    5.300254e-01   7.040860e-03
  2.558603e+00    5.131136e-01   6.918634e-03
  2.560814e+00    5.014934e-01   6.831285e-03
  2.563024e+00    5.270866e-01   6.994772e-03
  2.565235e+00    5.158359e-01   6.910263e-03
  2.567445e+00    5.108116e-01   6.867032e-03
  2.569656e+00    5.145529e-01   6.882428e-03
  2.571866e+00    5.179787e-01   6.895935e-03
  2.574076e+00    5.167723e-01   6.878643e-03
  2.576287e+00    5.241342e-01   6.919069e-03
  2.578497e+00    5.144788e-01   6.847217e-03
  2.580708e+00    5.162054e-01   6.850600e-03
  2.582918e+00    5.151032e-01   6.835520e-03
  2.585129e+00    4.985633e-01   6.717262e-03
  2.587339e+00    4.972224e-01   6.700658e-03
  2.589550e+00    5.112913e-01   6.787243e-03
  2.591760e+00    5.192422e-01   6.832035e-03
  2.593971e+00    5.049937e-01   6.730177e-03
  2.596181e+00    5.063224e-01   6.732810e-03
  2.598391e+00    5.197311e-01   6.816147e-03
  2.600602e+00    5.278853e-01   6.863410e-03
  2.602812e+00    5.205197e-01   6.807726e-03
  2.605023e+00    5.167115e-01   6.775574e-03
  2.607233e+00    5.039009e-01   6.683926e-03
  2.609444e+00    5.101982e-01   6.718309e-03
  2.611654e+00    5.181207e-01   6.762875e-03
  2.613865e+00    5.077255e-01   6.687637e-03
  2.616075e+00    5.119641e-01   6.708327e-03
  2.618286e+00    5.147282e-01   6.719336e-03
  2.620496e+00    5.104237e-01   6.684460e-03
  2.622706e+00    5.140473e-01   6.702350e-03
  2.624917e+00    5.064729e-01   6.646919e-03
  2.627127e+00    5.135801e-01   6.687614e-03
  2.629338e+00    5.134559e-01   6.680749e-03
  2.631548e+00    5.112714e-01   6.660320e-03
  2.633759e+00    5.114448e-01   6.654235e-03
  2.635969e+00    5.083541e-01   6.627372e-03
  2.638180e+00    5.116097e-01   6.641493e-03
  2.640390e+00    5.107261e-01   6.629103e-03
  2.642601e+00    5.034934e-01   6.575311e-03
  2.644811e+00    5.017824e-01   6.557034e-03
  2.647021e+00    5.043961e-01   6.567510e-03
  2.649232e+00    5.030268e-01   6.551831e-03
  2.651442e+00    5.148012e-01   6.621480e-03
  2.653653e+00    5.011476e-01   6.526269e-03
  2.655863e+00    5.029333e-01   6.531162e-03
  2.658074e+00    5.104270e-01   6.572956e-03
  2.660284e+00    5.017101e-01   6.510215e-03
  2.662495e+00    5.070523e-01   6.537938e-03
  2.664705e+00    5.036459e-01   6.509357e-03
  2.666916e+00    4.966352e-01   6.457405e-03
  2.669126e+00    5.136296e-01   6.560402e-03
  2.671337e+00    4.952194e-01   6.435179e-03
  2.673547e+00    4.824460e-01   6.345341e-03
  2.675757e+00    4.806426e-01   6.327120e-03
  2.677968e+00    4.865658e-01   6.359484e-03
  2.680178e+00    5.106259e-01   6.508339e-03
  2.682389e+00    4.908014e-01   6.374373e-03
  2.684599e+00    4.934154e-01   6.385135e-03
  2.686810e+00    4.728134e-01   6.243929e-03
  2.689020e+00    4.889629e-01   6.343394e-03
  2.691231e+00    4.816246e-01   6.289385e-03
  2.693441e+00    4.918496e-01   6.349643e-03
  2.695652e+00    4.865313e-01   6.308732e-03
  2.697862e+00    4.857109e-01   6.297090e-03
  2.700072e+00    4.957611e-01   6.355796e-03
  2.702283e+00    4.931152e-01   6.332560e-03
  2.704493e+00    4.967720e-01   6.349674e-03
  2.706704e+00    4.917939e-01   6.311345e-03
  2.708914e+00    4.911663e-01   6.301324e-03
  2.711125e+00    5.040355e-01   6.377000e-03
  2.713335e+00    5.006774e-01   6.349551e-03
  2.715546e+00    4.887547e-01   6.267032e-03
  2.717756e+00    4.836084e-01   6.228064e-03
  2.719967e+00    4.855900e-01   6.234607e-03
  2.722177e+00    4.884356e-01   6.246706e-03
  2.724387e+00    4.859254e-01   6.224518e-03
  2.726598e+00    4.925533e-01   6.260737e-03
  2.728808e+00    4.725347e-01   6.126123e-03
  2.731019e+00    4.742684e-01   6.131270e-03
  2.733229e+00    4.903810e-01   6.228718e-03
  2.735440e+00    4.847865e-01   6.186823e-03
  2.737650e+00    4.870285e-01   6.195075e-03
  2.739861e+00    4.811102e-01   6.151259e-03
  2.742071e+00    4.877422e-01   6.187733e-03
  2.744282e+00    4.891636e-01   6.190456e-03
  2.746492e+00    4.962288e-01   6.228884e-03
  2.748702e+00    4.930774e-01   6.203107e-03
  2.750913e+00    4.855073e-01   6.149479e-03
  2.753123e+00    4.875171e-01   6.156052e-03
  2.755334e+00    4.818493e-01   6.114076e-03
  2.757544e+00    4.731097e-01   6.052679e-03
  2.759755e+00    4.927947e-01   6.171349e-03
  2.761965e+00    4.863881e-01   6.125083e-03
  2.764176e+00    4.918233e-01   6.153164e-03
  2.766386e+00    4.737254e-01   6.033135e-03
  2.768597e+00    4.745825e-01   6.032755e-03
  2.770807e+00    4.702653e-01   5.999425e-03
  2.773017e+00    4.782609e-01   6.044252e-03
  2.775228e+00    4.813582e-01   6.057987e-03
  2.777438e+00    4.661088e-01   5.955545e-03
  2.779649e+00    4.739636e-01   5.999627e-03
  2.781859e+00    4.781362e-01   6.020214e-03
  2.784070e+00    4.836675e-01   6.049043e-03
  2.786280e+00    4.821104e-01   6.033501e-03
  2.788491e+00    4.701199e-01   5.952216e-03
  2.790701e+00    4.642506e-01   5.909357e-03
  2.792912e+00    4.776329e-01   5.987940e-03
  2.795122e+00    4.806535e-01   6.001097e-03
  2.797333e+00    4.640405e-01   5.890993e-03
  2.799543e+00    4.662612e-01   5.899259e-03
  2.801753e+00    4.671303e-01   5.898945e-03
  2.803964e+00    4.766721e-01   5.953216e-03
  2.806174e+00    4.807930e-01   5.972704e-03
  2.808385e+00    4.789863e-01   5.954669e-03
  2.810595e+00    4.646977e-01   5.858374e-03
  2.812806e+00    4.613944e-01   5.831002e-03
  2.815016e+00    4.655493e-01   5.852476e-03
  2.817227e+00    4.820566e-01   5.981499e-03
  2.819437e+00    4.854118e-01   6.013486e-03
  2.821648e+00    4.714966e-01   5.928948e-03
  2.823858e+00    4.793566e-01   5.983554e-03
  2.826068e+00    4.572448e-01   5.848795e-03
  2.828279e+00    4.725811e-01   5.950106e-03
  2.830489e+00    4.834036e-01   6.021250e-03
  2.832700e+00    4.657181e-01   5.912613e-03
  2.834910e+00    4.632108e-01   5.898715e-03
  2.837121e+00    4.779319e-01   5.993429e-03
  2.839331e+00    4.756466e-01   5.980343e-03
  2.841542e+00    4.702904e-01   5.947566e-03
  2.843752e+00    4.750387e-01   5.978329e-03
  2.845963e+00    4.618491e-01   5.895126e-03
  2.848173e+00    4.591380e-01   5.877883e-03
  2.850383e+00    4.664806e-01   5.924997e-03
  2.852594e+00    4.589948e-01   5.877182e-03
  2.854804e+00    4.688526e-01   5.939452e-03
  2.857015e+00    4.666540e-01   5.925089e-03
  2.859225e+00    4.570986e-01   5.863847e-03
  2.861436e+00    4.711263e-01   5.952488e-03
  2.863646e+00    4.689706e-01   5.938907e-03
  2.865857e+00    4.502061e-01   5.819207e-03
  2.868067e+00    4.596495e-01   5.880139e-03
  2.870278e+00    4.583957e-01   5.871762e-03
  2.872488e+00    4.620466e-01   5.893942e-03
  2.874698e+00    4.703192e-01   5.945425e-03
  2.876909e+00    4.788502e-01   5.997741e-03
  2.879119e+00    4.740912e-01   5.966232e-03
  2.881330e+00    4.709305e-01   5.944832e-03
  2.883540e+00    4.585969e-01   5.865084e-03
  2.885751e+00    4.651768e-01   5.905350e-03
  2.887961e+00    4.667119e-01   5.913198e-03
  2.890172e+00    4.642114e-01   5.895725e-03
  2.892382e+00    4.616778e-01   5.877809e-03
  2.894593e+00    4.578012e-01   5.851280e-03
  2.896803e+00    4.503490e-01   5.801494e-03
  2.899014e+00    4.576554e-01   5.846447e-03
  2.901224e+00    4.659739e-01   5.897343e-03
  2.903434e+00    4.679434e-01   5.907842e-03
  2.905645e+00    4.592317e-01   5.850365e-03
  2.907855e+00    4.587485e-01   5.845183e-03
  2.910066e+00    4.722440e-01   5.928415e-03
  2.912276e+00    4.558158e-01   5.822320e-03
  2.914487e+00    4.455326e-01   5.753803e-03
  2.916697e+00    4.648033e-01   5.874689e-03
  2.918908e+00    4.589145e-01   5.835364e-03
  2.921118e+00    4.618308e-01   5.851162e-03
  2.923329e+00    4.594980e-01   5.834048e-03
  2.925539e+00    4.609037e-01   5.840673e-03
  2.927749e+00    4.658890e-01   5.869844e-03
  2.929960e+00    4.617526e-01   5.840932e-03
  2.932170e+00    4.565475e-01   5.805601e-03
  2.934381e+00    4.589705e-01   5.818526e-03
  2.936591e+00    4.566462e-01   5.801215e-03
  2.938802e+00    4.526959e-01   5.773358e-03
  2.941012e+00    4.576233e-01   5.802350e-03
  2.943223e+00    4.560252e-01   5.789516e-03
  2.945433e+00    4.533719e-01   5.768920e-03
  2.947644e+00    4.515436e-01   5.753164e-03
  2.949854e+00    4.496211e-01   5.736660e-03
  2.952064e+00    4.610013e-01   5.804549e-03
  2.954275e+00    4.703925e-01   5.858884e-03
  2.956485e+00    4.659154e-01   5.826726e-03
  2.958696e+00    4.587027e-01   5.777042e-03
  2.960906e+00    4.537528e-01   5.741613e-03
  2.963117e+00    4.510167e-01   5.719813e-03
  2.965327e+00    4.441024e-01   5.671923e-03
  2.967538e+00    4.510196e-01   5.713035e-03
  2.969748e+00    4.533373e-01   5.724883e-03
  2.971959e+00    4.602712e-01   5.765334e-03
  2.974169e+00    4.531602e-01   5.718065e-03
  2.976379e+00    4.603261e-01   5.760133e-03
  2.978590e+00    4.575530e-01   5.739633e-03
  2.980800e+00    4.595917e-01   5.749562e-03
  2.983011e+00    4.619640e-01   5.761596e-03
  2.985221e+00    4.497510e-01   5.681769e-03
  2.987432e+00    4.549009e-01   5.711094e-03
  2.989642e+00    4.648295e-01   5.770430e-03
  2.991853e+00    4.509991e-01   5.680667e-03
  2.994063e+00    4.557679e-01   5.707684e-03
  2.996274e+00    4.592199e-01   5.726094e-03
  2.998484e+00    4.552506e-01   5.698567e-03
  3.000694e+00    4.605260e-01   5.728015e-03
  3.002905e+00    4.560175e-01   5.696964e-03
  3.005115e+00    4.537856e-01   5.680021e-03
  3.007326e+00    4.700428e-01   5.777651e-03
  3.009536e+00    4.566553e-01   5.691531e-03
  3.011747e+00    4.676248e-01   5.756515e-03
  3.013957e+00    4.509506e-01   5.649783e-03
  3.016168e+00    4.580278e-01   5.690664e-03
  3.018378e+00    4.540681e-01   5.662971e-03
  3.020589e+00    4.438586e-01   5.595759e-03
  3.022799e+00    4.550206e-01   5.662513e-03
  3.025010e+00    4.547016e-01   5.657271e-03
  3.027220e+00    4.574677e-01   5.671332e-03
  3.029430e+00    4.671202e-01   5.727551e-03
  3.031641e+00    4.512738e-01   5.626450e-03
  3.033851e+00    4.499168e-01   5.614448e-03
  3.036062e+00    4.515675e-01   5.621972e-03
  3.038272e+00    4.605906e-01   5.674228e-03
  3.040483e+00    4.620727e-01   5.680111e-03
  3.042693e+00    4.595636e-01   5.661369e-03
  3.044904e+00    4.588064e-01   5.652653e-03
  3.047114e+00    4.536107e-01   5.615731e-03
  3.049325e+00    4.489668e-01   5.582520e-03
  3.051535e+00    4.597441e-01   5.644692e-03
  3.053745e+00    4.445316e-01   5.545800e-03
  3.055956e+00    4.544170e-01   5.602529e-03
  3.058166e+00    4.534821e-01   5.592501e-03
  3.060377e+00    4.422958e-01   5.518356e-03
  3.062587e+00    4.580539e-01   5.611123e-03
  3.064798e+00    4.680723e-01   5.667815e-03
  3.067008e+00    4.585141e-01   5.604883e-03
  3.069219e+00    4.537372e-01   5.571087e-03
  3.071429e+00    4.224844e-01   5.372388e-03
  3.073640e+00    4.399444e-01   5.478957e-03
  3.075850e+00    4.468036e-01   5.517952e-03
  3.078060e+00    4.469808e-01   5.515933e-03
  3.080271e+00    4.434918e-01   5.490922e-03
  3.082481e+00    4.567736e-01   5.569058e-03
  3.084692e+00    4.357277e-01   5.435912e-03
  3.086902e+00    4.425003e-01   5.474781e-03
  3.089113e+00    4.514143e-01   5.526055e-03
  3.091323e+00    4.478965e-01   5.501109e-03
  3.093534e+00    4.502915e-01   5.512423e-03
  3.095744e+00    4.461133e-01   5.483414e-03
  3.097955e+00    4.444665e-01   5.469752e-03
  3.100165e+00    4.430441e-01   5.457676e-03
  3.102375e+00    4.386209e-01   5.426963e-03
  3.104586e+00    4.515444e-01   5.502829e-03
  3.106796e+00    4.534707e-01   5.511010e-03
  3.109007e+00    4.584288e-01   5.537803e-03
  3.111217e+00    4.411912e-01   5.429002e-03
  3.113428e+00    4.487742e-01   5.472045e-03
  3.115638e+00    4.341538e-01   5.378974e-03
  3.117849e+00    4.578194e-01   5.519846e-03
  3.120059e+00    4.513880e-01   5.477464e-03
  3.122270e+00    4.502949e-01   5.467547e-03
  3.124480e+00    4.465202e-01   5.440896e-03
  3.126691e+00    4.444683e-01   5.424805e-03
  3.128901e+00    4.427782e-01   5.411373e-03
  3.131111e+00    4.545212e-01   5.478784e-03
  3.133322e+00    4.357903e-01   5.361287e-03
  3.135532e+00    4.309121e-01   5.327831e-03
  3.137743e+00    4.556440e-01   5.475084e-03
  3.139953e+00    4.537758e-01   5.460110e-03
  3.142164e+00    4.478169e-01   5.436243e-03
  3.144374e+00    4.456142e-01   5.451351e-03
  3.146585e+00    4.436328e-01   5.453800e-03
  3.148795e+00    4.446672e-01   5.470965e-03
  3.151006e+00    4.484273e-01   5.502655e-03
  3.153216e+00    4.483869e-01   5.509600e-03
  3.155426e+00    4.489481e-01   5.519406e-03
  3.157637e+00    4.411438e-01   5.476765e-03
  3.159847e+00    4.251153e-01   5.381117e-03
  3.162058e+00    4.463535e-01   5.518359e-03
  3.164268e+00    4.416887e-01   5.493523e-03
  3.166479e+00    4.389268e-01   5.479969e-03
  3.168689e+00    4.453239e-01   5.523143e-03
  3.170900e+00    4.473152e-01   5.538687e-03
  3.173110e+00    4.430714e-01   5.515241e-03
  3.175321e+00    4.443318e-01   5.525584e-03
  3.177531e+00    4.335924e-01   5.461117e-03
  3.179741e+00    4.492163e-01   5.560752e-03
  3.181952e+00    4.246961e-01   5.408933e-03
  3.184162e+00    4.363357e-01   5.484742e-03
  3.186373e+00    4.176022e-01   5.367272e-03
  3.188583e+00    4.383639e-01   5.500849e-03
  3.190794e+00    4.466211e-01   5.554209e-03
  3.193004e+00    4.308479e-01   5.456485e-03
  3.195215e+00    4.357778e-01   5.489109e-03
  3.197425e+00    4.249923e-01   5.421957e-03
  3.199636e+00    4.362060e-01   5.492235e-03
  3.201846e+00    4.515398e-01   5.587333e-03
  3.204056e+00    4.330458e-01   5.472616e-03
  3.206267e+00    4.289363e-01   5.447424e-03
  3.208477e+00    4.218544e-01   5.403156e-03
  3.210688e+00    4.340450e-01   5.481532e-03
  3.212898e+00    4.438165e-01   5.543463e-03
  3.215109e+00    4.391192e-01   5.514815e-03
  3.217319e+00    4.302460e-01   5.459457e-03
  3.219530e+00    4.258168e-01   5.431666e-03
  3.221740e+00    4.264269e-01   5.436100e-03
  3.223951e+00    4.265306e-01   5.437255e-03
  3.226161e+00    4.329083e-01   5.477907e-03
  3.228372e+00    4.389021e-01   5.516269e-03
  3.230582e+00    4.186383e-01   5.387549e-03
  3.232792e+00    4.312914e-01   5.468584e-03
  3.235003e+00    4.184408e-01   5.386745e-03
  3.237213e+00    4.181767e-01   5.385146e-03
  3.239424e+00    4.230691e-01   5.416527e-03
  3.241634e+00    4.344983e-01   5.489353e-03
  3.243845e+00    4.409853e-01   5.530254e-03
  3.246055e+00    4.316392e-01   5.471063e-03
  3.248266e+00    4.315279e-01   5.470553e-03
  3.250476e+00    4.190227e-01   5.390422e-03
  3.252687e+00    4.096172e-01   5.329477e-03
  3.254897e+00    4.330921e-01   5.479952e-03
  3.257107e+00    4.198483e-01   5.395214e-03
  3.259318e+00    4.217283e-01   5.407040e-03
  3.261528e+00    4.181539e-01   5.383941e-03
  3.263739e+00    4.355565e-01   5.494248e-03
  3.265949e+00    4.295834e-01   5.456356e-03
  3.268160e+00    4.249140e-01   5.426184e-03
  3.270370e+00    4.112806e-01   5.337948e-03
  3.272581e+00    4.163592e-01   5.370482e-03
  3.274791e+00    4.227660e-01   5.411158e-03
  3.277002e+00    4.214955e-01   5.402428e-03
  3.279212e+00    4.276248e-01   5.441219e-03
  3.281422e+00    4.145167e-01   5.356587e-03
  3.283633e+00    4.201647e-01   5.392271e-03
  3.285843e+00    4.402892e-01   5.519567e-03
  3.288054e+00    4.293847e-01   5.449849e-03
  3.290264e+00    4.212627e-01   5.397744e-03
  3.292475e+00    4.264326e-01   5.429923e-03
  3.294685e+00    4.188117e-01   5.380562e-03
  3.296896e+00    4.168206e-01   5.366999e-03
  3.299106e+00    4.414701e-01   5.522822e-03
  3.301317e+00    4.317705e-01   5.460834e-03
  3.303527e+00    4.183421e-01   5.374747e-03
  3.305737e+00    4.071872e-01   5.301582e-03
  3.307948e+00    4.259144e-01   5.421439e-03
  3.310158e+00    4.182455e-01   5.371602e-03
  3.312369e+00    4.127776e-01   5.335471e-03
  3.314579e+00    4.163105e-01   5.357358e-03
  3.316790e+00    4.232178e-01   5.400901e-03
  3.319000e+00    4.267591e-01   5.422279e-03
  3.321211e+00    4.191066e-01   5.372830e-03
  3.323421e+00    4.154614e-01   5.348226e-03
  3.325632e+00    4.147320e-01   5.342632e-03
  3.327842e+00    4.272232e-01   5.421591e-03
  3.330052e+00    4.206273e-01   5.378508e-03
  3.332263e+00    4.112387e-01   5.317125e-03
  3.334473e+00    4.150242e-01   5.340655e-03
  3.336684e+00    4.221427e-01   5.384973e-03
  3.338894e+00    4.334640e-01   5.455866e-03
  3.341105e+00    4.217411e-01   5.380373e-03
  3.343315e+00    4.165837e-01   5.346259e-03
  3.345526e+00    4.110925e-01   5.309981e-03
  3.347736e+00    4.241356e-01   5.392151e-03
  3.349947e+00    4.350648e-01   5.460249e-03
  3.352157e+00    4.187561e-01   5.355750e-03
  3.354368e+00    4.239712e-01   5.387710e-03
  3.356578e+00    4.190875e-01   5.355545e-03
  3.358788e+00    4.196344e-01   5.357722e-03
  3.360999e+00    4.190545e-01   5.352780e-03
  3.363209e+00    4.171226e-01   5.339389e-03
  3.365420e+00    4.171143e-01   5.337844e-03
  3.367630e+00    3.994626e-01   5.222690e-03
  3.369841e+00    4.032659e-01   5.246066e-03
  3.372051e+00    4.217522e-01   5.362983e-03
  3.374262e+00    4.191399e-01   5.343903e-03
  3.376472e+00    4.140171e-01   5.308708e-03
  3.378683e+00    4.241055e-01   5.370468e-03
  3.380893e+00    4.054002e-01   5.248384e-03
  3.383103e+00    4.316451e-01   5.412851e-03
  3.385314e+00    4.230591e-01   5.356516e-03
  3.387524e+00    4.001937e-01   5.207062e-03
  3.389735e+00    4.129399e-01   5.286698e-03
  3.391945e+00    4.142132e-01   5.291172e-03
  3.394156e+00    4.111452e-01   5.267316e-03
  3.396366e+00    4.199700e-01   5.320108e-03
  3.398577e+00    4.127623e-01   5.271214e-03
  3.400787e+00    4.154937e-01   5.300605e-03
  3.402998e+00    4.161570e-01   5.343166e-03
  3.405208e+00    4.001870e-01   5.260196e-03
  3.407418e+00    3.977438e-01   5.259813e-03
  3.409629e+00    3.918954e-01   5.234806e-03
  3.411839e+00    3.852189e-01   5.201590e-03
  3.414050e+00    3.906000e-01   5.248683e-03
  3.416260e+00    3.947689e-01   5.286293e-03
  3.418471e+00    3.900601e-01   5.264011e-03
  3.420681e+00    3.926508e-01   5.289982e-03
  3.422892e+00    3.756147e-01   5.181812e-03
  3.425102e+00    3.860247e-01   5.260863e-03
  3.427313e+00    3.934696e-01   5.318605e-03
  3.429523e+00    3.874420e-01   5.284779e-03
  3.431733e+00    3.896204e-01   5.306311e-03
  3.433944e+00    3.757549e-01   5.217433e-03
  3.436154e+00    4.026638e-01   5.407435e-03
  3.438365e+00    3.822853e-01   5.274752e-03
  3.440575e+00    3.883517e-01   5.322447e-03
  3.442786e+00    3.722850e-01   5.216741e-03
  3.444996e+00    3.661745e-01   5.179156e-03
  3.447207e+00    3.703469e-01   5.213830e-03
  3.449417e+00    3.760738e-01   5.295074e-03
  3.451628e+00    3.609721e-01   5.216786e-03
  3.453838e+00    3.746716e-01   5.336192e-03
  3.456049e+00    3.678069e-01   5.311054e-03
  3.458259e+00    3.732727e-01   5.372493e-03
  3.460469e+00    3.609976e-01   5.303060e-03
  3.462680e+00    3.654968e-01   5.355022e-03
  3.464890e+00    3.643234e-01   5.364180e-03
  3.467101e+00    3.683494e-01   5.411222e-03
  3.469311e+00    3.798233e-01   5.511623e-03
  3.471522e+00    3.929066e-01   5.622514e-03
  3.473732e+00    3.883137e-01   5.605720e-03
  3.475943e+00    4.102584e-01   5.778187e-03
  3.478153e+00    3.947951e-01   5.683844e-03
  3.480364e+00    4.141469e-01   5.836992e-03
  3.482574e+00    4.191986e-01   5.888134e-03
  3.484784e+00    4.334238e-01   6.002485e-03
  3.486995e+00    4.318594e-01   6.007031e-03
  3.489205e+00    4.328827e-01   6.028958e-03
  3.491416e+00    4.510464e-01   6.169491e-03
  3.493626e+00    4.449488e-01   6.142409e-03
  3.495837e+00    4.457534e-01   6.162798e-03
  3.498047e+00    4.603976e-01   6.277945e-03
  3.500258e+00    4.589667e-01   6.282891e-03
  3.502468e+00    4.692609e-01   6.367606e-03
  3.504679e+00    4.604497e-01   6.322058e-03
  3.506889e+00    4.558453e-01   6.304613e-03
  3.509099e+00    4.916501e-01   6.562179e-03
  3.511310e+00    4.977110e-01   6.617351e-03
  3.513520e+00    4.870596e-01   6.560629e-03
  3.515731e+00    4.857750e-01   6.566344e-03
  3.517941e+00    4.986493e-01   6.667271e-03
  3.520152e+00    5.073909e-01   6.739977e-03
  3.522362e+00    5.112348e-01   6.780064e-03
  3.524573e+00    5.090647e-01   6.780000e-03
  3.526783e+00    5.146859e-01   6.830731e-03
  3.528994e+00    5.101149e-01   6.812483e-03
  3.531204e+00    5.268603e-01   6.935921e-03
  3.533414e+00    5.275651e-01   6.952678e-03
  3.535625e+00    5.144254e-01   6.877747e-03
  3.537835e+00    5.270493e-01   6.973673e-03
  3.540046e+00    5.235204e-01   6.959128e-03
  3.542256e+00    5.356548e-01   7.046828e-03
  3.544467e+00    5.373143e-01   7.065387e-03
  3.546677e+00    5.487506e-01   7.147849e-03
  3.548888e+00    5.393367e-01   7.093785e-03
  3.551098e+00    5.376629e-01   7.090088e-03
  3.553309e+00    5.304275e-01   7.050314e-03
  3.555519e+00    5.512989e-01   7.199140e-03
  3.557729e+00    5.501624e-01   7.203613e-03
  3.559940e+00    5.360165e-01   7.121943e-03
  3.562150e+00    5.458954e-01   7.199086e-03
  3.564361e+00    5.383699e-01   7.162639e-03
  3.566571e+00    5.421185e-01   7.201459e-03
  3.568782e+00    5.378985e-01   7.187500e-03
  3.570992e+00    5.289238e-01   7.140937e-03
  3.573203e+00    5.373789e-01   7.211989e-03
  3.575413e+00    5.343125e-01   7.205120e-03
  3.577624e+00    5.306010e-01   7.194064e-03
  3.579834e+00    5.342823e-01   7.232900e-03
  3.582045e+00    5.434812e-01   7.308972e-03
  3.584255e+00    5.533498e-01   7.389348e-03
  3.586465e+00    5.464099e-01   7.356922e-03
  3.588676e+00    5.602937e-01   7.464328e-03
  3.590886e+00    5.310981e-01   7.280884e-03
  3.593097e+00    5.524427e-01   7.440459e-03
  3.595307e+00    5.565641e-01   7.482387e-03
  3.597518e+00    5.406899e-01   7.389186e-03
  3.599728e+00    5.444156e-01   7.428799e-03
  3.601939e+00    5.494913e-01   7.477613e-03
  3.604149e+00    5.584722e-01   7.553160e-03
  3.606360e+00    5.442368e-01   7.470555e-03
  3.608570e+00    5.505203e-01   7.527897e-03
  3.610780e+00    5.665471e-01   7.648104e-03
  3.612991e+00    5.469210e-01   7.524559e-03
  3.615201e+00    5.539654e-01   7.582855e-03
  3.617412e+00    5.535378e-01   7.587323e-03
  3.619622e+00    5.457055e-01   7.539446e-03
  3.621833e+00    5.552726e-01   7.612115e-03
  3.624043e+00    5.552305e-01   7.621523e-03
  3.626254e+00    5.439136e-01   7.553232e-03
  3.628464e+00    5.289086e-01   7.459245e-03
  3.630675e+00    5.370919e-01   7.530865e-03
  3.632885e+00    5.371367e-01   7.545678e-03
  3.635095e+00    5.285523e-01   7.499485e-03
  3.637306e+00    5.392160e-01   7.589175e-03
  3.639516e+00    5.441532e-01   7.638539e-03
  3.641727e+00    5.269436e-01   7.531242e-03
  3.643937e+00    5.537319e-01   7.735126e-03
  3.646148e+00    5.584360e-01   7.782889e-03
  3.648358e+00    5.395319e-01   7.664972e-03
  3.650569e+00    5.431954e-01   7.705817e-03
  3.652779e+00    5.310865e-01   7.634178e-03
  3.654990e+00    5.490459e-01   7.777337e-03
  3.657200e+00    5.371034e-01   7.707228e-03
  3.659410e+00    5.341635e-01   7.701105e-03
  3.661621e+00    5.491011e-01   7.823365e-03
  3.663831e+00    5.540752e-01   7.874175e-03
  3.666042e+00    5.528885e-01   7.881223e-03
  3.668252e+00    5.303362e-01   7.734008e-03
  3.670463e+00    5.391987e-01   7.813710e-03
  3.672673e+00    5.352428e-01   7.800515e-03
  3.674884e+00    5.226675e-01   7.723554e-03
  3.677094e+00    5.658466e-01   8.052329e-03
  3.679305e+00    5.441532e-01   7.912221e-03
  3.681515e+00    5.293022e-01   7.819105e-03
  3.683726e+00    5.317335e-01   7.852851e-03
  3.685936e+00    5.453368e-01   7.968642e-03
  3.688146e+00    5.201957e-01   7.798464e-03
  3.690357e+00    5.355088e-01   7.928402e-03
  3.692567e+00    5.376422e-01   7.960537e-03
  3.694778e+00    5.368906e-01   7.971151e-03
  3.696988e+00    5.222444e-01   7.877605e-03
  3.699199e+00    5.180937e-01   7.862360e-03
  3.701409e+00    5.189178e-01   7.884878e-03
  3.703620e+00    5.394253e-01   8.055687e-03
  3.705830e+00    5.335014e-01   8.027917e-03
  3.708041e+00    5.363918e-01   8.066417e-03
  3.710251e+00    5.198262e-01   7.957535e-03
  3.712461e+00    5.278319e-01   8.035389e-03
  3.714672e+00    5.124779e-01   7.934242e-03
  3.716882e+00    5.059897e-01   7.900336e-03
  3.719093e+00    5.134048e-01   7.975008e-03
  3.721303e+00    5.275056e-01   8.100868e-03
  3.723514e+00    5.420576e-01   8.229525e-03
  3.725724e+00    5.349615e-01   8.192873e-03
  3.727935e+00    5.365772e-01   8.223029e-03
  3.730145e+00    5.382431e-01   8.253473e-03
  3.732356e+00    5.309339e-01   8.215014e-03
  3.734566e+00    5.160902e-01   8.116911e-03
  3.736776e+00    5.154510e-01   8.129679e-03
  3.738987e+00    5.342110e-01   8.294318e-03
  3.741197e+00    5.262435e-01   8.250524e-03
  3.743408e+00    5.118040e-01   8.154551e-03
  3.745618e+00    5.106261e-01   8.163410e-03
  3.747829e+00    5.384143e-01   8.401172e-03
  3.750039e+00    5.262695e-01   8.324521e-03
  3.752250e+00    5.143920e-01   8.248605e-03
  3.754460e+00    5.195751e-01   8.308712e-03
  3.756671e+00    5.251445e-01   8.372263e-03
  3.758881e+00    5.211129e-01   8.358909e-03
  3.761091e+00    5.193785e-01   8.364364e-03
  3.763302e+00    5.062740e-01   8.277156e-03
  3.765512e+00    5.266695e-01   8.461875e-03
  3.767723e+00    5.349518e-01   8.548015e-03
  3.769933e+00    5.142221e-01   8.400293e-03
  3.772144e+00    4.904027e-01   8.222650e-03
  3.774354e+00    5.090023e-01   8.397025e-03
  3.776565e+00    5.107837e-01   8.431704e-03
  3.778775e+00    5.153273e-01   8.489270e-03
  3.780986e+00    5.040732e-01   8.416413e-03
  3.783196e+00    4.999653e-01   8.402183e-03
  3.785407e+00    5.052900e-01   8.467256e-03
  3.787617e+00    5.201663e-01   8.612154e-03
  3.789827e+00    5.015782e-01   8.477367e-03
  3.792038e+00    4.870309e-01   8.374057e-03
  3.794248e+00    5.178685e-01   8.656578e-03
  3.796459e+00    5.415077e-01   8.874135e-03
  3.798669e+00    5.175725e-01   8.697608e-03
  3.800880e+00    5.132827e-01   8.683162e-03
  3.803090e+00    4.792069e-01   8.411372e-03
  3.805301e+00    4.958926e-01   8.578470e-03
  3.807511e+00    4.984565e-01   8.622673e-03
  3.809722e+00    4.996778e-01   8.655412e-03
  3.811932e+00    5.115532e-01   8.780139e-03
  3.814142e+00    5.091793e-01   8.782907e-03
  3.816353e+00    5.349705e-01   9.026182e-03
  3.818563e+00    5.025818e-01   8.771964e-03
  3.820774e+00    5.055868e-01   8.821386e-03
  3.822984e+00    4.952901e-01   8.754446e-03
  3.825195e+00    5.104799e-01   8.911679e-03
  3.827405e+00    4.845667e-01   8.706143e-03
  3.829616e+00    4.976821e-01   8.847196e-03
  3.831826e+00    5.118285e-01   8.996597e-03
  3.834037e+00    5.336844e-01   9.212063e-03
  3.836247e+00    5.257171e-01   9.168456e-03
  3.838457e+00    4.866658e-01   8.846169e-03
  3.840668e+00    5.029525e-01   9.018232e-03
  3.842878e+00    5.083430e-01   9.092317e-03
  3.845089e+00    4.995699e-01   9.039256e-03
  3.847299e+00    4.865026e-01   8.945731e-03
  3.849510e+00    4.978077e-01   9.074989e-03
  3.851720e+00    5.002202e-01   9.118520e-03
  3.853931e+00    5.154944e-01   9.276016e-03
  3.856141e+00    5.459998e-01   9.566575e-03
  3.858352e+00    5.082961e-01   9.249848e-03
  3.860562e+00    4.971403e-01   9.167181e-03
  3.862772e+00    4.848272e-01   9.072320e-03
  3.864983e+00    4.923438e-01   9.162051e-03
  3.867193e+00    4.877725e-01   9.139042e-03
  3.869404e+00    5.058321e-01   9.326737e-03
  3.871614e+00    4.968865e-01   9.263976e-03
  3.873825e+00    4.909369e-01   9.228613e-03
  3.876035e+00    4.983304e-01   9.318516e-03
  3.878246e+00    4.986219e-01   9.347167e-03
  3.880456e+00    5.001602e-01   9.390797e-03
  3.882667e+00    5.083179e-01   9.496965e-03
  3.884877e+00    4.873910e-01   9.328933e-03
  3.887087e+00    5.029289e-01   9.506768e-03
  3.889298e+00    5.076603e-01   9.582236e-03
  3.891508e+00    5.083925e-01   9.620268e-03
  3.893719e+00    5.012887e-01   9.584104e-03
  3.895929e+00    4.816383e-01   9.425603e-03
  3.898140e+00    4.798912e-01   9.439728e-03
  3.900350e+00    5.426225e-01   1.007153e-02
  3.902561e+00    5.026383e-01   9.726312e-03
  3.904771e+00    4.850936e-01   9.587603e-03
  3.906982e+00    4.992755e-01   9.760177e-03
  3.909192e+00    5.129207e-01   9.927022e-03
  3.911403e+00    5.062476e-01   9.896823e-03
  3.913613e+00    4.939507e-01   9.810349e-03
  3.915823e+00    4.882768e-01   9.788609e-03
  3.918034e+00    4.952577e-01   9.893826e-03
  3.920244e+00    5.242141e-01   1.021602e-02
  3.922455e+00    5.072500e-01   1.008610e-02
  3.924665e+00    5.398855e-01   1.044388e-02
  3.926876e+00    5.100828e-01   1.018942e-02
  3.929086e+00    5.097793e-01   1.022456e-02
  3.931297e+00    5.162298e-01   1.032490e-02
  3.933507e+00    5.189189e-01   1.038163e-02
  3.935718e+00    5.391869e-01   1.061260e-02
  3.937928e+00    4.935674e-01   1.018351e-02
  3.940138e+00    5.005603e-01   1.028496e-02
  3.942349e+00    4.953389e-01   1.026138e-02
  3.944559e+00    4.731135e-01   1.005806e-02
  3.946770e+00    4.960946e-01   1.032996e-02
  3.948980e+00    4.770305e-01   1.015986e-02
  3.951191e+00    4.804446e-01   1.022687e-02
  3.953401e+00    4.946385e-01   1.040843e-02
  3.955612e+00    4.580578e-01   1.004692e-02
  3.957822e+00    4.590506e-01   1.008854e-02
  3.960033e+00    5.080138e-01   1.064631e-02
  3.962243e+00    4.943881e-01   1.053573e-02
  3.964453e+00    4.683163e-01   1.028663e-02
  3.966664e+00    4.899803e-01   1.055546e-02
  3.968874e+00    4.988203e-01   1.067898e-02
  3.971085e+00    5.149996e-01   1.087342e-02
  3.973295e+00    4.751610e-01   1.046559e-02
  3.975506e+00    5.042194e-01   1.080287e-02
  3.977716e+00    5.057837e-01   1.084215e-02
  3.979927e+00    4.815368e-01   1.060102e-02
  3.982137e+00    5.136024e-01   1.097128e-02
  3.984348e+00    4.989513e-01   1.083656e-02
  3.986558e+00    4.817294e-01   1.067002e-02
  3.988768e+00    5.001385e-01   1.089542e-02
  3.990979e+00    5.084561e-01   1.100894e-02
  3.993189e+00    5.132373e-01   1.108434e-02
  3.995400e+00    4.637111e-01   1.055894e-02
  3.997610e+00    5.033977e-01   1.103196e-02
  3.999821e+00    4.734823e-01   1.073612e-02
  4.002031e+00    5.069240e-01   1.114811e-02
  4.004242e+00    4.826953e-01   1.091685e-02
  4.006452e+00    4.646229e-01   1.074903e-02
  4.008663e+00    4.810324e-01   1.097709e-02
  4.010873e+00    5.166140e-01   1.141711e-02
  4.013084e+00    4.910991e-01   1.117283e-02
  4.015294e+00    4.893031e-01   1.119352e-02
  4.017504e+00    4.955925e-01   1.130759e-02
  4.019715e+00    4.925459e-01   1.131563e-02
  4.021925e+00    4.834279e-01   1.125345e-02
  4.024136e+00    5.033872e-01   1.152787e-02
  4.026346e+00    5.067869e-01   1.161190e-02
  4.028557e+00    4.913602e-01   1.147850e-02
  4.030767e+00    4.879177e-01   1.148412e-02
  4.032978e+00    4.680344e-01   1.129308e-02
  4.035188e+00    5.230130e-01   1.198606e-02
  4.037399e+00    4.557955e-01   1.123555e-02
  4.039609e+00    4.647583e-01   1.139227e-02
  4.041819e+00    4.785559e-01   1.160857e-02
  4.044030e+00    4.933425e-01   1.183710e-02
  4.046240e+00    4.864661e-01   1.180438e-02
  4.048451e+00    4.429871e-01   1.131322e-02
  4.050661e+00    4.511558e-01   1.146676e-02
  4.052872e+00    4.766555e-01   1.183879e-02
  4.055082e+00    4.735366e-01   1.185297e-02
  4.057293e+00    4.968316e-01   1.219559e-02
  4.059503e+00    4.966841e-01   1.224922e-02
  4.061714e+00    4.804638e-01   1.210388e-02
  4.063924e+00    4.687504e-01   1.201160e-02
  4.066134e+00    4.744125e-01   1.214054e-02
  4.068345e+00    4.796285e-01   1.226605e-02
  4.070555e+00    4.805713e-01   1.233734e-02
  4.072766e+00    4.987581e-01   1.263052e-02
  4.074976e+00    4.819807e-01   1.247816e-02
  4.077187e+00    5.013039e-01   1.278903e-02
  4.079397e+00    4.942682e-01   1.276394e-02
  4.081608e+00    4.596867e-01   1.237343e-02
  4.083818e+00    4.841689e-01   1.276450e-02
  4.086029e+00    5.057117e-01   1.311417e-02
  4.088239e+00    5.065012e-01   1.319514e-02
  4.090449e+00    4.974861e-01   1.314816e-02
  4.092660e+00    5.021538e-01   1.328228e-02
  4.094870e+00    4.902439e-01   1.319680e-02
  4.097081e+00    5.109190e-01   1.354597e-02
  4.099291e+00    5.050019e-01   1.352321e-02
  4.101502e+00    4.528781e-01   1.285409e-02
  4.103712e+00    4.891385e-01   1.340827e-02
  4.105923e+00    4.598324e-01   1.305095e-02
  4.108133e+00    4.792416e-01   1.337472e-02
  4.110344e+00    5.091165e-01   1.383821e-02
  4.112554e+00    4.647361e-01   1.327351e-02
  4.114764e+00    4.669334e-01   1.335828e-02
  4.116975e+00    4.706328e-01   1.346389e-02
  4.119185e+00    4.938198e-01   1.384768e-02
  4.121396e+00    4.992762e-01   1.398143e-02
  4.123606e+00    4.851880e-01   1.383933e-02
  4.125817e+00    5.200882e-01   1.438831e-02
  4.128027e+00    5.108892e-01   1.432098e-02
  4.130238e+00    4.410047e-01   1.336209e-02
  4.132448e+00    5.459006e-01   1.493127e-02
  4.134659e+00    4.873243e-01   1.416810e-02
  4.136869e+00    4.975297e-01   1.437985e-02
  4.139080e+00    5.201743e-01   1.476926e-02
  4.141290e+00    4.835379e-01   1.430311e-02
  4.143500e+00    4.953201e-01   1.454278e-02
  4.145711e+00    5.041299e-01   1.474019e-02
  4.147921e+00    4.786262e-01   1.442840e-02
  4.150132e+00    5.199549e-01   1.511033e-02
  4.152342e+00    5.209702e-01   1.519819e-02
  4.154553e+00    4.611568e-01   1.436728e-02
  4.156763e+00    5.149339e-01   1.525672e-02
  4.158974e+00    4.718697e-01   1.467857e-02
  4.161184e+00    4.825199e-01   1.491669e-02
  4.163395e+00    4.808379e-01   1.496679e-02
  4.165605e+00    5.358099e-01   1.588123e-02
  4.167815e+00    5.223008e-01   1.576182e-02
  4.170026e+00    4.457928e-01   1.463820e-02
  4.172236e+00    4.983430e-01   1.556080e-02
  4.174447e+00    4.928331e-01   1.555852e-02
  4.176657e+00    4.992910e-01   1.574595e-02
  4.178868e+00    4.968411e-01   1.579593e-02
  4.181078e+00    5.329597e-01   1.645227e-02
  4.183289e+00    4.916100e-01   1.589171e-02
  4.185499e+00    4.943591e-01   1.603003e-02
  4.187710e+00    5.099381e-01   1.637615e-02
  4.189920e+00    4.752402e-01   1.590427e-02
  4.192130e+00    4.915681e-01   1.627405e-02
  4.194341e+00    5.438644e-01   1.722282e-02
  4.196551e+00    5.628498e-01   1.763183e-02
  4.198762e+00    5.089685e-01   1.687292e-02
  4.200972e+00    5.030106e-01   1.688280e-02
  4.203183e+00    4.785379e-01   1.657539e-02
  4.205393e+00    4.819184e-01   1.674442e-02
  4.207604e+00    5.107041e-01   1.735493e-02
  4.209814e+00    5.253354e-01   1.772255e-02
  4.212025e+00    4.444110e-01   1.641595e-02
  4.214235e+00    4.792766e-01   1.716861e-02
  4.216445e+00    4.634241e-01   1.700428e-02
  4.218656e+00    5.298702e-01   1.831868e-02
  4.220866e+00    4.991707e-01   1.791201e-02
  4.223077e+00    4.561463e-01   1.725444e-02
  4.225287e+00    3.984712e-01   1.625335e-02
  4.227498e+00    4.366525e-01   1.714774e-02
  4.229708e+00    5.096073e-01   1.867553e-02
  4.231919e+00    5.245682e-01   1.910449e-02
  4.234129e+00    4.973979e-01   1.875916e-02
  4.236340e+00    4.886698e-01   1.875320e-02
  4.238550e+00    4.839322e-01   1.882645e-02
  4.240761e+00    5.093421e-01   1.948540e-02
  4.242971e+00    4.992366e-01   1.946747e-02
  4.245181e+00    4.703775e-01   1.907424e-02
  4.247392e+00    5.117919e-01   2.008211e-02
  4.249602e+00    4.956751e-01   1.995950e-02
  4.251813e+00    5.521359e-01   2.127302e-02
  4.254023e+00    4.844122e-01   2.012721e-02
  4.256234e+00    4.946499e-01   2.055550e-02
  4.258444e+00    4.513197e-01   1.984040e-02
  4.260655e+00    4.965780e-01   2.103976e-02
  4.262865e+00    4.922019e-01   2.118488e-02
  4.265076e+00    4.671729e-01   2.087381e-02
  4.267286e+00    5.440934e-01   2.279358e-02
  4.269496e+00    5.005300e-01   2.212953e-02
  4.271707e+00    4.967345e-01   2.231738e-02
  4.273917e+00    5.026876e-01   2.274128e-02
  4.276128e+00    4.087089e-01   2.077760e-02
  4.278338e+00    4.533119e-01   2.217434e-02
  4.280549e+00    4.186973e-01   2.161686e-02
  4.282759e+00    4.277319e-01   2.216219e-02
  4.284970e+00    4.867410e-01   2.399224e-02
  4.287180e+00    4.626756e-01   2.367133e-02
  4.289391e+00    5.479158e-01   2.595302e-02
  4.291601e+00    5.188314e-01   2.545705e-02
  4.293811e+00    4.558061e-01   2.404715e-02
  4.296022e+00    4.632340e-01   2.443694e-02
  4.298232e+00    4.988573e-01   2.557179e-02
  4.300443e+00    4.227140e-01   2.373352e-02
  4.302653e+00    5.963126e-01   2.843262e-02
  4.304864e+00    5.405199e-01   2.730469e-02
  4.307074e+00    4.466102e-01   2.504300e-02
  4.309285e+00    4.437631e-01   2.518920e-02
  4.311495e+00    4.600141e-01   2.588632e-02
  4.313706e+00    4.455228e-01   2.571461e-02
  4.315916e+00    5.880723e-01   2.983398e-02
  4.318126e+00    5.436108e-01   2.896864e-02
  4.320337e+00    4.404987e-01   2.634051e-02
  4.322547e+00    4.660148e-01   2.737948e-02
  4.324758e+00    5.078440e-01   2.887956e-02
  4.326968e+00    4.582297e-01   2.774053e-02
  4.329179e+00    5.365732e-01   3.035052e-02
  4.331389e+00    4.002996e-01   2.651658e-02
  4.333600e+00    4.916988e-01   2.973900e-02
  4.335810e+00    3.792876e-01   2.642968e-02
  4.338021e+00    4.188012e-01   2.812810e-02
  4.340231e+00    5.681153e-01   3.317239e-02
  4.342442e+00    3.937439e-01   2.798717e-02
  4.344652e+00    3.256498e-01   2.579618e-02
  4.346862e+00    3.733453e-01   2.800888e-02
  4.349073e+00    5.380585e-01   3.411387e-02
  4.351283e+00    3.377398e-01   2.743089e-02
  4.353494e+00    5.668442e-01   3.608571e-02
  4.355704e+00    4.739666e-01   3.352931e-02
  4.357915e+00    4.999146e-01   3.500851e-02
  4.360125e+00    4.644151e-01   3.431644e-02
  4.362336e+00    4.827738e-01   3.562804e-02
  4.364546e+00    4.778346e-01   3.609033e-02
  4.366757e+00    3.874979e-01   3.314757e-02
  4.368967e+00    4.393916e-01   3.599941e-02
  4.371177e+00    4.238506e-01   3.611067e-02
  4.373388e+00    4.838431e-01   3.944260e-02
  4.375598e+00    3.462072e-01   3.412567e-02
  4.377809e+00    5.311577e-01   4.333937e-02
  4.380019e+00    3.497429e-01   3.605013e-02
  4.382230e+00    3.781879e-01   3.853613e-02
  4.384440e+00    4.213810e-01   4.184731e-02
  4.386651e+00    4.026238e-01   4.216858e-02
  4.388861e+00    4.206631e-01   4.454618e-02
  4.391072e+00    3.152147e-01   3.991557e-02
  4.393282e+00    4.275569e-01   4.828594e-02
  4.395492e+00    4.081175e-01   4.913605e-02
  4.397703e+00    2.620379e-01   4.117315e-02
  4.399913e+00    4.884368e-01   5.905576e-02
  4.402124e+00    4.105192e-01   5.720812e-02
  4.404334e+00    5.576069e-01   7.087837e-02
  4.406545e+00    2.530915e-01   5.130957e-02
  4.408755e+00    4.777353e-01   7.644311e-02
  4.410966e+00    1.666794e-01   4.997628e-02
  4.413176e+00    1.082304e-01   4.558657e-02
  4.415387e+00   -6.116075e-01            nan
  4.417597e+00   -1.832164e+00            nan
  4.419807e+00    3.257673e-01   2.050554e-01
