# == pyFAI calibration ==
# Distance Sample to Detector: 0.216 m
# PONI: 1.166e-01, 1.308e-01 m
# Rotations: 0.000000 0.000000 0.000000 rad
# 
# == Fit2d calibration ==
# Distance Sample-beamCenter: 216.000 mm
# Center: x=1744.293, y=1555.000 pix
# Tilt: 0.000 deg  TiltPlanRot: 0.000 deg
# 
# Detector Eiger 9M	 PixelSize= 7.500e-05, 7.500e-05 m
#    Detector has a mask: True 
#    Detector has a dark current: False 
#    detector has a flat field: False 
# 
# Wavelength: 9.8e-11 m
# Mask applied: from detector
# Dark current applied: False
# Flat field applied: False
# Polarization factor: None
# Normalization factor: 1.0
# 
# Headers of the input frame:
# {
# "_array_data.header_convention": "SLS_1.0",
# "_array_data.header_contents": "# Detector: Dectris Eiger 9M, S/N E-18-0102\r\n# Pixel_size 75e-6 m x 75e-6 m\r\n# Silicon sensor, thickness 0.000450 m\r\n# Exposure_time 0.024997 s\r\n# Exposure_period 0.025000 s\r\n# Count_cutoff 62318 counts\r\n# Wavelength 0.980106 A\r\n# Detector_distance 0.215992 m\r\n# Beam_xy (1555, 1744) pixels\r\n# Start_angle 0.000000 deg.\r\n# Angle_increment 0.000000 deg.",
# "Content-Type": "application/octet-stream;",
# "conversions": "x-CBF_BYTE_OFFSET",
# "Content-Transfer-Encoding": "BINARY",
# "X-Binary-Size": "10166620",
# "X-Binary-ID": "1",
# "X-Binary-Element-Type": "signed 32-bit integer",
# "X-Binary-Element-Byte-Order": "LITTLE_ENDIAN",
# "Content-MD5": "PMBiWTwt8Mh3El6lr1OQEQ==",
# "X-Binary-Number-of-Elements": "10166590",
# "X-Binary-Size-Fastest-Dimension": "3110",
# "X-Binary-Size-Second-Dimension": "3269",
# "X-Binary-Size-Padding": "4095"
# }
# --> H:/Proxima2a_2019-04-05/RAW_DATA/C5_gel17_position5/C5_mesh_1_data.cbf/C5_mesh_1_data.cbf000155.dat
#        q_A^-1              I           sigma 
  1.105228e-03    2.365113e+00   8.321717e-01
  3.315685e-03    1.431810e+00   3.936299e-01
  5.526141e-03    1.513045e+00   3.128946e-01
  7.736597e-03    1.755719e+00   2.847396e-01
  9.947054e-03    1.533258e+00   2.345764e-01
  1.215751e-02    1.232084e+00   1.901467e-01
  1.436797e-02    1.229620e+00   1.747275e-01
  1.657842e-02    1.405995e+00   1.739147e-01
  1.878888e-02    1.480450e+00   1.676333e-01
  2.099934e-02    1.667362e+00   1.683127e-01
  2.320979e-02    1.397388e+00   1.465519e-01
  2.542025e-02    1.407920e+00   1.405719e-01
  2.763070e-02    1.510762e+00   1.396652e-01
  2.984116e-02    1.687666e+00   1.420430e-01
  3.205162e-02    1.481839e+00   1.284360e-01
  3.426207e-02    1.421819e+00   1.216738e-01
  3.647253e-02    1.437591e+00   1.185789e-01
  3.868299e-02    1.516446e+00   1.182658e-01
  4.089344e-02    1.530084e+00   1.155416e-01
  4.310390e-02    1.581436e+00   1.144062e-01
  4.531436e-02    1.539394e+00   1.100882e-01
  4.752481e-02    1.389579e+00   1.021317e-01
  4.973527e-02    1.362072e+00   9.884435e-02
  5.194572e-02    1.466810e+00   1.003667e-01
  5.415618e-02    1.455279e+00   9.790657e-02
  5.636664e-02    1.434252e+00   9.527478e-02
  5.857709e-02    1.274986e+00   8.811854e-02
  6.078755e-02    1.316578e+00   8.789831e-02
  6.299801e-02    1.362870e+00   8.784633e-02
  6.520846e-02    1.362022e+00   8.631827e-02
  6.741892e-02    1.374955e+00   8.528921e-02
  6.962938e-02    1.410804e+00   8.501580e-02
  7.183983e-02    1.368564e+00   8.243368e-02
  7.405029e-02    1.571277e+00   8.699766e-02
  7.626074e-02    1.628250e+00   8.726719e-02
  7.847120e-02    1.498585e+00   8.253054e-02
  8.068166e-02    1.510026e+00   8.170158e-02
  8.289211e-02    1.523535e+00   8.096417e-02
  8.510257e-02    1.561755e+00   8.090138e-02
  8.731303e-02    1.603611e+00   8.093087e-02
  8.952348e-02    1.572980e+00   7.916063e-02
  9.173394e-02    1.585700e+00   7.851350e-02
  9.394439e-02    1.636454e+00   7.881361e-02
  9.615485e-02    1.518483e+00   7.504033e-02
  9.836531e-02    1.547087e+00   7.488585e-02
  1.005758e-01    1.525985e+00   7.355200e-02
  1.027862e-01    1.461252e+00   7.119516e-02
  1.049967e-01    1.535037e+00   7.219703e-02
  1.072071e-01    1.506247e+00   7.077485e-02
  1.094176e-01    1.471997e+00   6.925416e-02
  1.116280e-01    1.526133e+00   6.981292e-02
  1.138385e-01    1.575822e+00   7.024684e-02
  1.160490e-01    1.612987e+00   7.038942e-02
  1.182594e-01    1.510412e+00   6.747347e-02
  1.204699e-01    1.484861e+00   6.628321e-02
  1.226803e-01    1.519476e+00   6.644177e-02
  1.248908e-01    1.620534e+00   6.800495e-02
  1.271012e-01    1.658705e+00   6.819897e-02
  1.293117e-01    1.657430e+00   6.758674e-02
  1.315222e-01    1.534449e+00   6.448065e-02
  1.337326e-01    1.492989e+00   6.307451e-02
  1.359431e-01    1.599909e+00   6.533220e-02
  1.381535e-01    1.645902e+00   6.715410e-02
  1.403640e-01    1.635476e+00   6.723011e-02
  1.425744e-01    1.535206e+00   6.524064e-02
  1.447849e-01    1.595722e+00   6.652939e-02
  1.469953e-01    1.588250e+00   6.633187e-02
  1.492058e-01    1.650200e+00   6.753457e-02
  1.514163e-01    1.532990e+00   6.498392e-02
  1.536267e-01    1.523098e+00   6.464741e-02
  1.558372e-01    1.632580e+00   6.678282e-02
  1.580476e-01    1.567404e+00   6.527739e-02
  1.602581e-01    1.666790e+00   6.714418e-02
  1.624685e-01    1.643527e+00   6.649145e-02
  1.646790e-01    1.627387e+00   6.597416e-02
  1.668895e-01    1.664472e+00   6.652894e-02
  1.690999e-01    1.712552e+00   6.728033e-02
  1.713104e-01    1.773444e+00   6.825353e-02
  1.735208e-01    1.808635e+00   6.871305e-02
  1.757313e-01    1.837355e+00   6.903943e-02
  1.779417e-01    1.845106e+00   6.895923e-02
  1.801522e-01    1.878420e+00   6.935740e-02
  1.823626e-01    1.907282e+00   6.965555e-02
  1.845731e-01    1.810696e+00   6.764913e-02
  1.867836e-01    1.799986e+00   6.722106e-02
  1.889940e-01    2.021801e+00   7.100989e-02
  1.912045e-01    1.971151e+00   6.988063e-02
  1.934149e-01    1.974714e+00   6.970967e-02
  1.956254e-01    2.074655e+00   7.121626e-02
  1.978358e-01    2.065563e+00   7.081652e-02
  2.000463e-01    2.011161e+00   6.964616e-02
  2.022568e-01    1.936703e+00   6.812045e-02
  2.044672e-01    1.993824e+00   6.888092e-02
  2.066777e-01    1.928562e+00   6.751940e-02
  2.088881e-01    1.843831e+00   6.580351e-02
  2.110986e-01    1.852791e+00   6.573699e-02
  2.133090e-01    1.921888e+00   6.673390e-02
  2.155195e-01    2.078124e+00   6.916322e-02
  2.177300e-01    1.998675e+00   6.729540e-02
  2.199404e-01    2.012109e+00   6.574202e-02
  2.221509e-01    1.968696e+00   6.396110e-02
  2.243613e-01    2.037633e+00   6.424639e-02
  2.265718e-01    2.136903e+00   6.506760e-02
  2.287822e-01    2.120446e+00   6.417502e-02
  2.309927e-01    2.119601e+00   6.357773e-02
  2.332031e-01    2.068130e+00   6.226353e-02
  2.354136e-01    2.136146e+00   6.276623e-02
  2.376241e-01    2.193681e+00   6.311218e-02
  2.398345e-01    2.170532e+00   6.231370e-02
  2.420450e-01    2.250041e+00   6.299132e-02
  2.442554e-01    2.237688e+00   6.238541e-02
  2.464659e-01    2.213722e+00   6.163383e-02
  2.486763e-01    2.206048e+00   6.112247e-02
  2.508868e-01    2.196136e+00   6.060032e-02
  2.530973e-01    2.140079e+00   5.945099e-02
  2.553077e-01    2.096483e+00   5.848542e-02
  2.575182e-01    2.089924e+00   5.804837e-02
  2.597286e-01    2.064725e+00   5.736195e-02
  2.619391e-01    2.139192e+00   5.805105e-02
  2.641495e-01    2.085019e+00   5.699412e-02
  2.663600e-01    2.064512e+00   5.640126e-02
  2.685704e-01    2.028667e+00   5.560640e-02
  2.707809e-01    2.096796e+00   5.623235e-02
  2.729914e-01    2.056745e+00   5.540249e-02
  2.752018e-01    2.034506e+00   5.481532e-02
  2.774123e-01    2.043224e+00   5.465204e-02
  2.796227e-01    2.044815e+00   5.440289e-02
  2.818332e-01    2.027993e+00   5.390837e-02
  2.840436e-01    1.971900e+00   5.289993e-02
  2.862541e-01    1.965426e+00   5.255914e-02
  2.884646e-01    2.039370e+00   5.328463e-02
  2.906750e-01    1.955722e+00   5.193300e-02
  2.928855e-01    1.930530e+00   5.135836e-02
  2.950959e-01    1.977229e+00   5.173707e-02
  2.973064e-01    1.914133e+00   5.067608e-02
  2.995168e-01    1.991221e+00   5.145236e-02
  3.017273e-01    1.963326e+00   5.086545e-02
  3.039377e-01    1.930069e+00   5.021195e-02
  3.061482e-01    1.982899e+00   5.067437e-02
  3.083587e-01    1.918640e+00   4.963076e-02
  3.105691e-01    1.910847e+00   4.931829e-02
  3.127796e-01    1.883813e+00   4.876232e-02
  3.149900e-01    1.914847e+00   4.895749e-02
  3.172005e-01    1.874819e+00   4.824499e-02
  3.194109e-01    1.861912e+00   4.788016e-02
  3.216214e-01    1.900037e+00   4.817052e-02
  3.238319e-01    1.840479e+00   4.722172e-02
  3.260423e-01    1.881619e+00   4.755638e-02
  3.282528e-01    1.857656e+00   4.706449e-02
  3.304632e-01    1.911608e+00   4.755807e-02
  3.326737e-01    1.892303e+00   4.713271e-02
  3.348841e-01    1.948723e+00   4.764472e-02
  3.370946e-01    1.905279e+00   4.693339e-02
  3.393050e-01    1.859674e+00   4.619265e-02
  3.415155e-01    1.852829e+00   4.593417e-02
  3.437260e-01    1.914515e+00   4.651950e-02
  3.459364e-01    1.892893e+00   4.608497e-02
  3.481469e-01    1.886442e+00   4.583843e-02
  3.503573e-01    1.881906e+00   4.561653e-02
  3.525678e-01    1.831278e+00   4.483836e-02
  3.547782e-01    1.838700e+00   4.476675e-02
  3.569887e-01    1.860940e+00   4.487709e-02
  3.591992e-01    1.865507e+00   4.477315e-02
  3.614096e-01    1.841343e+00   4.432798e-02
  3.636201e-01    1.866614e+00   4.447430e-02
  3.658305e-01    1.849827e+00   4.412284e-02
  3.680410e-01    1.817532e+00   4.358556e-02
  3.702514e-01    1.821695e+00   4.348871e-02
  3.724619e-01    1.839935e+00   4.355704e-02
  3.746724e-01    1.829400e+00   4.328727e-02
  3.768828e-01    1.790224e+00   4.267718e-02
  3.790933e-01    1.774146e+00   4.234666e-02
  3.813037e-01    1.794576e+00   4.245043e-02
  3.835142e-01    1.817127e+00   4.257601e-02
  3.857246e-01    1.862089e+00   4.296005e-02
  3.879351e-01    1.840261e+00   4.256931e-02
  3.901455e-01    1.787717e+00   4.182358e-02
  3.923560e-01    1.817551e+00   4.203709e-02
  3.945665e-01    1.861701e+00   4.240967e-02
  3.967769e-01    1.881568e+00   4.250183e-02
  3.989874e-01    1.845895e+00   4.196558e-02
  4.011978e-01    1.811442e+00   4.144422e-02
  4.034083e-01    1.808114e+00   4.127904e-02
  4.056187e-01    1.809554e+00   4.116825e-02
  4.078292e-01    1.824736e+00   4.121549e-02
  4.100397e-01    1.830976e+00   4.115983e-02
  4.122501e-01    1.892050e+00   4.171549e-02
  4.144606e-01    1.842241e+00   4.104070e-02
  4.166710e-01    1.777220e+00   4.019006e-02
  4.188815e-01    1.842194e+00   4.079726e-02
  4.210919e-01    1.858932e+00   4.086206e-02
  4.233024e-01    1.891298e+00   4.109503e-02
  4.255128e-01    1.904360e+00   4.111751e-02
  4.277233e-01    1.873681e+00   4.066778e-02
  4.299338e-01    1.858074e+00   4.038151e-02
  4.321442e-01    1.874733e+00   4.044607e-02
  4.343547e-01    1.819538e+00   3.973357e-02
  4.365651e-01    1.813109e+00   3.955060e-02
  4.387756e-01    1.801049e+00   3.930847e-02
  4.409860e-01    1.784805e+00   3.902240e-02
  4.431965e-01    1.822776e+00   3.932626e-02
  4.454070e-01    1.831198e+00   3.930734e-02
  4.476174e-01    1.787600e+00   3.872998e-02
  4.498279e-01    1.756661e+00   3.828888e-02
  4.520383e-01    1.797236e+00   3.862227e-02
  4.542488e-01    1.761137e+00   3.812933e-02
  4.564592e-01    1.743332e+00   3.783432e-02
  4.586697e-01    1.743767e+00   3.773862e-02
  4.608801e-01    1.728505e+00   3.747245e-02
  4.630906e-01    1.772395e+00   3.784474e-02
  4.653011e-01    1.781601e+00   3.784314e-02
  4.675115e-01    1.759276e+00   3.750623e-02
  4.697220e-01    1.748048e+00   3.728848e-02
  4.719324e-01    1.732078e+00   3.702176e-02
  4.741429e-01    1.748786e+00   3.710401e-02
  4.763533e-01    1.734596e+00   3.685846e-02
  4.785638e-01    1.712843e+00   3.653198e-02
  4.807743e-01    1.716019e+00   3.647285e-02
  4.829847e-01    1.711115e+00   3.632868e-02
  4.851952e-01    1.717749e+00   3.630694e-02
  4.874056e-01    1.707936e+00   3.611179e-02
  4.896161e-01    1.713234e+00   3.607808e-02
  4.918265e-01    1.731801e+00   3.618296e-02
  4.940370e-01    1.721606e+00   3.598724e-02
  4.962475e-01    1.743774e+00   3.612875e-02
  4.984579e-01    1.725914e+00   3.585467e-02
  5.006684e-01    1.741755e+00   3.593102e-02
  5.028788e-01    1.740759e+00   3.583370e-02
  5.050893e-01    1.718271e+00   3.551491e-02
  5.072997e-01    1.697906e+00   3.521853e-02
  5.095102e-01    1.727129e+00   3.543527e-02
  5.117206e-01    1.704075e+00   3.511427e-02
  5.139311e-01    1.705979e+00   3.505073e-02
  5.161416e-01    1.703234e+00   3.493977e-02
  5.183520e-01    1.693013e+00   3.475198e-02
  5.205625e-01    1.693309e+00   3.467361e-02
  5.227729e-01    1.612431e+00   3.375651e-02
  5.249834e-01    1.670468e+00   3.427884e-02
  5.271938e-01    1.748213e+00   3.498567e-02
  5.294043e-01    1.749812e+00   3.492086e-02
  5.316148e-01    1.787359e+00   3.521272e-02
  5.338252e-01    1.843867e+00   3.568326e-02
  5.360357e-01    1.829527e+00   3.546335e-02
  5.382461e-01    1.813197e+00   3.522490e-02
  5.404566e-01    1.782039e+00   3.484148e-02
  5.426670e-01    1.770746e+00   3.465262e-02
  5.448775e-01    1.768013e+00   3.454854e-02
  5.470879e-01    1.777358e+00   3.456246e-02
  5.492984e-01    1.761070e+00   3.432722e-02
  5.515089e-01    1.796796e+00   3.459676e-02
  5.537193e-01    1.820555e+00   3.474803e-02
  5.559298e-01    1.801454e+00   3.448946e-02
  5.581402e-01    1.829018e+00   3.467637e-02
  5.603507e-01    1.828614e+00   3.459708e-02
  5.625611e-01    1.832080e+00   3.455471e-02
  5.647716e-01    1.838685e+00   3.454178e-02
  5.669821e-01    1.836732e+00   3.444900e-02
  5.691925e-01    1.798154e+00   3.401214e-02
  5.714030e-01    1.790285e+00   3.386528e-02
  5.736134e-01    1.747322e+00   3.338533e-02
  5.758239e-01    1.707024e+00   3.292765e-02
  5.780343e-01    1.757784e+00   3.334295e-02
  5.802448e-01    1.704777e+00   3.276763e-02
  5.824552e-01    1.709094e+00   3.274025e-02
  5.846657e-01    1.666516e+00   3.226247e-02
  5.868762e-01    1.723280e+00   3.273899e-02
  5.890866e-01    1.682526e+00   3.228248e-02
  5.912971e-01    1.680745e+00   3.219856e-02
  5.935075e-01    1.688407e+00   3.220518e-02
  5.957180e-01    1.682713e+00   3.208487e-02
  5.979284e-01    1.643743e+00   3.164642e-02
  6.001389e-01    1.671191e+00   3.184457e-02
  6.023494e-01    1.702152e+00   3.207295e-02
  6.045598e-01    1.675542e+00   3.175648e-02
  6.067703e-01    1.662771e+00   3.157160e-02
  6.089807e-01    1.694711e+00   3.180929e-02
  6.111912e-01    1.737898e+00   3.214774e-02
  6.134016e-01    1.703405e+00   3.176365e-02
  6.156121e-01    1.689694e+00   3.157265e-02
  6.178226e-01    1.703532e+00   3.163891e-02
  6.200330e-01    1.724974e+00   3.177461e-02
  6.222435e-01    1.695427e+00   3.143890e-02
  6.244539e-01    1.699995e+00   3.141956e-02
  6.266644e-01    1.728278e+00   3.161807e-02
  6.288748e-01    1.749145e+00   3.174646e-02
  6.310853e-01    1.740520e+00   3.160660e-02
  6.332957e-01    1.734875e+00   3.149439e-02
  6.355062e-01    1.684818e+00   3.097640e-02
  6.377167e-01    1.708786e+00   3.113611e-02
  6.399271e-01    1.743251e+00   3.138826e-02
  6.421376e-01    1.753260e+00   3.141817e-02
  6.443480e-01    1.713485e+00   3.100067e-02
  6.465585e-01    1.711202e+00   3.092130e-02
  6.487689e-01    1.714190e+00   3.088985e-02
  6.509794e-01    1.728013e+00   3.095566e-02
  6.531899e-01    1.688529e+00   3.054243e-02
  6.554003e-01    1.602069e+00   2.969425e-02
  6.576108e-01    1.609672e+00   2.970921e-02
  6.598212e-01    1.599788e+00   2.956284e-02
  6.620317e-01    1.594943e+00   2.946331e-02
  6.642421e-01    1.648970e+00   2.990273e-02
  6.664526e-01    1.665623e+00   2.999801e-02
  6.686630e-01    1.629906e+00   2.961976e-02
  6.708735e-01    1.654260e+00   2.978549e-02
  6.730840e-01    1.641322e+00   2.961469e-02
  6.752944e-01    1.605089e+00   2.923274e-02
  6.775049e-01    1.623037e+00   2.934233e-02
  6.797153e-01    1.627604e+00   2.933040e-02
  6.819258e-01    1.627240e+00   2.927420e-02
  6.841362e-01    1.631447e+00   2.925933e-02
  6.863467e-01    1.602990e+00   2.895107e-02
  6.885572e-01    1.619224e+00   2.904515e-02
  6.907676e-01    1.594741e+00   2.877310e-02
  6.929781e-01    1.599852e+00   2.876794e-02
  6.951885e-01    1.631823e+00   2.900249e-02
  6.973990e-01    1.652661e+00   2.913550e-02
  6.996094e-01    1.650471e+00   2.906495e-02
  7.018199e-01    1.640358e+00   2.892492e-02
  7.040303e-01    1.589671e+00   2.842450e-02
  7.062408e-01    1.582852e+00   2.831379e-02
  7.084513e-01    1.601646e+00   2.843183e-02
  7.106617e-01    1.590564e+00   2.828408e-02
  7.128722e-01    1.572532e+00   2.807464e-02
  7.150826e-01    1.586799e+00   2.815310e-02
  7.172931e-01    1.580513e+00   2.804884e-02
  7.195035e-01    1.571331e+00   2.791917e-02
  7.217140e-01    1.598465e+00   2.820901e-02
  7.239245e-01    1.629423e+00   2.871152e-02
  7.261349e-01    1.578357e+00   2.836677e-02
  7.283454e-01    1.567373e+00   2.834013e-02
  7.305558e-01    1.564634e+00   2.836917e-02
  7.327663e-01    1.588048e+00   2.862333e-02
  7.349767e-01    1.584784e+00   2.861032e-02
  7.371872e-01    1.608363e+00   2.881107e-02
  7.393976e-01    1.612201e+00   2.883099e-02
  7.416081e-01    1.631716e+00   2.898851e-02
  7.438186e-01    1.614828e+00   2.869196e-02
  7.460290e-01    1.569712e+00   2.799454e-02
  7.482395e-01    1.584175e+00   2.795151e-02
  7.504499e-01    1.568753e+00   2.767911e-02
  7.526604e-01    1.600323e+00   2.783873e-02
  7.548708e-01    1.589967e+00   2.765866e-02
  7.570813e-01    1.626427e+00   2.792219e-02
  7.592918e-01    1.619197e+00   2.782437e-02
  7.615022e-01    1.650781e+00   2.805985e-02
  7.637127e-01    1.630522e+00   2.785377e-02
  7.659231e-01    1.614007e+00   2.767996e-02
  7.681336e-01    1.613133e+00   2.764047e-02
  7.703440e-01    1.653649e+00   2.795343e-02
  7.725545e-01    1.620412e+00   2.763976e-02
  7.747650e-01    1.671343e+00   2.803142e-02
  7.769754e-01    1.637265e+00   2.769046e-02
  7.791859e-01    1.599677e+00   2.731686e-02
  7.813963e-01    1.603512e+00   2.729657e-02
  7.836068e-01    1.605204e+00   2.725863e-02
  7.858172e-01    1.612154e+00   2.726650e-02
  7.880277e-01    1.710116e+00   2.802925e-02
  7.902381e-01    1.893514e+00   2.944036e-02
  7.924486e-01    1.935614e+00   2.971079e-02
  7.946591e-01    1.736709e+00   2.809257e-02
  7.968695e-01    1.639289e+00   2.724440e-02
  7.990800e-01    1.654506e+00   2.732165e-02
  8.012904e-01    1.657165e+00   2.729629e-02
  8.035009e-01    1.619240e+00   2.693415e-02
  8.057113e-01    1.614359e+00   2.684699e-02
  8.079218e-01    1.653190e+00   2.712107e-02
  8.101323e-01    1.658064e+00   2.711492e-02
  8.123427e-01    1.636704e+00   2.689377e-02
  8.145532e-01    1.631966e+00   2.680885e-02
  8.167636e-01    1.642309e+00   2.684845e-02
  8.189741e-01    1.679630e+00   2.710653e-02
  8.211845e-01    1.686162e+00   2.711367e-02
  8.233950e-01    1.677365e+00   2.699889e-02
  8.256054e-01    1.644730e+00   2.669065e-02
  8.278159e-01    1.640366e+00   2.661121e-02
  8.300264e-01    1.639347e+00   2.655982e-02
  8.322368e-01    1.681365e+00   2.685437e-02
  8.344473e-01    1.689971e+00   2.687899e-02
  8.366577e-01    1.628305e+00   2.634158e-02
  8.388682e-01    1.642427e+00   2.641325e-02
  8.410786e-01    1.675853e+00   2.663817e-02
  8.432891e-01    1.654850e+00   2.642866e-02
  8.454996e-01    1.666142e+00   2.647671e-02
  8.477100e-01    1.708309e+00   2.676710e-02
  8.499205e-01    1.690210e+00   2.658312e-02
  8.521309e-01    1.647526e+00   2.620441e-02
  8.543414e-01    1.603697e+00   2.581315e-02
  8.565518e-01    1.615632e+00   2.586868e-02
  8.587623e-01    1.639112e+00   2.601541e-02
  8.609727e-01    1.652627e+00   2.608194e-02
  8.631832e-01    1.641849e+00   2.595668e-02
  8.653937e-01    1.641544e+00   2.591436e-02
  8.676041e-01    1.640816e+00   2.586956e-02
  8.698146e-01    1.622362e+00   2.568432e-02
  8.720250e-01    1.648905e+00   2.585411e-02
  8.742355e-01    1.643382e+00   2.577150e-02
  8.764459e-01    1.624609e+00   2.558480e-02
  8.786564e-01    1.612567e+00   2.545178e-02
  8.808669e-01    1.620072e+00   2.547228e-02
  8.830773e-01    1.635615e+00   2.555563e-02
  8.852878e-01    1.637613e+00   2.553291e-02
  8.874982e-01    1.619204e+00   2.535213e-02
  8.897087e-01    1.630944e+00   2.540585e-02
  8.919191e-01    1.635710e+00   2.540478e-02
  8.941296e-01    1.595848e+00   2.505610e-02
  8.963401e-01    1.573863e+00   2.484675e-02
  8.985505e-01    1.613316e+00   2.511914e-02
  9.007610e-01    1.629086e+00   2.520454e-02
  9.029714e-01    1.600796e+00   2.494889e-02
  9.051819e-01    1.584051e+00   2.478102e-02
  9.073923e-01    1.601458e+00   2.488022e-02
  9.096028e-01    1.599776e+00   2.483223e-02
  9.118132e-01    1.606699e+00   2.484962e-02
  9.140237e-01    1.599608e+00   2.475810e-02
  9.162342e-01    1.619712e+00   2.487841e-02
  9.184446e-01    1.635138e+00   2.496046e-02
  9.206551e-01    1.615980e+00   2.477806e-02
  9.228655e-01    1.563280e+00   2.433584e-02
  9.250760e-01    1.622777e+00   2.475899e-02
  9.272864e-01    1.627055e+00   2.475713e-02
  9.294969e-01    1.619998e+00   2.466735e-02
  9.317074e-01    1.647216e+00   2.483856e-02
  9.339178e-01    1.615027e+00   2.456111e-02
  9.361283e-01    1.611776e+00   2.450018e-02
  9.383387e-01    1.629524e+00   2.460120e-02
  9.405492e-01    1.666763e+00   2.484596e-02
  9.427596e-01    1.676064e+00   2.487934e-02
  9.449701e-01    1.691792e+00   2.496181e-02
  9.471805e-01    1.686858e+00   2.489011e-02
  9.493910e-01    1.653408e+00   2.460826e-02
  9.516015e-01    1.686787e+00   2.482070e-02
  9.538119e-01    1.719679e+00   2.502721e-02
  9.560224e-01    1.720019e+00   2.499445e-02
  9.582328e-01    1.742602e+00   2.512423e-02
  9.604433e-01    1.740351e+00   2.507247e-02
  9.626537e-01    1.739932e+00   2.503573e-02
  9.648642e-01    1.744064e+00   2.503110e-02
  9.670747e-01    1.779835e+00   2.525162e-02
  9.692851e-01    1.802697e+00   2.537951e-02
  9.714956e-01    1.838601e+00   2.559486e-02
  9.737060e-01    1.857153e+00   2.568988e-02
  9.759165e-01    1.861362e+00   2.568271e-02
  9.781269e-01    1.882678e+00   2.579555e-02
  9.803374e-01    1.840927e+00   2.547266e-02
  9.825478e-01    1.850998e+00   2.550853e-02
  9.847583e-01    1.844108e+00   2.542645e-02
  9.869688e-01    1.810120e+00   2.515733e-02
  9.891792e-01    1.801949e+00   2.506713e-02
  9.913897e-01    1.769816e+00   2.480908e-02
  9.936001e-01    1.777917e+00   2.483325e-02
  9.958106e-01    1.760883e+00   2.468041e-02
  9.980210e-01    1.750052e+00   2.457245e-02
  1.000231e+00    1.733519e+00   2.459009e-02
  1.002442e+00    1.681746e+00   2.434879e-02
  1.004652e+00    1.650521e+00   2.418899e-02
  1.006863e+00    1.639726e+00   2.415978e-02
  1.009073e+00    1.619813e+00   2.404938e-02
  1.011284e+00    1.649082e+00   2.429811e-02
  1.013494e+00    1.639777e+00   2.425352e-02
  1.015705e+00    1.598848e+00   2.397155e-02
  1.017915e+00    1.586532e+00   2.389548e-02
  1.020126e+00    1.577948e+00   2.384688e-02
  1.022336e+00    1.582202e+00   2.389076e-02
  1.024547e+00    1.531724e+00   2.351773e-02
  1.026757e+00    1.539479e+00   2.358552e-02
  1.028967e+00    1.526080e+00   2.349030e-02
  1.031178e+00    1.497193e+00   2.327299e-02
  1.033388e+00    1.523173e+00   2.347909e-02
  1.035599e+00    1.487517e+00   2.320603e-02
  1.037809e+00    1.515331e+00   2.342522e-02
  1.040020e+00    1.510281e+00   2.338743e-02
  1.042230e+00    1.515176e+00   2.342723e-02
  1.044441e+00    1.529788e+00   2.353970e-02
  1.046651e+00    1.547396e+00   2.367496e-02
  1.048862e+00    1.537876e+00   2.360123e-02
  1.051072e+00    1.546517e+00   2.366503e-02
  1.053282e+00    1.536566e+00   2.358784e-02
  1.055493e+00    1.515508e+00   2.342131e-02
  1.057703e+00    1.499877e+00   2.329869e-02
  1.059914e+00    1.498450e+00   2.328333e-02
  1.062124e+00    1.476216e+00   2.310591e-02
  1.064335e+00    1.499066e+00   2.328057e-02
  1.066545e+00    1.501146e+00   2.329072e-02
  1.068756e+00    1.474652e+00   2.308052e-02
  1.070966e+00    1.485372e+00   2.315771e-02
  1.073177e+00    1.506560e+00   2.331615e-02
  1.075387e+00    1.500672e+00   2.326528e-02
  1.077597e+00    1.516546e+00   2.338063e-02
  1.079808e+00    1.514411e+00   2.322919e-02
  1.082018e+00    1.454701e+00   2.257810e-02
  1.084229e+00    1.441607e+00   2.236690e-02
  1.086439e+00    1.466541e+00   2.247174e-02
  1.088650e+00    1.449732e+00   2.226705e-02
  1.090860e+00    1.445004e+00   2.216328e-02
  1.093071e+00    1.459373e+00   2.221084e-02
  1.095281e+00    1.444859e+00   2.204289e-02
  1.097492e+00    1.402560e+00   2.166375e-02
  1.099702e+00    1.405261e+00   2.163382e-02
  1.101912e+00    1.427854e+00   2.175837e-02
  1.104123e+00    1.456535e+00   2.192726e-02
  1.106333e+00    1.442863e+00   2.177953e-02
  1.108544e+00    1.440242e+00   2.171532e-02
  1.110754e+00    1.431508e+00   2.160628e-02
  1.112965e+00    1.430599e+00   2.155878e-02
  1.115175e+00    1.406779e+00   2.133755e-02
  1.117386e+00    1.394898e+00   2.120826e-02
  1.119596e+00    1.420954e+00   2.136742e-02
  1.121807e+00    1.437301e+00   2.145082e-02
  1.124017e+00    1.373133e+00   2.093031e-02
  1.126228e+00    1.371334e+00   2.088126e-02
  1.128438e+00    1.379804e+00   2.090915e-02
  1.130648e+00    1.389144e+00   2.094560e-02
  1.132859e+00    1.407675e+00   2.105035e-02
  1.135069e+00    1.414936e+00   2.106956e-02
  1.137280e+00    1.397245e+00   2.090437e-02
  1.139490e+00    1.389145e+00   2.081058e-02
  1.141701e+00    1.391609e+00   2.079585e-02
  1.143911e+00    1.383333e+00   2.070204e-02
  1.146122e+00    1.377205e+00   2.062418e-02
  1.148332e+00    1.373184e+00   2.056223e-02
  1.150543e+00    1.362686e+00   2.045282e-02
  1.152753e+00    1.381771e+00   2.056463e-02
  1.154963e+00    1.391237e+00   2.060371e-02
  1.157174e+00    1.405978e+00   2.068206e-02
  1.159384e+00    1.383212e+00   2.048399e-02
  1.161595e+00    1.361093e+00   2.028977e-02
  1.163805e+00    1.393399e+00   2.049964e-02
  1.166016e+00    1.394339e+00   2.047684e-02
  1.168226e+00    1.400151e+00   2.049017e-02
  1.170437e+00    1.371559e+00   2.025119e-02
  1.172647e+00    1.399592e+00   2.042784e-02
  1.174858e+00    1.372112e+00   2.019814e-02
  1.177068e+00    1.356475e+00   2.005452e-02
  1.179278e+00    1.363166e+00   2.007532e-02
  1.181489e+00    1.363662e+00   2.005193e-02
  1.183699e+00    1.350396e+00   1.992667e-02
  1.185910e+00    1.366777e+00   2.001929e-02
  1.188120e+00    1.364911e+00   1.997887e-02
  1.190331e+00    1.368515e+00   1.997832e-02
  1.192541e+00    1.394550e+00   2.013968e-02
  1.194752e+00    1.380658e+00   2.001181e-02
  1.196962e+00    1.369914e+00   1.990786e-02
  1.199173e+00    1.365182e+00   1.984681e-02
  1.201383e+00    1.350651e+00   1.971374e-02
  1.203593e+00    1.326965e+00   1.951551e-02
  1.205804e+00    1.354921e+00   1.969404e-02
  1.208014e+00    1.435310e+00   2.024212e-02
  1.210225e+00    1.723227e+00   2.215097e-02
  1.212435e+00    1.913014e+00   2.330953e-02
  1.214646e+00    1.661362e+00   2.169348e-02
  1.216856e+00    1.416142e+00   2.000243e-02
  1.219067e+00    1.392580e+00   1.981045e-02
  1.221277e+00    1.361500e+00   1.956302e-02
  1.223488e+00    1.343171e+00   1.940518e-02
  1.225698e+00    1.373983e+00   1.959935e-02
  1.227909e+00    1.395878e+00   1.972424e-02
  1.230119e+00    1.405520e+00   1.975973e-02
  1.232329e+00    1.396233e+00   1.966311e-02
  1.234540e+00    1.387743e+00   1.957253e-02
  1.236750e+00    1.386260e+00   1.953138e-02
  1.238961e+00    1.421225e+00   1.974850e-02
  1.241171e+00    1.414943e+00   1.968005e-02
  1.243382e+00    1.426070e+00   1.973312e-02
  1.245592e+00    1.417841e+00   1.965141e-02
  1.247803e+00    1.376666e+00   1.934007e-02
  1.250013e+00    1.453580e+00   1.984852e-02
  1.252224e+00    1.550574e+00   2.047515e-02
  1.254434e+00    1.575695e+00   2.061473e-02
  1.256644e+00    1.485586e+00   1.999228e-02
  1.258855e+00    1.478403e+00   1.991950e-02
  1.261065e+00    1.464582e+00   1.980186e-02
  1.263276e+00    1.407965e+00   1.939191e-02
  1.265486e+00    1.383889e+00   1.920222e-02
  1.267697e+00    1.378492e+00   1.914149e-02
  1.269907e+00    1.350995e+00   1.892692e-02
  1.272118e+00    1.338801e+00   1.881880e-02
  1.274328e+00    1.371226e+00   1.902242e-02
  1.276539e+00    1.434649e+00   1.943385e-02
  1.278749e+00    1.494076e+00   1.980885e-02
  1.280959e+00    1.548177e+00   2.014015e-02
  1.283170e+00    1.596693e+00   2.042892e-02
  1.285380e+00    1.564021e+00   2.019470e-02
  1.287591e+00    1.459603e+00   1.948601e-02
  1.289801e+00    1.422679e+00   1.921617e-02
  1.292012e+00    1.385645e+00   1.894708e-02
  1.294222e+00    1.383083e+00   1.891310e-02
  1.296433e+00    1.414303e+00   1.910940e-02
  1.298643e+00    1.430278e+00   1.920008e-02
  1.300854e+00    1.419409e+00   1.911016e-02
  1.303064e+00    1.379163e+00   1.881786e-02
  1.305274e+00    1.400240e+00   1.893926e-02
  1.307485e+00    1.376470e+00   1.875608e-02
  1.309695e+00    1.338389e+00   1.847266e-02
  1.311906e+00    1.346724e+00   1.850840e-02
  1.314116e+00    1.361450e+00   1.858844e-02
  1.316327e+00    1.399495e+00   1.882428e-02
  1.318537e+00    1.387613e+00   1.872204e-02
  1.320748e+00    1.349382e+00   1.844077e-02
  1.322958e+00    1.352009e+00   1.843816e-02
  1.325169e+00    1.345832e+00   1.837502e-02
  1.327379e+00    1.338470e+00   1.830297e-02
  1.329589e+00    1.361854e+00   1.844100e-02
  1.331800e+00    1.365196e+00   1.844279e-02
  1.334010e+00    1.384913e+00   1.855459e-02
  1.336221e+00    1.369978e+00   1.843238e-02
  1.338431e+00    1.353796e+00   1.830227e-02
  1.340642e+00    1.371448e+00   1.848589e-02
  1.342852e+00    1.340216e+00   1.837449e-02
  1.345063e+00    1.381822e+00   1.870757e-02
  1.347273e+00    1.369655e+00   1.866055e-02
  1.349484e+00    1.324119e+00   1.837514e-02
  1.351694e+00    1.358057e+00   1.863189e-02
  1.353905e+00    1.341275e+00   1.853436e-02
  1.356115e+00    1.347671e+00   1.859354e-02
  1.358325e+00    1.313086e+00   1.836655e-02
  1.360536e+00    1.323932e+00   1.845373e-02
  1.362746e+00    1.325337e+00   1.847303e-02
  1.364957e+00    1.310894e+00   1.837963e-02
  1.367167e+00    1.343155e+00   1.861156e-02
  1.369378e+00    1.339272e+00   1.859064e-02
  1.371588e+00    1.356206e+00   1.871297e-02
  1.373799e+00    1.349642e+00   1.867131e-02
  1.376009e+00    1.340225e+00   1.860946e-02
  1.378220e+00    1.319563e+00   1.846796e-02
  1.380430e+00    1.324980e+00   1.850854e-02
  1.382640e+00    1.293747e+00   1.828998e-02
  1.384851e+00    1.288095e+00   1.825085e-02
  1.387061e+00    1.283456e+00   1.821825e-02
  1.389272e+00    1.288520e+00   1.825434e-02
  1.391482e+00    1.301296e+00   1.834396e-02
  1.393693e+00    1.280979e+00   1.819931e-02
  1.395903e+00    1.322265e+00   1.848876e-02
  1.398114e+00    1.297490e+00   1.831334e-02
  1.400324e+00    1.296686e+00   1.830554e-02
  1.402535e+00    1.265893e+00   1.808457e-02
  1.404745e+00    1.259892e+00   1.803929e-02
  1.406955e+00    1.278199e+00   1.816718e-02
  1.409166e+00    1.278067e+00   1.816292e-02
  1.411376e+00    1.298220e+00   1.830242e-02
  1.413587e+00    1.264986e+00   1.806282e-02
  1.415797e+00    1.280678e+00   1.817095e-02
  1.418008e+00    1.261028e+00   1.798931e-02
  1.420218e+00    1.243618e+00   1.771651e-02
  1.422429e+00    1.259735e+00   1.774597e-02
  1.424639e+00    1.299168e+00   1.795616e-02
  1.426850e+00    1.282060e+00   1.778261e-02
  1.429060e+00    1.274410e+00   1.768036e-02
  1.431270e+00    1.289167e+00   1.773781e-02
  1.433481e+00    1.269496e+00   1.756102e-02
  1.435691e+00    1.289315e+00   1.765882e-02
  1.437902e+00    1.343699e+00   1.798991e-02
  1.440112e+00    1.324490e+00   1.782479e-02
  1.442323e+00    1.277263e+00   1.747097e-02
  1.444533e+00    1.268779e+00   1.738030e-02
  1.446744e+00    1.279357e+00   1.742135e-02
  1.448954e+00    1.277381e+00   1.737762e-02
  1.451165e+00    1.274221e+00   1.732631e-02
  1.453375e+00    1.265541e+00   1.723920e-02
  1.455586e+00    1.282859e+00   1.732842e-02
  1.457796e+00    1.292108e+00   1.736307e-02
  1.460006e+00    1.265316e+00   1.715488e-02
  1.462217e+00    1.276041e+00   1.720116e-02
  1.464427e+00    1.286589e+00   1.724633e-02
  1.466638e+00    1.239565e+00   1.690320e-02
  1.468848e+00    1.277495e+00   1.713443e-02
  1.471059e+00    1.287811e+00   1.717823e-02
  1.473269e+00    1.297079e+00   1.721527e-02
  1.475480e+00    1.282180e+00   1.709223e-02
  1.477690e+00    1.304623e+00   1.721697e-02
  1.479901e+00    1.278054e+00   1.701685e-02
  1.482111e+00    1.271353e+00   1.694881e-02
  1.484321e+00    1.260798e+00   1.685525e-02
  1.486532e+00    1.260515e+00   1.683108e-02
  1.488742e+00    1.248621e+00   1.672897e-02
  1.490953e+00    1.288513e+00   1.697129e-02
  1.493163e+00    1.256612e+00   1.673769e-02
  1.495374e+00    1.260334e+00   1.674096e-02
  1.497584e+00    1.273690e+00   1.680769e-02
  1.499795e+00    1.245422e+00   1.659860e-02
  1.502005e+00    1.262529e+00   1.669051e-02
  1.504216e+00    1.240867e+00   1.652582e-02
  1.506426e+00    1.268327e+00   1.668677e-02
  1.508636e+00    1.269848e+00   1.667624e-02
  1.510847e+00    1.258053e+00   1.657677e-02
  1.513057e+00    1.251774e+00   1.651030e-02
  1.515268e+00    1.270030e+00   1.660440e-02
  1.517478e+00    1.264014e+00   1.653975e-02
  1.519689e+00    1.276665e+00   1.659716e-02
  1.521899e+00    1.252300e+00   1.641490e-02
  1.524110e+00    1.264215e+00   1.647239e-02
  1.526320e+00    1.262082e+00   1.643883e-02
  1.528531e+00    1.276497e+00   1.651247e-02
  1.530741e+00    1.251608e+00   1.633156e-02
  1.532951e+00    1.230095e+00   1.617114e-02
  1.535162e+00    1.246909e+00   1.636781e-02
  1.537372e+00    1.231817e+00   1.633488e-02
  1.539583e+00    1.230821e+00   1.636228e-02
  1.541793e+00    1.252343e+00   1.651165e-02
  1.544004e+00    1.256452e+00   1.653901e-02
  1.546214e+00    1.239414e+00   1.642497e-02
  1.548425e+00    1.254267e+00   1.652336e-02
  1.550635e+00    1.260624e+00   1.657491e-02
  1.552846e+00    1.250144e+00   1.651557e-02
  1.555056e+00    1.230723e+00   1.634552e-02
  1.557266e+00    1.254301e+00   1.639045e-02
  1.559477e+00    1.244771e+00   1.626897e-02
  1.561687e+00    1.236832e+00   1.618642e-02
  1.563898e+00    1.239654e+00   1.618774e-02
  1.566108e+00    1.249566e+00   1.623634e-02
  1.568319e+00    1.254965e+00   1.625570e-02
  1.570529e+00    1.247227e+00   1.618035e-02
  1.572740e+00    1.247488e+00   1.615437e-02
  1.574950e+00    1.262404e+00   1.622417e-02
  1.577161e+00    1.253114e+00   1.613880e-02
  1.579371e+00    1.275993e+00   1.626149e-02
  1.581582e+00    1.250076e+00   1.607571e-02
  1.583792e+00    1.253269e+00   1.607812e-02
  1.586002e+00    1.268153e+00   1.615553e-02
  1.588213e+00    1.276728e+00   1.619259e-02
  1.590423e+00    1.267273e+00   1.611227e-02
  1.592634e+00    1.269926e+00   1.610727e-02
  1.594844e+00    1.288453e+00   1.620255e-02
  1.597055e+00    1.267860e+00   1.605187e-02
  1.599265e+00    1.269109e+00   1.603879e-02
  1.601476e+00    1.255760e+00   1.593383e-02
  1.603686e+00    1.257321e+00   1.592380e-02
  1.605897e+00    1.260588e+00   1.592416e-02
  1.608107e+00    1.251173e+00   1.584489e-02
  1.610317e+00    1.268731e+00   1.593615e-02
  1.612528e+00    1.231540e+00   1.568170e-02
  1.614738e+00    1.233866e+00   1.567752e-02
  1.616949e+00    1.238313e+00   1.568666e-02
  1.619159e+00    1.265431e+00   1.583846e-02
  1.621370e+00    1.241415e+00   1.566884e-02
  1.623580e+00    1.215892e+00   1.548857e-02
  1.625791e+00    1.223725e+00   1.552000e-02
  1.628001e+00    1.211887e+00   1.542643e-02
  1.630212e+00    1.176475e+00   1.518174e-02
  1.632422e+00    1.194350e+00   1.527867e-02
  1.634632e+00    1.178440e+00   1.515930e-02
  1.636843e+00    1.179548e+00   1.514887e-02
  1.639053e+00    1.171821e+00   1.508188e-02
  1.641264e+00    1.182531e+00   1.513346e-02
  1.643474e+00    1.160367e+00   1.497361e-02
  1.645685e+00    1.151449e+00   1.489932e-02
  1.647895e+00    1.154995e+00   1.490566e-02
  1.650106e+00    1.153484e+00   1.487888e-02
  1.652316e+00    1.175398e+00   1.500287e-02
  1.654527e+00    1.158350e+00   1.487691e-02
  1.656737e+00    1.153737e+00   1.483054e-02
  1.658947e+00    1.157468e+00   1.483807e-02
  1.661158e+00    1.140018e+00   1.470941e-02
  1.663368e+00    1.233763e+00   1.528541e-02
  1.665579e+00    1.321971e+00   1.580489e-02
  1.667789e+00    1.260737e+00   1.541731e-02
  1.670000e+00    1.177791e+00   1.488555e-02
  1.672210e+00    1.146757e+00   1.467197e-02
  1.674421e+00    1.143076e+00   1.463281e-02
  1.676631e+00    1.168011e+00   1.477521e-02
  1.678842e+00    1.169594e+00   1.476895e-02
  1.681052e+00    1.187447e+00   1.486520e-02
  1.683263e+00    1.170593e+00   1.474364e-02
  1.685473e+00    1.220641e+00   1.503947e-02
  1.687683e+00    1.193568e+00   1.485556e-02
  1.689894e+00    1.158618e+00   1.462012e-02
  1.692104e+00    1.113617e+00   1.431821e-02
  1.694315e+00    1.102945e+00   1.423471e-02
  1.696525e+00    1.101701e+00   1.421131e-02
  1.698736e+00    1.092484e+00   1.413673e-02
  1.700946e+00    1.072484e+00   1.399152e-02
  1.703157e+00    1.038056e+00   1.375059e-02
  1.705367e+00    1.054813e+00   1.384661e-02
  1.707578e+00    1.112046e+00   1.420230e-02
  1.709788e+00    1.103556e+00   1.413350e-02
  1.711998e+00    1.070670e+00   1.390611e-02
  1.714209e+00    1.100746e+00   1.408519e-02
  1.716419e+00    1.172475e+00   1.452169e-02
  1.718630e+00    1.114516e+00   1.414339e-02
  1.720840e+00    1.040620e+00   1.365222e-02
  1.723051e+00    9.923512e-01   1.331817e-02
  1.725261e+00    1.009717e+00   1.341959e-02
  1.727472e+00    1.010353e+00   1.340971e-02
  1.729682e+00    9.957396e-01   1.329906e-02
  1.731893e+00    9.736601e-01   1.313713e-02
  1.734103e+00    9.739532e-01   1.312556e-02
  1.736313e+00    9.855766e-01   1.318978e-02
  1.738524e+00    9.979026e-01   1.325821e-02
  1.740734e+00    9.907772e-01   1.319714e-02
  1.742945e+00    9.876317e-01   1.316278e-02
  1.745155e+00    9.852450e-01   1.313348e-02
  1.747366e+00    9.900928e-01   1.315192e-02
  1.749576e+00    9.670393e-01   1.298438e-02
  1.751787e+00    9.644632e-01   1.295383e-02
  1.753997e+00    9.789562e-01   1.303743e-02
  1.756208e+00    9.619586e-01   1.291065e-02
  1.758418e+00    9.599040e-01   1.288381e-02
  1.760628e+00    9.324026e-01   1.268483e-02
  1.762839e+00    9.459296e-01   1.276339e-02
  1.765049e+00    9.562431e-01   1.281973e-02
  1.767260e+00    9.418201e-01   1.270998e-02
  1.769470e+00    9.386252e-01   1.267554e-02
  1.771681e+00    9.469984e-01   1.271884e-02
  1.773891e+00    9.383508e-01   1.264768e-02
  1.776102e+00    9.335511e-01   1.260249e-02
  1.778312e+00    9.398311e-01   1.263213e-02
  1.780523e+00    9.088992e-01   1.241001e-02
  1.782733e+00    9.106192e-01   1.240923e-02
  1.784944e+00    9.398907e-01   1.259419e-02
  1.787154e+00    9.342982e-01   1.254413e-02
  1.789364e+00    9.362990e-01   1.254504e-02
  1.791575e+00    9.101135e-01   1.235595e-02
  1.793785e+00    9.247633e-01   1.244257e-02
  1.795996e+00    9.044762e-01   1.229294e-02
  1.798206e+00    9.065412e-01   1.229451e-02
  1.800417e+00    9.319113e-01   1.245258e-02
  1.802627e+00    9.100645e-01   1.229385e-02
  1.804838e+00    9.137184e-01   1.230638e-02
  1.807048e+00    9.061922e-01   1.224277e-02
  1.809259e+00    8.971798e-01   1.216821e-02
  1.811469e+00    8.979691e-01   1.215867e-02
  1.813679e+00    8.720315e-01   1.196704e-02
  1.815890e+00    8.834391e-01   1.203043e-02
  1.818100e+00    8.884194e-01   1.204927e-02
  1.820311e+00    8.755888e-01   1.194732e-02
  1.822521e+00    8.650063e-01   1.186028e-02
  1.824732e+00    8.692405e-01   1.187462e-02
  1.826942e+00    8.845555e-01   1.196645e-02
  1.829153e+00    9.028004e-01   1.207743e-02
  1.831363e+00    8.975437e-01   1.203009e-02
  1.833574e+00    8.921928e-01   1.198244e-02
  1.835784e+00    8.828171e-01   1.190787e-02
  1.837994e+00    8.745973e-01   1.184059e-02
  1.840205e+00    8.595406e-01   1.172717e-02
  1.842415e+00    8.510696e-01   1.165759e-02
  1.844626e+00    8.788176e-01   1.183451e-02
  1.846836e+00    8.675072e-01   1.174668e-02
  1.849047e+00    8.532149e-01   1.163800e-02
  1.851257e+00    8.437486e-01   1.156379e-02
  1.853468e+00    8.578410e-01   1.165117e-02
  1.855678e+00    8.517315e-01   1.160079e-02
  1.857889e+00    8.674110e-01   1.169851e-02
  1.860099e+00    8.646203e-01   1.167105e-02
  1.862309e+00    8.420866e-01   1.150949e-02
  1.864520e+00    8.532345e-01   1.157687e-02
  1.866730e+00    8.680739e-01   1.166765e-02
  1.868941e+00    8.527790e-01   1.155347e-02
  1.871151e+00    8.339087e-01   1.141366e-02
  1.873362e+00    8.335627e-01   1.140004e-02
  1.875572e+00    8.321061e-01   1.137927e-02
  1.877783e+00    8.340780e-01   1.138139e-02
  1.879993e+00    8.418840e-01   1.142342e-02
  1.882204e+00    8.469948e-01   1.144711e-02
  1.884414e+00    8.317511e-01   1.133267e-02
  1.886624e+00    8.413370e-01   1.138670e-02
  1.888835e+00    8.393547e-01   1.136234e-02
  1.891045e+00    8.365815e-01   1.133268e-02
  1.893256e+00    8.583037e-01   1.146764e-02
  1.895466e+00    8.843244e-01   1.162870e-02
  1.897677e+00    8.493277e-01   1.138530e-02
  1.899887e+00    8.311099e-01   1.125155e-02
  1.902098e+00    8.255616e-01   1.120312e-02
  1.904308e+00    8.044953e-01   1.104885e-02
  1.906519e+00    8.034226e-01   1.103081e-02
  1.908729e+00    8.081248e-01   1.105257e-02
  1.910940e+00    8.258202e-01   1.116180e-02
  1.913150e+00    8.264365e-01   1.115539e-02
  1.915360e+00    8.233594e-01   1.112398e-02
  1.917571e+00    8.167130e-01   1.106817e-02
  1.919781e+00    8.054879e-01   1.098125e-02
  1.921992e+00    8.247991e-01   1.110146e-02
  1.924202e+00    8.167419e-01   1.103635e-02
  1.926413e+00    8.244774e-01   1.107812e-02
  1.928623e+00    8.414626e-01   1.118094e-02
  1.930834e+00    8.258058e-01   1.106594e-02
  1.933044e+00    8.151601e-01   1.098367e-02
  1.935255e+00    8.391921e-01   1.113389e-02
  1.937465e+00    8.347622e-01   1.109392e-02
  1.939675e+00    8.018209e-01   1.086201e-02
  1.941886e+00    8.021095e-01   1.085368e-02
  1.944096e+00    7.930906e-01   1.078237e-02
  1.946307e+00    8.035431e-01   1.084285e-02
  1.948517e+00    8.205175e-01   1.094619e-02
  1.950728e+00    7.965990e-01   1.077524e-02
  1.952938e+00    8.026678e-01   1.080609e-02
  1.955149e+00    7.971906e-01   1.075892e-02
  1.957359e+00    7.829578e-01   1.065248e-02
  1.959570e+00    7.792616e-01   1.061654e-02
  1.961780e+00    7.939686e-01   1.070633e-02
  1.963990e+00    7.972631e-01   1.071837e-02
  1.966201e+00    7.976830e-01   1.071110e-02
  1.968411e+00    7.903976e-01   1.065189e-02
  1.970622e+00    8.014627e-01   1.071603e-02
  1.972832e+00    7.923654e-01   1.064503e-02
  1.975043e+00    8.092825e-01   1.074786e-02
  1.977253e+00    8.243988e-01   1.083760e-02
  1.979464e+00    8.109229e-01   1.073846e-02
  1.981674e+00    8.078808e-01   1.070786e-02
  1.983885e+00    7.816480e-01   1.052258e-02
  1.986095e+00    7.687980e-01   1.042607e-02
  1.988305e+00    7.897722e-01   1.055737e-02
  1.990516e+00    8.049309e-01   1.064814e-02
  1.992726e+00    8.211011e-01   1.074460e-02
  1.994937e+00    8.070509e-01   1.064198e-02
  1.997147e+00    8.131853e-01   1.067238e-02
  1.999358e+00    8.066652e-01   1.061945e-02
  2.001568e+00    8.192760e-01   1.069101e-02
  2.003779e+00    8.175147e-01   1.066726e-02
  2.005989e+00    8.053532e-01   1.057533e-02
  2.008200e+00    8.370042e-01   1.076913e-02
  2.010410e+00    8.181467e-01   1.063501e-02
  2.012621e+00    7.885743e-01   1.042919e-02
  2.014831e+00    7.812173e-01   1.036883e-02
  2.017041e+00    7.768843e-01   1.032960e-02
  2.019252e+00    7.854018e-01   1.037597e-02
  2.021462e+00    7.939082e-01   1.042233e-02
  2.023673e+00    8.101878e-01   1.051898e-02
  2.025883e+00    8.107198e-01   1.051262e-02
  2.028094e+00    8.085591e-01   1.048868e-02
  2.030304e+00    7.970423e-01   1.040395e-02
  2.032515e+00    7.893673e-01   1.034427e-02
  2.034725e+00    7.893511e-01   1.033454e-02
  2.036936e+00    7.752224e-01   1.023218e-02
  2.039146e+00    7.860802e-01   1.029384e-02
  2.041356e+00    7.841721e-01   1.027152e-02
  2.043567e+00    7.808053e-01   1.023998e-02
  2.045777e+00    7.984380e-01   1.034547e-02
  2.047988e+00    7.681279e-01   1.013775e-02
  2.050198e+00    7.641234e-01   1.010279e-02
  2.052409e+00    7.627399e-01   1.008594e-02
  2.054619e+00    7.426399e-01   9.944830e-03
  2.056830e+00    7.478886e-01   9.972733e-03
  2.059040e+00    7.622814e-01   1.006068e-02
  2.061251e+00    7.646670e-01   1.006909e-02
  2.063461e+00    7.694108e-01   1.009257e-02
  2.065671e+00    7.610635e-01   1.002890e-02
  2.067882e+00    7.497691e-01   9.945189e-03
  2.070092e+00    7.636299e-01   1.002740e-02
  2.072303e+00    7.628260e-01   1.001287e-02
  2.074513e+00    7.744929e-01   1.007966e-02
  2.076724e+00    7.616993e-01   9.986499e-03
  2.078934e+00    7.571036e-01   9.947234e-03
  2.081145e+00    7.459834e-01   9.864806e-03
  2.083355e+00    7.685834e-01   1.000377e-02
  2.085566e+00    7.867076e-01   1.011186e-02
  2.087776e+00    8.390241e-01   1.043253e-02
  2.089986e+00    8.562901e-01   1.052990e-02
  2.092197e+00    8.387966e-01   1.041223e-02
  2.094407e+00    8.137999e-01   1.024622e-02
  2.096618e+00    7.755579e-01   9.993454e-03
  2.098828e+00    7.426286e-01   9.769615e-03
  2.101039e+00    7.295665e-01   9.674351e-03
  2.103249e+00    7.350217e-01   9.701757e-03
  2.105460e+00    7.302378e-01   9.661121e-03
  2.107670e+00    7.186451e-01   9.575455e-03
  2.109881e+00    7.168509e-01   9.554397e-03
  2.112091e+00    7.342800e-01   9.660790e-03
  2.114301e+00    7.389129e-01   9.682374e-03
  2.116512e+00    7.283360e-01   9.603996e-03
  2.118722e+00    7.112972e-01   9.482242e-03
  2.120933e+00    7.067103e-01   9.442828e-03
  2.123143e+00    7.145925e-01   9.486464e-03
  2.125354e+00    7.181283e-01   9.501373e-03
  2.127564e+00    7.181941e-01   9.493069e-03
  2.129775e+00    7.174293e-01   9.479263e-03
  2.131985e+00    7.158035e-01   9.459480e-03
  2.134196e+00    7.003100e-01   9.348006e-03
  2.136406e+00    7.033534e-01   9.359621e-03
  2.138617e+00    7.128688e-01   9.414244e-03
  2.140827e+00    7.039183e-01   9.370963e-03
  2.143037e+00    7.141281e-01   9.484367e-03
  2.145248e+00    7.073577e-01   9.461341e-03
  2.147458e+00    7.023732e-01   9.443074e-03
  2.149669e+00    6.871271e-01   9.351719e-03
  2.151879e+00    6.938933e-01   9.406826e-03
  2.154090e+00    7.033311e-01   9.477905e-03
  2.156300e+00    7.031981e-01   9.483629e-03
  2.158511e+00    7.070904e-01   9.515172e-03
  2.160721e+00    6.991004e-01   9.466082e-03
  2.162932e+00    6.856878e-01   9.378541e-03
  2.165142e+00    7.064163e-01   9.522277e-03
  2.167352e+00    6.935958e-01   9.438396e-03
  2.169563e+00    6.956975e-01   9.454620e-03
  2.171773e+00    6.924174e-01   9.434773e-03
  2.173984e+00    6.896886e-01   9.417543e-03
  2.176194e+00    7.011574e-01   9.496756e-03
  2.178405e+00    6.985295e-01   9.479631e-03
  2.180615e+00    6.997496e-01   9.488592e-03
  2.182826e+00    6.999412e-01   9.490575e-03
  2.185036e+00    6.940007e-01   9.450269e-03
  2.187247e+00    6.800143e-01   9.354508e-03
  2.189457e+00    6.854699e-01   9.391544e-03
  2.191667e+00    6.950189e-01   9.456560e-03
  2.193878e+00    6.883243e-01   9.410347e-03
  2.196088e+00    6.747739e-01   9.316578e-03
  2.198299e+00    6.829496e-01   9.371745e-03
  2.200509e+00    6.925237e-01   9.436160e-03
  2.202720e+00    6.852520e-01   9.385334e-03
  2.204930e+00    6.859813e-01   9.389068e-03
  2.207141e+00    6.861256e-01   9.388946e-03
  2.209351e+00    6.898021e-01   9.412169e-03
  2.211562e+00    6.976376e-01   9.463825e-03
  2.213772e+00    6.955300e-01   9.393290e-03
  2.215982e+00    6.919405e-01   9.324288e-03
  2.218193e+00    6.881912e-01   9.269080e-03
  2.220403e+00    6.933354e-01   9.278743e-03
  2.222614e+00    6.855076e-01   9.205085e-03
  2.224824e+00    6.840562e-01   9.175797e-03
  2.227035e+00    6.770989e-01   9.111521e-03
  2.229245e+00    6.824456e-01   9.130309e-03
  2.231456e+00    6.819991e-01   9.111598e-03
  2.233666e+00    6.949698e-01   9.182449e-03
  2.235877e+00    7.003969e-01   9.203671e-03
  2.238087e+00    6.896204e-01   9.118919e-03
  2.240298e+00    6.796372e-01   9.038799e-03
  2.242508e+00    6.656535e-01   8.930231e-03
  2.244718e+00    6.771930e-01   8.991384e-03
  2.246929e+00    6.829570e-01   9.015003e-03
  2.249139e+00    6.872064e-01   9.030440e-03
  2.251350e+00    6.657255e-01   8.876501e-03
  2.253560e+00    6.636289e-01   8.850945e-03
  2.255771e+00    6.675341e-01   8.865537e-03
  2.257981e+00    6.640233e-01   8.831020e-03
  2.260192e+00    6.880141e-01   8.977826e-03
  2.262402e+00    6.635485e-01   8.805942e-03
  2.264613e+00    6.449333e-01   8.670826e-03
  2.266823e+00    6.565810e-01   8.738436e-03
  2.269033e+00    6.600356e-01   8.751040e-03
  2.271244e+00    6.539693e-01   8.700407e-03
  2.273454e+00    6.612777e-01   8.738636e-03
  2.275665e+00    6.667491e-01   8.764368e-03
  2.277875e+00    6.685556e-01   8.766247e-03
  2.280086e+00    6.713815e-01   8.774638e-03
  2.282296e+00    6.498338e-01   8.623340e-03
  2.284507e+00    6.516708e-01   8.625443e-03
  2.286717e+00    6.457350e-01   8.576685e-03
  2.288928e+00    6.603638e-01   8.663407e-03
  2.291138e+00    6.566949e-01   8.629875e-03
  2.293348e+00    6.493141e-01   8.571758e-03
  2.295559e+00    6.575734e-01   8.616759e-03
  2.297769e+00    6.659663e-01   8.662267e-03
  2.299980e+00    6.484630e-01   8.538370e-03
  2.302190e+00    6.628805e-01   8.623554e-03
  2.304401e+00    6.563120e-01   8.571406e-03
  2.306611e+00    6.548383e-01   8.552542e-03
  2.308822e+00    6.573294e-01   8.560363e-03
  2.311032e+00    6.554151e-01   8.541423e-03
  2.313243e+00    6.617836e-01   8.576483e-03
  2.315453e+00    6.592164e-01   8.552209e-03
  2.317663e+00    6.474435e-01   8.466377e-03
  2.319874e+00    6.441248e-01   8.435936e-03
  2.322084e+00    6.453824e-01   8.435190e-03
  2.324295e+00    6.520357e-01   8.470311e-03
  2.326505e+00    6.399905e-01   8.382670e-03
  2.328716e+00    6.482518e-01   8.428033e-03
  2.330926e+00    6.341622e-01   8.327200e-03
  2.333137e+00    6.367684e-01   8.335949e-03
  2.335347e+00    6.530335e-01   8.432790e-03
  2.337558e+00    6.421022e-01   8.353671e-03
  2.339768e+00    6.396466e-01   8.329121e-03
  2.341979e+00    6.405797e-01   8.326805e-03
  2.344189e+00    6.406463e-01   8.318826e-03
  2.346399e+00    6.385918e-01   8.296965e-03
  2.348610e+00    6.484071e-01   8.351951e-03
  2.350820e+00    6.366016e-01   8.267364e-03
  2.353031e+00    6.406185e-01   8.285088e-03
  2.355241e+00    6.402930e-01   8.274879e-03
  2.357452e+00    6.482922e-01   8.317891e-03
  2.359662e+00    6.256443e-01   8.163119e-03
  2.361873e+00    6.322205e-01   8.197665e-03
  2.364083e+00    6.157963e-01   8.082585e-03
  2.366294e+00    6.219221e-01   8.114604e-03
  2.368504e+00    6.256670e-01   8.130943e-03
  2.370714e+00    6.292313e-01   8.145967e-03
  2.372925e+00    6.371859e-01   8.189181e-03
  2.375135e+00    6.397693e-01   8.197616e-03
  2.377346e+00    6.286276e-01   8.117941e-03
  2.379556e+00    6.262730e-01   8.094791e-03
  2.381767e+00    6.354147e-01   8.145726e-03
  2.383977e+00    6.247945e-01   8.069398e-03
  2.386188e+00    6.333365e-01   8.116357e-03
  2.388398e+00    6.416634e-01   8.161454e-03
  2.390609e+00    6.134849e-01   7.972541e-03
  2.392819e+00    5.916080e-01   7.821473e-03
  2.395029e+00    6.128945e-01   7.953278e-03
  2.397240e+00    6.268616e-01   8.035465e-03
  2.399450e+00    6.180909e-01   7.971204e-03
  2.401661e+00    6.175211e-01   7.959831e-03
  2.403871e+00    6.112528e-01   7.911556e-03
  2.406082e+00    5.975508e-01   7.815032e-03
  2.408292e+00    6.182147e-01   7.941136e-03
  2.410503e+00    6.220716e-01   7.958328e-03
  2.412713e+00    6.107812e-01   7.877940e-03
  2.414924e+00    6.077633e-01   7.850964e-03
  2.417134e+00    5.981602e-01   7.781106e-03
  2.419344e+00    5.939091e-01   7.746041e-03
  2.421555e+00    5.986579e-01   7.769470e-03
  2.423765e+00    5.862763e-01   7.681379e-03
  2.425976e+00    5.832930e-01   7.654111e-03
  2.428186e+00    6.013037e-01   7.764149e-03
  2.430397e+00    5.931960e-01   7.704185e-03
  2.432607e+00    6.004849e-01   7.744045e-03
  2.434818e+00    6.010973e-01   7.740439e-03
  2.437028e+00    5.982034e-01   7.714595e-03
  2.439239e+00    5.879801e-01   7.640783e-03
  2.441449e+00    5.890576e-01   7.640588e-03
  2.443659e+00    5.896324e-01   7.636996e-03
  2.445870e+00    5.792419e-01   7.581523e-03
  2.448080e+00    5.925795e-01   7.703403e-03
  2.450291e+00    5.925475e-01   7.720042e-03
  2.452501e+00    5.802119e-01   7.650449e-03
  2.454712e+00    5.751740e-01   7.625623e-03
  2.456922e+00    5.620040e-01   7.544361e-03
  2.459133e+00    5.588619e-01   7.528639e-03
  2.461343e+00    5.494367e-01   7.469179e-03
  2.463554e+00    5.666812e-01   7.588926e-03
  2.465764e+00    5.703311e-01   7.616534e-03
  2.467975e+00    5.509874e-01   7.488491e-03
  2.470185e+00    5.635310e-01   7.575526e-03
  2.472395e+00    5.551530e-01   7.520221e-03
  2.474606e+00    5.531620e-01   7.508291e-03
  2.476816e+00    5.543498e-01   7.517077e-03
  2.479027e+00    5.467074e-01   7.465933e-03
  2.481237e+00    5.398085e-01   7.418947e-03
  2.483448e+00    5.550324e-01   7.523142e-03
  2.485658e+00    5.430950e-01   7.441659e-03
  2.487869e+00    5.475151e-01   7.471917e-03
  2.490079e+00    5.414526e-01   7.429926e-03
  2.492290e+00    5.300882e-01   7.351106e-03
  2.494500e+00    5.363210e-01   7.393460e-03
  2.496710e+00    5.373484e-01   7.399834e-03
  2.498921e+00    5.366012e-01   7.393723e-03
  2.501131e+00    5.172521e-01   7.258229e-03
  2.503342e+00    5.388885e-01   7.407226e-03
  2.505552e+00    5.332856e-01   7.367477e-03
  2.507763e+00    5.427756e-01   7.431300e-03
  2.509973e+00    5.332568e-01   7.364477e-03
  2.512184e+00    5.241604e-01   7.299762e-03
  2.514394e+00    5.255497e-01   7.300097e-03
  2.516605e+00    5.236199e-01   7.239737e-03
  2.518815e+00    5.309815e-01   7.261988e-03
  2.521025e+00    5.294260e-01   7.230311e-03
  2.523236e+00    5.215722e-01   7.158573e-03
  2.525446e+00    5.398129e-01   7.266828e-03
  2.527657e+00    5.358791e-01   7.225589e-03
  2.529867e+00    5.176404e-01   7.087470e-03
  2.532078e+00    5.320215e-01   7.170095e-03
  2.534288e+00    5.299699e-01   7.142316e-03
  2.536499e+00    5.159929e-01   7.035679e-03
  2.538709e+00    5.296040e-01   7.116786e-03
  2.540920e+00    5.307014e-01   7.113462e-03
  2.543130e+00    5.204630e-01   7.034191e-03
  2.545340e+00    5.155694e-01   6.991053e-03
  2.547551e+00    5.236365e-01   7.035568e-03
  2.549761e+00    5.210852e-01   7.008860e-03
  2.551972e+00    5.185768e-01   6.982635e-03
  2.554182e+00    5.175616e-01   6.966660e-03
  2.556393e+00    5.111727e-01   6.914507e-03
  2.558603e+00    5.319251e-01   7.044301e-03
  2.560814e+00    5.160655e-01   6.929818e-03
  2.563024e+00    5.288138e-01   7.006237e-03
  2.565235e+00    5.182210e-01   6.926207e-03
  2.567445e+00    5.151020e-01   6.895819e-03
  2.569656e+00    5.159981e-01   6.892088e-03
  2.571866e+00    5.193779e-01   6.905243e-03
  2.574076e+00    5.157344e-01   6.871728e-03
  2.576287e+00    5.207247e-01   6.896528e-03
  2.578497e+00    5.164049e-01   6.860020e-03
  2.580708e+00    5.214645e-01   6.885403e-03
  2.582918e+00    5.196312e-01   6.865495e-03
  2.585129e+00    5.180255e-01   6.847108e-03
  2.587339e+00    5.227208e-01   6.870322e-03
  2.589550e+00    5.141760e-01   6.806379e-03
  2.591760e+00    5.098906e-01   6.770232e-03
  2.593971e+00    5.023409e-01   6.712471e-03
  2.596181e+00    5.023364e-01   6.706260e-03
  2.598391e+00    5.035693e-01   6.709351e-03
  2.600602e+00    5.065205e-01   6.723067e-03
  2.602812e+00    5.162049e-01   6.779460e-03
  2.605023e+00    5.038821e-01   6.690920e-03
  2.607233e+00    4.957369e-01   6.629555e-03
  2.609444e+00    5.109688e-01   6.723390e-03
  2.611654e+00    5.004908e-01   6.646818e-03
  2.613865e+00    5.049027e-01   6.669027e-03
  2.616075e+00    5.105934e-01   6.699327e-03
  2.618286e+00    5.140297e-01   6.714780e-03
  2.620496e+00    5.138385e-01   6.706785e-03
  2.622706e+00    4.990385e-01   6.603777e-03
  2.624917e+00    5.155337e-01   6.706105e-03
  2.627127e+00    5.077192e-01   6.649352e-03
  2.629338e+00    5.066501e-01   6.636328e-03
  2.631548e+00    5.098878e-01   6.651303e-03
  2.633759e+00    4.981651e-01   6.567282e-03
  2.635969e+00    4.993138e-01   6.568173e-03
  2.638180e+00    5.027489e-01   6.583734e-03
  2.640390e+00    4.992086e-01   6.553922e-03
  2.642601e+00    4.917805e-01   6.498380e-03
  2.644811e+00    4.980043e-01   6.532305e-03
  2.647021e+00    5.038214e-01   6.563758e-03
  2.649232e+00    4.954043e-01   6.502024e-03
  2.651442e+00    5.029116e-01   6.544539e-03
  2.653653e+00    4.933786e-01   6.475503e-03
  2.655863e+00    4.980317e-01   6.499262e-03
  2.658074e+00    5.010008e-01   6.511977e-03
  2.660284e+00    4.941221e-01   6.460781e-03
  2.662495e+00    5.019123e-01   6.504737e-03
  2.664705e+00    4.982105e-01   6.474118e-03
  2.666916e+00    4.995079e-01   6.476071e-03
  2.669126e+00    4.977308e-01   6.458062e-03
  2.671337e+00    5.109177e-01   6.536366e-03
  2.673547e+00    4.950991e-01   6.428021e-03
  2.675757e+00    4.945096e-01   6.417731e-03
  2.677968e+00    4.973880e-01   6.429852e-03
  2.680178e+00    4.951565e-01   6.408983e-03
  2.682389e+00    5.031418e-01   6.454002e-03
  2.684599e+00    5.006082e-01   6.431510e-03
  2.686810e+00    4.865030e-01   6.333678e-03
  2.689020e+00    4.854488e-01   6.320563e-03
  2.691231e+00    4.919910e-01   6.356710e-03
  2.693441e+00    4.913663e-01   6.346518e-03
  2.695652e+00    4.854979e-01   6.302048e-03
  2.697862e+00    4.697001e-01   6.192425e-03
  2.700072e+00    5.004090e-01   6.385508e-03
  2.702283e+00    4.926986e-01   6.329895e-03
  2.704493e+00    4.919268e-01   6.318622e-03
  2.706704e+00    4.931106e-01   6.319795e-03
  2.708914e+00    4.813857e-01   6.238276e-03
  2.711125e+00    4.854785e-01   6.258507e-03
  2.713335e+00    4.848354e-01   6.248285e-03
  2.715546e+00    4.970048e-01   6.319692e-03
  2.717756e+00    4.868165e-01   6.248700e-03
  2.719967e+00    4.735491e-01   6.156823e-03
  2.722177e+00    4.920157e-01   6.269540e-03
  2.724387e+00    4.965202e-01   6.292025e-03
  2.726598e+00    4.809553e-01   6.186591e-03
  2.728808e+00    4.829562e-01   6.193289e-03
  2.731019e+00    4.949567e-01   6.263584e-03
  2.733229e+00    4.880652e-01   6.214004e-03
  2.735440e+00    4.863674e-01   6.196898e-03
  2.737650e+00    4.897872e-01   6.212585e-03
  2.739861e+00    4.933995e-01   6.229322e-03
  2.742071e+00    4.883617e-01   6.191676e-03
  2.744282e+00    4.785860e-01   6.123167e-03
  2.746492e+00    4.804964e-01   6.129343e-03
  2.748702e+00    4.838208e-01   6.144603e-03
  2.750913e+00    4.708209e-01   6.055761e-03
  2.753123e+00    4.726611e-01   6.061521e-03
  2.755334e+00    4.876910e-01   6.151024e-03
  2.757544e+00    4.708103e-01   6.037951e-03
  2.759755e+00    4.868141e-01   6.133791e-03
  2.761965e+00    4.841447e-01   6.110948e-03
  2.764176e+00    4.783128e-01   6.068060e-03
  2.766386e+00    4.712972e-01   6.017644e-03
  2.768597e+00    4.748493e-01   6.034451e-03
  2.770807e+00    4.814498e-01   6.070357e-03
  2.773017e+00    4.836922e-01   6.078466e-03
  2.775228e+00    4.806146e-01   6.053316e-03
  2.777438e+00    4.839958e-01   6.068718e-03
  2.779649e+00    4.880891e-01   6.088393e-03
  2.781859e+00    4.696209e-01   5.966373e-03
  2.784070e+00    4.741050e-01   5.988936e-03
  2.786280e+00    4.714690e-01   5.966550e-03
  2.788491e+00    4.715324e-01   5.961138e-03
  2.790701e+00    4.773951e-01   5.992436e-03
  2.792912e+00    4.767102e-01   5.982157e-03
  2.795122e+00    4.707199e-01   5.938760e-03
  2.797333e+00    4.668472e-01   5.908779e-03
  2.799543e+00    4.766312e-01   5.964491e-03
  2.801753e+00    4.654771e-01   5.888502e-03
  2.803964e+00    4.877367e-01   6.021905e-03
  2.806174e+00    4.957238e-01   6.064754e-03
  2.808385e+00    4.753618e-01   5.932087e-03
  2.810595e+00    4.768114e-01   5.934236e-03
  2.812806e+00    4.802911e-01   5.949210e-03
  2.815016e+00    4.611982e-01   5.825084e-03
  2.817227e+00    4.614375e-01   5.852169e-03
  2.819437e+00    4.707607e-01   5.922035e-03
  2.821648e+00    4.716662e-01   5.930016e-03
  2.823858e+00    4.697393e-01   5.923212e-03
  2.826068e+00    4.782338e-01   5.981529e-03
  2.828279e+00    4.764532e-01   5.974445e-03
  2.830489e+00    4.802617e-01   6.001641e-03
  2.832700e+00    4.629487e-01   5.895012e-03
  2.834910e+00    4.695160e-01   5.938721e-03
  2.837121e+00    4.818897e-01   6.018199e-03
  2.839331e+00    4.797303e-01   6.005951e-03
  2.841542e+00    4.598902e-01   5.881450e-03
  2.843752e+00    4.782055e-01   5.998196e-03
  2.845963e+00    4.824894e-01   6.025431e-03
  2.848173e+00    4.761067e-01   5.985509e-03
  2.850383e+00    4.713550e-01   5.955871e-03
  2.852594e+00    4.721692e-01   5.960944e-03
  2.854804e+00    4.617803e-01   5.894477e-03
  2.857015e+00    4.667311e-01   5.925584e-03
  2.859225e+00    4.686101e-01   5.937218e-03
  2.861436e+00    4.673497e-01   5.928599e-03
  2.863646e+00    4.531418e-01   5.837817e-03
  2.865857e+00    4.524222e-01   5.833507e-03
  2.868067e+00    4.616518e-01   5.892931e-03
  2.870278e+00    4.621149e-01   5.895542e-03
  2.872488e+00    4.656541e-01   5.916896e-03
  2.874698e+00    4.779687e-01   5.993579e-03
  2.876909e+00    4.698831e-01   5.941328e-03
  2.879119e+00    4.714316e-01   5.949467e-03
  2.881330e+00    4.658332e-01   5.912574e-03
  2.883540e+00    4.541814e-01   5.836775e-03
  2.885751e+00    4.608941e-01   5.878101e-03
  2.887961e+00    4.663877e-01   5.911139e-03
  2.890172e+00    4.734787e-01   5.954283e-03
  2.892382e+00    4.621198e-01   5.880635e-03
  2.894593e+00    4.589648e-01   5.858694e-03
  2.896803e+00    4.664896e-01   5.904535e-03
  2.899014e+00    4.866023e-01   6.028509e-03
  2.901224e+00    4.734721e-01   5.944622e-03
  2.903434e+00    4.545411e-01   5.822621e-03
  2.905645e+00    4.586062e-01   5.846375e-03
  2.907855e+00    4.669288e-01   5.897068e-03
  2.910066e+00    4.626794e-01   5.868082e-03
  2.912276e+00    4.629358e-01   5.867589e-03
  2.914487e+00    4.571062e-01   5.828072e-03
  2.916697e+00    4.705682e-01   5.911013e-03
  2.918908e+00    4.590655e-01   5.836324e-03
  2.921118e+00    4.538109e-01   5.800129e-03
  2.923329e+00    4.637083e-01   5.860719e-03
  2.925539e+00    4.593966e-01   5.831115e-03
  2.927749e+00    4.565778e-01   5.810891e-03
  2.929960e+00    4.664130e-01   5.870339e-03
  2.932170e+00    4.499656e-01   5.763596e-03
  2.934381e+00    4.746341e-01   5.916982e-03
  2.936591e+00    4.650744e-01   5.854499e-03
  2.938802e+00    4.585577e-01   5.810612e-03
  2.941012e+00    4.643502e-01   5.844851e-03
  2.943223e+00    4.517469e-01   5.762282e-03
  2.945433e+00    4.711155e-01   5.880733e-03
  2.947644e+00    4.583080e-01   5.796099e-03
  2.949854e+00    4.609773e-01   5.808630e-03
  2.952064e+00    4.803005e-01   5.924815e-03
  2.954275e+00    4.688628e-01   5.849370e-03
  2.956485e+00    4.575944e-01   5.774444e-03
  2.958696e+00    4.597917e-01   5.783898e-03
  2.960906e+00    4.577522e-01   5.766854e-03
  2.963117e+00    4.601297e-01   5.777303e-03
  2.965327e+00    4.516465e-01   5.719912e-03
  2.967538e+00    4.636095e-01   5.792219e-03
  2.969748e+00    4.596570e-01   5.764647e-03
  2.971959e+00    4.664056e-01   5.803637e-03
  2.974169e+00    4.704048e-01   5.825823e-03
  2.976379e+00    4.668941e-01   5.801101e-03
  2.978590e+00    4.628995e-01   5.773069e-03
  2.980800e+00    4.530083e-01   5.708252e-03
  2.983011e+00    4.714086e-01   5.820163e-03
  2.985221e+00    4.717821e-01   5.819275e-03
  2.987432e+00    4.554172e-01   5.714350e-03
  2.989642e+00    4.463814e-01   5.654745e-03
  2.991853e+00    4.605065e-01   5.740231e-03
  2.994063e+00    4.723405e-01   5.810541e-03
  2.996274e+00    4.709096e-01   5.798504e-03
  2.998484e+00    4.600159e-01   5.728323e-03
  3.000694e+00    4.541484e-01   5.688211e-03
  3.002905e+00    4.509944e-01   5.665500e-03
  3.005115e+00    4.679235e-01   5.767812e-03
  3.007326e+00    4.716581e-01   5.787585e-03
  3.009536e+00    4.663759e-01   5.751775e-03
  3.011747e+00    4.570046e-01   5.690783e-03
  3.013957e+00    4.650419e-01   5.737358e-03
  3.016168e+00    4.645224e-01   5.730876e-03
  3.018378e+00    4.524921e-01   5.653136e-03
  3.020589e+00    4.620095e-01   5.709014e-03
  3.022799e+00    4.611157e-01   5.700315e-03
  3.025010e+00    4.523862e-01   5.642867e-03
  3.027220e+00    4.559429e-01   5.661858e-03
  3.029430e+00    4.669646e-01   5.726604e-03
  3.031641e+00    4.559247e-01   5.655363e-03
  3.033851e+00    4.552985e-01   5.647920e-03
  3.036062e+00    4.615868e-01   5.684003e-03
  3.038272e+00    4.618763e-01   5.682162e-03
  3.040483e+00    4.425407e-01   5.558759e-03
  3.042693e+00    4.562950e-01   5.641202e-03
  3.044904e+00    4.647487e-01   5.689123e-03
  3.047114e+00    4.545532e-01   5.621564e-03
  3.049325e+00    4.747346e-01   5.740470e-03
  3.051535e+00    4.583855e-01   5.636380e-03
  3.053745e+00    4.391417e-01   5.512074e-03
  3.055956e+00    4.624590e-01   5.651880e-03
  3.058166e+00    4.663050e-01   5.671002e-03
  3.060377e+00    4.606284e-01   5.631571e-03
  3.062587e+00    4.525245e-01   5.577161e-03
  3.064798e+00    4.595330e-01   5.615868e-03
  3.067008e+00    4.607362e-01   5.618453e-03
  3.069219e+00    4.586194e-01   5.600958e-03
  3.071429e+00    4.581670e-01   5.594662e-03
  3.073640e+00    4.509028e-01   5.546794e-03
  3.075850e+00    4.616426e-01   5.608816e-03
  3.078060e+00    4.633242e-01   5.615886e-03
  3.080271e+00    4.571428e-01   5.574790e-03
  3.082481e+00    4.396747e-01   5.463834e-03
  3.084692e+00    4.406716e-01   5.466658e-03
  3.086902e+00    4.466336e-01   5.500285e-03
  3.089113e+00    4.573510e-01   5.562270e-03
  3.091323e+00    4.536645e-01   5.536426e-03
  3.093534e+00    4.529668e-01   5.528767e-03
  3.095744e+00    4.499590e-01   5.507001e-03
  3.097955e+00    4.509082e-01   5.509246e-03
  3.100165e+00    4.482218e-01   5.489476e-03
  3.102375e+00    4.339386e-01   5.397924e-03
  3.104586e+00    4.379697e-01   5.419490e-03
  3.106796e+00    4.409015e-01   5.434087e-03
  3.109007e+00    4.506298e-01   5.490490e-03
  3.111217e+00    4.387122e-01   5.413732e-03
  3.113428e+00    4.306485e-01   5.360404e-03
  3.115638e+00    4.350677e-01   5.384631e-03
  3.117849e+00    4.438561e-01   5.435026e-03
  3.120059e+00    4.458994e-01   5.444052e-03
  3.122270e+00    4.435134e-01   5.426223e-03
  3.124480e+00    4.506322e-01   5.465881e-03
  3.126691e+00    4.490858e-01   5.452916e-03
  3.128901e+00    4.490895e-01   5.449795e-03
  3.131111e+00    4.507916e-01   5.456258e-03
  3.133322e+00    4.458200e-01   5.422630e-03
  3.135532e+00    4.440549e-01   5.408481e-03
  3.137743e+00    4.490930e-01   5.435591e-03
  3.139953e+00    4.352690e-01   5.347603e-03
  3.142164e+00    4.441015e-01   5.413644e-03
  3.144374e+00    4.459687e-01   5.453502e-03
  3.146585e+00    4.676113e-01   5.599261e-03
  3.148795e+00    4.483159e-01   5.493375e-03
  3.151006e+00    4.384242e-01   5.440939e-03
  3.153216e+00    4.416838e-01   5.468241e-03
  3.155426e+00    4.406140e-01   5.467959e-03
  3.157637e+00    4.226340e-01   5.360619e-03
  3.159847e+00    4.368207e-01   5.454707e-03
  3.162058e+00    4.330883e-01   5.435742e-03
  3.164268e+00    4.393126e-01   5.478716e-03
  3.166479e+00    4.469280e-01   5.529691e-03
  3.168689e+00    4.522429e-01   5.565885e-03
  3.170900e+00    4.512886e-01   5.563234e-03
  3.173110e+00    4.484174e-01   5.548412e-03
  3.175321e+00    4.437390e-01   5.521901e-03
  3.177531e+00    4.377799e-01   5.487429e-03
  3.179741e+00    4.490574e-01   5.559761e-03
  3.181952e+00    4.370346e-01   5.486940e-03
  3.184162e+00    4.434240e-01   5.529119e-03
  3.186373e+00    4.415050e-01   5.518731e-03
  3.188583e+00    4.401857e-01   5.512279e-03
  3.190794e+00    4.410382e-01   5.519375e-03
  3.193004e+00    4.370695e-01   5.495750e-03
  3.195215e+00    4.423664e-01   5.530444e-03
  3.197425e+00    4.366845e-01   5.496033e-03
  3.199636e+00    4.468935e-01   5.559118e-03
  3.201846e+00    4.441673e-01   5.541530e-03
  3.204056e+00    4.496022e-01   5.576248e-03
  3.206267e+00    4.345096e-01   5.482676e-03
  3.208477e+00    4.404887e-01   5.521229e-03
  3.210688e+00    4.365481e-01   5.497308e-03
  3.212898e+00    4.284106e-01   5.446406e-03
  3.215109e+00    4.411954e-01   5.527832e-03
  3.217319e+00    4.300715e-01   5.458341e-03
  3.219530e+00    4.337152e-01   5.481809e-03
  3.221740e+00    4.394973e-01   5.518789e-03
  3.223951e+00    4.298375e-01   5.458290e-03
  3.226161e+00    4.197006e-01   5.393711e-03
  3.228372e+00    4.371572e-01   5.505275e-03
  3.230582e+00    4.304813e-01   5.463230e-03
  3.232792e+00    4.185149e-01   5.386974e-03
  3.235003e+00    4.305421e-01   5.464062e-03
  3.237213e+00    4.297572e-01   5.459206e-03
  3.239424e+00    4.337660e-01   5.484595e-03
  3.241634e+00    4.270637e-01   5.442193e-03
  3.243845e+00    4.221108e-01   5.410609e-03
  3.246055e+00    4.234267e-01   5.418755e-03
  3.248266e+00    4.224357e-01   5.412618e-03
  3.250476e+00    4.283922e-01   5.450336e-03
  3.252687e+00    4.166011e-01   5.374741e-03
  3.254897e+00    4.150780e-01   5.364774e-03
  3.257107e+00    4.302582e-01   5.461677e-03
  3.259318e+00    4.215398e-01   5.405830e-03
  3.261528e+00    4.361569e-01   5.498610e-03
  3.263739e+00    4.491886e-01   5.579583e-03
  3.265949e+00    4.354977e-01   5.493775e-03
  3.268160e+00    4.233939e-01   5.416480e-03
  3.270370e+00    4.198982e-01   5.393561e-03
  3.272581e+00    4.340553e-01   5.483448e-03
  3.274791e+00    4.280875e-01   5.445100e-03
  3.277002e+00    4.339586e-01   5.481735e-03
  3.279212e+00    4.276227e-01   5.441196e-03
  3.281422e+00    4.392697e-01   5.514193e-03
  3.283633e+00    4.342690e-01   5.482046e-03
  3.285843e+00    4.205245e-01   5.394259e-03
  3.288054e+00    4.296357e-01   5.451433e-03
  3.290264e+00    4.305370e-01   5.456825e-03
  3.292475e+00    4.407727e-01   5.520478e-03
  3.294685e+00    4.256696e-01   5.424418e-03
  3.296896e+00    4.258590e-01   5.424884e-03
  3.299106e+00    4.144619e-01   5.351252e-03
  3.301317e+00    4.267130e-01   5.428725e-03
  3.303527e+00    4.247176e-01   5.415543e-03
  3.305737e+00    4.095403e-01   5.316884e-03
  3.307948e+00    4.293349e-01   5.443175e-03
  3.310158e+00    4.191075e-01   5.377123e-03
  3.312369e+00    4.191973e-01   5.376807e-03
  3.314579e+00    4.135420e-01   5.339510e-03
  3.316790e+00    4.326448e-01   5.460730e-03
  3.319000e+00    4.267018e-01   5.421902e-03
  3.321211e+00    4.185756e-01   5.369437e-03
  3.323421e+00    4.210162e-01   5.383849e-03
  3.325632e+00    4.211241e-01   5.383664e-03
  3.327842e+00    4.135160e-01   5.333898e-03
  3.330052e+00    4.268023e-01   5.417830e-03
  3.332263e+00    4.273129e-01   5.420051e-03
  3.334473e+00    4.265196e-01   5.414097e-03
  3.336684e+00    4.330288e-01   5.453985e-03
  3.338894e+00    4.356780e-01   5.469780e-03
  3.341105e+00    4.219615e-01   5.381783e-03
  3.343315e+00    4.089614e-01   5.297105e-03
  3.345526e+00    4.310842e-01   5.437553e-03
  3.347736e+00    4.389403e-01   5.485483e-03
  3.349947e+00    4.213714e-01   5.373630e-03
  3.352157e+00    4.252091e-01   5.396856e-03
  3.354368e+00    4.188996e-01   5.355387e-03
  3.356578e+00    4.149700e-01   5.329176e-03
  3.358788e+00    4.158730e-01   5.333661e-03
  3.360999e+00    4.223586e-01   5.373833e-03
  3.363209e+00    4.062302e-01   5.269229e-03
  3.365420e+00    4.098586e-01   5.291200e-03
  3.367630e+00    4.219584e-01   5.367723e-03
  3.369841e+00    4.220017e-01   5.366551e-03
  3.372051e+00    4.285059e-01   5.405762e-03
  3.374262e+00    4.168326e-01   5.329173e-03
  3.376472e+00    4.385754e-01   5.463879e-03
  3.378683e+00    4.173523e-01   5.327554e-03
  3.380893e+00    4.258885e-01   5.379364e-03
  3.383103e+00    4.260397e-01   5.377613e-03
  3.385314e+00    4.169208e-01   5.317499e-03
  3.387524e+00    4.186859e-01   5.326003e-03
  3.389735e+00    4.060386e-01   5.242350e-03
  3.391945e+00    4.094614e-01   5.260725e-03
  3.394156e+00    4.170135e-01   5.304762e-03
  3.396366e+00    4.321176e-01   5.396521e-03
  3.398577e+00    4.090287e-01   5.247324e-03
  3.400787e+00    3.982973e-01   5.189738e-03
  3.402998e+00    4.106572e-01   5.307763e-03
  3.405208e+00    3.953831e-01   5.228505e-03
  3.407418e+00    4.115617e-01   5.350400e-03
  3.409629e+00    3.997376e-01   5.286928e-03
  3.411839e+00    3.949084e-01   5.266597e-03
  3.414050e+00    4.022443e-01   5.326353e-03
  3.416260e+00    4.081732e-01   5.375258e-03
  3.418471e+00    3.960932e-01   5.304608e-03
  3.420681e+00    3.887263e-01   5.263467e-03
  3.422892e+00    4.016288e-01   5.358218e-03
  3.425102e+00    3.868766e-01   5.266694e-03
  3.427313e+00    3.819433e-01   5.240135e-03
  3.429523e+00    3.841676e-01   5.262383e-03
  3.431733e+00    3.843331e-01   5.270187e-03
  3.433944e+00    3.814891e-01   5.257100e-03
  3.436154e+00    3.874291e-01   5.304153e-03
  3.438365e+00    3.804503e-01   5.262086e-03
  3.440575e+00    3.809725e-01   5.271627e-03
  3.442786e+00    3.947265e-01   5.371653e-03
  3.444996e+00    3.796268e-01   5.273452e-03
  3.447207e+00    3.564225e-01   5.114889e-03
  3.449417e+00    3.717914e-01   5.264824e-03
  3.451628e+00    3.654959e-01   5.249372e-03
  3.453838e+00    3.673300e-01   5.283673e-03
  3.456049e+00    3.610612e-01   5.262095e-03
  3.458259e+00    3.971913e-01   5.541936e-03
  3.460469e+00    3.742207e-01   5.399312e-03
  3.462680e+00    3.821652e-01   5.475785e-03
  3.464890e+00    3.844869e-01   5.510631e-03
  3.467101e+00    3.802361e-01   5.497845e-03
  3.469311e+00    3.842731e-01   5.543797e-03
  3.471522e+00    3.820210e-01   5.544094e-03
  3.473732e+00    3.971515e-01   5.669135e-03
  3.475943e+00    4.196416e-01   5.843889e-03
  3.478153e+00    4.245739e-01   5.894303e-03
  3.480364e+00    4.145222e-01   5.839652e-03
  3.482574e+00    4.334976e-01   5.987698e-03
  3.484784e+00    4.196353e-01   5.906265e-03
  3.486995e+00    4.271354e-01   5.974059e-03
  3.489205e+00    4.286278e-01   5.999288e-03
  3.491416e+00    4.311293e-01   6.031708e-03
  3.493626e+00    4.504513e-01   6.180289e-03
  3.495837e+00    4.379419e-01   6.108554e-03
  3.498047e+00    4.491990e-01   6.201127e-03
  3.500258e+00    4.666189e-01   6.335038e-03
  3.502468e+00    4.699448e-01   6.372250e-03
  3.504679e+00    4.737214e-01   6.412501e-03
  3.506889e+00    4.606785e-01   6.337980e-03
  3.509099e+00    4.606540e-01   6.351975e-03
  3.511310e+00    4.900473e-01   6.566176e-03
  3.513520e+00    4.866210e-01   6.557682e-03
  3.515731e+00    5.045633e-01   6.692114e-03
  3.517941e+00    5.145587e-01   6.772791e-03
  3.520152e+00    5.107673e-01   6.762364e-03
  3.522362e+00    5.288582e-01   6.895934e-03
  3.524573e+00    5.219611e-01   6.865356e-03
  3.526783e+00    5.054484e-01   6.769138e-03
  3.528994e+00    5.335654e-01   6.967321e-03
  3.531204e+00    5.361409e-01   6.996750e-03
  3.533414e+00    5.444492e-01   7.063031e-03
  3.535625e+00    5.473002e-01   7.094099e-03
  3.537835e+00    5.575550e-01   7.172659e-03
  3.540046e+00    5.492339e-01   7.127994e-03
  3.542256e+00    5.405453e-01   7.078927e-03
  3.544467e+00    5.431810e-01   7.103863e-03
  3.546677e+00    5.393898e-01   7.086634e-03
  3.548888e+00    5.282465e-01   7.020454e-03
  3.551098e+00    5.359890e-01   7.079025e-03
  3.553309e+00    5.465968e-01   7.156976e-03
  3.555519e+00    5.400102e-01   7.125073e-03
  3.557729e+00    5.459017e-01   7.175653e-03
  3.559940e+00    5.468249e-01   7.193383e-03
  3.562150e+00    5.371759e-01   7.141375e-03
  3.564361e+00    5.490250e-01   7.233154e-03
  3.566571e+00    5.501251e-01   7.254441e-03
  3.568782e+00    5.462162e-01   7.242861e-03
  3.570992e+00    5.230308e-01   7.101072e-03
  3.573203e+00    5.266626e-01   7.139690e-03
  3.575413e+00    5.468428e-01   7.289094e-03
  3.577624e+00    5.416309e-01   7.268497e-03
  3.579834e+00    5.310175e-01   7.210735e-03
  3.582045e+00    5.542210e-01   7.380847e-03
  3.584255e+00    5.527620e-01   7.385421e-03
  3.586465e+00    5.472932e-01   7.362873e-03
  3.588676e+00    5.410745e-01   7.335177e-03
  3.590886e+00    5.461813e-01   7.383548e-03
  3.593097e+00    5.503506e-01   7.426379e-03
  3.595307e+00    5.415827e-01   7.380976e-03
  3.597518e+00    5.452050e-01   7.419973e-03
  3.599728e+00    5.405609e-01   7.402468e-03
  3.601939e+00    5.424427e-01   7.429490e-03
  3.604149e+00    5.513490e-01   7.504836e-03
  3.606360e+00    5.405034e-01   7.444880e-03
  3.608570e+00    5.410187e-01   7.462677e-03
  3.610780e+00    5.444919e-01   7.497740e-03
  3.612991e+00    5.474862e-01   7.528467e-03
  3.615201e+00    5.427613e-01   7.505752e-03
  3.617412e+00    5.506259e-01   7.567329e-03
  3.619622e+00    5.371236e-01   7.479993e-03
  3.621833e+00    5.347656e-01   7.470182e-03
  3.624043e+00    5.505309e-01   7.589191e-03
  3.626254e+00    5.404282e-01   7.528992e-03
  3.628464e+00    5.544662e-01   7.637302e-03
  3.630675e+00    5.451778e-01   7.587392e-03
  3.632885e+00    5.266891e-01   7.471948e-03
  3.635095e+00    5.270830e-01   7.489008e-03
  3.637306e+00    5.306925e-01   7.528993e-03
  3.639516e+00    5.447965e-01   7.643021e-03
  3.641727e+00    5.618209e-01   7.776487e-03
  3.643937e+00    5.538409e-01   7.735926e-03
  3.646148e+00    5.305235e-01   7.585886e-03
  3.648358e+00    5.476050e-01   7.722097e-03
  3.650569e+00    5.426257e-01   7.701766e-03
  3.652779e+00    5.268491e-01   7.603697e-03
  3.654990e+00    5.223995e-01   7.586227e-03
  3.657200e+00    5.310559e-01   7.663727e-03
  3.659410e+00    5.342424e-01   7.701665e-03
  3.661621e+00    5.449802e-01   7.793978e-03
  3.663831e+00    5.238509e-01   7.656380e-03
  3.666042e+00    5.547642e-01   7.894539e-03
  3.668252e+00    5.500900e-01   7.876751e-03
  3.670463e+00    5.446075e-01   7.852823e-03
  3.672673e+00    5.391071e-01   7.828583e-03
  3.674884e+00    5.639319e-01   8.022657e-03
  3.677094e+00    5.609484e-01   8.017433e-03
  3.679305e+00    5.420669e-01   7.897019e-03
  3.681515e+00    5.573221e-01   8.023365e-03
  3.683726e+00    5.672609e-01   8.111006e-03
  3.685936e+00    5.418718e-01   7.943260e-03
  3.688146e+00    5.447667e-01   7.980485e-03
  3.690357e+00    5.525317e-01   8.053496e-03
  3.692567e+00    5.190463e-01   7.821648e-03
  3.694778e+00    5.302373e-01   7.921590e-03
  3.696988e+00    5.361373e-01   7.981693e-03
  3.699199e+00    5.263235e-01   7.924542e-03
  3.701409e+00    5.350084e-01   8.006216e-03
  3.703620e+00    5.199286e-01   7.908815e-03
  3.705830e+00    5.236810e-01   7.953660e-03
  3.708041e+00    5.159717e-01   7.911389e-03
  3.710251e+00    5.244740e-01   7.992993e-03
  3.712461e+00    5.494937e-01   8.198626e-03
  3.714672e+00    5.102274e-01   7.916830e-03
  3.716882e+00    5.278971e-01   8.069494e-03
  3.719093e+00    5.341473e-01   8.134553e-03
  3.721303e+00    5.213796e-01   8.053726e-03
  3.723514e+00    5.033892e-01   7.930513e-03
  3.725724e+00    5.173878e-01   8.057216e-03
  3.727935e+00    5.215356e-01   8.106936e-03
  3.730145e+00    5.278572e-01   8.173440e-03
  3.732356e+00    5.204298e-01   8.133348e-03
  3.734566e+00    5.353534e-01   8.266974e-03
  3.736776e+00    5.298261e-01   8.242258e-03
  3.738987e+00    5.374776e-01   8.319672e-03
  3.741197e+00    5.121874e-01   8.139600e-03
  3.743408e+00    5.058687e-01   8.107116e-03
  3.745618e+00    5.001832e-01   8.079540e-03
  3.747829e+00    5.289750e-01   8.327181e-03
  3.750039e+00    5.070423e-01   8.171055e-03
  3.752250e+00    5.298073e-01   8.371245e-03
  3.754460e+00    5.297478e-01   8.389696e-03
  3.756671e+00    5.229645e-01   8.354853e-03
  3.758881e+00    5.002067e-01   8.189549e-03
  3.761091e+00    4.983597e-01   8.193331e-03
  3.763302e+00    4.916041e-01   8.156378e-03
  3.765512e+00    5.122342e-01   8.345103e-03
  3.767723e+00    5.223578e-01   8.446781e-03
  3.769933e+00    5.174422e-01   8.426544e-03
  3.772144e+00    4.870711e-01   8.194687e-03
  3.774354e+00    5.136580e-01   8.435328e-03
  3.776565e+00    5.237793e-01   8.538288e-03
  3.778775e+00    5.079867e-01   8.428607e-03
  3.780986e+00    5.079347e-01   8.448557e-03
  3.783196e+00    5.241619e-01   8.603082e-03
  3.785407e+00    5.312488e-01   8.682047e-03
  3.787617e+00    5.136697e-01   8.558230e-03
  3.789827e+00    4.990416e-01   8.455887e-03
  3.792038e+00    5.169493e-01   8.627418e-03
  3.794248e+00    5.197192e-01   8.672080e-03
  3.796459e+00    5.064753e-01   8.582326e-03
  3.798669e+00    5.196396e-01   8.714898e-03
  3.800880e+00    5.189310e-01   8.730796e-03
  3.803090e+00    5.333193e-01   8.873561e-03
  3.805301e+00    5.059496e-01   8.665071e-03
  3.807511e+00    5.162408e-01   8.775116e-03
  3.809722e+00    4.864746e-01   8.540375e-03
  3.811932e+00    4.770806e-01   8.479118e-03
  3.814142e+00    5.011989e-01   8.713776e-03
  3.816353e+00    5.132504e-01   8.841068e-03
  3.818563e+00    5.227016e-01   8.945743e-03
  3.820774e+00    4.952359e-01   8.730693e-03
  3.822984e+00    5.085499e-01   8.870790e-03
  3.825195e+00    4.959370e-01   8.783888e-03
  3.827405e+00    4.930015e-01   8.781548e-03
  3.829616e+00    5.112746e-01   8.967206e-03
  3.831826e+00    5.084590e-01   8.966961e-03
  3.834037e+00    5.166309e-01   9.063677e-03
  3.836247e+00    5.060210e-01   8.995082e-03
  3.838457e+00    4.794370e-01   8.780201e-03
  3.840668e+00    4.970519e-01   8.965218e-03
  3.842878e+00    5.238350e-01   9.229808e-03
  3.845089e+00    4.842767e-01   8.899781e-03
  3.847299e+00    4.948359e-01   9.022027e-03
  3.849510e+00    5.003899e-01   9.098529e-03
  3.851720e+00    5.068520e-01   9.178748e-03
  3.853931e+00    5.035120e-01   9.167594e-03
  3.856141e+00    5.243892e-01   9.375314e-03
  3.858352e+00    4.940782e-01   9.119621e-03
  3.860562e+00    5.113611e-01   9.297322e-03
  3.862772e+00    5.042605e-01   9.252339e-03
  3.864983e+00    4.964129e-01   9.199830e-03
  3.867193e+00    5.089985e-01   9.335743e-03
  3.869404e+00    5.199614e-01   9.456174e-03
  3.871614e+00    4.942716e-01   9.239554e-03
  3.873825e+00    4.913387e-01   9.232371e-03
  3.876035e+00    4.904893e-01   9.244903e-03
  3.878246e+00    4.934644e-01   9.298730e-03
  3.880456e+00    4.804698e-01   9.204098e-03
  3.882667e+00    4.988437e-01   9.407964e-03
  3.884877e+00    5.304136e-01   9.731975e-03
  3.887087e+00    5.021385e-01   9.499351e-03
  3.889298e+00    4.944606e-01   9.456872e-03
  3.891508e+00    4.946790e-01   9.489615e-03
  3.893719e+00    5.076927e-01   9.645128e-03
  3.895929e+00    5.132025e-01   9.729440e-03
  3.898140e+00    5.188280e-01   9.815305e-03
  3.900350e+00    5.008301e-01   9.676011e-03
  3.902561e+00    4.663259e-01   9.368280e-03
  3.904771e+00    5.079714e-01   9.811050e-03
  3.906982e+00    5.180090e-01   9.941670e-03
  3.909192e+00    5.014198e-01   9.815129e-03
  3.911403e+00    4.841088e-01   9.677956e-03
  3.913613e+00    4.829913e-01   9.700906e-03
  3.915823e+00    5.081819e-01   9.986093e-03
  3.918034e+00    5.194372e-01   1.013248e-02
  3.920244e+00    5.319388e-01   1.029103e-02
  3.922455e+00    4.883303e-01   9.896264e-03
  3.924665e+00    4.693119e-01   9.737303e-03
  3.926876e+00    4.991607e-01   1.007968e-02
  3.929086e+00    5.234957e-01   1.036127e-02
  3.931297e+00    5.051517e-01   1.021352e-02
  3.933507e+00    4.998747e-01   1.018936e-02
  3.935718e+00    4.715489e-01   9.924722e-03
  3.937928e+00    4.799070e-01   1.004148e-02
  3.940138e+00    4.604132e-01   9.863921e-03
  3.942349e+00    5.047257e-01   1.035812e-02
  3.944559e+00    4.801704e-01   1.013281e-02
  3.946770e+00    5.036191e-01   1.040794e-02
  3.948980e+00    5.027421e-01   1.043011e-02
  3.951191e+00    5.008595e-01   1.044188e-02
  3.953401e+00    5.156375e-01   1.062709e-02
  3.955612e+00    4.783206e-01   1.026674e-02
  3.957822e+00    4.747165e-01   1.025927e-02
  3.960033e+00    4.917119e-01   1.047402e-02
  3.962243e+00    5.048520e-01   1.064666e-02
  3.964453e+00    5.008506e-01   1.063794e-02
  3.966664e+00    4.630591e-01   1.026141e-02
  3.968874e+00    4.871469e-01   1.055327e-02
  3.971085e+00    5.206683e-01   1.093307e-02
  3.973295e+00    4.938740e-01   1.066969e-02
  3.975506e+00    5.008019e-01   1.076628e-02
  3.977716e+00    4.697086e-01   1.044825e-02
  3.979927e+00    4.692864e-01   1.046535e-02
  3.982137e+00    4.662957e-01   1.045382e-02
  3.984348e+00    4.943174e-01   1.078607e-02
  3.986558e+00    4.717410e-01   1.055893e-02
  3.988768e+00    5.017545e-01   1.091298e-02
  3.990979e+00    5.016325e-01   1.093480e-02
  3.993189e+00    5.067570e-01   1.101413e-02
  3.995400e+00    4.979023e-01   1.094140e-02
  3.997610e+00    4.837669e-01   1.081469e-02
  3.999821e+00    4.463239e-01   1.042374e-02
  4.002031e+00    4.594411e-01   1.061309e-02
  4.004242e+00    4.482501e-01   1.052016e-02
  4.006452e+00    4.862455e-01   1.099630e-02
  4.008663e+00    4.771469e-01   1.093269e-02
  4.010873e+00    4.757223e-01   1.095591e-02
  4.013084e+00    4.622571e-01   1.083979e-02
  4.015294e+00    4.964879e-01   1.127533e-02
  4.017504e+00    4.926339e-01   1.127385e-02
  4.019715e+00    4.763443e-01   1.112799e-02
  4.021925e+00    4.653016e-01   1.104042e-02
  4.024136e+00    4.558751e-01   1.097036e-02
  4.026346e+00    4.873917e-01   1.138746e-02
  4.028557e+00    4.949214e-01   1.151998e-02
  4.030767e+00    4.971355e-01   1.159200e-02
  4.032978e+00    5.273281e-01   1.198716e-02
  4.035188e+00    4.737388e-01   1.140756e-02
  4.037399e+00    4.422617e-01   1.106745e-02
  4.039609e+00    4.722907e-01   1.148417e-02
  4.041819e+00    5.048931e-01   1.192381e-02
  4.044030e+00    4.925582e-01   1.182766e-02
  4.046240e+00    4.865346e-01   1.180515e-02
  4.048451e+00    4.756132e-01   1.172247e-02
  4.050661e+00    4.818499e-01   1.185043e-02
  4.052872e+00    4.678591e-01   1.172904e-02
  4.055082e+00    4.720142e-01   1.183396e-02
  4.057293e+00    4.750529e-01   1.192524e-02
  4.059503e+00    5.091239e-01   1.240160e-02
  4.061714e+00    5.055558e-01   1.241610e-02
  4.063924e+00    5.145744e-01   1.258472e-02
  4.066134e+00    4.938338e-01   1.238683e-02
  4.068345e+00    4.856948e-01   1.234330e-02
  4.070555e+00    4.773463e-01   1.229595e-02
  4.072766e+00    4.736158e-01   1.230798e-02
  4.074976e+00    4.924437e-01   1.261284e-02
  4.077187e+00    4.685258e-01   1.236403e-02
  4.079397e+00    4.787359e-01   1.256166e-02
  4.081608e+00    5.192180e-01   1.315006e-02
  4.083818e+00    5.126327e-01   1.313442e-02
  4.086029e+00    4.844034e-01   1.283497e-02
  4.088239e+00    4.564167e-01   1.252591e-02
  4.090449e+00    4.687243e-01   1.276232e-02
  4.092660e+00    4.633372e-01   1.275853e-02
  4.094870e+00    4.638535e-01   1.283675e-02
  4.097081e+00    4.651633e-01   1.292523e-02
  4.099291e+00    5.008243e-01   1.346699e-02
  4.101502e+00    4.703180e-01   1.309922e-02
  4.103712e+00    4.827368e-01   1.332037e-02
  4.105923e+00    4.931967e-01   1.351614e-02
  4.108133e+00    4.906023e-01   1.353237e-02
  4.110344e+00    4.873805e-01   1.353957e-02
  4.112554e+00    4.882096e-01   1.360455e-02
  4.114764e+00    4.757072e-01   1.348321e-02
  4.116975e+00    4.822139e-01   1.362861e-02
  4.119185e+00    4.585743e-01   1.334437e-02
  4.121396e+00    4.836421e-01   1.376084e-02
  4.123606e+00    4.788617e-01   1.374867e-02
  4.125817e+00    4.634692e-01   1.358286e-02
  4.128027e+00    4.897758e-01   1.402162e-02
  4.130238e+00    4.849869e-01   1.401283e-02
  4.132448e+00    4.717051e-01   1.387943e-02
  4.134659e+00    4.944239e-01   1.427098e-02
  4.136869e+00    4.844587e-01   1.418948e-02
  4.139080e+00    4.979923e-01   1.445119e-02
  4.141290e+00    4.806481e-01   1.426004e-02
  4.143500e+00    5.000309e-01   1.461206e-02
  4.145711e+00    4.736147e-01   1.428701e-02
  4.147921e+00    4.904784e-01   1.460596e-02
  4.150132e+00    4.600987e-01   1.421396e-02
  4.152342e+00    4.919516e-01   1.476883e-02
  4.154553e+00    4.841417e-01   1.472089e-02
  4.156763e+00    4.906846e-01   1.489335e-02
  4.158974e+00    5.147005e-01   1.532997e-02
  4.161184e+00    4.778547e-01   1.484460e-02
  4.163395e+00    5.038040e-01   1.532012e-02
  4.165605e+00    4.962548e-01   1.528375e-02
  4.167815e+00    4.903824e-01   1.527250e-02
  4.170026e+00    4.767258e-01   1.513771e-02
  4.172236e+00    4.887664e-01   1.541034e-02
  4.174447e+00    4.889066e-01   1.549659e-02
  4.176657e+00    4.764500e-01   1.538149e-02
  4.178868e+00    4.956270e-01   1.577682e-02
  4.181078e+00    4.896075e-01   1.576888e-02
  4.183289e+00    5.536530e-01   1.686454e-02
  4.185499e+00    4.861829e-01   1.589725e-02
  4.187710e+00    4.498306e-01   1.538067e-02
  4.189920e+00    4.750979e-01   1.590180e-02
  4.192130e+00    4.783950e-01   1.605461e-02
  4.194341e+00    4.865991e-01   1.629095e-02
  4.196551e+00    4.599553e-01   1.593882e-02
  4.198762e+00    4.450570e-01   1.577839e-02
  4.200972e+00    4.643717e-01   1.622101e-02
  4.203183e+00    5.113475e-01   1.713414e-02
  4.205393e+00    4.885699e-01   1.685959e-02
  4.207604e+00    4.789499e-01   1.680693e-02
  4.209814e+00    5.146205e-01   1.754059e-02
  4.212025e+00    4.961805e-01   1.734576e-02
  4.214235e+00    5.029451e-01   1.758750e-02
  4.216445e+00    4.405719e-01   1.657986e-02
  4.218656e+00    3.719184e-01   1.534759e-02
  4.220866e+00    4.372585e-01   1.676395e-02
  4.223077e+00    5.355623e-01   1.869606e-02
  4.225287e+00    4.454763e-01   1.718548e-02
  4.227498e+00    4.834826e-01   1.804408e-02
  4.229708e+00    4.693735e-01   1.792305e-02
  4.231919e+00    4.470265e-01   1.763616e-02
  4.234129e+00    4.926279e-01   1.866890e-02
  4.236340e+00    5.219947e-01   1.938190e-02
  4.238550e+00    5.018131e-01   1.917134e-02
  4.240761e+00    5.078306e-01   1.945615e-02
  4.242971e+00    4.773969e-01   1.903717e-02
  4.245181e+00    4.732087e-01   1.913136e-02
  4.247392e+00    4.636023e-01   1.911326e-02
  4.249602e+00    4.662419e-01   1.935820e-02
  4.251813e+00    4.014602e-01   1.813981e-02
  4.254023e+00    4.321025e-01   1.900879e-02
  4.256234e+00    4.810296e-01   2.027079e-02
  4.258444e+00    4.952778e-01   2.078382e-02
  4.260655e+00    4.841435e-01   2.077528e-02
  4.262865e+00    4.958104e-01   2.126188e-02
  4.265076e+00    4.886282e-01   2.134764e-02
  4.267286e+00    5.148315e-01   2.217275e-02
  4.269496e+00    4.312868e-01   2.054156e-02
  4.271707e+00    4.424123e-01   2.106167e-02
  4.273917e+00    4.710066e-01   2.201270e-02
  4.276128e+00    5.093335e-01   2.319506e-02
  4.278338e+00    5.009047e-01   2.330931e-02
  4.280549e+00    4.394556e-01   2.214630e-02
  4.282759e+00    4.743378e-01   2.333822e-02
  4.284970e+00    4.922453e-01   2.412743e-02
  4.287180e+00    4.399334e-01   2.308234e-02
  4.289391e+00    5.054654e-01   2.492742e-02
  4.291601e+00    5.764055e-01   2.683269e-02
  4.293811e+00    4.915533e-01   2.497239e-02
  4.296022e+00    3.794077e-01   2.211612e-02
  4.298232e+00    4.352935e-01   2.388705e-02
  4.300443e+00    4.278071e-01   2.387605e-02
  4.302653e+00    3.825468e-01   2.277336e-02
  4.304864e+00    4.822311e-01   2.578984e-02
  4.307074e+00    4.462884e-01   2.503392e-02
  4.309285e+00    4.865898e-01   2.637698e-02
  4.311495e+00    5.508164e-01   2.832590e-02
  4.313706e+00    5.220301e-01   2.783519e-02
  4.315916e+00    5.832973e-01   2.971296e-02
  4.318126e+00    5.118239e-01   2.810868e-02
  4.320337e+00    4.413602e-01   2.636625e-02
  4.322547e+00    4.865585e-01   2.797644e-02
  4.324758e+00    5.337543e-01   2.960674e-02
  4.326968e+00    5.434797e-01   3.021243e-02
  4.329179e+00    5.002565e-01   2.930474e-02
  4.331389e+00    5.228037e-01   3.030312e-02
  4.333600e+00    4.956843e-01   2.985987e-02
  4.335810e+00    4.365818e-01   2.835647e-02
  4.338021e+00    4.790284e-01   3.008187e-02
  4.340231e+00    5.647732e-01   3.307436e-02
  4.342442e+00    4.491764e-01   2.989195e-02
  4.344652e+00    3.844016e-01   2.802873e-02
  4.346862e+00    3.807836e-01   2.828608e-02
  4.349073e+00    3.452319e-01   2.732462e-02
  4.351283e+00    4.653030e-01   3.219729e-02
  4.353494e+00    4.925144e-01   3.363659e-02
  4.355704e+00    5.437541e-01   3.591280e-02
  4.357915e+00    4.434580e-01   3.297227e-02
  4.360125e+00    4.131335e-01   3.236803e-02
  4.362336e+00    4.791724e-01   3.549372e-02
  4.364546e+00    5.276845e-01   3.792598e-02
  4.366757e+00    3.953461e-01   3.348010e-02
  4.368967e+00    4.341400e-01   3.578479e-02
  4.371177e+00    6.169792e-01   4.356504e-02
  4.373388e+00    4.999063e-01   4.009377e-02
  4.375598e+00    3.261066e-01   3.312059e-02
  4.377809e+00    4.403875e-01   3.946147e-02
  4.380019e+00    4.866630e-01   4.252601e-02
  4.382230e+00    5.283051e-01   4.554720e-02
  4.384440e+00    4.194429e-01   4.174950e-02
  4.386651e+00    5.086830e-01   4.739827e-02
  4.388861e+00    4.364535e-01   4.537157e-02
  4.391072e+00    5.107431e-01   5.081100e-02
  4.393282e+00    4.694760e-01   5.059772e-02
  4.395492e+00    4.984752e-01   5.430377e-02
  4.397703e+00    4.612643e-01   5.462576e-02
  4.399913e+00    5.353026e-01   6.182509e-02
  4.402124e+00    1.756432e-01   3.742351e-02
  4.404334e+00    4.781336e-01   6.562995e-02
  4.406545e+00    1.442443e-01   3.873357e-02
  4.408755e+00    3.829381e-01   6.844151e-02
  4.410966e+00    6.439646e-01   9.822784e-02
  4.413176e+00    4.435688e-01   9.228554e-02
  4.415387e+00   -6.375256e-01            nan
  4.417597e+00   -1.672068e+00            nan
  4.419807e+00   -3.766224e-01            nan
