# == pyFAI calibration ==
# Distance Sample to Detector: 0.216 m
# PONI: 1.166e-01, 1.308e-01 m
# Rotations: 0.000000 0.000000 0.000000 rad
# 
# == Fit2d calibration ==
# Distance Sample-beamCenter: 216.000 mm
# Center: x=1744.293, y=1555.000 pix
# Tilt: 0.000 deg  TiltPlanRot: 0.000 deg
# 
# Detector Eiger 9M	 PixelSize= 7.500e-05, 7.500e-05 m
#    Detector has a mask: True 
#    Detector has a dark current: False 
#    detector has a flat field: False 
# 
# Wavelength: 9.8e-11 m
# Mask applied: from detector
# Dark current applied: False
# Flat field applied: False
# Polarization factor: None
# Normalization factor: 1.0
# 
# Headers of the input frame:
# {
# "_array_data.header_convention": "SLS_1.0",
# "_array_data.header_contents": "# Detector: Dectris Eiger 9M, S/N E-18-0102\r\n# Pixel_size 75e-6 m x 75e-6 m\r\n# Silicon sensor, thickness 0.000450 m\r\n# Exposure_time 0.024997 s\r\n# Exposure_period 0.025000 s\r\n# Count_cutoff 62318 counts\r\n# Wavelength 0.980106 A\r\n# Detector_distance 0.215992 m\r\n# Beam_xy (1555, 1744) pixels\r\n# Start_angle 0.000000 deg.\r\n# Angle_increment 0.000000 deg.",
# "Content-Type": "application/octet-stream;",
# "conversions": "x-CBF_BYTE_OFFSET",
# "Content-Transfer-Encoding": "BINARY",
# "X-Binary-Size": "10166622",
# "X-Binary-ID": "1",
# "X-Binary-Element-Type": "signed 32-bit integer",
# "X-Binary-Element-Byte-Order": "LITTLE_ENDIAN",
# "Content-MD5": "KS59QzJPZRZa1wIEX6+u3A==",
# "X-Binary-Number-of-Elements": "10166590",
# "X-Binary-Size-Fastest-Dimension": "3110",
# "X-Binary-Size-Second-Dimension": "3269",
# "X-Binary-Size-Padding": "4095"
# }
# --> H:/Proxima2a_2019-04-05/RAW_DATA/C5_gel17_position5/C5_mesh_1_data.cbf/C5_mesh_1_data.cbf000095.dat
#        q_A^-1              I           sigma 
  1.105228e-03    1.972283e+00   7.599265e-01
  3.315685e-03    1.906279e+00   4.541911e-01
  5.526141e-03    1.684935e+00   3.301899e-01
  7.736597e-03    1.477493e+00   2.612059e-01
  9.947054e-03    1.179380e+00   2.057328e-01
  1.215751e-02    1.366397e+00   2.002428e-01
  1.436797e-02    1.642826e+00   2.019629e-01
  1.657842e-02    1.615793e+00   1.864392e-01
  1.878888e-02    1.595426e+00   1.740211e-01
  2.099934e-02    1.576504e+00   1.636626e-01
  2.320979e-02    1.596622e+00   1.566513e-01
  2.542025e-02    1.442569e+00   1.422911e-01
  2.763070e-02    1.420926e+00   1.354491e-01
  2.984116e-02    1.364092e+00   1.277022e-01
  3.205162e-02    1.221372e+00   1.166032e-01
  3.426207e-02    1.419637e+00   1.215804e-01
  3.647253e-02    1.534503e+00   1.225106e-01
  3.868299e-02    1.381430e+00   1.128782e-01
  4.089344e-02    1.378092e+00   1.096528e-01
  4.310390e-02    1.550720e+00   1.132897e-01
  4.531436e-02    1.533904e+00   1.098917e-01
  4.752481e-02    1.542179e+00   1.075936e-01
  4.973527e-02    1.437189e+00   1.015334e-01
  5.194572e-02    1.416993e+00   9.864766e-02
  5.415618e-02    1.490742e+00   9.909233e-02
  5.636664e-02    1.491192e+00   9.714756e-02
  5.857709e-02    1.575745e+00   9.796196e-02
  6.078755e-02    1.508407e+00   9.408419e-02
  6.299801e-02    1.539059e+00   9.335211e-02
  6.520846e-02    1.527333e+00   9.140661e-02
  6.741892e-02    1.533845e+00   9.008253e-02
  6.962938e-02    1.517241e+00   8.816449e-02
  7.183983e-02    1.427031e+00   8.417611e-02
  7.405029e-02    1.419611e+00   8.269247e-02
  7.626074e-02    1.477965e+00   8.314236e-02
  7.847120e-02    1.558555e+00   8.416569e-02
  8.068166e-02    1.477664e+00   8.082136e-02
  8.289211e-02    1.483955e+00   7.990558e-02
  8.510257e-02    1.503797e+00   7.938603e-02
  8.731303e-02    1.549180e+00   7.954551e-02
  8.952348e-02    1.590127e+00   7.959092e-02
  9.173394e-02    1.545439e+00   7.751039e-02
  9.394439e-02    1.461621e+00   7.448462e-02
  9.615485e-02    1.513794e+00   7.492438e-02
  9.836531e-02    1.577849e+00   7.562668e-02
  1.005758e-01    1.550993e+00   7.415225e-02
  1.027862e-01    1.543592e+00   7.317355e-02
  1.049967e-01    1.513443e+00   7.168742e-02
  1.072071e-01    1.477929e+00   7.010638e-02
  1.094176e-01    1.619585e+00   7.264306e-02
  1.116280e-01    1.687096e+00   7.340230e-02
  1.138385e-01    1.549034e+00   6.964722e-02
  1.160490e-01    1.567756e+00   6.939548e-02
  1.182594e-01    1.606361e+00   6.958360e-02
  1.204699e-01    1.582293e+00   6.842332e-02
  1.226803e-01    1.626084e+00   6.873309e-02
  1.248908e-01    1.556157e+00   6.664050e-02
  1.271012e-01    1.593403e+00   6.684302e-02
  1.293117e-01    1.607349e+00   6.655779e-02
  1.315222e-01    1.642949e+00   6.672143e-02
  1.337326e-01    1.684490e+00   6.699769e-02
  1.359431e-01    1.679684e+00   6.694122e-02
  1.381535e-01    1.626547e+00   6.675808e-02
  1.403640e-01    1.639457e+00   6.731187e-02
  1.425744e-01    1.625393e+00   6.712961e-02
  1.447849e-01    1.671735e+00   6.809554e-02
  1.469953e-01    1.655845e+00   6.772871e-02
  1.492058e-01    1.633118e+00   6.718411e-02
  1.514163e-01    1.640180e+00   6.721743e-02
  1.536267e-01    1.588737e+00   6.602575e-02
  1.558372e-01    1.658482e+00   6.731052e-02
  1.580476e-01    1.711372e+00   6.820945e-02
  1.602581e-01    1.673348e+00   6.727614e-02
  1.624685e-01    1.719219e+00   6.800533e-02
  1.646790e-01    1.611306e+00   6.564739e-02
  1.668895e-01    1.699706e+00   6.722938e-02
  1.690999e-01    1.752909e+00   6.806845e-02
  1.713104e-01    1.784338e+00   6.846285e-02
  1.735208e-01    1.851713e+00   6.952655e-02
  1.757313e-01    1.893947e+00   7.009458e-02
  1.779417e-01    1.855182e+00   6.914730e-02
  1.801522e-01    1.820752e+00   6.828444e-02
  1.823626e-01    1.863895e+00   6.885874e-02
  1.845731e-01    1.916919e+00   6.960509e-02
  1.867836e-01    1.938769e+00   6.976443e-02
  1.889940e-01    1.993017e+00   7.050261e-02
  1.912045e-01    1.949901e+00   6.950293e-02
  1.934149e-01    2.098086e+00   7.185425e-02
  1.956254e-01    2.012441e+00   7.014034e-02
  1.978358e-01    2.057532e+00   7.067870e-02
  2.000463e-01    2.108507e+00   7.131178e-02
  2.022568e-01    2.010868e+00   6.941251e-02
  2.044672e-01    1.971130e+00   6.848782e-02
  2.066777e-01    1.996897e+00   6.870519e-02
  2.088881e-01    2.003276e+00   6.858971e-02
  2.110986e-01    2.086017e+00   6.975180e-02
  2.133090e-01    2.098472e+00   6.973233e-02
  2.155195e-01    2.097676e+00   6.948784e-02
  2.177300e-01    2.096982e+00   6.893052e-02
  2.199404e-01    2.090417e+00   6.700908e-02
  2.221509e-01    2.111968e+00   6.624764e-02
  2.243613e-01    2.014651e+00   6.388306e-02
  2.265718e-01    2.057009e+00   6.383966e-02
  2.287822e-01    2.062099e+00   6.328590e-02
  2.309927e-01    2.092614e+00   6.317170e-02
  2.332031e-01    2.161751e+00   6.365721e-02
  2.354136e-01    2.181231e+00   6.342515e-02
  2.376241e-01    2.202211e+00   6.323478e-02
  2.398345e-01    2.306737e+00   6.423908e-02
  2.420450e-01    2.254095e+00   6.304806e-02
  2.442554e-01    2.215873e+00   6.208057e-02
  2.464659e-01    2.160197e+00   6.088416e-02
  2.486763e-01    2.139653e+00   6.019567e-02
  2.508868e-01    2.122058e+00   5.956948e-02
  2.530973e-01    2.127664e+00   5.927831e-02
  2.553077e-01    2.088837e+00   5.837866e-02
  2.575182e-01    2.135080e+00   5.867213e-02
  2.597286e-01    2.119459e+00   5.811727e-02
  2.619391e-01    2.155463e+00   5.827140e-02
  2.641495e-01    2.122014e+00   5.749752e-02
  2.663600e-01    2.089622e+00   5.674322e-02
  2.685704e-01    2.040316e+00   5.576584e-02
  2.707809e-01    2.080292e+00   5.601059e-02
  2.729914e-01    2.091493e+00   5.586851e-02
  2.752018e-01    2.050733e+00   5.503351e-02
  2.774123e-01    2.039270e+00   5.459914e-02
  2.796227e-01    2.039461e+00   5.433161e-02
  2.818332e-01    2.001512e+00   5.355525e-02
  2.840436e-01    2.064035e+00   5.412167e-02
  2.862541e-01    2.065681e+00   5.388299e-02
  2.884646e-01    2.015309e+00   5.296938e-02
  2.906750e-01    1.980493e+00   5.226085e-02
  2.928855e-01    1.988403e+00   5.212248e-02
  2.950959e-01    1.992932e+00   5.194210e-02
  2.973064e-01    1.941620e+00   5.103866e-02
  2.995168e-01    1.933995e+00   5.070762e-02
  3.017273e-01    1.921245e+00   5.031737e-02
  3.039377e-01    1.936488e+00   5.029540e-02
  3.061482e-01    1.891196e+00   4.948872e-02
  3.083587e-01    1.961227e+00   5.017853e-02
  3.105691e-01    1.870196e+00   4.879089e-02
  3.127796e-01    1.891490e+00   4.886156e-02
  3.149900e-01    1.966054e+00   4.960778e-02
  3.172005e-01    1.980380e+00   4.958461e-02
  3.194109e-01    1.960086e+00   4.912626e-02
  3.216214e-01    1.868423e+00   4.776810e-02
  3.238319e-01    1.889255e+00   4.784336e-02
  3.260423e-01    1.860375e+00   4.728716e-02
  3.282528e-01    1.868702e+00   4.720419e-02
  3.304632e-01    1.877762e+00   4.713518e-02
  3.326737e-01    1.889577e+00   4.709874e-02
  3.348841e-01    1.867694e+00   4.664366e-02
  3.370946e-01    1.933095e+00   4.727473e-02
  3.393050e-01    1.956865e+00   4.738435e-02
  3.415155e-01    1.898798e+00   4.650051e-02
  3.437260e-01    1.882216e+00   4.612543e-02
  3.459364e-01    1.866966e+00   4.576826e-02
  3.481469e-01    1.848317e+00   4.537287e-02
  3.503573e-01    1.930676e+00   4.620380e-02
  3.525678e-01    1.882634e+00   4.546275e-02
  3.547782e-01    1.866574e+00   4.510479e-02
  3.569887e-01    1.812581e+00   4.429016e-02
  3.591992e-01    1.879435e+00   4.493996e-02
  3.614096e-01    1.863060e+00   4.458864e-02
  3.636201e-01    1.817179e+00   4.388142e-02
  3.658305e-01    1.826863e+00   4.384813e-02
  3.680410e-01    1.774277e+00   4.306380e-02
  3.702514e-01    1.850707e+00   4.383362e-02
  3.724619e-01    1.823853e+00   4.336628e-02
  3.746724e-01    1.875986e+00   4.383494e-02
  3.768828e-01    1.887667e+00   4.382326e-02
  3.790933e-01    1.864794e+00   4.341501e-02
  3.813037e-01    1.859261e+00   4.320872e-02
  3.835142e-01    1.825338e+00   4.267212e-02
  3.857246e-01    1.853791e+00   4.286421e-02
  3.879351e-01    1.852488e+00   4.271049e-02
  3.901455e-01    1.821567e+00   4.221769e-02
  3.923560e-01    1.827428e+00   4.215115e-02
  3.945665e-01    1.778460e+00   4.145073e-02
  3.967769e-01    1.786120e+00   4.140978e-02
  3.989874e-01    1.831410e+00   4.180058e-02
  4.011978e-01    1.828260e+00   4.163619e-02
  4.034083e-01    1.815611e+00   4.136452e-02
  4.056187e-01    1.859654e+00   4.173428e-02
  4.078292e-01    1.773488e+00   4.063260e-02
  4.100397e-01    1.777321e+00   4.055229e-02
  4.122501e-01    1.837263e+00   4.110708e-02
  4.144606e-01    1.839381e+00   4.100882e-02
  4.166710e-01    1.837400e+00   4.086484e-02
  4.188815e-01    1.861682e+00   4.101248e-02
  4.210919e-01    1.823292e+00   4.046848e-02
  4.233024e-01    1.794125e+00   4.002541e-02
  4.255128e-01    1.778634e+00   3.973704e-02
  4.277233e-01    1.847574e+00   4.038344e-02
  4.299338e-01    1.839105e+00   4.017488e-02
  4.321442e-01    1.776884e+00   3.937642e-02
  4.343547e-01    1.806096e+00   3.958650e-02
  4.365651e-01    1.820547e+00   3.963165e-02
  4.387756e-01    1.769063e+00   3.895786e-02
  4.409860e-01    1.797407e+00   3.915991e-02
  4.431965e-01    1.765786e+00   3.870660e-02
  4.454070e-01    1.782513e+00   3.878129e-02
  4.476174e-01    1.771695e+00   3.855728e-02
  4.498279e-01    1.759116e+00   3.831564e-02
  4.520383e-01    1.786714e+00   3.850904e-02
  4.542488e-01    1.744677e+00   3.795074e-02
  4.564592e-01    1.760527e+00   3.802045e-02
  4.586697e-01    1.734213e+00   3.763509e-02
  4.608801e-01    1.772993e+00   3.795162e-02
  4.630906e-01    1.760506e+00   3.771762e-02
  4.653011e-01    1.710906e+00   3.708472e-02
  4.675115e-01    1.686327e+00   3.672041e-02
  4.697220e-01    1.685394e+00   3.661412e-02
  4.719324e-01    1.703765e+00   3.671792e-02
  4.741429e-01    1.710389e+00   3.669442e-02
  4.763533e-01    1.756333e+00   3.708867e-02
  4.785638e-01    1.773103e+00   3.716905e-02
  4.807743e-01    1.785578e+00   3.720473e-02
  4.829847e-01    1.766089e+00   3.690765e-02
  4.851952e-01    1.726588e+00   3.640024e-02
  4.874056e-01    1.699432e+00   3.602178e-02
  4.896161e-01    1.724030e+00   3.619157e-02
  4.918265e-01    1.724508e+00   3.610669e-02
  4.940370e-01    1.735518e+00   3.613234e-02
  4.962475e-01    1.757343e+00   3.626905e-02
  4.984579e-01    1.727778e+00   3.587401e-02
  5.006684e-01    1.747839e+00   3.599372e-02
  5.028788e-01    1.716662e+00   3.558481e-02
  5.050893e-01    1.712760e+00   3.545790e-02
  5.072997e-01    1.744609e+00   3.569963e-02
  5.095102e-01    1.674716e+00   3.489346e-02
  5.117206e-01    1.674575e+00   3.480898e-02
  5.139311e-01    1.708063e+00   3.507215e-02
  5.161416e-01    1.677864e+00   3.467857e-02
  5.183520e-01    1.701938e+00   3.484344e-02
  5.205625e-01    1.683593e+00   3.457401e-02
  5.227729e-01    1.694568e+00   3.460557e-02
  5.249834e-01    1.742257e+00   3.500769e-02
  5.271938e-01    1.764127e+00   3.514453e-02
  5.294043e-01    1.771917e+00   3.514077e-02
  5.316148e-01    1.777143e+00   3.511193e-02
  5.338252e-01    1.806106e+00   3.531600e-02
  5.360357e-01    1.814092e+00   3.531342e-02
  5.382461e-01    1.838242e+00   3.546734e-02
  5.404566e-01    1.796222e+00   3.497985e-02
  5.426670e-01    1.765754e+00   3.460377e-02
  5.448775e-01    1.774216e+00   3.460908e-02
  5.470879e-01    1.779152e+00   3.457990e-02
  5.492984e-01    1.803645e+00   3.473969e-02
  5.515089e-01    1.770574e+00   3.434340e-02
  5.537193e-01    1.764857e+00   3.421236e-02
  5.559298e-01    1.797217e+00   3.444885e-02
  5.581402e-01    1.823514e+00   3.462416e-02
  5.603507e-01    1.796954e+00   3.429628e-02
  5.625611e-01    1.810781e+00   3.435325e-02
  5.647716e-01    1.804126e+00   3.421562e-02
  5.669821e-01    1.848684e+00   3.456090e-02
  5.691925e-01    1.839206e+00   3.439821e-02
  5.714030e-01    1.795532e+00   3.391488e-02
  5.736134e-01    1.755016e+00   3.345874e-02
  5.758239e-01    1.775774e+00   3.358417e-02
  5.780343e-01    1.698565e+00   3.277650e-02
  5.802448e-01    1.680371e+00   3.253222e-02
  5.824552e-01    1.655433e+00   3.222218e-02
  5.846657e-01    1.654472e+00   3.214568e-02
  5.868762e-01    1.663062e+00   3.216191e-02
  5.890866e-01    1.653585e+00   3.200361e-02
  5.912971e-01    1.657229e+00   3.197252e-02
  5.935075e-01    1.667990e+00   3.200985e-02
  5.957180e-01    1.694886e+00   3.220072e-02
  5.979284e-01    1.616606e+00   3.138411e-02
  6.001389e-01    1.646143e+00   3.160502e-02
  6.023494e-01    1.633262e+00   3.141721e-02
  6.045598e-01    1.659924e+00   3.160813e-02
  6.067703e-01    1.664935e+00   3.159213e-02
  6.089807e-01    1.694858e+00   3.181069e-02
  6.111912e-01    1.679713e+00   3.160500e-02
  6.134016e-01    1.734811e+00   3.205511e-02
  6.156121e-01    1.726182e+00   3.191173e-02
  6.178226e-01    1.697564e+00   3.158344e-02
  6.200330e-01    1.732978e+00   3.184823e-02
  6.222435e-01    1.732556e+00   3.178127e-02
  6.244539e-01    1.728017e+00   3.167748e-02
  6.266644e-01    1.729871e+00   3.163263e-02
  6.288748e-01    1.761674e+00   3.185996e-02
  6.310853e-01    1.725266e+00   3.146780e-02
  6.332957e-01    1.756143e+00   3.168684e-02
  6.355062e-01    1.750983e+00   3.157880e-02
  6.377167e-01    1.732246e+00   3.134911e-02
  6.399271e-01    1.741077e+00   3.136869e-02
  6.421376e-01    1.720347e+00   3.112189e-02
  6.443480e-01    1.741576e+00   3.125373e-02
  6.465585e-01    1.761059e+00   3.136854e-02
  6.487689e-01    1.734255e+00   3.107013e-02
  6.509794e-01    1.677996e+00   3.050438e-02
  6.531899e-01    1.658180e+00   3.026670e-02
  6.554003e-01    1.632764e+00   2.997736e-02
  6.576108e-01    1.671578e+00   3.027511e-02
  6.598212e-01    1.658663e+00   3.010190e-02
  6.620317e-01    1.659168e+00   3.005067e-02
  6.642421e-01    1.638963e+00   2.981189e-02
  6.664526e-01    1.626543e+00   2.964399e-02
  6.686630e-01    1.640349e+00   2.971449e-02
  6.708735e-01    1.653098e+00   2.977503e-02
  6.730840e-01    1.618999e+00   2.941261e-02
  6.752944e-01    1.593433e+00   2.912640e-02
  6.775049e-01    1.602213e+00   2.915349e-02
  6.797153e-01    1.613765e+00   2.920542e-02
  6.819258e-01    1.638084e+00   2.937159e-02
  6.841362e-01    1.627846e+00   2.922701e-02
  6.863467e-01    1.647578e+00   2.935095e-02
  6.885572e-01    1.646277e+00   2.928679e-02
  6.907676e-01    1.654084e+00   2.930355e-02
  6.929781e-01    1.621710e+00   2.896380e-02
  6.951885e-01    1.606147e+00   2.877342e-02
  6.973990e-01    1.667052e+00   2.926205e-02
  6.996094e-01    1.630687e+00   2.889023e-02
  7.018199e-01    1.644225e+00   2.895898e-02
  7.040303e-01    1.631498e+00   2.879603e-02
  7.062408e-01    1.641120e+00   2.883022e-02
  7.084513e-01    1.634534e+00   2.872227e-02
  7.106617e-01    1.643657e+00   2.875226e-02
  7.128722e-01    1.611343e+00   2.841898e-02
  7.150826e-01    1.608956e+00   2.834897e-02
  7.172931e-01    1.599019e+00   2.821258e-02
  7.195035e-01    1.578746e+00   2.798496e-02
  7.217140e-01    1.578677e+00   2.803386e-02
  7.239245e-01    1.606673e+00   2.851036e-02
  7.261349e-01    1.597633e+00   2.853947e-02
  7.283454e-01    1.627662e+00   2.888002e-02
  7.305558e-01    1.631685e+00   2.897068e-02
  7.327663e-01    1.593235e+00   2.867003e-02
  7.349767e-01    1.577426e+00   2.854384e-02
  7.371872e-01    1.573533e+00   2.849739e-02
  7.393976e-01    1.612479e+00   2.883349e-02
  7.416081e-01    1.603119e+00   2.873336e-02
  7.438186e-01    1.591596e+00   2.848482e-02
  7.460290e-01    1.607602e+00   2.833037e-02
  7.482395e-01    1.601389e+00   2.810298e-02
  7.504499e-01    1.606729e+00   2.801213e-02
  7.526604e-01    1.560608e+00   2.749114e-02
  7.548708e-01    1.584845e+00   2.761408e-02
  7.570813e-01    1.592128e+00   2.762619e-02
  7.592918e-01    1.633732e+00   2.794899e-02
  7.615022e-01    1.647448e+00   2.803150e-02
  7.637127e-01    1.601999e+00   2.760909e-02
  7.659231e-01    1.578442e+00   2.737327e-02
  7.681336e-01    1.614082e+00   2.764859e-02
  7.703440e-01    1.624726e+00   2.770790e-02
  7.725545e-01    1.616763e+00   2.760862e-02
  7.747650e-01    1.645703e+00   2.781558e-02
  7.769754e-01    1.625738e+00   2.759279e-02
  7.791859e-01    1.641726e+00   2.767355e-02
  7.813963e-01    1.639930e+00   2.760481e-02
  7.836068e-01    1.620190e+00   2.738558e-02
  7.858172e-01    1.599136e+00   2.715620e-02
  7.880277e-01    1.596877e+00   2.708538e-02
  7.902381e-01    1.634741e+00   2.735481e-02
  7.924486e-01    1.659248e+00   2.750807e-02
  7.946591e-01    1.634884e+00   2.725654e-02
  7.968695e-01    1.675536e+00   2.754396e-02
  7.990800e-01    1.619508e+00   2.703115e-02
  8.012904e-01    1.612896e+00   2.692922e-02
  8.035009e-01    1.671601e+00   2.736615e-02
  8.057113e-01    1.661756e+00   2.723825e-02
  8.079218e-01    1.662855e+00   2.720025e-02
  8.101323e-01    1.660139e+00   2.713186e-02
  8.123427e-01    1.679643e+00   2.724425e-02
  8.145532e-01    1.694073e+00   2.731423e-02
  8.167636e-01    1.662201e+00   2.701056e-02
  8.189741e-01    1.692559e+00   2.721066e-02
  8.211845e-01    1.698623e+00   2.721369e-02
  8.233950e-01    1.635003e+00   2.665579e-02
  8.256054e-01    1.623894e+00   2.652103e-02
  8.278159e-01    1.670747e+00   2.685651e-02
  8.300264e-01    1.679878e+00   2.688615e-02
  8.322368e-01    1.680436e+00   2.684698e-02
  8.344473e-01    1.660565e+00   2.664407e-02
  8.366577e-01    1.661079e+00   2.660537e-02
  8.388682e-01    1.649201e+00   2.646766e-02
  8.410786e-01    1.653769e+00   2.646209e-02
  8.432891e-01    1.620983e+00   2.615682e-02
  8.454996e-01    1.628592e+00   2.617667e-02
  8.477100e-01    1.638364e+00   2.621339e-02
  8.499205e-01    1.661839e+00   2.635907e-02
  8.521309e-01    1.623204e+00   2.601027e-02
  8.543414e-01    1.620922e+00   2.595138e-02
  8.565518e-01    1.664387e+00   2.625612e-02
  8.587623e-01    1.628119e+00   2.592803e-02
  8.609727e-01    1.637103e+00   2.595915e-02
  8.631832e-01    1.642009e+00   2.595794e-02
  8.653937e-01    1.615150e+00   2.570520e-02
  8.676041e-01    1.608237e+00   2.561142e-02
  8.698146e-01    1.662757e+00   2.600210e-02
  8.720250e-01    1.683785e+00   2.612616e-02
  8.742355e-01    1.599497e+00   2.542508e-02
  8.764459e-01    1.610384e+00   2.547252e-02
  8.786564e-01    1.590400e+00   2.527627e-02
  8.808669e-01    1.562570e+00   2.501612e-02
  8.830773e-01    1.602230e+00   2.529348e-02
  8.852878e-01    1.621853e+00   2.540974e-02
  8.874982e-01    1.619126e+00   2.535153e-02
  8.897087e-01    1.639098e+00   2.546928e-02
  8.919191e-01    1.631672e+00   2.537340e-02
  8.941296e-01    1.633264e+00   2.534811e-02
  8.963401e-01    1.590962e+00   2.498139e-02
  8.985505e-01    1.589226e+00   2.493088e-02
  9.007610e-01    1.617094e+00   2.511161e-02
  9.029714e-01    1.604311e+00   2.497626e-02
  9.051819e-01    1.583244e+00   2.477472e-02
  9.073923e-01    1.607101e+00   2.492401e-02
  9.096028e-01    1.608857e+00   2.490260e-02
  9.118132e-01    1.647964e+00   2.516669e-02
  9.140237e-01    1.634093e+00   2.502356e-02
  9.162342e-01    1.603280e+00   2.475191e-02
  9.184446e-01    1.613583e+00   2.479540e-02
  9.206551e-01    1.584186e+00   2.453308e-02
  9.228655e-01    1.601590e+00   2.463221e-02
  9.250760e-01    1.606914e+00   2.463770e-02
  9.272864e-01    1.612534e+00   2.464639e-02
  9.294969e-01    1.639405e+00   2.481466e-02
  9.317074e-01    1.657888e+00   2.491892e-02
  9.339178e-01    1.616841e+00   2.457489e-02
  9.361283e-01    1.623820e+00   2.459155e-02
  9.383387e-01    1.668202e+00   2.489145e-02
  9.405492e-01    1.695585e+00   2.505987e-02
  9.427596e-01    1.682854e+00   2.492968e-02
  9.449701e-01    1.698873e+00   2.501401e-02
  9.471805e-01    1.671203e+00   2.477433e-02
  9.493910e-01    1.675186e+00   2.476978e-02
  9.516015e-01    1.692725e+00   2.486436e-02
  9.538119e-01    1.691005e+00   2.481767e-02
  9.560224e-01    1.716821e+00   2.497120e-02
  9.582328e-01    1.726910e+00   2.501085e-02
  9.604433e-01    1.756923e+00   2.519155e-02
  9.626537e-01    1.780156e+00   2.532345e-02
  9.648642e-01    1.827864e+00   2.562540e-02
  9.670747e-01    1.835760e+00   2.564528e-02
  9.692851e-01    1.837611e+00   2.562412e-02
  9.714956e-01    1.846627e+00   2.565065e-02
  9.737060e-01    1.867351e+00   2.576033e-02
  9.759165e-01    1.869346e+00   2.573773e-02
  9.781269e-01    1.857653e+00   2.562356e-02
  9.803374e-01    1.853985e+00   2.556282e-02
  9.825478e-01    1.851154e+00   2.550962e-02
  9.847583e-01    1.805921e+00   2.516182e-02
  9.869688e-01    1.824403e+00   2.525636e-02
  9.891792e-01    1.813996e+00   2.515079e-02
  9.913897e-01    1.784916e+00   2.491469e-02
  9.936001e-01    1.773099e+00   2.479958e-02
  9.958106e-01    1.752624e+00   2.462248e-02
  9.980210e-01    1.696604e+00   2.419432e-02
  1.000231e+00    1.691643e+00   2.429126e-02
  1.002442e+00    1.679650e+00   2.433361e-02
  1.004652e+00    1.686373e+00   2.445029e-02
  1.006863e+00    1.657432e+00   2.428987e-02
  1.009073e+00    1.632145e+00   2.414075e-02
  1.011284e+00    1.622776e+00   2.410355e-02
  1.013494e+00    1.600661e+00   2.396250e-02
  1.015705e+00    1.549568e+00   2.359923e-02
  1.017915e+00    1.552876e+00   2.364068e-02
  1.020126e+00    1.564804e+00   2.374733e-02
  1.022336e+00    1.579903e+00   2.387339e-02
  1.024547e+00    1.565807e+00   2.377793e-02
  1.026757e+00    1.529062e+00   2.350559e-02
  1.028967e+00    1.554232e+00   2.370596e-02
  1.031178e+00    1.542099e+00   2.361945e-02
  1.033388e+00    1.523568e+00   2.348213e-02
  1.035599e+00    1.519156e+00   2.345152e-02
  1.037809e+00    1.533127e+00   2.356238e-02
  1.040020e+00    1.518768e+00   2.345306e-02
  1.042230e+00    1.505833e+00   2.335490e-02
  1.044441e+00    1.457330e+00   2.297549e-02
  1.046651e+00    1.462493e+00   2.301627e-02
  1.048862e+00    1.516717e+00   2.343831e-02
  1.051072e+00    1.504281e+00   2.333965e-02
  1.053282e+00    1.486596e+00   2.320113e-02
  1.055493e+00    1.483256e+00   2.317073e-02
  1.057703e+00    1.493071e+00   2.324577e-02
  1.059914e+00    1.489429e+00   2.321314e-02
  1.062124e+00    1.493993e+00   2.324460e-02
  1.064335e+00    1.532864e+00   2.354156e-02
  1.066545e+00    1.532880e+00   2.353559e-02
  1.068756e+00    1.521843e+00   2.344692e-02
  1.070966e+00    1.555363e+00   2.369703e-02
  1.073177e+00    1.503969e+00   2.329611e-02
  1.075387e+00    1.527836e+00   2.347489e-02
  1.077597e+00    1.540405e+00   2.356382e-02
  1.079808e+00    1.607341e+00   2.393127e-02
  1.082018e+00    1.507827e+00   2.298670e-02
  1.084229e+00    1.500295e+00   2.281764e-02
  1.086439e+00    1.518364e+00   2.286532e-02
  1.088650e+00    1.519436e+00   2.279607e-02
  1.090860e+00    1.464376e+00   2.231137e-02
  1.093071e+00    1.446508e+00   2.211272e-02
  1.095281e+00    1.462504e+00   2.217707e-02
  1.097492e+00    1.425409e+00   2.183950e-02
  1.099702e+00    1.432474e+00   2.184228e-02
  1.101912e+00    1.456501e+00   2.197557e-02
  1.104123e+00    1.466982e+00   2.200576e-02
  1.106333e+00    1.420621e+00   2.161102e-02
  1.108544e+00    1.410643e+00   2.149102e-02
  1.110754e+00    1.401026e+00   2.137500e-02
  1.112965e+00    1.420102e+00   2.147952e-02
  1.115175e+00    1.402174e+00   2.130259e-02
  1.117386e+00    1.419080e+00   2.139131e-02
  1.119596e+00    1.419140e+00   2.135380e-02
  1.121807e+00    1.432232e+00   2.141292e-02
  1.124017e+00    1.433977e+00   2.138900e-02
  1.126228e+00    1.402269e+00   2.111546e-02
  1.128438e+00    1.420135e+00   2.121253e-02
  1.130648e+00    1.389946e+00   2.095168e-02
  1.132859e+00    1.382948e+00   2.086464e-02
  1.135069e+00    1.371327e+00   2.074236e-02
  1.137280e+00    1.377030e+00   2.075257e-02
  1.139490e+00    1.437213e+00   2.116758e-02
  1.141701e+00    1.390560e+00   2.078801e-02
  1.143911e+00    1.384533e+00   2.071102e-02
  1.146122e+00    1.384508e+00   2.067878e-02
  1.148332e+00    1.381702e+00   2.062591e-02
  1.150543e+00    1.405445e+00   2.077123e-02
  1.152753e+00    1.406022e+00   2.074432e-02
  1.154963e+00    1.385175e+00   2.055879e-02
  1.157174e+00    1.384274e+00   2.052181e-02
  1.159384e+00    1.395535e+00   2.057501e-02
  1.161595e+00    1.403772e+00   2.060544e-02
  1.163805e+00    1.389658e+00   2.047210e-02
  1.166016e+00    1.380543e+00   2.037530e-02
  1.168226e+00    1.361256e+00   2.020355e-02
  1.170437e+00    1.377196e+00   2.029275e-02
  1.172647e+00    1.395414e+00   2.039735e-02
  1.174858e+00    1.344519e+00   1.999401e-02
  1.177068e+00    1.367762e+00   2.013778e-02
  1.179278e+00    1.396554e+00   2.031969e-02
  1.181489e+00    1.384174e+00   2.020219e-02
  1.183699e+00    1.380977e+00   2.015102e-02
  1.185910e+00    1.396675e+00   2.023708e-02
  1.188120e+00    1.351525e+00   1.988066e-02
  1.190331e+00    1.367511e+00   1.997100e-02
  1.192541e+00    1.345162e+00   1.977985e-02
  1.194752e+00    1.370059e+00   1.993484e-02
  1.196962e+00    1.363295e+00   1.985972e-02
  1.199173e+00    1.353459e+00   1.976141e-02
  1.201383e+00    1.347842e+00   1.969323e-02
  1.203593e+00    1.357349e+00   1.973766e-02
  1.205804e+00    1.369958e+00   1.980303e-02
  1.208014e+00    1.387114e+00   1.989941e-02
  1.210225e+00    1.453936e+00   2.034676e-02
  1.212435e+00    1.621139e+00   2.145770e-02
  1.214646e+00    1.692979e+00   2.189882e-02
  1.216856e+00    1.571435e+00   2.107065e-02
  1.219067e+00    1.427100e+00   2.005452e-02
  1.221277e+00    1.383530e+00   1.972062e-02
  1.223488e+00    1.388188e+00   1.972771e-02
  1.225698e+00    1.399832e+00   1.978284e-02
  1.227909e+00    1.473884e+00   2.026785e-02
  1.230119e+00    1.462083e+00   2.015344e-02
  1.232329e+00    1.394515e+00   1.965102e-02
  1.234540e+00    1.391203e+00   1.959691e-02
  1.236750e+00    1.373003e+00   1.943778e-02
  1.238961e+00    1.376018e+00   1.943189e-02
  1.241171e+00    1.391136e+00   1.951377e-02
  1.243382e+00    1.433613e+00   1.978521e-02
  1.245592e+00    1.443572e+00   1.982893e-02
  1.247803e+00    1.433464e+00   1.973500e-02
  1.250013e+00    1.447515e+00   1.980709e-02
  1.252224e+00    1.610974e+00   2.087010e-02
  1.254434e+00    1.617431e+00   2.088600e-02
  1.256644e+00    1.463368e+00   1.984223e-02
  1.258855e+00    1.411603e+00   1.946428e-02
  1.261065e+00    1.394486e+00   1.932217e-02
  1.263276e+00    1.379395e+00   1.919415e-02
  1.265486e+00    1.342579e+00   1.891345e-02
  1.267697e+00    1.370108e+00   1.908316e-02
  1.269907e+00    1.365438e+00   1.902781e-02
  1.272118e+00    1.386344e+00   1.915002e-02
  1.274328e+00    1.414678e+00   1.932147e-02
  1.276539e+00    1.402445e+00   1.921451e-02
  1.278749e+00    1.511423e+00   1.992348e-02
  1.280959e+00    1.740855e+00   2.135663e-02
  1.283170e+00    1.825179e+00   2.184178e-02
  1.285380e+00    1.602955e+00   2.044457e-02
  1.287591e+00    1.420580e+00   1.922376e-02
  1.289801e+00    1.388956e+00   1.898705e-02
  1.292012e+00    1.347110e+00   1.868176e-02
  1.294222e+00    1.371464e+00   1.883349e-02
  1.296433e+00    1.386676e+00   1.892186e-02
  1.298643e+00    1.380117e+00   1.886040e-02
  1.300854e+00    1.348759e+00   1.862850e-02
  1.303064e+00    1.361100e+00   1.869421e-02
  1.305274e+00    1.349181e+00   1.859076e-02
  1.307485e+00    1.357743e+00   1.862804e-02
  1.309695e+00    1.360698e+00   1.862597e-02
  1.311906e+00    1.378867e+00   1.872798e-02
  1.314116e+00    1.372023e+00   1.866049e-02
  1.316327e+00    1.364323e+00   1.858624e-02
  1.318537e+00    1.345423e+00   1.843521e-02
  1.320748e+00    1.351091e+00   1.845243e-02
  1.322958e+00    1.367531e+00   1.854371e-02
  1.325169e+00    1.384313e+00   1.863584e-02
  1.327379e+00    1.388289e+00   1.864049e-02
  1.329589e+00    1.379070e+00   1.855720e-02
  1.331800e+00    1.404672e+00   1.870754e-02
  1.334010e+00    1.385475e+00   1.855836e-02
  1.336221e+00    1.378669e+00   1.849073e-02
  1.338431e+00    1.389118e+00   1.853950e-02
  1.340642e+00    1.350417e+00   1.834362e-02
  1.342852e+00    1.316835e+00   1.821351e-02
  1.345063e+00    1.344076e+00   1.845029e-02
  1.347273e+00    1.382903e+00   1.875057e-02
  1.349484e+00    1.378057e+00   1.874566e-02
  1.351694e+00    1.338157e+00   1.849490e-02
  1.353905e+00    1.348422e+00   1.858367e-02
  1.356115e+00    1.355622e+00   1.864831e-02
  1.358325e+00    1.330409e+00   1.848729e-02
  1.360536e+00    1.311907e+00   1.836977e-02
  1.362746e+00    1.306693e+00   1.834261e-02
  1.364957e+00    1.321935e+00   1.845687e-02
  1.367167e+00    1.347431e+00   1.864116e-02
  1.369378e+00    1.337463e+00   1.857809e-02
  1.371588e+00    1.318880e+00   1.845366e-02
  1.373799e+00    1.334006e+00   1.856284e-02
  1.376009e+00    1.323547e+00   1.849330e-02
  1.378220e+00    1.331048e+00   1.854816e-02
  1.380430e+00    1.302120e+00   1.834817e-02
  1.382640e+00    1.321299e+00   1.848369e-02
  1.384851e+00    1.303987e+00   1.836310e-02
  1.387061e+00    1.297622e+00   1.831849e-02
  1.389272e+00    1.317160e+00   1.845611e-02
  1.391482e+00    1.318262e+00   1.846315e-02
  1.393693e+00    1.315596e+00   1.844358e-02
  1.395903e+00    1.312669e+00   1.842154e-02
  1.398114e+00    1.297146e+00   1.831093e-02
  1.400324e+00    1.298193e+00   1.831615e-02
  1.402535e+00    1.287291e+00   1.823678e-02
  1.404745e+00    1.254915e+00   1.800363e-02
  1.406955e+00    1.273174e+00   1.813143e-02
  1.409166e+00    1.274097e+00   1.813472e-02
  1.411376e+00    1.254590e+00   1.799224e-02
  1.413587e+00    1.275722e+00   1.813930e-02
  1.415797e+00    1.291613e+00   1.824838e-02
  1.418008e+00    1.260820e+00   1.798782e-02
  1.420218e+00    1.258676e+00   1.782345e-02
  1.422429e+00    1.273572e+00   1.784317e-02
  1.424639e+00    1.287433e+00   1.787488e-02
  1.426850e+00    1.287364e+00   1.781934e-02
  1.429060e+00    1.275515e+00   1.768804e-02
  1.431270e+00    1.295182e+00   1.777914e-02
  1.433481e+00    1.299797e+00   1.776935e-02
  1.435691e+00    1.280978e+00   1.760168e-02
  1.437902e+00    1.252504e+00   1.736871e-02
  1.440112e+00    1.284714e+00   1.755507e-02
  1.442323e+00    1.298463e+00   1.761535e-02
  1.444533e+00    1.282200e+00   1.747200e-02
  1.446744e+00    1.262379e+00   1.730538e-02
  1.448954e+00    1.277204e+00   1.737641e-02
  1.451165e+00    1.301295e+00   1.750940e-02
  1.453375e+00    1.306122e+00   1.751342e-02
  1.455586e+00    1.276831e+00   1.728769e-02
  1.457796e+00    1.273211e+00   1.723561e-02
  1.460006e+00    1.289839e+00   1.732033e-02
  1.462217e+00    1.288491e+00   1.728486e-02
  1.464427e+00    1.289819e+00   1.726796e-02
  1.466638e+00    1.288994e+00   1.723692e-02
  1.468848e+00    1.267243e+00   1.706557e-02
  1.471059e+00    1.276309e+00   1.710132e-02
  1.473269e+00    1.261127e+00   1.697503e-02
  1.475480e+00    1.279449e+00   1.707400e-02
  1.477690e+00    1.292855e+00   1.713917e-02
  1.479901e+00    1.264794e+00   1.692833e-02
  1.482111e+00    1.267312e+00   1.692185e-02
  1.484321e+00    1.258537e+00   1.684014e-02
  1.486532e+00    1.256476e+00   1.680407e-02
  1.488742e+00    1.289104e+00   1.699801e-02
  1.490953e+00    1.284894e+00   1.694743e-02
  1.493163e+00    1.293922e+00   1.698433e-02
  1.495374e+00    1.281801e+00   1.688294e-02
  1.497584e+00    1.290972e+00   1.692132e-02
  1.499795e+00    1.284188e+00   1.685495e-02
  1.502005e+00    1.277194e+00   1.678718e-02
  1.504216e+00    1.274104e+00   1.674568e-02
  1.506426e+00    1.292111e+00   1.684250e-02
  1.508636e+00    1.289370e+00   1.680393e-02
  1.510847e+00    1.288088e+00   1.677349e-02
  1.513057e+00    1.267448e+00   1.661335e-02
  1.515268e+00    1.286114e+00   1.670920e-02
  1.517478e+00    1.288300e+00   1.669790e-02
  1.519689e+00    1.299056e+00   1.674206e-02
  1.521899e+00    1.305068e+00   1.675718e-02
  1.524110e+00    1.276610e+00   1.655296e-02
  1.526320e+00    1.269660e+00   1.648810e-02
  1.528531e+00    1.254480e+00   1.636946e-02
  1.530741e+00    1.238217e+00   1.624395e-02
  1.532951e+00    1.240683e+00   1.624059e-02
  1.535162e+00    1.258757e+00   1.644539e-02
  1.537372e+00    1.249236e+00   1.644997e-02
  1.539583e+00    1.256931e+00   1.653491e-02
  1.541793e+00    1.250388e+00   1.649879e-02
  1.544004e+00    1.241125e+00   1.643780e-02
  1.546214e+00    1.255885e+00   1.653375e-02
  1.548425e+00    1.232891e+00   1.638195e-02
  1.550635e+00    1.261231e+00   1.657889e-02
  1.552846e+00    1.259100e+00   1.657461e-02
  1.555056e+00    1.269651e+00   1.660202e-02
  1.557266e+00    1.251315e+00   1.637094e-02
  1.559477e+00    1.246540e+00   1.628051e-02
  1.561687e+00    1.257376e+00   1.632028e-02
  1.563898e+00    1.250727e+00   1.625988e-02
  1.566108e+00    1.249642e+00   1.623684e-02
  1.568319e+00    1.247141e+00   1.620494e-02
  1.570529e+00    1.243379e+00   1.615537e-02
  1.572740e+00    1.249648e+00   1.616835e-02
  1.574950e+00    1.260075e+00   1.620920e-02
  1.577161e+00    1.252295e+00   1.613352e-02
  1.579371e+00    1.257555e+00   1.614359e-02
  1.581582e+00    1.281259e+00   1.627495e-02
  1.583792e+00    1.294994e+00   1.634359e-02
  1.586002e+00    1.282098e+00   1.624412e-02
  1.588213e+00    1.295334e+00   1.631016e-02
  1.590423e+00    1.265132e+00   1.609867e-02
  1.592634e+00    1.248041e+00   1.596788e-02
  1.594844e+00    1.255372e+00   1.599320e-02
  1.597055e+00    1.255019e+00   1.597037e-02
  1.599265e+00    1.260147e+00   1.598208e-02
  1.601476e+00    1.228237e+00   1.575824e-02
  1.603686e+00    1.244758e+00   1.584404e-02
  1.605897e+00    1.259514e+00   1.591736e-02
  1.608107e+00    1.262855e+00   1.591871e-02
  1.610317e+00    1.248785e+00   1.581038e-02
  1.612528e+00    1.267336e+00   1.590795e-02
  1.614738e+00    1.264877e+00   1.587331e-02
  1.616949e+00    1.247665e+00   1.574580e-02
  1.619159e+00    1.234619e+00   1.564445e-02
  1.621370e+00    1.236943e+00   1.564058e-02
  1.623580e+00    1.236457e+00   1.561900e-02
  1.625791e+00    1.230219e+00   1.556113e-02
  1.628001e+00    1.217137e+00   1.545982e-02
  1.630212e+00    1.176272e+00   1.518044e-02
  1.632422e+00    1.185275e+00   1.522052e-02
  1.634632e+00    1.193204e+00   1.525394e-02
  1.636843e+00    1.237640e+00   1.551740e-02
  1.639053e+00    1.280868e+00   1.576801e-02
  1.641264e+00    1.234414e+00   1.546192e-02
  1.643474e+00    1.184576e+00   1.512899e-02
  1.645685e+00    1.190058e+00   1.514706e-02
  1.647895e+00    1.143590e+00   1.483190e-02
  1.650106e+00    1.165799e+00   1.495809e-02
  1.652316e+00    1.162300e+00   1.491906e-02
  1.654527e+00    1.158197e+00   1.487591e-02
  1.656737e+00    1.145037e+00   1.477455e-02
  1.658947e+00    1.133353e+00   1.468266e-02
  1.661158e+00    1.157029e+00   1.481876e-02
  1.663368e+00    1.174271e+00   1.491237e-02
  1.665579e+00    1.246206e+00   1.534530e-02
  1.667789e+00    1.230816e+00   1.523323e-02
  1.670000e+00    1.246177e+00   1.531159e-02
  1.672210e+00    1.176545e+00   1.486132e-02
  1.674421e+00    1.148303e+00   1.466622e-02
  1.676631e+00    1.156000e+00   1.469905e-02
  1.678842e+00    1.178175e+00   1.482301e-02
  1.681052e+00    1.179242e+00   1.481378e-02
  1.683263e+00    1.130179e+00   1.448691e-02
  1.685473e+00    1.156496e+00   1.463896e-02
  1.687683e+00    1.213645e+00   1.497995e-02
  1.689894e+00    1.219490e+00   1.499925e-02
  1.692104e+00    1.149996e+00   1.455022e-02
  1.694315e+00    1.104171e+00   1.424263e-02
  1.696525e+00    1.099175e+00   1.419501e-02
  1.698736e+00    1.105380e+00   1.421991e-02
  1.700946e+00    1.133797e+00   1.438588e-02
  1.703157e+00    1.116568e+00   1.426113e-02
  1.705367e+00    1.076579e+00   1.398877e-02
  1.707578e+00    1.099208e+00   1.412007e-02
  1.709788e+00    1.091553e+00   1.405642e-02
  1.711998e+00    1.099781e+00   1.409387e-02
  1.714209e+00    1.133654e+00   1.429419e-02
  1.716419e+00    1.230633e+00   1.487750e-02
  1.718630e+00    1.075294e+00   1.389229e-02
  1.720840e+00    1.054003e+00   1.373972e-02
  1.723051e+00    1.005410e+00   1.340553e-02
  1.725261e+00    9.958511e-01   1.332714e-02
  1.727472e+00    1.007122e+00   1.338825e-02
  1.729682e+00    9.968619e-01   1.330655e-02
  1.731893e+00    9.865531e-01   1.322382e-02
  1.734103e+00    1.010680e+00   1.337074e-02
  1.736313e+00    1.004297e+00   1.331447e-02
  1.738524e+00    9.961728e-01   1.324671e-02
  1.740734e+00    9.973536e-01   1.324087e-02
  1.742945e+00    9.755260e-01   1.308187e-02
  1.745155e+00    9.780790e-01   1.308561e-02
  1.747366e+00    1.005707e+00   1.325523e-02
  1.749576e+00    9.725333e-01   1.302120e-02
  1.751787e+00    9.793990e-01   1.305376e-02
  1.753997e+00    9.548353e-01   1.287582e-02
  1.756208e+00    9.544551e-01   1.286019e-02
  1.758418e+00    9.521075e-01   1.283138e-02
  1.760628e+00    9.480095e-01   1.279054e-02
  1.762839e+00    9.456924e-01   1.276180e-02
  1.765049e+00    9.682543e-01   1.289998e-02
  1.767260e+00    9.699045e-01   1.289809e-02
  1.769470e+00    9.511250e-01   1.275967e-02
  1.771681e+00    9.389859e-01   1.266492e-02
  1.773891e+00    9.424159e-01   1.267504e-02
  1.776102e+00    9.429957e-01   1.266608e-02
  1.778312e+00    9.585433e-01   1.275725e-02
  1.780523e+00    9.796192e-01   1.288375e-02
  1.782733e+00    9.980947e-01   1.299160e-02
  1.784944e+00    1.000019e+00   1.299080e-02
  1.787154e+00    1.003464e+00   1.300015e-02
  1.789364e+00    9.904226e-01   1.290254e-02
  1.791575e+00    9.713684e-01   1.276498e-02
  1.793785e+00    9.746940e-01   1.277406e-02
  1.795996e+00    9.262543e-01   1.244007e-02
  1.798206e+00    9.195846e-01   1.238263e-02
  1.800417e+00    9.427363e-01   1.252471e-02
  1.802627e+00    9.175168e-01   1.234408e-02
  1.804838e+00    9.123644e-01   1.229726e-02
  1.807048e+00    8.865989e-01   1.210970e-02
  1.809259e+00    8.867249e-01   1.209711e-02
  1.811469e+00    8.861992e-01   1.207872e-02
  1.813679e+00    8.648501e-01   1.191767e-02
  1.815890e+00    8.726538e-01   1.195676e-02
  1.818100e+00    8.956893e-01   1.209847e-02
  1.820311e+00    8.944193e-01   1.207511e-02
  1.822521e+00    8.888005e-01   1.202229e-02
  1.824732e+00    8.820207e-01   1.196161e-02
  1.826942e+00    8.651702e-01   1.183460e-02
  1.829153e+00    8.990638e-01   1.205241e-02
  1.831363e+00    8.809007e-01   1.191805e-02
  1.833574e+00    8.832497e-01   1.192221e-02
  1.835784e+00    8.778896e-01   1.187459e-02
  1.837994e+00    8.627472e-01   1.176011e-02
  1.840205e+00    8.601949e-01   1.173161e-02
  1.842415e+00    8.795486e-01   1.185105e-02
  1.844626e+00    8.672197e-01   1.175615e-02
  1.846836e+00    8.675349e-01   1.174688e-02
  1.849047e+00    8.521076e-01   1.163044e-02
  1.851257e+00    8.582908e-01   1.166302e-02
  1.853468e+00    8.357942e-01   1.150049e-02
  1.855678e+00    8.485698e-01   1.157922e-02
  1.857889e+00    8.423168e-01   1.152808e-02
  1.860099e+00    8.479171e-01   1.155774e-02
  1.862309e+00    8.543631e-01   1.159309e-02
  1.864520e+00    8.540024e-01   1.158209e-02
  1.866730e+00    8.446251e-01   1.150898e-02
  1.868941e+00    8.607115e-01   1.160708e-02
  1.871151e+00    8.507130e-01   1.152808e-02
  1.873362e+00    8.469716e-01   1.149137e-02
  1.875572e+00    8.433768e-01   1.145607e-02
  1.877783e+00    8.420606e-01   1.143574e-02
  1.879993e+00    8.409294e-01   1.141694e-02
  1.882204e+00    8.389998e-01   1.139295e-02
  1.884414e+00    8.617580e-01   1.153527e-02
  1.886624e+00    8.340874e-01   1.133756e-02
  1.888835e+00    8.482834e-01   1.142260e-02
  1.891045e+00    8.470119e-01   1.140312e-02
  1.893256e+00    8.343077e-01   1.130621e-02
  1.895466e+00    8.512114e-01   1.140891e-02
  1.897677e+00    8.377236e-01   1.130724e-02
  1.899887e+00    8.397785e-01   1.131006e-02
  1.902098e+00    8.355634e-01   1.127079e-02
  1.904308e+00    8.174860e-01   1.113769e-02
  1.906519e+00    8.382232e-01   1.126717e-02
  1.908729e+00    8.468626e-01   1.131438e-02
  1.910940e+00    8.299791e-01   1.118988e-02
  1.913150e+00    8.229817e-01   1.113205e-02
  1.915360e+00    8.119981e-01   1.104695e-02
  1.917571e+00    8.194376e-01   1.108662e-02
  1.919781e+00    8.222551e-01   1.109495e-02
  1.921992e+00    8.309879e-01   1.114304e-02
  1.924202e+00    8.276832e-01   1.111002e-02
  1.926413e+00    8.180233e-01   1.103470e-02
  1.928623e+00    8.078343e-01   1.095524e-02
  1.930834e+00    8.237305e-01   1.105201e-02
  1.933044e+00    8.141622e-01   1.097696e-02
  1.935255e+00    8.201808e-01   1.100705e-02
  1.937465e+00    8.265915e-01   1.103949e-02
  1.939675e+00    8.043887e-01   1.087938e-02
  1.941886e+00    8.060941e-01   1.088060e-02
  1.944096e+00    8.105434e-01   1.090037e-02
  1.946307e+00    8.201973e-01   1.095463e-02
  1.948517e+00    8.126633e-01   1.089368e-02
  1.950728e+00    8.099773e-01   1.086535e-02
  1.952938e+00    8.042214e-01   1.081653e-02
  1.955149e+00    7.877789e-01   1.069522e-02
  1.957359e+00    7.750743e-01   1.059873e-02
  1.959570e+00    7.706236e-01   1.055752e-02
  1.961780e+00    8.000029e-01   1.074694e-02
  1.963990e+00    7.934439e-01   1.069268e-02
  1.966201e+00    7.981887e-01   1.071448e-02
  1.968411e+00    7.967204e-01   1.069443e-02
  1.970622e+00    7.993166e-01   1.070167e-02
  1.972832e+00    7.979885e-01   1.068274e-02
  1.975043e+00    8.107650e-01   1.075772e-02
  1.977253e+00    8.172103e-01   1.079024e-02
  1.979464e+00    8.078607e-01   1.071816e-02
  1.981674e+00    8.191586e-01   1.078233e-02
  1.983885e+00    8.237796e-01   1.080242e-02
  1.986095e+00    8.109447e-01   1.070806e-02
  1.988305e+00    8.023551e-01   1.064115e-02
  1.990516e+00    8.044945e-01   1.064524e-02
  1.992726e+00    8.199091e-01   1.073681e-02
  1.994937e+00    8.278407e-01   1.077818e-02
  1.997147e+00    8.066561e-01   1.062945e-02
  1.999358e+00    8.194101e-01   1.070301e-02
  2.001568e+00    8.140290e-01   1.065672e-02
  2.003779e+00    8.282496e-01   1.073706e-02
  2.005989e+00    8.471205e-01   1.084609e-02
  2.008200e+00    8.557497e-01   1.088906e-02
  2.010410e+00    8.316044e-01   1.072212e-02
  2.012621e+00    8.051694e-01   1.053836e-02
  2.014831e+00    7.836336e-01   1.038486e-02
  2.017041e+00    7.867037e-01   1.039468e-02
  2.019252e+00    7.624813e-01   1.022346e-02
  2.021462e+00    7.756887e-01   1.030204e-02
  2.023673e+00    7.923242e-01   1.040236e-02
  2.025883e+00    8.127006e-01   1.052546e-02
  2.028094e+00    7.983565e-01   1.042229e-02
  2.030304e+00    7.953681e-01   1.039303e-02
  2.032515e+00    7.870124e-01   1.032884e-02
  2.034725e+00    7.912611e-01   1.034702e-02
  2.036936e+00    7.908158e-01   1.033459e-02
  2.039146e+00    7.725899e-01   1.020513e-02
  2.041356e+00    7.641104e-01   1.013928e-02
  2.043567e+00    7.709584e-01   1.017521e-02
  2.045777e+00    7.712297e-01   1.016766e-02
  2.047988e+00    7.920843e-01   1.029462e-02
  2.050198e+00    7.527034e-01   1.002702e-02
  2.052409e+00    7.577848e-01   1.005311e-02
  2.054619e+00    7.611186e-01   1.006780e-02
  2.056830e+00    7.354643e-01   9.889570e-03
  2.059040e+00    7.544859e-01   1.000909e-02
  2.061251e+00    7.518597e-01   9.984416e-03
  2.063461e+00    7.579179e-01   1.001691e-02
  2.065671e+00    7.640160e-01   1.004833e-02
  2.067882e+00    7.609763e-01   1.001923e-02
  2.070092e+00    7.651641e-01   1.003748e-02
  2.072303e+00    7.582743e-01   9.982956e-03
  2.074513e+00    7.746674e-01   1.008078e-02
  2.076724e+00    7.853469e-01   1.014032e-02
  2.078934e+00    7.793967e-01   1.009264e-02
  2.081145e+00    7.519066e-01   9.903890e-03
  2.083355e+00    7.618982e-01   9.960180e-03
  2.085566e+00    7.731822e-01   1.002457e-02
  2.087776e+00    7.748743e-01   1.002580e-02
  2.089986e+00    7.717108e-01   9.996340e-03
  2.092197e+00    7.706853e-01   9.980530e-03
  2.094407e+00    7.663900e-01   9.943279e-03
  2.096618e+00    7.436398e-01   9.785634e-03
  2.098828e+00    7.406145e-01   9.756350e-03
  2.101039e+00    7.484731e-01   9.798901e-03
  2.103249e+00    7.488229e-01   9.792418e-03
  2.105460e+00    7.444636e-01   9.754777e-03
  2.107670e+00    7.223794e-01   9.600301e-03
  2.109881e+00    7.273878e-01   9.624349e-03
  2.112091e+00    7.302427e-01   9.634206e-03
  2.114301e+00    7.291755e-01   9.618368e-03
  2.116512e+00    7.188312e-01   9.541119e-03
  2.118722e+00    7.314706e-01   9.615760e-03
  2.120933e+00    7.160707e-01   9.505171e-03
  2.123143e+00    7.098466e-01   9.454899e-03
  2.125354e+00    7.241254e-01   9.540965e-03
  2.127564e+00    7.120192e-01   9.452172e-03
  2.129775e+00    6.995183e-01   9.360206e-03
  2.131985e+00    6.998819e-01   9.353652e-03
  2.134196e+00    7.191318e-01   9.472807e-03
  2.136406e+00    7.100612e-01   9.404135e-03
  2.138617e+00    7.233011e-01   9.482883e-03
  2.140827e+00    7.087182e-01   9.402864e-03
  2.143037e+00    7.085963e-01   9.447565e-03
  2.145248e+00    7.111906e-01   9.486945e-03
  2.147458e+00    6.923285e-01   9.375297e-03
  2.149669e+00    6.830712e-01   9.324077e-03
  2.151879e+00    7.092577e-01   9.510394e-03
  2.154090e+00    7.216507e-01   9.600547e-03
  2.156300e+00    7.018682e-01   9.474669e-03
  2.158511e+00    6.961581e-01   9.441324e-03
  2.160721e+00    7.028859e-01   9.491674e-03
  2.162932e+00    7.118289e-01   9.555632e-03
  2.165142e+00    7.041920e-01   9.507286e-03
  2.167352e+00    7.062925e-01   9.524378e-03
  2.169563e+00    7.137332e-01   9.576399e-03
  2.171773e+00    7.046881e-01   9.517999e-03
  2.173984e+00    6.959442e-01   9.460171e-03
  2.176194e+00    6.967346e-01   9.466745e-03
  2.178405e+00    6.801715e-01   9.354249e-03
  2.180615e+00    6.853883e-01   9.390706e-03
  2.182826e+00    6.828368e-01   9.373908e-03
  2.185036e+00    6.848131e-01   9.387499e-03
  2.187247e+00    7.010543e-01   9.498118e-03
  2.189457e+00    6.928366e-01   9.441875e-03
  2.191667e+00    6.997237e-01   9.488517e-03
  2.193878e+00    6.916565e-01   9.433092e-03
  2.196088e+00    6.798908e-01   9.351839e-03
  2.198299e+00    6.951112e-01   9.454814e-03
  2.200509e+00    7.041224e-01   9.514857e-03
  2.202720e+00    6.877202e-01   9.402221e-03
  2.204930e+00    6.921278e-01   9.431045e-03
  2.207141e+00    6.864293e-01   9.391023e-03
  2.209351e+00    6.856883e-01   9.384057e-03
  2.211562e+00    6.906300e-01   9.416183e-03
  2.213772e+00    6.850153e-01   9.322012e-03
  2.215982e+00    6.899860e-01   9.311105e-03
  2.218193e+00    6.816912e-01   9.225211e-03
  2.220403e+00    6.675974e-01   9.104908e-03
  2.222614e+00    6.777567e-01   9.152861e-03
  2.224824e+00    6.970114e-01   9.262283e-03
  2.227035e+00    6.923438e-01   9.213523e-03
  2.229245e+00    6.761419e-01   9.088052e-03
  2.231456e+00    6.912209e-01   9.172980e-03
  2.233666e+00    6.824270e-01   9.099236e-03
  2.235877e+00    6.651933e-01   8.969384e-03
  2.238087e+00    6.876303e-01   9.105731e-03
  2.240298e+00    6.800620e-01   9.041635e-03
  2.242508e+00    6.683421e-01   8.948232e-03
  2.244718e+00    6.853849e-01   9.045620e-03
  2.246929e+00    6.767833e-01   8.974166e-03
  2.249139e+00    6.791083e-01   8.977068e-03
  2.251350e+00    6.787317e-01   8.962777e-03
  2.253560e+00    6.839316e-01   8.985332e-03
  2.255771e+00    6.799608e-01   8.947666e-03
  2.257981e+00    6.793318e-01   8.932254e-03
  2.260192e+00    6.584567e-01   8.782866e-03
  2.262402e+00    6.667928e-01   8.827419e-03
  2.264613e+00    6.811423e-01   8.910912e-03
  2.266823e+00    6.732053e-01   8.848376e-03
  2.269033e+00    6.696463e-01   8.814519e-03
  2.271244e+00    6.576771e-01   8.725047e-03
  2.273454e+00    6.583393e-01   8.719184e-03
  2.275665e+00    6.666808e-01   8.763928e-03
  2.277875e+00    6.669088e-01   8.755435e-03
  2.280086e+00    6.749917e-01   8.798193e-03
  2.282296e+00    6.725054e-01   8.772472e-03
  2.284507e+00    6.638834e-01   8.705901e-03
  2.286717e+00    6.631618e-01   8.691635e-03
  2.288928e+00    6.548799e-01   8.627372e-03
  2.291138e+00    6.527813e-01   8.604118e-03
  2.293348e+00    6.552801e-01   8.611048e-03
  2.295559e+00    6.555496e-01   8.603488e-03
  2.297769e+00    6.739671e-01   8.714133e-03
  2.299980e+00    6.526502e-01   8.565906e-03
  2.302190e+00    6.492259e-01   8.534285e-03
  2.304401e+00    6.705842e-01   8.664075e-03
  2.306611e+00    6.643075e-01   8.614163e-03
  2.308822e+00    6.619132e-01   8.590158e-03
  2.311032e+00    6.693243e-01   8.631578e-03
  2.313243e+00    6.618981e-01   8.577235e-03
  2.315453e+00    6.619326e-01   8.569811e-03
  2.317663e+00    6.587532e-01   8.539987e-03
  2.319874e+00    6.665846e-01   8.581750e-03
  2.322084e+00    6.409041e-01   8.405890e-03
  2.324295e+00    6.355234e-01   8.362358e-03
  2.326505e+00    6.509428e-01   8.454089e-03
  2.328716e+00    6.680580e-01   8.555816e-03
  2.330926e+00    6.419390e-01   8.378099e-03
  2.333137e+00    6.614867e-01   8.496204e-03
  2.335347e+00    6.593658e-01   8.473581e-03
  2.337558e+00    6.499817e-01   8.404771e-03
  2.339768e+00    6.428375e-01   8.349868e-03
  2.341979e+00    6.486357e-01   8.378997e-03
  2.344189e+00    6.523117e-01   8.394229e-03
  2.346399e+00    6.449143e-01   8.337935e-03
  2.348610e+00    6.598031e-01   8.425020e-03
  2.350820e+00    6.456543e-01   8.325949e-03
  2.353031e+00    6.361312e-01   8.256026e-03
  2.355241e+00    6.440039e-01   8.298809e-03
  2.357452e+00    6.463767e-01   8.305597e-03
  2.359662e+00    6.473429e-01   8.303464e-03
  2.361873e+00    6.385846e-01   8.238825e-03
  2.364083e+00    6.367532e-01   8.218968e-03
  2.366294e+00    6.380277e-01   8.219006e-03
  2.368504e+00    6.327401e-01   8.176764e-03
  2.370714e+00    6.444507e-01   8.243902e-03
  2.372925e+00    6.467805e-01   8.250616e-03
  2.375135e+00    6.268049e-01   8.114120e-03
  2.377346e+00    6.418562e-01   8.202917e-03
  2.379556e+00    6.275696e-01   8.103174e-03
  2.381767e+00    6.249187e-01   8.078171e-03
  2.383977e+00    6.081569e-01   7.961233e-03
  2.386188e+00    6.101081e-01   7.966131e-03
  2.388398e+00    6.146449e-01   7.987776e-03
  2.390609e+00    6.220879e-01   8.028228e-03
  2.392819e+00    6.131161e-01   7.962381e-03
  2.395029e+00    6.178355e-01   7.985285e-03
  2.397240e+00    6.198295e-01   7.990263e-03
  2.399450e+00    6.094647e-01   7.915392e-03
  2.401661e+00    6.126711e-01   7.928493e-03
  2.403871e+00    6.092194e-01   7.898389e-03
  2.406082e+00    6.310177e-01   8.030888e-03
  2.408292e+00    6.097735e-01   7.886762e-03
  2.410503e+00    5.999908e-01   7.815795e-03
  2.412713e+00    6.078993e-01   7.859337e-03
  2.414924e+00    5.965282e-01   7.778061e-03
  2.417134e+00    6.076090e-01   7.842306e-03
  2.419344e+00    6.012917e-01   7.794045e-03
  2.421555e+00    6.002898e-01   7.780042e-03
  2.423765e+00    6.013380e-01   7.779427e-03
  2.425976e+00    5.936902e-01   7.722030e-03
  2.428186e+00    5.856036e-01   7.662127e-03
  2.430397e+00    5.832646e-01   7.639415e-03
  2.432607e+00    5.969814e-01   7.721427e-03
  2.434818e+00    5.888267e-01   7.661020e-03
  2.437028e+00    6.035061e-01   7.748710e-03
  2.439239e+00    6.031951e-01   7.739006e-03
  2.441449e+00    5.922666e-01   7.661382e-03
  2.443659e+00    5.767128e-01   7.552861e-03
  2.445870e+00    5.788431e-01   7.578914e-03
  2.448080e+00    5.789902e-01   7.614573e-03
  2.450291e+00    5.787780e-01   7.629804e-03
  2.452501e+00    5.843629e-01   7.677768e-03
  2.454712e+00    5.624446e-01   7.540759e-03
  2.456922e+00    5.675533e-01   7.581529e-03
  2.459133e+00    5.569507e-01   7.515755e-03
  2.461343e+00    5.565073e-01   7.517068e-03
  2.463554e+00    5.648978e-01   7.577005e-03
  2.465764e+00    5.528628e-01   7.498969e-03
  2.467975e+00    5.637075e-01   7.574433e-03
  2.470185e+00    5.621368e-01   7.566145e-03
  2.472395e+00    5.478753e-01   7.470788e-03
  2.474606e+00    5.434772e-01   7.442256e-03
  2.476816e+00    5.349153e-01   7.384147e-03
  2.479027e+00    5.396675e-01   7.417690e-03
  2.481237e+00    5.535046e-01   7.512485e-03
  2.483448e+00    5.497830e-01   7.487477e-03
  2.485658e+00    5.590676e-01   7.550292e-03
  2.487869e+00    5.642210e-01   7.585059e-03
  2.490079e+00    5.449154e-01   7.453655e-03
  2.492290e+00    5.354401e-01   7.388103e-03
  2.494500e+00    5.436211e-01   7.443613e-03
  2.496710e+00    5.455465e-01   7.456073e-03
  2.498921e+00    5.392516e-01   7.411958e-03
  2.501131e+00    5.408062e-01   7.421643e-03
  2.503342e+00    5.418915e-01   7.427848e-03
  2.505552e+00    5.374343e-01   7.396072e-03
  2.507763e+00    5.433303e-01   7.435099e-03
  2.509973e+00    5.629525e-01   7.566731e-03
  2.512184e+00    5.430297e-01   7.430016e-03
  2.514394e+00    5.317586e-01   7.343077e-03
  2.516605e+00    5.300747e-01   7.284236e-03
  2.518815e+00    5.316073e-01   7.266262e-03
  2.521025e+00    5.412555e-01   7.310649e-03
  2.523236e+00    5.242062e-01   7.176606e-03
  2.525446e+00    5.428994e-01   7.287596e-03
  2.527657e+00    5.356071e-01   7.223744e-03
  2.529867e+00    5.379576e-01   7.225208e-03
  2.532078e+00    5.373835e-01   7.206164e-03
  2.534288e+00    5.249480e-01   7.108390e-03
  2.536499e+00    5.274794e-01   7.113548e-03
  2.538709e+00    5.290768e-01   7.113250e-03
  2.540920e+00    5.399536e-01   7.175206e-03
  2.543130e+00    5.233212e-01   7.053469e-03
  2.545340e+00    5.152006e-01   6.988558e-03
  2.547551e+00    5.279767e-01   7.064672e-03
  2.549761e+00    5.268551e-01   7.047553e-03
  2.551972e+00    5.266578e-01   7.036822e-03
  2.554182e+00    5.368132e-01   7.095046e-03
  2.556393e+00    5.289559e-01   7.033764e-03
  2.558603e+00    5.121691e-01   6.912257e-03
  2.560814e+00    5.156472e-01   6.926998e-03
  2.563024e+00    5.212268e-01   6.955798e-03
  2.565235e+00    5.212968e-01   6.946736e-03
  2.567445e+00    5.174940e-01   6.911799e-03
  2.569656e+00    5.214805e-01   6.928603e-03
  2.571866e+00    5.159183e-01   6.882226e-03
  2.574076e+00    5.137615e-01   6.858564e-03
  2.576287e+00    5.248519e-01   6.923808e-03
  2.578497e+00    5.094263e-01   6.813503e-03
  2.580708e+00    5.272149e-01   6.923268e-03
  2.582918e+00    5.128381e-01   6.820478e-03
  2.585129e+00    5.150890e-01   6.827672e-03
  2.587339e+00    5.112364e-01   6.794429e-03
  2.589550e+00    5.125893e-01   6.795861e-03
  2.591760e+00    5.265626e-01   6.880019e-03
  2.593971e+00    5.171489e-01   6.810689e-03
  2.596181e+00    5.096397e-01   6.754848e-03
  2.598391e+00    5.059797e-01   6.725376e-03
  2.600602e+00    5.197992e-01   6.810619e-03
  2.602812e+00    5.346568e-01   6.899567e-03
  2.605023e+00    5.145055e-01   6.761089e-03
  2.607233e+00    5.020266e-01   6.671484e-03
  2.609444e+00    5.001196e-01   6.651634e-03
  2.611654e+00    5.024447e-01   6.659775e-03
  2.613865e+00    5.049331e-01   6.669227e-03
  2.616075e+00    4.929554e-01   6.582614e-03
  2.618286e+00    4.923792e-01   6.571835e-03
  2.620496e+00    5.127115e-01   6.699426e-03
  2.622706e+00    4.940735e-01   6.570849e-03
  2.624917e+00    5.070596e-01   6.650765e-03
  2.627127e+00    5.118986e-01   6.676645e-03
  2.629338e+00    5.083520e-01   6.647482e-03
  2.631548e+00    5.068914e-01   6.631718e-03
  2.633759e+00    5.081537e-01   6.632791e-03
  2.635969e+00    5.105960e-01   6.641962e-03
  2.638180e+00    5.128871e-01   6.649790e-03
  2.640390e+00    5.103601e-01   6.626719e-03
  2.642601e+00    5.054817e-01   6.588276e-03
  2.644811e+00    5.138211e-01   6.635239e-03
  2.647021e+00    4.968351e-01   6.518086e-03
  2.649232e+00    5.224456e-01   6.677101e-03
  2.651442e+00    5.110663e-01   6.597409e-03
  2.653653e+00    5.133780e-01   6.605428e-03
  2.655863e+00    4.954983e-01   6.482725e-03
  2.658074e+00    4.955496e-01   6.476440e-03
  2.660284e+00    5.094573e-01   6.560282e-03
  2.662495e+00    5.073918e-01   6.540135e-03
  2.664705e+00    5.141679e-01   6.576997e-03
  2.666916e+00    4.925469e-01   6.430782e-03
  2.669126e+00    5.002607e-01   6.474454e-03
  2.671337e+00    4.953351e-01   6.435927e-03
  2.673547e+00    4.869075e-01   6.374604e-03
  2.675757e+00    5.084361e-01   6.507480e-03
  2.677968e+00    5.009668e-01   6.452933e-03
  2.680178e+00    4.950123e-01   6.408063e-03
  2.682389e+00    4.960685e-01   6.408477e-03
  2.684599e+00    4.983115e-01   6.416726e-03
  2.686810e+00    4.957034e-01   6.393288e-03
  2.689020e+00    4.973814e-01   6.397768e-03
  2.691231e+00    4.996571e-01   6.406035e-03
  2.693441e+00    4.969309e-01   6.382374e-03
  2.695652e+00    4.740175e-01   6.227078e-03
  2.697862e+00    4.900168e-01   6.324934e-03
  2.700072e+00    4.857943e-01   6.291587e-03
  2.702283e+00    4.838667e-01   6.272891e-03
  2.704493e+00    4.937946e-01   6.330619e-03
  2.706704e+00    4.795898e-01   6.232538e-03
  2.708914e+00    4.865648e-01   6.271749e-03
  2.711125e+00    4.948438e-01   6.318579e-03
  2.713335e+00    4.842627e-01   6.244604e-03
  2.715546e+00    4.866437e-01   6.253463e-03
  2.717756e+00    4.914318e-01   6.278239e-03
  2.719967e+00    5.030636e-01   6.345781e-03
  2.722177e+00    4.950667e-01   6.288984e-03
  2.724387e+00    4.839248e-01   6.211690e-03
  2.726598e+00    4.972933e-01   6.290768e-03
  2.728808e+00    5.025834e-01   6.317907e-03
  2.731019e+00    4.821469e-01   6.182002e-03
  2.733229e+00    4.840991e-01   6.188696e-03
  2.735440e+00    4.832745e-01   6.177165e-03
  2.737650e+00    4.796415e-01   6.147902e-03
  2.739861e+00    4.830406e-01   6.163589e-03
  2.742071e+00    4.985580e-01   6.255965e-03
  2.744282e+00    4.984184e-01   6.248746e-03
  2.746492e+00    4.887870e-01   6.182005e-03
  2.748702e+00    4.826088e-01   6.136899e-03
  2.750913e+00    5.011750e-01   6.247916e-03
  2.753123e+00    4.876178e-01   6.156688e-03
  2.755334e+00    4.913404e-01   6.173997e-03
  2.757544e+00    4.743814e-01   6.060808e-03
  2.759755e+00    4.698695e-01   6.026097e-03
  2.761965e+00    4.801058e-01   6.085400e-03
  2.764176e+00    4.776981e-01   6.064161e-03
  2.766386e+00    4.876392e-01   6.121079e-03
  2.768597e+00    4.756045e-01   6.039251e-03
  2.770807e+00    4.788470e-01   6.053913e-03
  2.773017e+00    4.815759e-01   6.065174e-03
  2.775228e+00    4.783448e-01   6.038986e-03
  2.777438e+00    4.872771e-01   6.089274e-03
  2.779649e+00    4.896770e-01   6.098271e-03
  2.781859e+00    4.852504e-01   6.064843e-03
  2.784070e+00    4.829348e-01   6.044461e-03
  2.786280e+00    4.786407e-01   6.011750e-03
  2.788491e+00    4.829642e-01   6.032962e-03
  2.790701e+00    4.920661e-01   6.083815e-03
  2.792912e+00    4.818129e-01   6.014101e-03
  2.795122e+00    4.718656e-01   5.945980e-03
  2.797333e+00    4.867259e-01   6.033253e-03
  2.799543e+00    4.816242e-01   5.995669e-03
  2.801753e+00    4.734622e-01   5.938780e-03
  2.803964e+00    4.842638e-01   6.000444e-03
  2.806174e+00    4.660934e-01   5.880716e-03
  2.808385e+00    4.672836e-01   5.881452e-03
  2.810595e+00    4.732819e-01   5.912233e-03
  2.812806e+00    4.777002e-01   5.933138e-03
  2.815016e+00    4.782931e-01   5.932055e-03
  2.817227e+00    4.538231e-01   5.803695e-03
  2.819437e+00    4.667120e-01   5.896505e-03
  2.821648e+00    4.772773e-01   5.965189e-03
  2.823858e+00    4.753048e-01   5.958190e-03
  2.826068e+00    4.865396e-01   6.033259e-03
  2.828279e+00    4.854514e-01   6.030594e-03
  2.830489e+00    4.789101e-01   5.993193e-03
  2.832700e+00    4.669109e-01   5.920181e-03
  2.834910e+00    4.638889e-01   5.903030e-03
  2.837121e+00    4.801051e-01   6.007048e-03
  2.839331e+00    4.684983e-01   5.935227e-03
  2.841542e+00    4.756182e-01   5.981172e-03
  2.843752e+00    4.731214e-01   5.966228e-03
  2.845963e+00    4.734842e-01   5.968936e-03
  2.848173e+00    4.656322e-01   5.919306e-03
  2.850383e+00    4.790677e-01   6.004393e-03
  2.852594e+00    4.837473e-01   6.033579e-03
  2.854804e+00    4.696013e-01   5.944196e-03
  2.857015e+00    4.635938e-01   5.905624e-03
  2.859225e+00    4.737746e-01   5.969857e-03
  2.861436e+00    4.764420e-01   5.985978e-03
  2.863646e+00    4.767494e-01   5.987957e-03
  2.865857e+00    4.736872e-01   5.969031e-03
  2.868067e+00    4.762907e-01   5.985634e-03
  2.870278e+00    4.726286e-01   5.962234e-03
  2.872488e+00    4.613739e-01   5.889653e-03
  2.874698e+00    4.685915e-01   5.934492e-03
  2.876909e+00    4.702446e-01   5.943596e-03
  2.879119e+00    4.677921e-01   5.926485e-03
  2.881330e+00    4.535647e-01   5.834175e-03
  2.883540e+00    4.679686e-01   5.924701e-03
  2.885751e+00    4.663515e-01   5.912815e-03
  2.887961e+00    4.637365e-01   5.894302e-03
  2.890172e+00    4.679555e-01   5.919456e-03
  2.892382e+00    4.668153e-01   5.910423e-03
  2.894593e+00    4.646002e-01   5.894568e-03
  2.896803e+00    4.670957e-01   5.908364e-03
  2.899014e+00    4.656724e-01   5.897448e-03
  2.901224e+00    4.564785e-01   5.836956e-03
  2.903434e+00    4.603984e-01   5.860020e-03
  2.905645e+00    4.521653e-01   5.805163e-03
  2.907855e+00    4.689993e-01   5.910131e-03
  2.910066e+00    4.739349e-01   5.939027e-03
  2.912276e+00    4.606261e-01   5.852946e-03
  2.914487e+00    4.667186e-01   5.889015e-03
  2.916697e+00    4.856853e-01   6.005210e-03
  2.918908e+00    4.654540e-01   5.876800e-03
  2.921118e+00    4.698738e-01   5.901882e-03
  2.923329e+00    4.671849e-01   5.882657e-03
  2.925539e+00    4.595044e-01   5.831791e-03
  2.927749e+00    4.747948e-01   5.925679e-03
  2.929960e+00    4.662496e-01   5.869315e-03
  2.932170e+00    4.637287e-01   5.851076e-03
  2.934381e+00    4.645760e-01   5.853963e-03
  2.936591e+00    4.659197e-01   5.859797e-03
  2.938802e+00    4.754040e-01   5.916397e-03
  2.941012e+00    4.638967e-01   5.841994e-03
  2.943223e+00    4.573681e-01   5.798033e-03
  2.945433e+00    4.562327e-01   5.787092e-03
  2.947644e+00    4.576676e-01   5.792041e-03
  2.949854e+00    4.511809e-01   5.746607e-03
  2.952064e+00    4.610293e-01   5.804723e-03
  2.954275e+00    4.622811e-01   5.808165e-03
  2.956485e+00    4.550914e-01   5.758623e-03
  2.958696e+00    4.526823e-01   5.739019e-03
  2.960906e+00    4.485157e-01   5.708367e-03
  2.963117e+00    4.688538e-01   5.831809e-03
  2.965327e+00    4.629625e-01   5.791127e-03
  2.967538e+00    4.522884e-01   5.721074e-03
  2.969748e+00    4.553228e-01   5.737395e-03
  2.971959e+00    4.462721e-01   5.676998e-03
  2.974169e+00    4.555399e-01   5.733040e-03
  2.976379e+00    4.551029e-01   5.727375e-03
  2.978590e+00    4.464577e-01   5.669607e-03
  2.980800e+00    4.590993e-01   5.746493e-03
  2.983011e+00    4.646133e-01   5.778074e-03
  2.985221e+00    4.705665e-01   5.811760e-03
  2.987432e+00    4.788416e-01   5.859458e-03
  2.989642e+00    4.616484e-01   5.750655e-03
  2.991853e+00    4.645229e-01   5.765200e-03
  2.994063e+00    4.513235e-01   5.679810e-03
  2.996274e+00    4.545720e-01   5.697019e-03
  2.998484e+00    4.661368e-01   5.766307e-03
  3.000694e+00    4.567221e-01   5.704308e-03
  3.002905e+00    4.711811e-01   5.790904e-03
  3.005115e+00    4.675176e-01   5.765325e-03
  3.007326e+00    4.705097e-01   5.780519e-03
  3.009536e+00    4.752406e-01   5.806180e-03
  3.011747e+00    4.814624e-01   5.841076e-03
  3.013957e+00    4.587799e-01   5.698606e-03
  3.016168e+00    4.581419e-01   5.691390e-03
  3.018378e+00    4.469712e-01   5.618532e-03
  3.020589e+00    4.576851e-01   5.682234e-03
  3.022799e+00    4.635015e-01   5.715047e-03
  3.025010e+00    4.671244e-01   5.734030e-03
  3.027220e+00    4.588287e-01   5.679779e-03
  3.029430e+00    4.514803e-01   5.630849e-03
  3.031641e+00    4.615901e-01   5.690370e-03
  3.033851e+00    4.620381e-01   5.689589e-03
  3.036062e+00    4.545075e-01   5.640236e-03
  3.038272e+00    4.584088e-01   5.660788e-03
  3.040483e+00    4.540112e-01   5.630348e-03
  3.042693e+00    4.575808e-01   5.649134e-03
  3.044904e+00    4.560627e-01   5.635718e-03
  3.047114e+00    4.679777e-01   5.703971e-03
  3.049325e+00    4.574867e-01   5.635243e-03
  3.051535e+00    4.570554e-01   5.628170e-03
  3.053745e+00    4.575811e-01   5.626611e-03
  3.055956e+00    4.537413e-01   5.598373e-03
  3.058166e+00    4.552125e-01   5.603139e-03
  3.060377e+00    4.630181e-01   5.646146e-03
  3.062587e+00    4.511732e-01   5.568842e-03
  3.064798e+00    4.376903e-01   5.480778e-03
  3.067008e+00    4.476694e-01   5.538212e-03
  3.069219e+00    4.435980e-01   5.508458e-03
  3.071429e+00    4.570848e-01   5.588043e-03
  3.073640e+00    4.489563e-01   5.534814e-03
  3.075850e+00    4.440656e-01   5.501017e-03
  3.078060e+00    4.431281e-01   5.492111e-03
  3.080271e+00    4.511441e-01   5.538083e-03
  3.082481e+00    4.557334e-01   5.562706e-03
  3.084692e+00    4.538159e-01   5.547603e-03
  3.086902e+00    4.466428e-01   5.500349e-03
  3.089113e+00    4.515098e-01   5.526634e-03
  3.091323e+00    4.574015e-01   5.559178e-03
  3.093534e+00    4.491497e-01   5.505427e-03
  3.095744e+00    4.592389e-01   5.563488e-03
  3.097955e+00    4.549570e-01   5.533930e-03
  3.100165e+00    4.586929e-01   5.553217e-03
  3.102375e+00    4.580995e-01   5.546172e-03
  3.104586e+00    4.438368e-01   5.455667e-03
  3.106796e+00    4.411843e-01   5.435840e-03
  3.109007e+00    4.531538e-01   5.505835e-03
  3.111217e+00    4.431847e-01   5.441260e-03
  3.113428e+00    4.510927e-01   5.486159e-03
  3.115638e+00    4.489268e-01   5.469725e-03
  3.117849e+00    4.553674e-01   5.505048e-03
  3.120059e+00    4.610523e-01   5.535782e-03
  3.122270e+00    4.568338e-01   5.507108e-03
  3.124480e+00    4.649020e-01   5.551751e-03
  3.126691e+00    4.493697e-01   5.454640e-03
  3.128901e+00    4.424114e-01   5.409139e-03
  3.131111e+00    4.453547e-01   5.423238e-03
  3.133322e+00    4.457463e-01   5.422195e-03
  3.135532e+00    4.450993e-01   5.414821e-03
  3.137743e+00    4.533221e-01   5.461127e-03
  3.139953e+00    4.374107e-01   5.360758e-03
  3.142164e+00    4.296299e-01   5.324700e-03
  3.144374e+00    4.443932e-01   5.443873e-03
  3.146585e+00    4.516591e-01   5.502920e-03
  3.148795e+00    4.306516e-01   5.384052e-03
  3.151006e+00    4.419295e-01   5.462634e-03
  3.153216e+00    4.481975e-01   5.508434e-03
  3.155426e+00    4.450406e-01   5.495328e-03
  3.157637e+00    4.443010e-01   5.496326e-03
  3.159847e+00    4.379039e-01   5.461460e-03
  3.162058e+00    4.418468e-01   5.490436e-03
  3.164268e+00    4.434457e-01   5.504428e-03
  3.166479e+00    4.466554e-01   5.528018e-03
  3.168689e+00    4.451159e-01   5.521847e-03
  3.170900e+00    4.412236e-01   5.500844e-03
  3.173110e+00    4.439656e-01   5.520799e-03
  3.175321e+00    4.512358e-01   5.568353e-03
  3.177531e+00    4.342821e-01   5.465462e-03
  3.179741e+00    4.430421e-01   5.522396e-03
  3.181952e+00    4.396346e-01   5.503244e-03
  3.184162e+00    4.396266e-01   5.505381e-03
  3.186373e+00    4.383549e-01   5.499016e-03
  3.188583e+00    4.357612e-01   5.484500e-03
  3.190794e+00    4.470277e-01   5.556728e-03
  3.193004e+00    4.464565e-01   5.554446e-03
  3.195215e+00    4.443318e-01   5.542714e-03
  3.197425e+00    4.500896e-01   5.579758e-03
  3.199636e+00    4.365528e-01   5.494438e-03
  3.201846e+00    4.254304e-01   5.423384e-03
  3.204056e+00    4.337169e-01   5.476838e-03
  3.206267e+00    4.346259e-01   5.483423e-03
  3.208477e+00    4.373370e-01   5.501427e-03
  3.210688e+00    4.314796e-01   5.465299e-03
  3.212898e+00    4.506218e-01   5.585807e-03
  3.215109e+00    4.372490e-01   5.503073e-03
  3.217319e+00    4.355106e-01   5.492729e-03
  3.219530e+00    4.442391e-01   5.547930e-03
  3.221740e+00    4.379025e-01   5.508760e-03
  3.223951e+00    4.395953e-01   5.519900e-03
  3.226161e+00    4.274110e-01   5.443030e-03
  3.228372e+00    4.296667e-01   5.457907e-03
  3.230582e+00    4.290445e-01   5.454095e-03
  3.232792e+00    4.269894e-01   5.441261e-03
  3.235003e+00    4.197778e-01   5.395334e-03
  3.237213e+00    4.254707e-01   5.431898e-03
  3.239424e+00    4.290129e-01   5.454462e-03
  3.241634e+00    4.393446e-01   5.519869e-03
  3.243845e+00    4.483171e-01   5.576040e-03
  3.246055e+00    4.400237e-01   5.523928e-03
  3.248266e+00    4.413308e-01   5.532352e-03
  3.250476e+00    4.370656e-01   5.505236e-03
  3.252687e+00    4.337416e-01   5.484189e-03
  3.254897e+00    4.321392e-01   5.473909e-03
  3.257107e+00    4.457070e-01   5.558874e-03
  3.259318e+00    4.234968e-01   5.418377e-03
  3.261528e+00    4.290191e-01   5.453431e-03
  3.263739e+00    4.280107e-01   5.446467e-03
  3.265949e+00    4.286188e-01   5.450211e-03
  3.268160e+00    4.286368e-01   5.449901e-03
  3.270370e+00    4.258522e-01   5.431674e-03
  3.272581e+00    4.291668e-01   5.452476e-03
  3.274791e+00    4.288182e-01   5.449735e-03
  3.277002e+00    4.274236e-01   5.440308e-03
  3.279212e+00    4.356526e-01   5.492046e-03
  3.281422e+00    4.244834e-01   5.420596e-03
  3.283633e+00    4.329403e-01   5.473657e-03
  3.285843e+00    4.302605e-01   5.456342e-03
  3.288054e+00    4.216475e-01   5.400518e-03
  3.290264e+00    4.244270e-01   5.417978e-03
  3.292475e+00    4.307853e-01   5.457560e-03
  3.294685e+00    4.313911e-01   5.460763e-03
  3.296896e+00    4.363863e-01   5.491512e-03
  3.299106e+00    4.409515e-01   5.519599e-03
  3.301317e+00    4.322048e-01   5.463566e-03
  3.303527e+00    4.280487e-01   5.436741e-03
  3.305737e+00    4.272056e-01   5.430339e-03
  3.307948e+00    4.273739e-01   5.430736e-03
  3.310158e+00    4.318037e-01   5.457952e-03
  3.312369e+00    4.271064e-01   5.427286e-03
  3.314579e+00    4.230816e-01   5.400763e-03
  3.316790e+00    4.205796e-01   5.384048e-03
  3.319000e+00    4.306719e-01   5.447072e-03
  3.321211e+00    4.258122e-01   5.415651e-03
  3.323421e+00    4.238141e-01   5.401707e-03
  3.325632e+00    4.415096e-01   5.512400e-03
  3.327842e+00    4.412313e-01   5.509770e-03
  3.330052e+00    4.244662e-01   5.402985e-03
  3.332263e+00    4.213606e-01   5.382176e-03
  3.334473e+00    4.262479e-01   5.412376e-03
  3.336684e+00    4.222810e-01   5.385863e-03
  3.338894e+00    4.378182e-01   5.483193e-03
  3.341105e+00    4.273340e-01   5.415926e-03
  3.343315e+00    4.457742e-01   5.530383e-03
  3.345526e+00    4.259470e-01   5.405077e-03
  3.347736e+00    4.367746e-01   5.471921e-03
  3.349947e+00    4.355943e-01   5.463559e-03
  3.352157e+00    4.375266e-01   5.474467e-03
  3.354368e+00    4.318933e-01   5.437814e-03
  3.356578e+00    4.282237e-01   5.413614e-03
  3.358788e+00    4.235870e-01   5.382898e-03
  3.360999e+00    4.202634e-01   5.360498e-03
  3.363209e+00    4.119105e-01   5.305929e-03
  3.365420e+00    4.146993e-01   5.322374e-03
  3.367630e+00    3.977976e-01   5.211768e-03
  3.369841e+00    4.141805e-01   5.316607e-03
  3.372051e+00    4.229227e-01   5.370406e-03
  3.374262e+00    4.205875e-01   5.353130e-03
  3.376472e+00    4.093242e-01   5.278541e-03
  3.378683e+00    4.155812e-01   5.316222e-03
  3.380893e+00    4.114052e-01   5.287113e-03
  3.383103e+00    4.196792e-01   5.337313e-03
  3.385314e+00    4.111133e-01   5.280341e-03
  3.387524e+00    4.140877e-01   5.296674e-03
  3.389735e+00    4.020962e-01   5.216823e-03
  3.391945e+00    4.141361e-01   5.290667e-03
  3.394156e+00    4.102663e-01   5.261688e-03
  3.396366e+00    4.180752e-01   5.308087e-03
  3.398577e+00    4.155927e-01   5.289277e-03
  3.400787e+00    4.077627e-01   5.251037e-03
  3.402998e+00    3.964522e-01   5.215168e-03
  3.405208e+00    3.983777e-01   5.248252e-03
  3.407418e+00    4.098402e-01   5.339203e-03
  3.409629e+00    4.016457e-01   5.299515e-03
  3.411839e+00    3.994981e-01   5.297129e-03
  3.414050e+00    3.948713e-01   5.277311e-03
  3.416260e+00    3.933113e-01   5.276505e-03
  3.418471e+00    4.052387e-01   5.365466e-03
  3.420681e+00    4.012002e-01   5.347264e-03
  3.422892e+00    4.002966e-01   5.349332e-03
  3.425102e+00    3.857933e-01   5.259316e-03
  3.427313e+00    3.920867e-01   5.309253e-03
  3.429523e+00    3.845779e-01   5.265198e-03
  3.431733e+00    3.704632e-01   5.174224e-03
  3.433944e+00    3.732122e-01   5.199763e-03
  3.436154e+00    3.783503e-01   5.241637e-03
  3.438365e+00    3.858617e-01   5.299348e-03
  3.440575e+00    3.848028e-01   5.298072e-03
  3.442786e+00    3.820544e-01   5.284745e-03
  3.444996e+00    3.787815e-01   5.267552e-03
  3.447207e+00    3.720475e-01   5.225808e-03
  3.449417e+00    3.692718e-01   5.246946e-03
  3.451628e+00    3.704424e-01   5.284785e-03
  3.453838e+00    3.728604e-01   5.323288e-03
  3.456049e+00    3.775419e-01   5.380870e-03
  3.458259e+00    3.785282e-01   5.410181e-03
  3.460469e+00    3.695396e-01   5.365421e-03
  3.462680e+00    3.797672e-01   5.458585e-03
  3.464890e+00    3.709607e-01   5.412814e-03
  3.467101e+00    3.786450e-01   5.486321e-03
  3.469311e+00    3.843193e-01   5.544156e-03
  3.471522e+00    3.711420e-01   5.464574e-03
  3.473732e+00    4.119892e-01   5.774066e-03
  3.475943e+00    3.826349e-01   5.580291e-03
  3.478153e+00    4.002910e-01   5.723246e-03
  3.480364e+00    4.073593e-01   5.788974e-03
  3.482574e+00    4.108546e-01   5.829256e-03
  3.484784e+00    4.088065e-01   5.829509e-03
  3.486995e+00    4.189328e-01   5.916438e-03
  3.489205e+00    4.488306e-01   6.139019e-03
  3.491416e+00    4.432735e-01   6.116105e-03
  3.493626e+00    4.454143e-01   6.145596e-03
  3.495837e+00    4.671595e-01   6.309047e-03
  3.498047e+00    4.562945e-01   6.249927e-03
  3.500258e+00    4.539084e-01   6.248167e-03
  3.502468e+00    4.503200e-01   6.237793e-03
  3.504679e+00    4.628728e-01   6.338622e-03
  3.506889e+00    4.845527e-01   6.500116e-03
  3.509099e+00    4.849393e-01   6.517287e-03
  3.511310e+00    4.753461e-01   6.466944e-03
  3.513520e+00    4.740928e-01   6.472703e-03
  3.515731e+00    4.998834e-01   6.661021e-03
  3.517941e+00    4.963205e-01   6.651679e-03
  3.520152e+00    4.974796e-01   6.673812e-03
  3.522362e+00    5.189772e-01   6.831209e-03
  3.524573e+00    5.192994e-01   6.847815e-03
  3.526783e+00    5.249509e-01   6.898497e-03
  3.528994e+00    5.490344e-01   7.067577e-03
  3.531204e+00    5.322338e-01   6.971240e-03
  3.533414e+00    5.526910e-01   7.116294e-03
  3.535625e+00    5.626294e-01   7.192764e-03
  3.537835e+00    5.516665e-01   7.134681e-03
  3.540046e+00    5.407629e-01   7.072804e-03
  3.542256e+00    5.614399e-01   7.214460e-03
  3.544467e+00    5.354030e-01   7.052812e-03
  3.546677e+00    5.435033e-01   7.113579e-03
  3.548888e+00    5.603015e-01   7.230332e-03
  3.551098e+00    5.493627e-01   7.166818e-03
  3.553309e+00    5.478389e-01   7.165105e-03
  3.555519e+00    5.484753e-01   7.180692e-03
  3.557729e+00    5.367083e-01   7.114993e-03
  3.559940e+00    5.226334e-01   7.032463e-03
  3.562150e+00    5.431594e-01   7.181013e-03
  3.564361e+00    5.520014e-01   7.252767e-03
  3.566571e+00    5.275638e-01   7.104131e-03
  3.568782e+00    5.371884e-01   7.182737e-03
  3.570992e+00    5.570900e-01   7.328621e-03
  3.573203e+00    5.546569e-01   7.326986e-03
  3.575413e+00    5.613920e-01   7.385440e-03
  3.577624e+00    5.450078e-01   7.291116e-03
  3.579834e+00    5.531670e-01   7.359586e-03
  3.582045e+00    5.478313e-01   7.338197e-03
  3.584255e+00    5.324141e-01   7.248215e-03
  3.586465e+00    5.304344e-01   7.248591e-03
  3.588676e+00    5.483001e-01   7.383943e-03
  3.590886e+00    5.540158e-01   7.436349e-03
  3.593097e+00    5.348810e-01   7.321268e-03
  3.595307e+00    5.464455e-01   7.414020e-03
  3.597518e+00    5.608473e-01   7.525665e-03
  3.599728e+00    5.554429e-01   7.503685e-03
  3.601939e+00    5.452712e-01   7.448823e-03
  3.604149e+00    5.477894e-01   7.480591e-03
  3.606360e+00    5.358974e-01   7.413084e-03
  3.608570e+00    5.453186e-01   7.492261e-03
  3.610780e+00    5.366110e-01   7.443294e-03
  3.612991e+00    5.562544e-01   7.588474e-03
  3.615201e+00    5.654355e-01   7.660952e-03
  3.617412e+00    5.440104e-01   7.521776e-03
  3.619622e+00    5.327881e-01   7.449676e-03
  3.621833e+00    5.527622e-01   7.594888e-03
  3.624043e+00    5.366343e-01   7.492781e-03
  3.626254e+00    5.381905e-01   7.513393e-03
  3.628464e+00    5.492902e-01   7.601602e-03
  3.630675e+00    5.346419e-01   7.513671e-03
  3.632885e+00    5.502074e-01   7.636923e-03
  3.635095e+00    5.615440e-01   7.729997e-03
  3.637306e+00    5.545160e-01   7.696100e-03
  3.639516e+00    5.392383e-01   7.603985e-03
  3.641727e+00    5.233241e-01   7.505325e-03
  3.643937e+00    5.333008e-01   7.591082e-03
  3.646148e+00    5.596697e-01   7.791474e-03
  3.648358e+00    5.440127e-01   7.696745e-03
  3.650569e+00    5.333140e-01   7.635401e-03
  3.652779e+00    5.383870e-01   7.686476e-03
  3.654990e+00    5.445457e-01   7.745382e-03
  3.657200e+00    5.289921e-01   7.648822e-03
  3.659410e+00    5.391114e-01   7.736695e-03
  3.661621e+00    5.208226e-01   7.619256e-03
  3.663831e+00    5.336441e-01   7.727621e-03
  3.666042e+00    5.493210e-01   7.855732e-03
  3.668252e+00    5.370339e-01   7.782718e-03
  3.670463e+00    5.255994e-01   7.714537e-03
  3.672673e+00    5.483838e-01   7.895662e-03
  3.674884e+00    5.243626e-01   7.736115e-03
  3.677094e+00    5.369337e-01   7.843909e-03
  3.679305e+00    5.415851e-01   7.893492e-03
  3.681515e+00    5.322567e-01   7.840920e-03
  3.683726e+00    5.190369e-01   7.758534e-03
  3.685936e+00    5.427099e-01   7.949412e-03
  3.688146e+00    5.302208e-01   7.873229e-03
  3.690357e+00    5.467287e-01   8.011058e-03
  3.692567e+00    5.417125e-01   7.990599e-03
  3.694778e+00    5.484692e-01   8.056632e-03
  3.696988e+00    5.292694e-01   7.930455e-03
  3.699199e+00    4.999289e-01   7.723279e-03
  3.701409e+00    5.270429e-01   7.946365e-03
  3.703620e+00    5.388549e-01   8.051445e-03
  3.705830e+00    5.497007e-01   8.148886e-03
  3.708041e+00    5.427154e-01   8.113805e-03
  3.710251e+00    5.395179e-01   8.106864e-03
  3.712461e+00    5.299810e-01   8.051734e-03
  3.714672e+00    5.292075e-01   8.062690e-03
  3.716882e+00    5.402026e-01   8.163054e-03
  3.719093e+00    5.105302e-01   7.952691e-03
  3.721303e+00    5.163238e-01   8.014584e-03
  3.723514e+00    5.100272e-01   7.982652e-03
  3.725724e+00    5.268485e-01   8.130512e-03
  3.727935e+00    5.296918e-01   8.170093e-03
  3.730145e+00    5.067921e-01   8.008730e-03
  3.732356e+00    5.055171e-01   8.015940e-03
  3.734566e+00    5.380341e-01   8.287668e-03
  3.736776e+00    5.179875e-01   8.149667e-03
  3.738987e+00    5.249839e-01   8.222381e-03
  3.741197e+00    5.253136e-01   8.243188e-03
  3.743408e+00    5.404476e-01   8.379641e-03
  3.745618e+00    5.269220e-01   8.292644e-03
  3.747829e+00    5.399100e-01   8.412862e-03
  3.750039e+00    5.193605e-01   8.269701e-03
  3.752250e+00    5.261333e-01   8.342198e-03
  3.754460e+00    5.291222e-01   8.384718e-03
  3.756671e+00    5.255944e-01   8.375846e-03
  3.758881e+00    5.062827e-01   8.239123e-03
  3.761091e+00    5.110406e-01   8.296899e-03
  3.763302e+00    5.131409e-01   8.333151e-03
  3.765512e+00    5.205886e-01   8.412867e-03
  3.767723e+00    5.125196e-01   8.366890e-03
  3.769933e+00    5.179032e-01   8.430231e-03
  3.772144e+00    5.323242e-01   8.566926e-03
  3.774354e+00    5.235997e-01   8.516601e-03
  3.776565e+00    5.268661e-01   8.563410e-03
  3.778775e+00    5.174668e-01   8.506889e-03
  3.780986e+00    4.769061e-01   8.186481e-03
  3.783196e+00    4.782097e-01   8.217311e-03
  3.785407e+00    5.177712e-01   8.571208e-03
  3.787617e+00    5.154201e-01   8.572740e-03
  3.789827e+00    5.111452e-01   8.557817e-03
  3.792038e+00    5.267681e-01   8.709012e-03
  3.794248e+00    4.807239e-01   8.340416e-03
  3.796459e+00    4.883599e-01   8.427395e-03
  3.798669e+00    5.154506e-01   8.679722e-03
  3.800880e+00    5.173516e-01   8.717524e-03
  3.803090e+00    5.130053e-01   8.702870e-03
  3.805301e+00    5.303856e-01   8.871883e-03
  3.807511e+00    4.870094e-01   8.523134e-03
  3.809722e+00    4.954008e-01   8.618241e-03
  3.811932e+00    5.212646e-01   8.863122e-03
  3.814142e+00    5.202698e-01   8.877995e-03
  3.816353e+00    5.159370e-01   8.864204e-03
  3.818563e+00    5.084052e-01   8.822587e-03
  3.820774e+00    5.078282e-01   8.840948e-03
  3.822984e+00    5.012844e-01   8.807252e-03
  3.825195e+00    5.060119e-01   8.872622e-03
  3.827405e+00    4.929759e-01   8.781328e-03
  3.829616e+00    5.004486e-01   8.871765e-03
  3.831826e+00    5.317306e-01   9.169819e-03
  3.834037e+00    5.285972e-01   9.168122e-03
  3.836247e+00    5.053722e-01   8.989259e-03
  3.838457e+00    5.067398e-01   9.026698e-03
  3.840668e+00    5.303504e-01   9.260671e-03
  3.842878e+00    5.213959e-01   9.208357e-03
  3.845089e+00    5.082837e-01   9.117671e-03
  3.847299e+00    4.876583e-01   8.956376e-03
  3.849510e+00    4.931957e-01   9.032889e-03
  3.851720e+00    5.118604e-01   9.223946e-03
  3.853931e+00    5.237653e-01   9.350192e-03
  3.856141e+00    5.201573e-01   9.337393e-03
  3.858352e+00    5.116709e-01   9.280564e-03
  3.860562e+00    5.095421e-01   9.280758e-03
  3.862772e+00    5.193857e-01   9.390107e-03
  3.864983e+00    5.265857e-01   9.475263e-03
  3.867193e+00    4.980613e-01   9.234977e-03
  3.869404e+00    4.950806e-01   9.227070e-03
  3.871614e+00    5.106357e-01   9.391273e-03
  3.873825e+00    5.327614e-01   9.613690e-03
  3.876035e+00    5.005842e-01   9.339602e-03
  3.878246e+00    4.899292e-01   9.265333e-03
  3.880456e+00    5.002299e-01   9.391461e-03
  3.882667e+00    5.027500e-01   9.444763e-03
  3.884877e+00    5.157622e-01   9.596649e-03
  3.887087e+00    4.777780e-01   9.266035e-03
  3.889298e+00    4.980500e-01   9.491090e-03
  3.891508e+00    5.140150e-01   9.673302e-03
  3.893719e+00    5.196608e-01   9.758140e-03
  3.895929e+00    5.163534e-01   9.759296e-03
  3.898140e+00    5.012165e-01   9.647278e-03
  3.900350e+00    5.181060e-01   9.841414e-03
  3.902561e+00    5.199623e-01   9.892404e-03
  3.904771e+00    5.069048e-01   9.800849e-03
  3.906982e+00    4.786621e-01   9.556584e-03
  3.909192e+00    5.067359e-01   9.866947e-03
  3.911403e+00    4.825690e-01   9.662594e-03
  3.913613e+00    4.963464e-01   9.834098e-03
  3.915823e+00    4.942531e-01   9.848298e-03
  3.918034e+00    4.978215e-01   9.919466e-03
  3.920244e+00    4.978894e-01   9.956175e-03
  3.922455e+00    5.063568e-01   1.007723e-02
  3.924665e+00    4.863780e-01   9.912806e-03
  3.926876e+00    4.955594e-01   1.004330e-02
  3.929086e+00    5.099366e-01   1.022615e-02
  3.931297e+00    4.695419e-01   9.847071e-03
  3.933507e+00    4.656965e-01   9.834688e-03
  3.935718e+00    5.034073e-01   1.025457e-02
  3.937928e+00    4.924432e-01   1.017179e-02
  3.940138e+00    5.057026e-01   1.033769e-02
  3.942349e+00    4.895432e-01   1.020114e-02
  3.944559e+00    4.904123e-01   1.024029e-02
  3.946770e+00    4.896765e-01   1.026285e-02
  3.948980e+00    4.694728e-01   1.007911e-02
  3.951191e+00    5.287223e-01   1.072839e-02
  3.953401e+00    5.046590e-01   1.051328e-02
  3.955612e+00    5.104592e-01   1.060602e-02
  3.957822e+00    5.107985e-01   1.064204e-02
  3.960033e+00    5.161641e-01   1.073135e-02
  3.962243e+00    5.298813e-01   1.090737e-02
  3.964453e+00    5.110268e-01   1.074547e-02
  3.966664e+00    5.025407e-01   1.068995e-02
  3.968874e+00    4.998608e-01   1.069011e-02
  3.971085e+00    4.951883e-01   1.066218e-02
  3.973295e+00    5.288303e-01   1.104082e-02
  3.975506e+00    5.232768e-01   1.100514e-02
  3.977716e+00    5.240312e-01   1.103599e-02
  3.979927e+00    4.723345e-01   1.049927e-02
  3.982137e+00    4.852778e-01   1.066445e-02
  3.984348e+00    4.935541e-01   1.077775e-02
  3.986558e+00    5.114644e-01   1.099449e-02
  3.988768e+00    4.978900e-01   1.087089e-02
  3.990979e+00    5.040414e-01   1.096103e-02
  3.993189e+00    4.727726e-01   1.063843e-02
  3.995400e+00    5.172493e-01   1.115180e-02
  3.997610e+00    5.296047e-01   1.131545e-02
  3.999821e+00    5.057678e-01   1.109618e-02
  4.002031e+00    4.998111e-01   1.106964e-02
  4.004242e+00    5.056450e-01   1.117328e-02
  4.006452e+00    5.152318e-01   1.131938e-02
  4.008663e+00    4.988961e-01   1.117907e-02
  4.010873e+00    5.019172e-01   1.125352e-02
  4.013084e+00    5.010748e-01   1.128571e-02
  4.015294e+00    4.909974e-01   1.121296e-02
  4.017504e+00    4.734800e-01   1.105246e-02
  4.019715e+00    4.698260e-01   1.105164e-02
  4.021925e+00    4.985408e-01   1.142789e-02
  4.024136e+00    4.907835e-01   1.138269e-02
  4.026346e+00    5.197417e-01   1.175934e-02
  4.028557e+00    4.701134e-01   1.122760e-02
  4.030767e+00    5.164846e-01   1.181539e-02
  4.032978e+00    5.125878e-01   1.181850e-02
  4.035188e+00    4.887576e-01   1.158696e-02
  4.037399e+00    4.674738e-01   1.137852e-02
  4.039609e+00    4.881827e-01   1.167586e-02
  4.041819e+00    4.994942e-01   1.185987e-02
  4.044030e+00    5.046139e-01   1.197153e-02
  4.046240e+00    4.868090e-01   1.180845e-02
  4.048451e+00    4.814122e-01   1.179372e-02
  4.050661e+00    5.428258e-01   1.257776e-02
  4.052872e+00    5.149664e-01   1.230549e-02
  4.055082e+00    4.990973e-01   1.216873e-02
  4.057293e+00    4.652425e-01   1.180159e-02
  4.059503e+00    4.537072e-01   1.170724e-02
  4.061714e+00    4.964000e-01   1.230300e-02
  4.063924e+00    4.990292e-01   1.239331e-02
  4.066134e+00    4.992186e-01   1.245401e-02
  4.068345e+00    4.632005e-01   1.205424e-02
  4.070555e+00    4.787437e-01   1.231380e-02
  4.072766e+00    4.468973e-01   1.195586e-02
  4.074976e+00    4.669910e-01   1.228251e-02
  4.077187e+00    4.915313e-01   1.266379e-02
  4.079397e+00    4.652395e-01   1.238354e-02
  4.081608e+00    4.872253e-01   1.273851e-02
  4.083818e+00    4.873087e-01   1.280592e-02
  4.086029e+00    4.807749e-01   1.278672e-02
  4.088239e+00    4.438907e-01   1.235278e-02
  4.090449e+00    4.973905e-01   1.314666e-02
  4.092660e+00    5.056826e-01   1.332905e-02
  4.094870e+00    4.553906e-01   1.271906e-02
  4.097081e+00    4.607923e-01   1.286431e-02
  4.099291e+00    5.074319e-01   1.355560e-02
  4.101502e+00    5.026488e-01   1.354194e-02
  4.103712e+00    5.000013e-01   1.355646e-02
  4.105923e+00    5.195565e-01   1.387260e-02
  4.108133e+00    4.589581e-01   1.308873e-02
  4.110344e+00    4.761643e-01   1.338282e-02
  4.112554e+00    4.834975e-01   1.353874e-02
  4.114764e+00    5.057887e-01   1.390303e-02
  4.116975e+00    4.772969e-01   1.355896e-02
  4.119185e+00    4.375901e-01   1.303555e-02
  4.121396e+00    4.275762e-01   1.293867e-02
  4.123606e+00    4.816603e-01   1.378875e-02
  4.125817e+00    4.549223e-01   1.345699e-02
  4.128027e+00    4.908916e-01   1.403764e-02
  4.130238e+00    4.692663e-01   1.378379e-02
  4.132448e+00    5.283649e-01   1.468945e-02
  4.134659e+00    4.839536e-01   1.411923e-02
  4.136869e+00    4.656813e-01   1.391170e-02
  4.139080e+00    5.111543e-01   1.464063e-02
  4.141290e+00    5.252649e-01   1.490747e-02
  4.143500e+00    4.845631e-01   1.438417e-02
  4.145711e+00    4.583498e-01   1.405493e-02
  4.147921e+00    4.563781e-01   1.408911e-02
  4.150132e+00    4.969362e-01   1.477185e-02
  4.152342e+00    5.465124e-01   1.556624e-02
  4.154553e+00    4.924911e-01   1.484737e-02
  4.156763e+00    5.092672e-01   1.517264e-02
  4.158974e+00    5.176669e-01   1.537434e-02
  4.161184e+00    4.866079e-01   1.497984e-02
  4.163395e+00    5.249362e-01   1.563800e-02
  4.165605e+00    5.181236e-01   1.561706e-02
  4.167815e+00    4.925050e-01   1.530559e-02
  4.170026e+00    5.101104e-01   1.565863e-02
  4.172236e+00    4.678094e-01   1.507659e-02
  4.174447e+00    4.437912e-01   1.476425e-02
  4.176657e+00    4.706069e-01   1.528685e-02
  4.178868e+00    4.883338e-01   1.566033e-02
  4.181078e+00    4.811347e-01   1.563183e-02
  4.183289e+00    5.219381e-01   1.637446e-02
  4.185499e+00    5.214083e-01   1.646284e-02
  4.187710e+00    5.190420e-01   1.652166e-02
  4.189920e+00    4.815534e-01   1.600959e-02
  4.192130e+00    4.625655e-01   1.578669e-02
  4.194341e+00    4.718564e-01   1.604207e-02
  4.196551e+00    5.089525e-01   1.676646e-02
  4.198762e+00    5.039186e-01   1.678922e-02
  4.200972e+00    4.651650e-01   1.623509e-02
  4.203183e+00    4.078670e-01   1.530262e-02
  4.205393e+00    4.677398e-01   1.649618e-02
  4.207604e+00    4.876359e-01   1.695850e-02
  4.209814e+00    4.677693e-01   1.672348e-02
  4.212025e+00    4.351196e-01   1.624339e-02
  4.214235e+00    4.688509e-01   1.698073e-02
  4.216445e+00    4.891777e-01   1.747042e-02
  4.218656e+00    4.294994e-01   1.649291e-02
  4.220866e+00    4.341195e-01   1.670407e-02
  4.223077e+00    4.509803e-01   1.715636e-02
  4.225287e+00    4.572380e-01   1.741057e-02
  4.227498e+00    4.889254e-01   1.814523e-02
  4.229708e+00    4.857337e-01   1.823306e-02
  4.231919e+00    4.637652e-01   1.796317e-02
  4.234129e+00    5.300327e-01   1.936471e-02
  4.236340e+00    4.411738e-01   1.781842e-02
  4.238550e+00    4.681446e-01   1.851690e-02
  4.240761e+00    4.893616e-01   1.909915e-02
  4.242971e+00    4.815733e-01   1.912015e-02
  4.245181e+00    4.783364e-01   1.923468e-02
  4.247392e+00    4.823898e-01   1.949679e-02
  4.249602e+00    4.913180e-01   1.987143e-02
  4.251813e+00    4.602174e-01   1.942250e-02
  4.254023e+00    4.825094e-01   2.008694e-02
  4.256234e+00    4.929978e-01   2.052137e-02
  4.258444e+00    4.183067e-01   1.910086e-02
  4.260655e+00    5.037871e-01   2.119195e-02
  4.262865e+00    4.927181e-01   2.119627e-02
  4.265076e+00    4.217580e-01   1.983281e-02
  4.267286e+00    4.902374e-01   2.163637e-02
  4.269496e+00    3.966381e-01   1.969993e-02
  4.271707e+00    4.410933e-01   2.102995e-02
  4.273917e+00    4.875168e-01   2.239472e-02
  4.276128e+00    6.019922e-01   2.521718e-02
  4.278338e+00    4.528880e-01   2.216362e-02
  4.280549e+00    5.127131e-01   2.392076e-02
  4.282759e+00    4.795196e-01   2.346620e-02
  4.284970e+00    4.489493e-01   2.304160e-02
  4.287180e+00    4.519682e-01   2.339567e-02
  4.289391e+00    4.627066e-01   2.384984e-02
  4.291601e+00    5.478579e-01   2.615954e-02
  4.293811e+00    5.481720e-01   2.637101e-02
  4.296022e+00    5.630738e-01   2.694214e-02
  4.298232e+00    4.841459e-01   2.519218e-02
  4.300443e+00    4.864451e-01   2.546009e-02
  4.302653e+00    3.713458e-01   2.243745e-02
  4.304864e+00    4.862636e-01   2.589753e-02
  4.307074e+00    4.919767e-01   2.628386e-02
  4.309285e+00    4.637523e-01   2.575087e-02
  4.311495e+00    4.942346e-01   2.683152e-02
  4.313706e+00    4.891671e-01   2.694482e-02
  4.315916e+00    4.910862e-01   2.726337e-02
  4.318126e+00    4.624145e-01   2.671805e-02
  4.320337e+00    4.428320e-01   2.640946e-02
  4.322547e+00    4.366972e-01   2.650435e-02
  4.324758e+00    4.505991e-01   2.720321e-02
  4.326968e+00    4.981675e-01   2.892516e-02
  4.329179e+00    4.965324e-01   2.919594e-02
  4.331389e+00    4.691281e-01   2.870536e-02
  4.333600e+00    4.167238e-01   2.737811e-02
  4.335810e+00    4.713125e-01   2.946191e-02
  4.338021e+00    5.387607e-01   3.190363e-02
  4.340231e+00    5.133041e-01   3.153143e-02
  4.342442e+00    4.797395e-01   3.089231e-02
  4.344652e+00    3.755977e-01   2.770524e-02
  4.346862e+00    4.177158e-01   2.962520e-02
  4.349073e+00    4.477820e-01   3.112119e-02
  4.351283e+00    4.131902e-01   3.034070e-02
  4.353494e+00    4.120915e-01   3.076861e-02
  4.355704e+00    3.784062e-01   2.995919e-02
  4.357915e+00    3.973036e-01   3.120912e-02
  4.360125e+00    4.597135e-01   3.414250e-02
  4.362336e+00    5.210281e-01   3.701247e-02
  4.364546e+00    5.337477e-01   3.814276e-02
  4.366757e+00    4.626198e-01   3.621689e-02
  4.368967e+00    3.954369e-01   3.415265e-02
  4.371177e+00    4.795701e-01   3.840910e-02
  4.373388e+00    4.551104e-01   3.825416e-02
  4.375598e+00    4.399686e-01   3.846979e-02
  4.377809e+00    5.304861e-01   4.331087e-02
  4.380019e+00    5.227091e-01   4.407516e-02
  4.382230e+00    3.691060e-01   3.807018e-02
  4.384440e+00    2.474941e-01   3.207198e-02
  4.386651e+00    3.482499e-01   3.921503e-02
  4.388861e+00    4.779316e-01   4.748210e-02
  4.391072e+00    3.650079e-01   4.295180e-02
  4.393282e+00    4.833692e-01   5.134322e-02
  4.395492e+00    4.822910e-01   5.341426e-02
  4.397703e+00    4.570922e-01   5.437855e-02
  4.399913e+00    4.332302e-01   5.561756e-02
  4.402124e+00    2.798759e-01   4.723633e-02
  4.404334e+00    5.279410e-01   6.896795e-02
  4.406545e+00    3.685854e-01   6.191471e-02
  4.408755e+00    4.413058e-01   7.346775e-02
  4.410966e+00    1.824997e-01   5.229715e-02
  4.413176e+00    3.194140e-01   7.830922e-02
  4.415387e+00   -5.549871e-01            nan
  4.417597e+00   -1.917918e+00            nan
  4.419807e+00   -3.766224e-01            nan
