# == pyFAI calibration ==
# Distance Sample to Detector: 0.216 m
# PONI: 1.166e-01, 1.308e-01 m
# Rotations: 0.000000 0.000000 0.000000 rad
# 
# == Fit2d calibration ==
# Distance Sample-beamCenter: 216.000 mm
# Center: x=1744.293, y=1555.000 pix
# Tilt: 0.000 deg  TiltPlanRot: 0.000 deg
# 
# Detector Eiger 9M	 PixelSize= 7.500e-05, 7.500e-05 m
#    Detector has a mask: True 
#    Detector has a dark current: False 
#    detector has a flat field: False 
# 
# Wavelength: 9.8e-11 m
# Mask applied: from detector
# Dark current applied: False
# Flat field applied: False
# Polarization factor: None
# Normalization factor: 1.0
# 
# Headers of the input frame:
# {
# "_array_data.header_convention": "SLS_1.0",
# "_array_data.header_contents": "# Detector: Dectris Eiger 9M, S/N E-18-0102\r\n# Pixel_size 75e-6 m x 75e-6 m\r\n# Silicon sensor, thickness 0.000450 m\r\n# Exposure_time 0.024997 s\r\n# Exposure_period 0.025000 s\r\n# Count_cutoff 62318 counts\r\n# Wavelength 0.980106 A\r\n# Detector_distance 0.215992 m\r\n# Beam_xy (1555, 1744) pixels\r\n# Start_angle 0.000000 deg.\r\n# Angle_increment 0.000000 deg.",
# "Content-Type": "application/octet-stream;",
# "conversions": "x-CBF_BYTE_OFFSET",
# "Content-Transfer-Encoding": "BINARY",
# "X-Binary-Size": "10166666",
# "X-Binary-ID": "1",
# "X-Binary-Element-Type": "signed 32-bit integer",
# "X-Binary-Element-Byte-Order": "LITTLE_ENDIAN",
# "Content-MD5": "AyYFqa7YREbvA3sGp8lYtA==",
# "X-Binary-Number-of-Elements": "10166590",
# "X-Binary-Size-Fastest-Dimension": "3110",
# "X-Binary-Size-Second-Dimension": "3269",
# "X-Binary-Size-Padding": "4095"
# }
# --> H:/Proxima2a_2019-04-05/RAW_DATA/C5_gel17_position5/C5_mesh_1_data.cbf/C5_mesh_1_data.cbf000106.dat
#        q_A^-1              I           sigma 
  1.105228e-03    1.404073e+00   6.411828e-01
  3.315685e-03    1.792941e+00   4.404823e-01
  5.526141e-03    2.225242e+00   3.794554e-01
  7.736597e-03    1.846613e+00   2.920170e-01
  9.947054e-03    1.096200e+00   1.983451e-01
  1.215751e-02    1.207141e+00   1.882122e-01
  1.436797e-02    1.242434e+00   1.756355e-01
  1.657842e-02    1.400391e+00   1.735678e-01
  1.878888e-02    1.255623e+00   1.543808e-01
  2.099934e-02    1.260103e+00   1.463204e-01
  2.320979e-02    1.370752e+00   1.451484e-01
  2.542025e-02    1.372632e+00   1.387991e-01
  2.763070e-02    1.382049e+00   1.335833e-01
  2.984116e-02    1.363399e+00   1.276697e-01
  3.205162e-02    1.450750e+00   1.270815e-01
  3.426207e-02    1.483067e+00   1.242669e-01
  3.647253e-02    1.518829e+00   1.218833e-01
  3.868299e-02    1.529720e+00   1.187823e-01
  4.089344e-02    1.261238e+00   1.049009e-01
  4.310390e-02    1.361320e+00   1.061461e-01
  4.531436e-02    1.383584e+00   1.043683e-01
  4.752481e-02    1.405988e+00   1.027330e-01
  4.973527e-02    1.424613e+00   1.010881e-01
  5.194572e-02    1.477784e+00   1.007415e-01
  5.415618e-02    1.471653e+00   9.845582e-02
  5.636664e-02    1.432877e+00   9.522912e-02
  5.857709e-02    1.308164e+00   8.925769e-02
  6.078755e-02    1.327373e+00   8.825795e-02
  6.299801e-02    1.407655e+00   8.927802e-02
  6.520846e-02    1.463319e+00   8.947055e-02
  6.741892e-02    1.530894e+00   8.999583e-02
  6.962938e-02    1.405184e+00   8.484632e-02
  7.183983e-02    1.457827e+00   8.507954e-02
  7.405029e-02    1.564818e+00   8.681865e-02
  7.626074e-02    1.474108e+00   8.303383e-02
  7.847120e-02    1.527630e+00   8.332647e-02
  8.068166e-02    1.549049e+00   8.275054e-02
  8.289211e-02    1.470137e+00   7.953269e-02
  8.510257e-02    1.366101e+00   7.566427e-02
  8.731303e-02    1.320997e+00   7.345404e-02
  8.952348e-02    1.492474e+00   7.710826e-02
  9.173394e-02    1.537678e+00   7.731552e-02
  9.394439e-02    1.509086e+00   7.568439e-02
  9.615485e-02    1.498021e+00   7.453302e-02
  9.836531e-02    1.483137e+00   7.332180e-02
  1.005758e-01    1.450779e+00   7.171667e-02
  1.027862e-01    1.519863e+00   7.260894e-02
  1.049967e-01    1.613473e+00   7.401859e-02
  1.072071e-01    1.516998e+00   7.102697e-02
  1.094176e-01    1.490130e+00   6.967943e-02
  1.116280e-01    1.440114e+00   6.781694e-02
  1.138385e-01    1.535851e+00   6.935022e-02
  1.160490e-01    1.539263e+00   6.876200e-02
  1.182594e-01    1.528595e+00   6.787840e-02
  1.204699e-01    1.531700e+00   6.732053e-02
  1.226803e-01    1.613015e+00   6.845633e-02
  1.248908e-01    1.614616e+00   6.788067e-02
  1.271012e-01    1.664297e+00   6.831384e-02
  1.293117e-01    1.607146e+00   6.655360e-02
  1.315222e-01    1.529880e+00   6.438460e-02
  1.337326e-01    1.541779e+00   6.409684e-02
  1.359431e-01    1.668424e+00   6.671645e-02
  1.381535e-01    1.494836e+00   6.399816e-02
  1.403640e-01    1.576434e+00   6.600539e-02
  1.425744e-01    1.639601e+00   6.742238e-02
  1.447849e-01    1.566012e+00   6.590713e-02
  1.469953e-01    1.634990e+00   6.730085e-02
  1.492058e-01    1.503104e+00   6.445438e-02
  1.514163e-01    1.559998e+00   6.555381e-02
  1.536267e-01    1.678813e+00   6.787165e-02
  1.558372e-01    1.676387e+00   6.767289e-02
  1.580476e-01    1.661473e+00   6.720771e-02
  1.602581e-01    1.599311e+00   6.577101e-02
  1.624685e-01    1.549946e+00   6.457070e-02
  1.646790e-01    1.635555e+00   6.613951e-02
  1.668895e-01    1.715718e+00   6.754532e-02
  1.690999e-01    1.778220e+00   6.855814e-02
  1.713104e-01    1.654311e+00   6.592119e-02
  1.735208e-01    1.704661e+00   6.670874e-02
  1.757313e-01    1.766964e+00   6.770400e-02
  1.779417e-01    1.925097e+00   7.043818e-02
  1.801522e-01    1.880898e+00   6.940316e-02
  1.823626e-01    1.811993e+00   6.789324e-02
  1.845731e-01    1.852876e+00   6.843248e-02
  1.867836e-01    1.832420e+00   6.782402e-02
  1.889940e-01    1.887531e+00   6.861144e-02
  1.912045e-01    1.928697e+00   6.912401e-02
  1.934149e-01    1.929752e+00   6.891149e-02
  1.956254e-01    1.979796e+00   6.956908e-02
  1.978358e-01    2.021253e+00   7.005283e-02
  2.000463e-01    2.011959e+00   6.965998e-02
  2.022568e-01    2.022321e+00   6.960990e-02
  2.044672e-01    1.978995e+00   6.862432e-02
  2.066777e-01    1.929329e+00   6.753282e-02
  2.088881e-01    1.942479e+00   6.754086e-02
  2.110986e-01    2.000563e+00   6.830819e-02
  2.133090e-01    1.903777e+00   6.641875e-02
  2.155195e-01    1.804608e+00   6.445120e-02
  2.177300e-01    1.946805e+00   6.641640e-02
  2.199404e-01    1.989621e+00   6.537363e-02
  2.221509e-01    1.907233e+00   6.295475e-02
  2.243613e-01    1.995008e+00   6.357086e-02
  2.265718e-01    1.993011e+00   6.283870e-02
  2.287822e-01    2.067997e+00   6.337637e-02
  2.309927e-01    2.075881e+00   6.291860e-02
  2.332031e-01    2.181844e+00   6.395237e-02
  2.354136e-01    2.189893e+00   6.355096e-02
  2.376241e-01    2.179752e+00   6.291151e-02
  2.398345e-01    2.110704e+00   6.144892e-02
  2.420450e-01    2.053857e+00   6.018255e-02
  2.442554e-01    2.063876e+00   5.991354e-02
  2.464659e-01    2.203182e+00   6.148691e-02
  2.486763e-01    2.222497e+00   6.134995e-02
  2.508868e-01    2.181809e+00   6.040232e-02
  2.530973e-01    2.180937e+00   6.001582e-02
  2.553077e-01    2.208580e+00   6.002863e-02
  2.575182e-01    2.186378e+00   5.937278e-02
  2.597286e-01    2.117096e+00   5.808489e-02
  2.619391e-01    2.060750e+00   5.697680e-02
  2.641495e-01    2.008562e+00   5.593937e-02
  2.663600e-01    1.990751e+00   5.538453e-02
  2.685704e-01    2.081748e+00   5.632918e-02
  2.707809e-01    2.142358e+00   5.684001e-02
  2.729914e-01    2.079562e+00   5.570893e-02
  2.752018e-01    2.025438e+00   5.469304e-02
  2.774123e-01    2.033681e+00   5.452427e-02
  2.796227e-01    2.003706e+00   5.385325e-02
  2.818332e-01    1.999194e+00   5.352422e-02
  2.840436e-01    2.019243e+00   5.353120e-02
  2.862541e-01    1.947647e+00   5.232088e-02
  2.884646e-01    1.990225e+00   5.263869e-02
  2.906750e-01    1.906000e+00   5.126858e-02
  2.928855e-01    1.924800e+00   5.128209e-02
  2.950959e-01    1.954450e+00   5.143817e-02
  2.973064e-01    1.961194e+00   5.129527e-02
  2.995168e-01    1.969414e+00   5.116985e-02
  3.017273e-01    1.945930e+00   5.063959e-02
  3.039377e-01    1.962761e+00   5.063543e-02
  3.061482e-01    1.905261e+00   4.967242e-02
  3.083587e-01    1.911941e+00   4.954402e-02
  3.105691e-01    1.897923e+00   4.915125e-02
  3.127796e-01    1.875604e+00   4.865595e-02
  3.149900e-01    1.887719e+00   4.860946e-02
  3.172005e-01    1.908806e+00   4.868034e-02
  3.194109e-01    1.902199e+00   4.839538e-02
  3.216214e-01    1.915842e+00   4.837047e-02
  3.238319e-01    1.942330e+00   4.851073e-02
  3.260423e-01    1.913986e+00   4.796367e-02
  3.282528e-01    1.975610e+00   4.853568e-02
  3.304632e-01    1.915988e+00   4.761255e-02
  3.326737e-01    1.921549e+00   4.749553e-02
  3.348841e-01    1.865159e+00   4.661198e-02
  3.370946e-01    1.843894e+00   4.617114e-02
  3.393050e-01    1.822962e+00   4.573443e-02
  3.415155e-01    1.813980e+00   4.545008e-02
  3.437260e-01    1.760147e+00   4.460465e-02
  3.459364e-01    1.765030e+00   4.450125e-02
  3.481469e-01    1.774675e+00   4.445979e-02
  3.503573e-01    1.812215e+00   4.476390e-02
  3.525678e-01    1.865382e+00   4.525395e-02
  3.547782e-01    1.796254e+00   4.424702e-02
  3.569887e-01    1.790382e+00   4.401811e-02
  3.591992e-01    1.818046e+00   4.419993e-02
  3.614096e-01    1.821411e+00   4.408742e-02
  3.636201e-01    1.813233e+00   4.383377e-02
  3.658305e-01    1.807313e+00   4.361286e-02
  3.680410e-01    1.838716e+00   4.383884e-02
  3.702514e-01    1.759477e+00   4.273961e-02
  3.724619e-01    1.768885e+00   4.270777e-02
  3.746724e-01    1.786748e+00   4.277968e-02
  3.768828e-01    1.784584e+00   4.260988e-02
  3.790933e-01    1.839732e+00   4.312228e-02
  3.813037e-01    1.845345e+00   4.304670e-02
  3.835142e-01    1.832527e+00   4.275606e-02
  3.857246e-01    1.848105e+00   4.279844e-02
  3.879351e-01    1.801978e+00   4.212419e-02
  3.901455e-01    1.791374e+00   4.186633e-02
  3.923560e-01    1.796764e+00   4.179603e-02
  3.945665e-01    1.779916e+00   4.146767e-02
  3.967769e-01    1.807107e+00   4.165237e-02
  3.989874e-01    1.761481e+00   4.099479e-02
  4.011978e-01    1.816618e+00   4.150340e-02
  4.034083e-01    1.790239e+00   4.107450e-02
  4.056187e-01    1.762294e+00   4.062711e-02
  4.078292e-01    1.805789e+00   4.100094e-02
  4.100397e-01    1.789162e+00   4.068715e-02
  4.122501e-01    1.816835e+00   4.087792e-02
  4.144606e-01    1.770537e+00   4.023406e-02
  4.166710e-01    1.793249e+00   4.037089e-02
  4.188815e-01    1.875585e+00   4.116533e-02
  4.210919e-01    1.807054e+00   4.028787e-02
  4.233024e-01    1.830507e+00   4.042918e-02
  4.255128e-01    1.834814e+00   4.035974e-02
  4.277233e-01    1.822047e+00   4.010351e-02
  4.299338e-01    1.854114e+00   4.033846e-02
  4.321442e-01    1.837511e+00   4.004255e-02
  4.343547e-01    1.797523e+00   3.949246e-02
  4.365651e-01    1.743618e+00   3.878529e-02
  4.387756e-01    1.687304e+00   3.804698e-02
  4.409860e-01    1.685801e+00   3.792466e-02
  4.431965e-01    1.675116e+00   3.769975e-02
  4.454070e-01    1.747017e+00   3.839322e-02
  4.476174e-01    1.736850e+00   3.817624e-02
  4.498279e-01    1.747754e+00   3.819168e-02
  4.520383e-01    1.740739e+00   3.801038e-02
  4.542488e-01    1.722117e+00   3.770457e-02
  4.564592e-01    1.753452e+00   3.794399e-02
  4.586697e-01    1.716675e+00   3.744430e-02
  4.608801e-01    1.752555e+00   3.773225e-02
  4.630906e-01    1.680879e+00   3.685478e-02
  4.653011e-01    1.716458e+00   3.714482e-02
  4.675115e-01    1.708391e+00   3.695986e-02
  4.697220e-01    1.701710e+00   3.679093e-02
  4.719324e-01    1.726801e+00   3.696529e-02
  4.741429e-01    1.745961e+00   3.707405e-02
  4.763533e-01    1.700427e+00   3.649360e-02
  4.785638e-01    1.736715e+00   3.678568e-02
  4.807743e-01    1.709748e+00   3.640616e-02
  4.829847e-01    1.689461e+00   3.609808e-02
  4.851952e-01    1.706441e+00   3.618724e-02
  4.874056e-01    1.723542e+00   3.627640e-02
  4.896161e-01    1.761631e+00   3.658411e-02
  4.918265e-01    1.754367e+00   3.641795e-02
  4.940370e-01    1.706459e+00   3.582858e-02
  4.962475e-01    1.732803e+00   3.601491e-02
  4.984579e-01    1.730274e+00   3.589993e-02
  5.006684e-01    1.727265e+00   3.578124e-02
  5.028788e-01    1.742169e+00   3.584821e-02
  5.050893e-01    1.723636e+00   3.557032e-02
  5.072997e-01    1.685166e+00   3.508616e-02
  5.095102e-01    1.706998e+00   3.522814e-02
  5.117206e-01    1.709217e+00   3.516721e-02
  5.139311e-01    1.697605e+00   3.496459e-02
  5.161416e-01    1.703130e+00   3.493870e-02
  5.183520e-01    1.678083e+00   3.459841e-02
  5.205625e-01    1.682590e+00   3.456367e-02
  5.227729e-01    1.727775e+00   3.494302e-02
  5.249834e-01    1.678263e+00   3.435875e-02
  5.271938e-01    1.704831e+00   3.454884e-02
  5.294043e-01    1.739826e+00   3.482109e-02
  5.316148e-01    1.761997e+00   3.496199e-02
  5.338252e-01    1.768611e+00   3.494749e-02
  5.360357e-01    1.748596e+00   3.467009e-02
  5.382461e-01    1.721760e+00   3.432523e-02
  5.404566e-01    1.767233e+00   3.469643e-02
  5.426670e-01    1.767322e+00   3.461911e-02
  5.448775e-01    1.766779e+00   3.453647e-02
  5.470879e-01    1.791367e+00   3.469840e-02
  5.492984e-01    1.768510e+00   3.439967e-02
  5.515089e-01    1.785932e+00   3.449202e-02
  5.537193e-01    1.742517e+00   3.399514e-02
  5.559298e-01    1.756325e+00   3.405470e-02
  5.581402e-01    1.794653e+00   3.434906e-02
  5.603507e-01    1.809500e+00   3.441578e-02
  5.625611e-01    1.851926e+00   3.474136e-02
  5.647716e-01    1.799063e+00   3.416758e-02
  5.669821e-01    1.772006e+00   3.383658e-02
  5.691925e-01    1.745474e+00   3.351023e-02
  5.714030e-01    1.726342e+00   3.325500e-02
  5.736134e-01    1.759260e+00   3.349916e-02
  5.758239e-01    1.730619e+00   3.315445e-02
  5.780343e-01    1.697539e+00   3.276658e-02
  5.802448e-01    1.706454e+00   3.278375e-02
  5.824552e-01    1.636546e+00   3.203785e-02
  5.846657e-01    1.622930e+00   3.183777e-02
  5.868762e-01    1.655570e+00   3.208938e-02
  5.890866e-01    1.643479e+00   3.190567e-02
  5.912971e-01    1.638644e+00   3.179273e-02
  5.935075e-01    1.636888e+00   3.171003e-02
  5.957180e-01    1.685938e+00   3.211559e-02
  5.979284e-01    1.641841e+00   3.162812e-02
  6.001389e-01    1.663069e+00   3.176709e-02
  6.023494e-01    1.687472e+00   3.193434e-02
  6.045598e-01    1.672299e+00   3.172573e-02
  6.067703e-01    1.667954e+00   3.162077e-02
  6.089807e-01    1.657393e+00   3.145713e-02
  6.111912e-01    1.686648e+00   3.167017e-02
  6.134016e-01    1.677138e+00   3.151779e-02
  6.156121e-01    1.679775e+00   3.147985e-02
  6.178226e-01    1.698312e+00   3.159040e-02
  6.200330e-01    1.710198e+00   3.163821e-02
  6.222435e-01    1.677402e+00   3.127135e-02
  6.244539e-01    1.691556e+00   3.134147e-02
  6.266644e-01    1.718812e+00   3.153136e-02
  6.288748e-01    1.732100e+00   3.159139e-02
  6.310853e-01    1.743601e+00   3.163458e-02
  6.332957e-01    1.719910e+00   3.135826e-02
  6.355062e-01    1.717173e+00   3.127243e-02
  6.377167e-01    1.706893e+00   3.111885e-02
  6.399271e-01    1.743614e+00   3.139154e-02
  6.421376e-01    1.727626e+00   3.118765e-02
  6.443480e-01    1.700599e+00   3.088388e-02
  6.465585e-01    1.677447e+00   3.061483e-02
  6.487689e-01    1.675099e+00   3.053561e-02
  6.509794e-01    1.674743e+00   3.047478e-02
  6.531899e-01    1.639334e+00   3.009421e-02
  6.554003e-01    1.655066e+00   3.018141e-02
  6.576108e-01    1.609637e+00   2.970891e-02
  6.598212e-01    1.547746e+00   2.907801e-02
  6.620317e-01    1.579078e+00   2.931642e-02
  6.642421e-01    1.583775e+00   2.930565e-02
  6.664526e-01    1.591135e+00   2.931956e-02
  6.686630e-01    1.608628e+00   2.942578e-02
  6.708735e-01    1.596065e+00   2.925688e-02
  6.730840e-01    1.626310e+00   2.947895e-02
  6.752944e-01    1.594327e+00   2.913457e-02
  6.775049e-01    1.584478e+00   2.899169e-02
  6.797153e-01    1.608460e+00   2.915738e-02
  6.819258e-01    1.614004e+00   2.915492e-02
  6.841362e-01    1.616434e+00   2.912437e-02
  6.863467e-01    1.587193e+00   2.880807e-02
  6.885572e-01    1.639629e+00   2.922759e-02
  6.907676e-01    1.629554e+00   2.908545e-02
  6.929781e-01    1.629688e+00   2.903495e-02
  6.951885e-01    1.597768e+00   2.869829e-02
  6.973990e-01    1.588446e+00   2.856383e-02
  6.996094e-01    1.596117e+00   2.858236e-02
  7.018199e-01    1.596706e+00   2.853745e-02
  7.040303e-01    1.604183e+00   2.855394e-02
  7.062408e-01    1.590146e+00   2.837896e-02
  7.084513e-01    1.545200e+00   2.792634e-02
  7.106617e-01    1.607813e+00   2.843702e-02
  7.128722e-01    1.593265e+00   2.825910e-02
  7.150826e-01    1.625289e+00   2.849249e-02
  7.172931e-01    1.571723e+00   2.797075e-02
  7.195035e-01    1.557477e+00   2.779581e-02
  7.217140e-01    1.547978e+00   2.775996e-02
  7.239245e-01    1.531632e+00   2.783661e-02
  7.261349e-01    1.550826e+00   2.811829e-02
  7.283454e-01    1.568998e+00   2.835480e-02
  7.305558e-01    1.593785e+00   2.863224e-02
  7.327663e-01    1.555935e+00   2.833245e-02
  7.349767e-01    1.551657e+00   2.830972e-02
  7.371872e-01    1.591765e+00   2.866201e-02
  7.393976e-01    1.577808e+00   2.852183e-02
  7.416081e-01    1.579447e+00   2.852042e-02
  7.438186e-01    1.594261e+00   2.850866e-02
  7.460290e-01    1.584737e+00   2.812818e-02
  7.482395e-01    1.556644e+00   2.770760e-02
  7.504499e-01    1.541714e+00   2.743952e-02
  7.526604e-01    1.589908e+00   2.774799e-02
  7.548708e-01    1.598470e+00   2.773253e-02
  7.570813e-01    1.565284e+00   2.739234e-02
  7.592918e-01    1.541191e+00   2.714587e-02
  7.615022e-01    1.565059e+00   2.732158e-02
  7.637127e-01    1.572949e+00   2.735760e-02
  7.659231e-01    1.554104e+00   2.716145e-02
  7.681336e-01    1.555768e+00   2.714455e-02
  7.703440e-01    1.578091e+00   2.730736e-02
  7.725545e-01    1.575319e+00   2.725246e-02
  7.747650e-01    1.633461e+00   2.771192e-02
  7.769754e-01    1.585054e+00   2.724537e-02
  7.791859e-01    1.615350e+00   2.745033e-02
  7.813963e-01    1.626480e+00   2.749136e-02
  7.836068e-01    1.626628e+00   2.743994e-02
  7.858172e-01    1.596959e+00   2.713772e-02
  7.880277e-01    1.593920e+00   2.706028e-02
  7.902381e-01    1.698921e+00   2.788662e-02
  7.924486e-01    1.667309e+00   2.757483e-02
  7.946591e-01    1.642395e+00   2.731907e-02
  7.968695e-01    1.619579e+00   2.708014e-02
  7.990800e-01    1.601709e+00   2.688218e-02
  8.012904e-01    1.630644e+00   2.707698e-02
  8.035009e-01    1.653386e+00   2.721662e-02
  8.057113e-01    1.638713e+00   2.704876e-02
  8.079218e-01    1.604550e+00   2.671912e-02
  8.101323e-01    1.638717e+00   2.695624e-02
  8.123427e-01    1.683295e+00   2.727385e-02
  8.145532e-01    1.738734e+00   2.767192e-02
  8.167636e-01    1.790235e+00   2.803153e-02
  8.189741e-01    1.751015e+00   2.767658e-02
  8.211845e-01    1.790501e+00   2.793995e-02
  8.233950e-01    1.900072e+00   2.873538e-02
  8.256054e-01    1.764527e+00   2.764564e-02
  8.278159e-01    1.657875e+00   2.675286e-02
  8.300264e-01    1.630584e+00   2.648875e-02
  8.322368e-01    1.691987e+00   2.693905e-02
  8.344473e-01    1.682887e+00   2.682260e-02
  8.366577e-01    1.618863e+00   2.626510e-02
  8.388682e-01    1.602126e+00   2.608720e-02
  8.410786e-01    1.621646e+00   2.620379e-02
  8.432891e-01    1.672638e+00   2.657032e-02
  8.454996e-01    1.664387e+00   2.646277e-02
  8.477100e-01    1.667721e+00   2.644721e-02
  8.499205e-01    1.657042e+00   2.632101e-02
  8.521309e-01    1.621423e+00   2.599597e-02
  8.543414e-01    1.629828e+00   2.602260e-02
  8.565518e-01    1.611328e+00   2.583421e-02
  8.587623e-01    1.599032e+00   2.569537e-02
  8.609727e-01    1.648467e+00   2.604909e-02
  8.631832e-01    1.650669e+00   2.602630e-02
  8.653937e-01    1.597098e+00   2.556116e-02
  8.676041e-01    1.609289e+00   2.561979e-02
  8.698146e-01    1.681639e+00   2.614933e-02
  8.720250e-01    1.739808e+00   2.655721e-02
  8.742355e-01    1.726208e+00   2.641297e-02
  8.764459e-01    1.648172e+00   2.576967e-02
  8.786564e-01    1.603978e+00   2.538392e-02
  8.808669e-01    1.609195e+00   2.538662e-02
  8.830773e-01    1.618903e+00   2.542474e-02
  8.852878e-01    1.597503e+00   2.521829e-02
  8.874982e-01    1.560163e+00   2.488564e-02
  8.897087e-01    1.558058e+00   2.483168e-02
  8.919191e-01    1.561977e+00   2.482558e-02
  8.941296e-01    1.587266e+00   2.498861e-02
  8.963401e-01    1.573779e+00   2.484610e-02
  8.985505e-01    1.584532e+00   2.489405e-02
  9.007610e-01    1.588831e+00   2.489119e-02
  9.029714e-01    1.581962e+00   2.480168e-02
  9.051819e-01    1.612566e+00   2.500306e-02
  9.073923e-01    1.645730e+00   2.522178e-02
  9.096028e-01    1.616260e+00   2.495985e-02
  9.118132e-01    1.612959e+00   2.489797e-02
  9.140237e-01    1.617137e+00   2.489339e-02
  9.162342e-01    1.587319e+00   2.462841e-02
  9.184446e-01    1.562740e+00   2.440161e-02
  9.206551e-01    1.593892e+00   2.460813e-02
  9.228655e-01    1.569371e+00   2.438318e-02
  9.250760e-01    1.613457e+00   2.468781e-02
  9.272864e-01    1.622446e+00   2.472202e-02
  9.294969e-01    1.618780e+00   2.465809e-02
  9.317074e-01    1.607711e+00   2.453891e-02
  9.339178e-01    1.633271e+00   2.469942e-02
  9.361283e-01    1.643015e+00   2.473648e-02
  9.383387e-01    1.645672e+00   2.472280e-02
  9.405492e-01    1.641246e+00   2.465505e-02
  9.427596e-01    1.691351e+00   2.499252e-02
  9.449701e-01    1.690152e+00   2.494974e-02
  9.471805e-01    1.668171e+00   2.475185e-02
  9.493910e-01    1.653132e+00   2.460621e-02
  9.516015e-01    1.693895e+00   2.487295e-02
  9.538119e-01    1.695376e+00   2.484972e-02
  9.560224e-01    1.729647e+00   2.506430e-02
  9.582328e-01    1.736361e+00   2.507921e-02
  9.604433e-01    1.747155e+00   2.512141e-02
  9.626537e-01    1.741265e+00   2.504533e-02
  9.648642e-01    1.756668e+00   2.512138e-02
  9.670747e-01    1.785034e+00   2.528848e-02
  9.692851e-01    1.820847e+00   2.550695e-02
  9.714956e-01    1.824402e+00   2.549585e-02
  9.737060e-01    1.817392e+00   2.541338e-02
  9.759165e-01    1.833894e+00   2.549250e-02
  9.781269e-01    1.817706e+00   2.534655e-02
  9.803374e-01    1.797598e+00   2.517109e-02
  9.825478e-01    1.785012e+00   2.504975e-02
  9.847583e-01    1.789470e+00   2.504692e-02
  9.869688e-01    1.788186e+00   2.500445e-02
  9.891792e-01    1.779179e+00   2.490823e-02
  9.913897e-01    1.789011e+00   2.494325e-02
  9.936001e-01    1.759005e+00   2.470082e-02
  9.958106e-01    1.769816e+00   2.474293e-02
  9.980210e-01    1.754368e+00   2.460274e-02
  1.000231e+00    1.725509e+00   2.453322e-02
  1.002442e+00    1.631534e+00   2.398256e-02
  1.004652e+00    1.624831e+00   2.399999e-02
  1.006863e+00    1.645937e+00   2.420547e-02
  1.009073e+00    1.669905e+00   2.441841e-02
  1.011284e+00    1.636310e+00   2.420386e-02
  1.013494e+00    1.625611e+00   2.414852e-02
  1.015705e+00    1.563095e+00   2.370203e-02
  1.017915e+00    1.544596e+00   2.357756e-02
  1.020126e+00    1.547150e+00   2.361301e-02
  1.022336e+00    1.544872e+00   2.360723e-02
  1.024547e+00    1.561256e+00   2.374334e-02
  1.026757e+00    1.534860e+00   2.355012e-02
  1.028967e+00    1.545041e+00   2.363576e-02
  1.031178e+00    1.551619e+00   2.369223e-02
  1.033388e+00    1.607401e+00   2.411947e-02
  1.035599e+00    2.119830e+00   2.770242e-02
  1.037809e+00    2.541150e+00   3.033509e-02
  1.040020e+00    2.002505e+00   2.693044e-02
  1.042230e+00    1.595041e+00   2.403677e-02
  1.044441e+00    1.531224e+00   2.355076e-02
  1.046651e+00    1.533507e+00   2.356847e-02
  1.048862e+00    1.506786e+00   2.336145e-02
  1.051072e+00    1.537002e+00   2.359211e-02
  1.053282e+00    1.631076e+00   2.430238e-02
  1.055493e+00    1.749166e+00   2.516209e-02
  1.057703e+00    1.883472e+00   2.610855e-02
  1.059914e+00    1.903687e+00   2.624353e-02
  1.062124e+00    1.691419e+00   2.473288e-02
  1.064335e+00    1.582574e+00   2.392025e-02
  1.066545e+00    1.573458e+00   2.384508e-02
  1.068756e+00    1.502731e+00   2.329926e-02
  1.070966e+00    1.458006e+00   2.294339e-02
  1.073177e+00    1.463643e+00   2.298167e-02
  1.075387e+00    1.459399e+00   2.294312e-02
  1.077597e+00    1.433991e+00   2.273535e-02
  1.079808e+00    1.484626e+00   2.299960e-02
  1.082018e+00    1.463895e+00   2.264933e-02
  1.084229e+00    1.460419e+00   2.251238e-02
  1.086439e+00    1.476032e+00   2.254432e-02
  1.088650e+00    1.499989e+00   2.264971e-02
  1.090860e+00    1.498248e+00   2.256791e-02
  1.093071e+00    1.460567e+00   2.221994e-02
  1.095281e+00    1.460796e+00   2.216412e-02
  1.097492e+00    1.433042e+00   2.189788e-02
  1.099702e+00    1.443769e+00   2.192823e-02
  1.101912e+00    1.422527e+00   2.171778e-02
  1.104123e+00    1.398290e+00   2.148435e-02
  1.106333e+00    1.446167e+00   2.180444e-02
  1.108544e+00    1.419353e+00   2.155728e-02
  1.110754e+00    1.431892e+00   2.160917e-02
  1.112965e+00    1.438383e+00   2.161734e-02
  1.115175e+00    1.395538e+00   2.125214e-02
  1.117386e+00    1.384521e+00   2.112922e-02
  1.119596e+00    1.411725e+00   2.129794e-02
  1.121807e+00    1.406150e+00   2.121708e-02
  1.124017e+00    1.397337e+00   2.111395e-02
  1.126228e+00    1.401416e+00   2.110904e-02
  1.128438e+00    1.388305e+00   2.097347e-02
  1.130648e+00    1.419707e+00   2.117476e-02
  1.132859e+00    1.433783e+00   2.124467e-02
  1.135069e+00    1.430983e+00   2.118871e-02
  1.137280e+00    1.395019e+00   2.088772e-02
  1.139490e+00    1.361806e+00   2.060479e-02
  1.141701e+00    1.384228e+00   2.074061e-02
  1.143911e+00    1.370325e+00   2.060449e-02
  1.146122e+00    1.354448e+00   2.045306e-02
  1.148332e+00    1.382956e+00   2.063526e-02
  1.150543e+00    1.361450e+00   2.044355e-02
  1.152753e+00    1.377330e+00   2.053156e-02
  1.154963e+00    1.347343e+00   2.027609e-02
  1.157174e+00    1.356629e+00   2.031585e-02
  1.159384e+00    1.380399e+00   2.046314e-02
  1.161595e+00    1.377137e+00   2.040900e-02
  1.163805e+00    1.411421e+00   2.063177e-02
  1.166016e+00    1.396573e+00   2.049325e-02
  1.168226e+00    1.364506e+00   2.022765e-02
  1.170437e+00    1.400060e+00   2.046050e-02
  1.172647e+00    1.497995e+00   2.113371e-02
  1.174858e+00    1.680098e+00   2.235029e-02
  1.177068e+00    1.710809e+00   2.252200e-02
  1.179278e+00    1.875244e+00   2.354591e-02
  1.181489e+00    2.168851e+00   2.528816e-02
  1.183699e+00    1.994663e+00   2.421815e-02
  1.185910e+00    1.621073e+00   2.180235e-02
  1.188120e+00    1.416754e+00   2.035478e-02
  1.190331e+00    1.391708e+00   2.014691e-02
  1.192541e+00    1.388584e+00   2.009657e-02
  1.194752e+00    1.362983e+00   1.988331e-02
  1.196962e+00    1.350764e+00   1.976823e-02
  1.199173e+00    1.357679e+00   1.979220e-02
  1.201383e+00    1.329977e+00   1.956230e-02
  1.203593e+00    1.336992e+00   1.958909e-02
  1.205804e+00    1.355072e+00   1.969515e-02
  1.208014e+00    1.347962e+00   1.961656e-02
  1.210225e+00    1.377935e+00   1.980787e-02
  1.212435e+00    1.374471e+00   1.975797e-02
  1.214646e+00    1.351132e+00   1.956337e-02
  1.216856e+00    1.352002e+00   1.954417e-02
  1.219067e+00    1.343374e+00   1.945731e-02
  1.221277e+00    1.351318e+00   1.948971e-02
  1.223488e+00    1.359589e+00   1.952344e-02
  1.225698e+00    1.344454e+00   1.938760e-02
  1.227909e+00    1.369247e+00   1.953517e-02
  1.230119e+00    1.348561e+00   1.935522e-02
  1.232329e+00    1.365037e+00   1.944220e-02
  1.234540e+00    1.363807e+00   1.940300e-02
  1.236750e+00    1.395644e+00   1.959738e-02
  1.238961e+00    1.463188e+00   2.003791e-02
  1.241171e+00    1.458444e+00   1.998030e-02
  1.243382e+00    1.384372e+00   1.944250e-02
  1.245592e+00    1.357364e+00   1.922773e-02
  1.247803e+00    1.375975e+00   1.933521e-02
  1.250013e+00    1.349378e+00   1.912390e-02
  1.252224e+00    1.353788e+00   1.913183e-02
  1.254434e+00    1.354272e+00   1.911149e-02
  1.256644e+00    1.353919e+00   1.908574e-02
  1.258855e+00    1.335416e+00   1.893176e-02
  1.261065e+00    1.316762e+00   1.877595e-02
  1.263276e+00    1.333232e+00   1.887024e-02
  1.265486e+00    1.323288e+00   1.877708e-02
  1.267697e+00    1.320667e+00   1.873569e-02
  1.269907e+00    1.346840e+00   1.889778e-02
  1.272118e+00    1.345423e+00   1.886528e-02
  1.274328e+00    1.344564e+00   1.883660e-02
  1.276539e+00    1.319658e+00   1.863878e-02
  1.278749e+00    1.325747e+00   1.865963e-02
  1.280959e+00    1.331343e+00   1.867661e-02
  1.283170e+00    1.333271e+00   1.866782e-02
  1.285380e+00    1.348054e+00   1.874862e-02
  1.287591e+00    1.324318e+00   1.856099e-02
  1.289801e+00    1.315715e+00   1.847967e-02
  1.292012e+00    1.320158e+00   1.849391e-02
  1.294222e+00    1.335775e+00   1.858684e-02
  1.296433e+00    1.336493e+00   1.857631e-02
  1.298643e+00    1.354545e+00   1.868485e-02
  1.300854e+00    1.355658e+00   1.867607e-02
  1.303064e+00    1.353272e+00   1.864039e-02
  1.305274e+00    1.354807e+00   1.862948e-02
  1.307485e+00    1.329424e+00   1.843276e-02
  1.309695e+00    1.346973e+00   1.853179e-02
  1.311906e+00    1.345834e+00   1.850230e-02
  1.314116e+00    1.360742e+00   1.858360e-02
  1.316327e+00    1.379210e+00   1.868737e-02
  1.318537e+00    1.376980e+00   1.865016e-02
  1.320748e+00    1.389627e+00   1.871373e-02
  1.322958e+00    1.367506e+00   1.854356e-02
  1.325169e+00    1.362266e+00   1.848685e-02
  1.327379e+00    1.374559e+00   1.854808e-02
  1.329589e+00    1.347430e+00   1.834309e-02
  1.331800e+00    1.358060e+00   1.839453e-02
  1.334010e+00    1.356584e+00   1.836384e-02
  1.336221e+00    1.361271e+00   1.837367e-02
  1.338431e+00    1.372731e+00   1.842984e-02
  1.340642e+00    1.341291e+00   1.828151e-02
  1.342852e+00    1.349707e+00   1.843943e-02
  1.345063e+00    1.358394e+00   1.854833e-02
  1.347273e+00    1.333342e+00   1.841151e-02
  1.349484e+00    1.354484e+00   1.858462e-02
  1.351694e+00    1.383873e+00   1.880816e-02
  1.353905e+00    1.367198e+00   1.871262e-02
  1.356115e+00    1.364654e+00   1.871032e-02
  1.358325e+00    1.353543e+00   1.864734e-02
  1.360536e+00    1.360599e+00   1.870753e-02
  1.362746e+00    1.338446e+00   1.856416e-02
  1.364957e+00    1.352753e+00   1.867077e-02
  1.367167e+00    1.345658e+00   1.862890e-02
  1.369378e+00    1.311201e+00   1.839480e-02
  1.371588e+00    1.303364e+00   1.834478e-02
  1.373799e+00    1.322285e+00   1.848111e-02
  1.376009e+00    1.318577e+00   1.845855e-02
  1.378220e+00    1.322730e+00   1.849010e-02
  1.380430e+00    1.312216e+00   1.841917e-02
  1.382640e+00    1.308765e+00   1.839582e-02
  1.384851e+00    1.301758e+00   1.834739e-02
  1.387061e+00    1.308888e+00   1.839785e-02
  1.389272e+00    1.314188e+00   1.843528e-02
  1.391482e+00    1.307085e+00   1.838472e-02
  1.393693e+00    1.292543e+00   1.828129e-02
  1.395903e+00    1.279462e+00   1.818705e-02
  1.398114e+00    1.270230e+00   1.811994e-02
  1.400324e+00    1.273481e+00   1.814100e-02
  1.402535e+00    1.279124e+00   1.817882e-02
  1.404745e+00    1.274371e+00   1.814266e-02
  1.406955e+00    1.267076e+00   1.808796e-02
  1.409166e+00    1.278417e+00   1.816541e-02
  1.411376e+00    1.298996e+00   1.830789e-02
  1.413587e+00    1.289091e+00   1.823412e-02
  1.415797e+00    1.270204e+00   1.809651e-02
  1.418008e+00    1.252805e+00   1.793056e-02
  1.420218e+00    1.255198e+00   1.779880e-02
  1.422429e+00    1.299872e+00   1.802645e-02
  1.424639e+00    1.312719e+00   1.804956e-02
  1.426850e+00    1.318961e+00   1.803669e-02
  1.429060e+00    1.300325e+00   1.785925e-02
  1.431270e+00    1.274698e+00   1.763799e-02
  1.433481e+00    1.268819e+00   1.755632e-02
  1.435691e+00    1.283257e+00   1.761731e-02
  1.437902e+00    1.256908e+00   1.739922e-02
  1.440112e+00    1.282531e+00   1.754016e-02
  1.442323e+00    1.262373e+00   1.736882e-02
  1.444533e+00    1.267719e+00   1.737304e-02
  1.446744e+00    1.261197e+00   1.729728e-02
  1.448954e+00    1.266571e+00   1.730393e-02
  1.451165e+00    1.259323e+00   1.722473e-02
  1.453375e+00    1.269168e+00   1.726388e-02
  1.455586e+00    1.254603e+00   1.713656e-02
  1.457796e+00    1.238438e+00   1.699862e-02
  1.460006e+00    1.240571e+00   1.698630e-02
  1.462217e+00    1.272090e+00   1.717451e-02
  1.464427e+00    1.239334e+00   1.692665e-02
  1.466638e+00    1.252551e+00   1.699150e-02
  1.468848e+00    1.271448e+00   1.709385e-02
  1.471059e+00    1.266648e+00   1.703648e-02
  1.473269e+00    1.270577e+00   1.703849e-02
  1.475480e+00    1.246614e+00   1.685350e-02
  1.477690e+00    1.240103e+00   1.678586e-02
  1.479901e+00    1.238672e+00   1.675261e-02
  1.482111e+00    1.251930e+00   1.681884e-02
  1.484321e+00    1.255422e+00   1.681928e-02
  1.486532e+00    1.266699e+00   1.687230e-02
  1.488742e+00    1.286355e+00   1.697986e-02
  1.490953e+00    1.307882e+00   1.709837e-02
  1.493163e+00    1.295489e+00   1.699460e-02
  1.495374e+00    1.293524e+00   1.695999e-02
  1.497584e+00    1.250807e+00   1.665602e-02
  1.499795e+00    1.274792e+00   1.679317e-02
  1.502005e+00    1.286571e+00   1.684869e-02
  1.504216e+00    1.272516e+00   1.673524e-02
  1.506426e+00    1.299623e+00   1.689137e-02
  1.508636e+00    1.362012e+00   1.727079e-02
  1.510847e+00    1.346647e+00   1.715055e-02
  1.513057e+00    1.299631e+00   1.682296e-02
  1.515268e+00    1.281198e+00   1.667725e-02
  1.517478e+00    1.259243e+00   1.650853e-02
  1.519689e+00    1.228497e+00   1.628105e-02
  1.521899e+00    1.232070e+00   1.628177e-02
  1.524110e+00    1.267671e+00   1.649490e-02
  1.526320e+00    1.242843e+00   1.631305e-02
  1.528531e+00    1.264157e+00   1.643245e-02
  1.530741e+00    1.264853e+00   1.641774e-02
  1.532951e+00    1.244666e+00   1.626664e-02
  1.535162e+00    1.250654e+00   1.639237e-02
  1.537372e+00    1.225326e+00   1.629180e-02
  1.539583e+00    1.219992e+00   1.629014e-02
  1.541793e+00    1.246124e+00   1.647061e-02
  1.544004e+00    1.230950e+00   1.637030e-02
  1.546214e+00    1.227222e+00   1.634399e-02
  1.548425e+00    1.235033e+00   1.639616e-02
  1.550635e+00    1.257657e+00   1.655540e-02
  1.552846e+00    1.233084e+00   1.640249e-02
  1.555056e+00    1.240679e+00   1.641149e-02
  1.557266e+00    1.230079e+00   1.623144e-02
  1.559477e+00    1.241027e+00   1.624445e-02
  1.561687e+00    1.259643e+00   1.633500e-02
  1.563898e+00    1.288853e+00   1.650583e-02
  1.566108e+00    1.296811e+00   1.654044e-02
  1.568319e+00    1.271736e+00   1.636397e-02
  1.570529e+00    1.246061e+00   1.617277e-02
  1.572740e+00    1.247524e+00   1.615462e-02
  1.574950e+00    1.250999e+00   1.615071e-02
  1.577161e+00    1.247542e+00   1.610288e-02
  1.579371e+00    1.257490e+00   1.614317e-02
  1.581582e+00    1.236416e+00   1.598763e-02
  1.583792e+00    1.232805e+00   1.594631e-02
  1.586002e+00    1.228227e+00   1.589919e-02
  1.588213e+00    1.223303e+00   1.585018e-02
  1.590423e+00    1.231131e+00   1.588085e-02
  1.592634e+00    1.235759e+00   1.588912e-02
  1.594844e+00    1.234336e+00   1.585863e-02
  1.597055e+00    1.232767e+00   1.582816e-02
  1.599265e+00    1.218061e+00   1.571294e-02
  1.601476e+00    1.218946e+00   1.569851e-02
  1.603686e+00    1.226332e+00   1.572634e-02
  1.605897e+00    1.246937e+00   1.583770e-02
  1.608107e+00    1.208957e+00   1.557530e-02
  1.610317e+00    1.233765e+00   1.571501e-02
  1.612528e+00    1.214562e+00   1.557322e-02
  1.614738e+00    1.198987e+00   1.545435e-02
  1.616949e+00    1.185926e+00   1.535127e-02
  1.619159e+00    1.191849e+00   1.537109e-02
  1.621370e+00    1.192434e+00   1.535660e-02
  1.623580e+00    1.183247e+00   1.527924e-02
  1.625791e+00    1.158701e+00   1.510204e-02
  1.628001e+00    1.173766e+00   1.518187e-02
  1.630212e+00    1.149718e+00   1.500810e-02
  1.632422e+00    1.158733e+00   1.504914e-02
  1.634632e+00    1.168231e+00   1.509349e-02
  1.636843e+00    1.159742e+00   1.502113e-02
  1.639053e+00    1.170347e+00   1.507240e-02
  1.641264e+00    1.153031e+00   1.494352e-02
  1.643474e+00    1.124326e+00   1.473922e-02
  1.645685e+00    1.144428e+00   1.485385e-02
  1.647895e+00    1.109380e+00   1.460835e-02
  1.650106e+00    1.122285e+00   1.467629e-02
  1.652316e+00    1.128608e+00   1.470123e-02
  1.654527e+00    1.119285e+00   1.462389e-02
  1.656737e+00    1.117612e+00   1.459653e-02
  1.658947e+00    1.092261e+00   1.441405e-02
  1.661158e+00    1.087370e+00   1.436575e-02
  1.663368e+00    1.090883e+00   1.437315e-02
  1.665579e+00    1.122288e+00   1.456239e-02
  1.667789e+00    1.115514e+00   1.450215e-02
  1.670000e+00    1.123810e+00   1.454042e-02
  1.672210e+00    1.096157e+00   1.434463e-02
  1.674421e+00    1.087257e+00   1.427107e-02
  1.676631e+00    1.072785e+00   1.416010e-02
  1.678842e+00    1.094613e+00   1.428769e-02
  1.681052e+00    1.113175e+00   1.439280e-02
  1.683263e+00    1.191150e+00   1.487250e-02
  1.685473e+00    1.253714e+00   1.524184e-02
  1.687683e+00    1.138749e+00   1.451045e-02
  1.689894e+00    1.069326e+00   1.404545e-02
  1.692104e+00    1.064039e+00   1.399584e-02
  1.694315e+00    1.070654e+00   1.402480e-02
  1.696525e+00    1.061311e+00   1.394837e-02
  1.698736e+00    1.052088e+00   1.387291e-02
  1.700946e+00    1.012149e+00   1.359225e-02
  1.703157e+00    1.027988e+00   1.368374e-02
  1.705367e+00    1.022846e+00   1.363520e-02
  1.707578e+00    1.005030e+00   1.350167e-02
  1.709788e+00    1.025823e+00   1.362662e-02
  1.711998e+00    1.001704e+00   1.345078e-02
  1.714209e+00    1.014151e+00   1.351980e-02
  1.716419e+00    1.019847e+00   1.354357e-02
  1.718630e+00    1.028311e+00   1.358540e-02
  1.720840e+00    1.028913e+00   1.357521e-02
  1.723051e+00    1.073790e+00   1.385386e-02
  1.725261e+00    1.207581e+00   1.467567e-02
  1.727472e+00    1.103721e+00   1.401564e-02
  1.729682e+00    9.982076e-01   1.331554e-02
  1.731893e+00    9.955404e-01   1.328391e-02
  1.734103e+00    1.009535e+00   1.336318e-02
  1.736313e+00    9.762075e-01   1.312695e-02
  1.738524e+00    9.721251e-01   1.308583e-02
  1.740734e+00    1.007857e+00   1.331041e-02
  1.742945e+00    9.863525e-01   1.315427e-02
  1.745155e+00    9.889807e-01   1.315834e-02
  1.747366e+00    1.003775e+00   1.324247e-02
  1.749576e+00    1.035151e+00   1.343384e-02
  1.751787e+00    1.041181e+00   1.345919e-02
  1.753997e+00    1.021709e+00   1.331908e-02
  1.756208e+00    9.601049e-01   1.289821e-02
  1.758418e+00    9.631740e-01   1.290572e-02
  1.760628e+00    9.706936e-01   1.294266e-02
  1.762839e+00    9.580953e-01   1.284523e-02
  1.765049e+00    9.680366e-01   1.289852e-02
  1.767260e+00    9.607216e-01   1.283690e-02
  1.769470e+00    9.511397e-01   1.275975e-02
  1.771681e+00    9.472143e-01   1.272029e-02
  1.773891e+00    9.422788e-01   1.267412e-02
  1.776102e+00    9.568681e-01   1.275890e-02
  1.778312e+00    1.011959e+00   1.310788e-02
  1.780523e+00    1.108568e+00   1.370546e-02
  1.782733e+00    1.186158e+00   1.416278e-02
  1.784944e+00    1.062185e+00   1.338856e-02
  1.787154e+00    9.503463e-01   1.265141e-02
  1.789364e+00    9.291130e-01   1.249680e-02
  1.791575e+00    9.257435e-01   1.246159e-02
  1.793785e+00    9.147835e-01   1.237526e-02
  1.795996e+00    9.057350e-01   1.230148e-02
  1.798206e+00    9.040726e-01   1.227777e-02
  1.800417e+00    9.287466e-01   1.243141e-02
  1.802627e+00    9.608917e-01   1.263247e-02
  1.804838e+00    9.468120e-01   1.252729e-02
  1.807048e+00    9.169267e-01   1.231506e-02
  1.809259e+00    1.038213e+00   1.308964e-02
  1.811469e+00    1.134306e+00   1.366533e-02
  1.813679e+00    1.042780e+00   1.308638e-02
  1.815890e+00    8.952878e-01   1.211085e-02
  1.818100e+00    8.952114e-01   1.209523e-02
  1.820311e+00    8.920386e-01   1.205903e-02
  1.822521e+00    8.889890e-01   1.202356e-02
  1.824732e+00    8.930753e-01   1.203633e-02
  1.826942e+00    8.953528e-01   1.203927e-02
  1.829153e+00    8.892334e-01   1.198635e-02
  1.831363e+00    9.084290e-01   1.210281e-02
  1.833574e+00    9.384757e-01   1.228928e-02
  1.835784e+00    9.434014e-01   1.230968e-02
  1.837994e+00    8.925733e-01   1.196169e-02
  1.840205e+00    8.482575e-01   1.164994e-02
  1.842415e+00    8.612252e-01   1.172693e-02
  1.844626e+00    8.719374e-01   1.178810e-02
  1.846836e+00    8.506406e-01   1.163194e-02
  1.849047e+00    8.353594e-01   1.151557e-02
  1.851257e+00    8.586847e-01   1.166569e-02
  1.853468e+00    8.362383e-01   1.150355e-02
  1.855678e+00    8.613631e-01   1.166617e-02
  1.857889e+00    8.580952e-01   1.163554e-02
  1.860099e+00    8.442529e-01   1.153275e-02
  1.862309e+00    8.663818e-01   1.167434e-02
  1.864520e+00    8.727783e-01   1.170872e-02
  1.866730e+00    8.507869e-01   1.155090e-02
  1.868941e+00    8.618348e-01   1.161464e-02
  1.871151e+00    8.609270e-01   1.159707e-02
  1.873362e+00    8.627354e-01   1.159782e-02
  1.875572e+00    8.424233e-01   1.144960e-02
  1.877783e+00    8.704006e-01   1.162655e-02
  1.879993e+00    9.186298e-01   1.193274e-02
  1.882204e+00    8.777924e-01   1.165340e-02
  1.884414e+00    8.501938e-01   1.145761e-02
  1.886624e+00    8.483896e-01   1.143434e-02
  1.888835e+00    8.374877e-01   1.134970e-02
  1.891045e+00    8.323407e-01   1.130392e-02
  1.893256e+00    8.435704e-01   1.136880e-02
  1.895466e+00    8.208639e-01   1.120370e-02
  1.897677e+00    8.417745e-01   1.133451e-02
  1.899887e+00    8.643382e-01   1.147424e-02
  1.902098e+00    8.762765e-01   1.154212e-02
  1.904308e+00    8.829693e-01   1.157516e-02
  1.906519e+00    9.293647e-01   1.186391e-02
  1.908729e+00    9.339657e-01   1.188202e-02
  1.910940e+00    9.294876e-01   1.184166e-02
  1.913150e+00    9.982910e-01   1.226049e-02
  1.915360e+00    9.495872e-01   1.194634e-02
  1.917571e+00    8.496419e-01   1.128911e-02
  1.919781e+00    8.307245e-01   1.115196e-02
  1.921992e+00    8.091475e-01   1.099563e-02
  1.924202e+00    8.047745e-01   1.095519e-02
  1.926413e+00    8.196628e-01   1.104573e-02
  1.928623e+00    8.026207e-01   1.091984e-02
  1.930834e+00    8.217645e-01   1.103881e-02
  1.933044e+00    8.106505e-01   1.095327e-02
  1.935255e+00    8.014750e-01   1.088080e-02
  1.937465e+00    8.094366e-01   1.092433e-02
  1.939675e+00    8.033738e-01   1.087251e-02
  1.941886e+00    7.860246e-01   1.074432e-02
  1.944096e+00    7.874959e-01   1.074427e-02
  1.946307e+00    7.980271e-01   1.080557e-02
  1.948517e+00    7.728782e-01   1.062369e-02
  1.950728e+00    7.816706e-01   1.067379e-02
  1.952938e+00    7.887117e-01   1.071173e-02
  1.955149e+00    7.978651e-01   1.076346e-02
  1.957359e+00    8.036649e-01   1.079243e-02
  1.959570e+00    7.884605e-01   1.067903e-02
  1.961780e+00    7.868558e-01   1.065827e-02
  1.963990e+00    7.648350e-01   1.049813e-02
  1.966201e+00    7.827345e-01   1.061024e-02
  1.968411e+00    8.002493e-01   1.071807e-02
  1.970622e+00    8.050781e-01   1.074018e-02
  1.972832e+00    7.847603e-01   1.059384e-02
  1.975043e+00    7.787958e-01   1.054348e-02
  1.977253e+00    7.910063e-01   1.061583e-02
  1.979464e+00    7.939551e-01   1.062550e-02
  1.981674e+00    7.741298e-01   1.048181e-02
  1.983885e+00    7.765997e-01   1.048851e-02
  1.986095e+00    7.769119e-01   1.048096e-02
  1.988305e+00    7.689857e-01   1.041752e-02
  1.990516e+00    7.737064e-01   1.043956e-02
  1.992726e+00    7.685416e-01   1.039505e-02
  1.994937e+00    7.674969e-01   1.037791e-02
  1.997147e+00    7.845337e-01   1.048268e-02
  1.999358e+00    7.717640e-01   1.038719e-02
  2.001568e+00    7.787980e-01   1.042356e-02
  2.003779e+00    7.789211e-01   1.041241e-02
  2.005989e+00    7.934368e-01   1.049681e-02
  2.008200e+00    7.841108e-01   1.042330e-02
  2.010410e+00    7.664472e-01   1.029352e-02
  2.012621e+00    7.669370e-01   1.028509e-02
  2.014831e+00    7.542590e-01   1.018838e-02
  2.017041e+00    7.506242e-01   1.015350e-02
  2.019252e+00    7.732813e-01   1.029561e-02
  2.021462e+00    7.605938e-01   1.020131e-02
  2.023673e+00    7.833722e-01   1.034343e-02
  2.025883e+00    7.560348e-01   1.015190e-02
  2.028094e+00    7.593142e-01   1.016424e-02
  2.030304e+00    7.561098e-01   1.013329e-02
  2.032515e+00    7.788099e-01   1.027485e-02
  2.034725e+00    7.593973e-01   1.013657e-02
  2.036936e+00    7.603251e-01   1.013339e-02
  2.039146e+00    7.472686e-01   1.003651e-02
  2.041356e+00    7.460889e-01   1.001900e-02
  2.043567e+00    7.596059e-01   1.010002e-02
  2.045777e+00    7.604039e-01   1.009605e-02
  2.047988e+00    7.521521e-01   1.003177e-02
  2.050198e+00    7.447869e-01   9.974139e-03
  2.052409e+00    7.633806e-01   1.009016e-02
  2.054619e+00    7.592688e-01   1.005556e-02
  2.056830e+00    7.486914e-01   9.978098e-03
  2.059040e+00    7.388680e-01   9.904968e-03
  2.061251e+00    7.514747e-01   9.981862e-03
  2.063461e+00    7.388884e-01   9.890364e-03
  2.065671e+00    7.341927e-01   9.850252e-03
  2.067882e+00    7.400484e-01   9.880510e-03
  2.070092e+00    7.555417e-01   9.974144e-03
  2.072303e+00    7.489303e-01   9.921272e-03
  2.074513e+00    7.489597e-01   9.912109e-03
  2.076724e+00    7.576075e-01   9.959629e-03
  2.078934e+00    7.504077e-01   9.903159e-03
  2.081145e+00    7.521262e-01   9.905329e-03
  2.083355e+00    7.484583e-01   9.871950e-03
  2.085566e+00    7.401745e-01   9.808263e-03
  2.087776e+00    7.335344e-01   9.754688e-03
  2.089986e+00    7.461774e-01   9.829576e-03
  2.092197e+00    7.390913e-01   9.773813e-03
  2.094407e+00    7.580025e-01   9.888713e-03
  2.096618e+00    7.401850e-01   9.762867e-03
  2.098828e+00    7.397182e-01   9.750455e-03
  2.101039e+00    7.358204e-01   9.715725e-03
  2.103249e+00    7.333297e-01   9.690585e-03
  2.105460e+00    7.290220e-01   9.653079e-03
  2.107670e+00    7.186466e-01   9.575463e-03
  2.109881e+00    7.248094e-01   9.607278e-03
  2.112091e+00    7.245387e-01   9.596509e-03
  2.114301e+00    7.216577e-01   9.568657e-03
  2.116512e+00    6.990840e-01   9.409159e-03
  2.118722e+00    7.151070e-01   9.507581e-03
  2.120933e+00    7.213604e-01   9.540214e-03
  2.123143e+00    7.174290e-01   9.505269e-03
  2.125354e+00    7.183229e-01   9.502658e-03
  2.127564e+00    7.170945e-01   9.485806e-03
  2.129775e+00    7.024766e-01   9.379972e-03
  2.131985e+00    7.061276e-01   9.395304e-03
  2.134196e+00    7.015410e-01   9.356237e-03
  2.136406e+00    6.894954e-01   9.266960e-03
  2.138617e+00    6.850970e-01   9.229032e-03
  2.140827e+00    7.125809e-01   9.428442e-03
  2.143037e+00    7.064385e-01   9.433176e-03
  2.145248e+00    7.122782e-01   9.494184e-03
  2.147458e+00    7.149652e-01   9.527337e-03
  2.149669e+00    6.940328e-01   9.398605e-03
  2.151879e+00    6.938196e-01   9.406331e-03
  2.154090e+00    6.868104e-01   9.365926e-03
  2.156300e+00    6.992488e-01   9.456958e-03
  2.158511e+00    6.973227e-01   9.449223e-03
  2.160721e+00    7.042433e-01   9.500838e-03
  2.162932e+00    6.905721e-01   9.411884e-03
  2.165142e+00    6.890795e-01   9.404710e-03
  2.167352e+00    6.986048e-01   9.472402e-03
  2.169563e+00    7.042469e-01   9.512555e-03
  2.171773e+00    6.789072e-01   9.342268e-03
  2.173984e+00    6.982925e-01   9.476111e-03
  2.176194e+00    6.814439e-01   9.362293e-03
  2.178405e+00    6.840062e-01   9.380575e-03
  2.180615e+00    6.881088e-01   9.409328e-03
  2.182826e+00    6.893916e-01   9.418787e-03
  2.185036e+00    6.736771e-01   9.310861e-03
  2.187247e+00    6.946660e-01   9.454748e-03
  2.189457e+00    6.929942e-01   9.442946e-03
  2.191667e+00    6.950905e-01   9.457055e-03
  2.193878e+00    6.882952e-01   9.410137e-03
  2.196088e+00    6.824294e-01   9.369286e-03
  2.198299e+00    6.872790e-01   9.401412e-03
  2.200509e+00    6.763977e-01   9.325649e-03
  2.202720e+00    6.809530e-01   9.355842e-03
  2.204930e+00    6.887763e-01   9.408181e-03
  2.207141e+00    6.779286e-01   9.332700e-03
  2.209351e+00    6.755868e-01   9.314677e-03
  2.211562e+00    6.992221e-01   9.474568e-03
  2.213772e+00    6.853068e-01   9.324013e-03
  2.215982e+00    6.721086e-01   9.189685e-03
  2.218193e+00    6.698675e-01   9.144852e-03
  2.220403e+00    6.760425e-01   9.162294e-03
  2.222614e+00    6.609470e-01   9.038679e-03
  2.224824e+00    6.721264e-01   9.095429e-03
  2.227035e+00    6.680363e-01   9.050331e-03
  2.229245e+00    6.804423e-01   9.116914e-03
  2.231456e+00    6.475181e-01   8.878273e-03
  2.233666e+00    6.657847e-01   8.987573e-03
  2.235877e+00    6.855893e-01   9.105860e-03
  2.238087e+00    6.902400e-01   9.122991e-03
  2.240298e+00    6.857944e-01   9.079656e-03
  2.242508e+00    6.977558e-01   9.143020e-03
  2.244718e+00    6.919773e-01   9.089030e-03
  2.246929e+00    6.848997e-01   9.027801e-03
  2.249139e+00    7.106050e-01   9.182878e-03
  2.251350e+00    7.257239e-01   9.267860e-03
  2.253560e+00    7.021480e-01   9.104206e-03
  2.255771e+00    7.014088e-01   9.087685e-03
  2.257981e+00    7.543907e-01   9.412756e-03
  2.260192e+00    7.465381e-01   9.351882e-03
  2.262402e+00    7.409016e-01   9.305054e-03
  2.264613e+00    7.134814e-01   9.120017e-03
  2.266823e+00    6.814975e-01   8.902710e-03
  2.269033e+00    6.985821e-01   9.002936e-03
  2.271244e+00    7.126778e-01   9.082537e-03
  2.273454e+00    7.371398e-01   9.226244e-03
  2.275665e+00    8.405587e-01   9.840596e-03
  2.277875e+00    8.348308e-01   9.795953e-03
  2.280086e+00    7.333964e-01   9.170967e-03
  2.282296e+00    6.910902e-01   8.892884e-03
  2.284507e+00    6.489014e-01   8.607103e-03
  2.286717e+00    6.577577e-01   8.656151e-03
  2.288928e+00    6.603808e-01   8.663522e-03
  2.291138e+00    6.556430e-01   8.622974e-03
  2.293348e+00    6.321257e-01   8.457541e-03
  2.295559e+00    6.574723e-01   8.616093e-03
  2.297769e+00    6.642246e-01   8.650925e-03
  2.299980e+00    6.619051e-01   8.626411e-03
  2.302190e+00    6.599956e-01   8.604795e-03
  2.304401e+00    6.376586e-01   8.448703e-03
  2.306611e+00    6.516529e-01   8.531714e-03
  2.308822e+00    6.490049e-01   8.505990e-03
  2.311032e+00    6.553158e-01   8.540772e-03
  2.313243e+00    6.528397e-01   8.518341e-03
  2.315453e+00    6.545203e-01   8.521687e-03
  2.317663e+00    6.586049e-01   8.539028e-03
  2.319874e+00    6.495128e-01   8.471141e-03
  2.322084e+00    6.498891e-01   8.464607e-03
  2.324295e+00    6.454449e-01   8.427381e-03
  2.326505e+00    6.370063e-01   8.363110e-03
  2.328716e+00    6.436892e-01   8.398308e-03
  2.330926e+00    6.277193e-01   8.284803e-03
  2.333137e+00    6.308364e-01   8.297028e-03
  2.335347e+00    6.337889e-01   8.307610e-03
  2.337558e+00    6.381928e-01   8.328204e-03
  2.339768e+00    6.363930e-01   8.307897e-03
  2.341979e+00    6.347597e-01   8.288892e-03
  2.344189e+00    6.509103e-01   8.385195e-03
  2.346399e+00    6.478475e-01   8.356886e-03
  2.348610e+00    6.372932e-01   8.280057e-03
  2.350820e+00    6.430729e-01   8.309283e-03
  2.353031e+00    6.451260e-01   8.314181e-03
  2.355241e+00    6.461334e-01   8.312537e-03
  2.357452e+00    6.256729e-01   8.171504e-03
  2.359662e+00    6.250714e-01   8.159370e-03
  2.361873e+00    6.364108e-01   8.224782e-03
  2.364083e+00    6.285467e-01   8.165838e-03
  2.366294e+00    6.182938e-01   8.090904e-03
  2.368504e+00    6.259888e-01   8.133021e-03
  2.370714e+00    6.297566e-01   8.149371e-03
  2.372925e+00    6.219661e-01   8.090801e-03
  2.375135e+00    6.242659e-01   8.097669e-03
  2.377346e+00    6.354795e-01   8.162060e-03
  2.379556e+00    6.351103e-01   8.151717e-03
  2.381767e+00    6.247168e-01   8.076859e-03
  2.383977e+00    6.275760e-01   8.087335e-03
  2.386188e+00    6.195127e-01   8.027305e-03
  2.388398e+00    6.134388e-01   7.979939e-03
  2.390609e+00    5.988972e-01   7.877168e-03
  2.392819e+00    6.119826e-01   7.955007e-03
  2.395029e+00    6.051540e-01   7.902917e-03
  2.397240e+00    5.991226e-01   7.855658e-03
  2.399450e+00    5.976228e-01   7.838118e-03
  2.401661e+00    6.096414e-01   7.908861e-03
  2.403871e+00    6.028560e-01   7.857041e-03
  2.406082e+00    6.162504e-01   7.936349e-03
  2.408292e+00    6.247110e-01   7.982778e-03
  2.410503e+00    5.918239e-01   7.762440e-03
  2.412713e+00    5.812461e-01   7.685096e-03
  2.414924e+00    6.098123e-01   7.864176e-03
  2.417134e+00    6.007710e-01   7.798065e-03
  2.419344e+00    5.945891e-01   7.750479e-03
  2.421555e+00    5.956984e-01   7.750232e-03
  2.423765e+00    5.941370e-01   7.732709e-03
  2.425976e+00    5.954279e-01   7.733320e-03
  2.428186e+00    5.955561e-01   7.726967e-03
  2.430397e+00    5.865233e-01   7.660719e-03
  2.432607e+00    5.802024e-01   7.612152e-03
  2.434818e+00    5.938368e-01   7.693530e-03
  2.437028e+00    5.996722e-01   7.724067e-03
  2.439239e+00    5.954856e-01   7.689382e-03
  2.441449e+00    5.896383e-01   7.644373e-03
  2.443659e+00    5.805497e-01   7.577931e-03
  2.445870e+00    5.830531e-01   7.606439e-03
  2.448080e+00    5.736793e-01   7.579558e-03
  2.450291e+00    5.853884e-01   7.673259e-03
  2.452501e+00    5.672870e-01   7.564764e-03
  2.454712e+00    5.620438e-01   7.538065e-03
  2.456922e+00    5.639724e-01   7.557566e-03
  2.459133e+00    5.631813e-01   7.557686e-03
  2.461343e+00    5.582188e-01   7.528620e-03
  2.463554e+00    5.547656e-01   7.508743e-03
  2.465764e+00    5.617263e-01   7.558839e-03
  2.467975e+00    5.635791e-01   7.573584e-03
  2.470185e+00    5.592390e-01   7.546611e-03
  2.472395e+00    5.574663e-01   7.535885e-03
  2.474606e+00    5.328797e-01   7.369358e-03
  2.476816e+00    5.359292e-01   7.391125e-03
  2.479027e+00    5.413369e-01   7.429171e-03
  2.481237e+00    5.434679e-01   7.444050e-03
  2.483448e+00    5.384693e-01   7.410050e-03
  2.485658e+00    5.368154e-01   7.398502e-03
  2.487869e+00    5.471696e-01   7.469564e-03
  2.490079e+00    5.442407e-01   7.449020e-03
  2.492290e+00    5.559380e-01   7.528195e-03
  2.494500e+00    5.545248e-01   7.517891e-03
  2.496710e+00    5.594345e-01   7.550387e-03
  2.498921e+00    5.479036e-01   7.471172e-03
  2.501131e+00    5.481591e-01   7.471940e-03
  2.503342e+00    5.524040e-01   7.499537e-03
  2.505552e+00    5.393019e-01   7.408927e-03
  2.507763e+00    5.257060e-01   7.313534e-03
  2.509973e+00    5.284926e-01   7.331477e-03
  2.512184e+00    5.281383e-01   7.327423e-03
  2.514394e+00    5.327175e-01   7.349689e-03
  2.516605e+00    5.400224e-01   7.352259e-03
  2.518815e+00    5.390092e-01   7.316683e-03
  2.521025e+00    5.362087e-01   7.276482e-03
  2.523236e+00    5.353191e-01   7.252286e-03
  2.525446e+00    5.317029e-01   7.212055e-03
  2.527657e+00    5.262946e-01   7.160665e-03
  2.529867e+00    5.365341e-01   7.215651e-03
  2.532078e+00    5.269859e-01   7.136106e-03
  2.534288e+00    5.133800e-01   7.029637e-03
  2.536499e+00    5.158309e-01   7.034557e-03
  2.538709e+00    5.208098e-01   7.057458e-03
  2.540920e+00    5.347565e-01   7.140585e-03
  2.543130e+00    5.185387e-01   7.021182e-03
  2.545340e+00    5.165973e-01   6.998006e-03
  2.547551e+00    5.232686e-01   7.033103e-03
  2.549761e+00    5.239968e-01   7.028415e-03
  2.551972e+00    5.197765e-01   6.990707e-03
  2.554182e+00    5.184904e-01   6.972897e-03
  2.556393e+00    5.262303e-01   7.015625e-03
  2.558603e+00    5.270565e-01   7.011980e-03
  2.560814e+00    5.135241e-01   6.912746e-03
  2.563024e+00    5.172300e-01   6.929075e-03
  2.565235e+00    5.127533e-01   6.889570e-03
  2.567445e+00    5.144915e-01   6.891723e-03
  2.569656e+00    5.146710e-01   6.883220e-03
  2.571866e+00    5.110343e-01   6.849550e-03
  2.574076e+00    5.239782e-01   6.926437e-03
  2.576287e+00    5.094798e-01   6.821667e-03
  2.578497e+00    5.013816e-01   6.759492e-03
  2.580708e+00    5.158857e-01   6.848477e-03
  2.582918e+00    5.172401e-01   6.849682e-03
  2.585129e+00    5.117597e-01   6.805573e-03
  2.587339e+00    5.144690e-01   6.815870e-03
  2.589550e+00    5.231187e-01   6.865305e-03
  2.591760e+00    5.207789e-01   6.842144e-03
  2.593971e+00    5.081534e-01   6.751185e-03
  2.596181e+00    5.054595e-01   6.727091e-03
  2.598391e+00    5.063836e-01   6.728060e-03
  2.600602e+00    5.063239e-01   6.721772e-03
  2.602812e+00    5.086624e-01   6.729745e-03
  2.605023e+00    5.107203e-01   6.736164e-03
  2.607233e+00    5.090857e-01   6.718216e-03
  2.609444e+00    5.118157e-01   6.728966e-03
  2.611654e+00    5.061736e-01   6.684451e-03
  2.613865e+00    5.068039e-01   6.681566e-03
  2.616075e+00    5.043524e-01   6.658259e-03
  2.618286e+00    5.088279e-01   6.680714e-03
  2.620496e+00    5.111884e-01   6.689468e-03
  2.622706e+00    5.055206e-01   6.646537e-03
  2.624917e+00    4.943492e-01   6.566882e-03
  2.627127e+00    5.029153e-01   6.617799e-03
  2.629338e+00    5.010745e-01   6.599728e-03
  2.631548e+00    5.009087e-01   6.592462e-03
  2.633759e+00    5.133508e-01   6.666629e-03
  2.635969e+00    5.089816e-01   6.631444e-03
  2.638180e+00    5.178385e-01   6.681808e-03
  2.640390e+00    5.158802e-01   6.662478e-03
  2.642601e+00    5.134657e-01   6.640089e-03
  2.644811e+00    5.113986e-01   6.619589e-03
  2.647021e+00    5.029149e-01   6.557848e-03
  2.649232e+00    4.956992e-01   6.503955e-03
  2.651442e+00    4.959187e-01   6.498904e-03
  2.653653e+00    5.020732e-01   6.532279e-03
  2.655863e+00    5.055018e-01   6.547831e-03
  2.658074e+00    5.078809e-01   6.556542e-03
  2.660284e+00    5.001984e-01   6.500389e-03
  2.662495e+00    4.976567e-01   6.477090e-03
  2.664705e+00    5.037378e-01   6.509946e-03
  2.666916e+00    4.921485e-01   6.428183e-03
  2.669126e+00    4.819122e-01   6.354613e-03
  2.671337e+00    5.016230e-01   6.476629e-03
  2.673547e+00    5.130225e-01   6.543336e-03
  2.675757e+00    4.967880e-01   6.432500e-03
  2.677968e+00    5.094938e-01   6.507619e-03
  2.680178e+00    4.911689e-01   6.383149e-03
  2.682389e+00    4.864864e-01   6.346267e-03
  2.684599e+00    4.964425e-01   6.404692e-03
  2.686810e+00    4.888918e-01   6.349202e-03
  2.689020e+00    4.876364e-01   6.334798e-03
  2.691231e+00    4.756094e-01   6.249981e-03
  2.693441e+00    4.885878e-01   6.328556e-03
  2.695652e+00    4.948881e-01   6.362676e-03
  2.697862e+00    4.926704e-01   6.342056e-03
  2.700072e+00    4.815972e-01   6.264336e-03
  2.702283e+00    4.858654e-01   6.285851e-03
  2.704493e+00    4.811789e-01   6.249206e-03
  2.706704e+00    4.915460e-01   6.309755e-03
  2.708914e+00    4.902325e-01   6.295346e-03
  2.711125e+00    4.807902e-01   6.228208e-03
  2.713335e+00    5.020301e-01   6.358110e-03
  2.715546e+00    4.907967e-01   6.280115e-03
  2.717756e+00    4.864516e-01   6.246334e-03
  2.719967e+00    4.967932e-01   6.306123e-03
  2.722177e+00    4.941310e-01   6.283015e-03
  2.724387e+00    4.924584e-01   6.266234e-03
  2.726598e+00    4.876217e-01   6.229305e-03
  2.728808e+00    4.953467e-01   6.272240e-03
  2.731019e+00    4.990697e-01   6.289549e-03
  2.733229e+00    4.875537e-01   6.210756e-03
  2.735440e+00    4.791155e-01   6.150527e-03
  2.737650e+00    4.765330e-01   6.127948e-03
  2.739861e+00    4.821211e-01   6.157716e-03
  2.742071e+00    4.896217e-01   6.199648e-03
  2.744282e+00    4.942465e-01   6.222536e-03
  2.746492e+00    4.755632e-01   6.097819e-03
  2.748702e+00    4.771222e-01   6.101904e-03
  2.750913e+00    4.964116e-01   6.218155e-03
  2.753123e+00    4.942620e-01   6.198481e-03
  2.755334e+00    4.966963e-01   6.207558e-03
  2.757544e+00    4.755419e-01   6.068228e-03
  2.759755e+00    4.742237e-01   6.053953e-03
  2.761965e+00    4.750462e-01   6.053257e-03
  2.764176e+00    4.754782e-01   6.050040e-03
  2.766386e+00    4.754294e-01   6.043979e-03
  2.768597e+00    4.752171e-01   6.036776e-03
  2.770807e+00    4.999440e-01   6.185838e-03
  2.773017e+00    4.829834e-01   6.074034e-03
  2.775228e+00    4.860402e-01   6.087367e-03
  2.777438e+00    4.841438e-01   6.069672e-03
  2.779649e+00    4.730662e-01   5.993951e-03
  2.781859e+00    4.817173e-01   6.042715e-03
  2.784070e+00    4.889167e-01   6.081774e-03
  2.786280e+00    4.870464e-01   6.064313e-03
  2.788491e+00    4.755805e-01   5.986677e-03
  2.790701e+00    4.698080e-01   5.944624e-03
  2.792912e+00    4.741949e-01   5.966359e-03
  2.795122e+00    4.731194e-01   5.953884e-03
  2.797333e+00    4.722800e-01   5.943044e-03
  2.799543e+00    4.777202e-01   5.971307e-03
  2.801753e+00    4.819625e-01   5.991866e-03
  2.803964e+00    4.810562e-01   5.980534e-03
  2.806174e+00    4.845376e-01   5.995923e-03
  2.808385e+00    4.897874e-01   6.021427e-03
  2.810595e+00    4.720724e-01   5.904684e-03
  2.812806e+00    4.663311e-01   5.862110e-03
  2.815016e+00    4.559522e-01   5.791863e-03
  2.817227e+00    4.632393e-01   5.863572e-03
  2.819437e+00    4.792892e-01   5.975439e-03
  2.821648e+00    4.599014e-01   5.855611e-03
  2.823858e+00    4.574343e-01   5.845107e-03
  2.826068e+00    4.695799e-01   5.927164e-03
  2.828279e+00    4.716214e-01   5.944065e-03
  2.830489e+00    4.886229e-01   6.053657e-03
  2.832700e+00    4.659780e-01   5.914280e-03
  2.834910e+00    4.684090e-01   5.931704e-03
  2.837121e+00    4.856430e-01   6.041594e-03
  2.839331e+00    4.808327e-01   6.012851e-03
  2.841542e+00    4.733612e-01   5.966955e-03
  2.843752e+00    4.721184e-01   5.959922e-03
  2.845963e+00    4.673603e-01   5.930196e-03
  2.848173e+00    4.554734e-01   5.854392e-03
  2.850383e+00    4.573951e-01   5.867002e-03
  2.852594e+00    4.634573e-01   5.905692e-03
  2.854804e+00    4.630766e-01   5.902750e-03
  2.857015e+00    4.694640e-01   5.942889e-03
  2.859225e+00    4.717806e-01   5.957291e-03
  2.861436e+00    4.683868e-01   5.935156e-03
  2.863646e+00    4.642383e-01   5.908857e-03
  2.865857e+00    4.786241e-01   6.000060e-03
  2.868067e+00    4.666200e-01   5.924560e-03
  2.870278e+00    4.628124e-01   5.899985e-03
  2.872488e+00    4.688313e-01   5.937064e-03
  2.874698e+00    4.688050e-01   5.935838e-03
  2.876909e+00    4.733804e-01   5.963401e-03
  2.879119e+00    4.600084e-01   5.876957e-03
  2.881330e+00    4.558804e-01   5.849054e-03
  2.883540e+00    4.627484e-01   5.891562e-03
  2.885751e+00    4.654094e-01   5.906830e-03
  2.887961e+00    4.796053e-01   5.994312e-03
  2.890172e+00    4.703039e-01   5.934299e-03
  2.892382e+00    4.628047e-01   5.884979e-03
  2.894593e+00    4.571216e-01   5.846928e-03
  2.896803e+00    4.450093e-01   5.767010e-03
  2.899014e+00    4.459471e-01   5.771180e-03
  2.901224e+00    4.493203e-01   5.791003e-03
  2.903434e+00    4.642295e-01   5.884334e-03
  2.905645e+00    4.543540e-01   5.819225e-03
  2.907855e+00    4.460764e-01   5.763885e-03
  2.910066e+00    4.570929e-01   5.832555e-03
  2.912276e+00    4.616487e-01   5.859405e-03
  2.914487e+00    4.782878e-01   5.961583e-03
  2.916697e+00    4.479002e-01   5.766895e-03
  2.918908e+00    4.496264e-01   5.776004e-03
  2.921118e+00    4.553539e-01   5.809985e-03
  2.923329e+00    4.500431e-01   5.773714e-03
  2.925539e+00    4.541280e-01   5.797585e-03
  2.927749e+00    4.519503e-01   5.781369e-03
  2.929960e+00    4.439020e-01   5.726929e-03
  2.932170e+00    4.614698e-01   5.836793e-03
  2.934381e+00    4.629419e-01   5.843666e-03
  2.936591e+00    4.605473e-01   5.825926e-03
  2.938802e+00    4.449803e-01   5.723963e-03
  2.941012e+00    4.506089e-01   5.757688e-03
  2.943223e+00    4.616584e-01   5.825174e-03
  2.945433e+00    4.511932e-01   5.755042e-03
  2.947644e+00    4.516149e-01   5.753619e-03
  2.949854e+00    4.488350e-01   5.731635e-03
  2.952064e+00    4.641733e-01   5.824483e-03
  2.954275e+00    4.748726e-01   5.886730e-03
  2.956485e+00    4.583662e-01   5.779320e-03
  2.958696e+00    4.543460e-01   5.749534e-03
  2.960906e+00    4.636995e-01   5.804196e-03
  2.963117e+00    4.667697e-01   5.818835e-03
  2.965327e+00    4.611350e-01   5.779691e-03
  2.967538e+00    4.593949e-01   5.765832e-03
  2.969748e+00    4.595953e-01   5.764260e-03
  2.971959e+00    4.576836e-01   5.749114e-03
  2.974169e+00    4.596151e-01   5.758631e-03
  2.976379e+00    4.538949e-01   5.719773e-03
  2.978590e+00    4.599036e-01   5.754334e-03
  2.980800e+00    4.638869e-01   5.776398e-03
  2.983011e+00    4.536814e-01   5.709691e-03
  2.985221e+00    4.617438e-01   5.757026e-03
  2.987432e+00    4.556312e-01   5.715677e-03
  2.989642e+00    4.689218e-01   5.795774e-03
  2.991853e+00    4.546367e-01   5.703526e-03
  2.994063e+00    4.597133e-01   5.732352e-03
  2.996274e+00    4.463908e-01   5.645532e-03
  2.998484e+00    4.459797e-01   5.640256e-03
  3.000694e+00    4.513297e-01   5.670529e-03
  3.002905e+00    4.544068e-01   5.686891e-03
  3.005115e+00    4.602850e-01   5.720558e-03
  3.007326e+00    4.480627e-01   5.640946e-03
  3.009536e+00    4.545566e-01   5.678434e-03
  3.011747e+00    4.568964e-01   5.690095e-03
  3.013957e+00    4.567811e-01   5.686183e-03
  3.016168e+00    4.639954e-01   5.727618e-03
  3.018378e+00    4.470726e-01   5.619186e-03
  3.020589e+00    4.433385e-01   5.592479e-03
  3.022799e+00    4.491778e-01   5.626038e-03
  3.025010e+00    4.609748e-01   5.696150e-03
  3.027220e+00    4.705017e-01   5.751570e-03
  3.029430e+00    4.552946e-01   5.654593e-03
  3.031641e+00    4.566920e-01   5.660099e-03
  3.033851e+00    4.615629e-01   5.686654e-03
  3.036062e+00    4.619114e-01   5.685999e-03
  3.038272e+00    4.686756e-01   5.723827e-03
  3.040483e+00    4.617114e-01   5.677890e-03
  3.042693e+00    4.542804e-01   5.628732e-03
  3.044904e+00    4.544255e-01   5.625598e-03
  3.047114e+00    4.551247e-01   5.625092e-03
  3.049325e+00    4.597755e-01   5.649320e-03
  3.051535e+00    4.447022e-01   5.551596e-03
  3.053745e+00    4.525694e-01   5.595703e-03
  3.055956e+00    4.506944e-01   5.579538e-03
  3.058166e+00    4.650405e-01   5.663313e-03
  3.060377e+00    4.522006e-01   5.579801e-03
  3.062587e+00    4.623750e-01   5.637538e-03
  3.064798e+00    4.438446e-01   5.519187e-03
  3.067008e+00    4.468256e-01   5.532981e-03
  3.069219e+00    4.492329e-01   5.543338e-03
  3.071429e+00    4.469015e-01   5.525457e-03
  3.073640e+00    4.513198e-01   5.549340e-03
  3.075850e+00    4.639084e-01   5.622586e-03
  3.078060e+00    4.474613e-01   5.518906e-03
  3.080271e+00    4.530904e-01   5.550019e-03
  3.082481e+00    4.504640e-01   5.530464e-03
  3.084692e+00    4.384457e-01   5.452836e-03
  3.086902e+00    4.473614e-01   5.504759e-03
  3.089113e+00    4.427143e-01   5.472549e-03
  3.091323e+00    4.606609e-01   5.578951e-03
  3.093534e+00    4.490202e-01   5.504638e-03
  3.095744e+00    4.414419e-01   5.454632e-03
  3.097955e+00    4.515176e-01   5.512948e-03
  3.100165e+00    4.380378e-01   5.426765e-03
  3.102375e+00    4.519225e-01   5.508640e-03
  3.104586e+00    4.585342e-01   5.545243e-03
  3.106796e+00    4.629512e-01   5.568332e-03
  3.109007e+00    4.426185e-01   5.441464e-03
  3.111217e+00    4.592030e-01   5.538714e-03
  3.113428e+00    4.498829e-01   5.478801e-03
  3.115638e+00    4.591497e-01   5.531640e-03
  3.117849e+00    4.575141e-01   5.518031e-03
  3.120059e+00    4.408709e-01   5.413267e-03
  3.122270e+00    4.373824e-01   5.388598e-03
  3.124480e+00    4.362229e-01   5.377773e-03
  3.126691e+00    4.439518e-01   5.421662e-03
  3.128901e+00    4.380409e-01   5.382349e-03
  3.131111e+00    4.353874e-01   5.362226e-03
  3.133322e+00    4.316745e-01   5.335893e-03
  3.135532e+00    4.460502e-01   5.420623e-03
  3.137743e+00    4.470713e-01   5.423329e-03
  3.139953e+00    4.437657e-01   5.399559e-03
  3.142164e+00    4.446144e-01   5.416756e-03
  3.144374e+00    4.536318e-01   5.500167e-03
  3.146585e+00    4.442702e-01   5.457735e-03
  3.148795e+00    4.436021e-01   5.464401e-03
  3.151006e+00    4.447230e-01   5.479878e-03
  3.153216e+00    4.387620e-01   5.450152e-03
  3.155426e+00    4.311773e-01   5.409060e-03
  3.157637e+00    4.395625e-01   5.466926e-03
  3.159847e+00    4.440815e-01   5.499847e-03
  3.162058e+00    4.517055e-01   5.551359e-03
  3.164268e+00    4.437601e-01   5.506383e-03
  3.166479e+00    4.404206e-01   5.489299e-03
  3.168689e+00    4.460442e-01   5.527603e-03
  3.170900e+00    4.529372e-01   5.573382e-03
  3.173110e+00    4.446865e-01   5.525281e-03
  3.175321e+00    4.394626e-01   5.495236e-03
  3.177531e+00    4.332226e-01   5.458784e-03
  3.179741e+00    4.357472e-01   5.476749e-03
  3.181952e+00    4.455470e-01   5.540108e-03
  3.184162e+00    4.414714e-01   5.516932e-03
  3.186373e+00    4.358887e-01   5.483527e-03
  3.188583e+00    4.335264e-01   5.470427e-03
  3.190794e+00    4.410036e-01   5.519156e-03
  3.193004e+00    4.370806e-01   5.495811e-03
  3.195215e+00    4.408707e-01   5.521085e-03
  3.197425e+00    4.235039e-01   5.412463e-03
  3.199636e+00    4.279979e-01   5.440327e-03
  3.201846e+00    4.273981e-01   5.435918e-03
  3.204056e+00    4.328863e-01   5.471591e-03
  3.206267e+00    4.358687e-01   5.491255e-03
  3.208477e+00    4.296689e-01   5.452983e-03
  3.210688e+00    4.353357e-01   5.489673e-03
  3.212898e+00    4.450786e-01   5.551333e-03
  3.215109e+00    4.357704e-01   5.493752e-03
  3.217319e+00    4.322693e-01   5.472277e-03
  3.219530e+00    4.275723e-01   5.442841e-03
  3.221740e+00    4.226385e-01   5.411915e-03
  3.223951e+00    4.283866e-01   5.449066e-03
  3.226161e+00    4.249335e-01   5.427225e-03
  3.228372e+00    4.383675e-01   5.512892e-03
  3.230582e+00    4.404950e-01   5.526397e-03
  3.232792e+00    4.303981e-01   5.462935e-03
  3.235003e+00    4.285281e-01   5.451269e-03
  3.237213e+00    4.249862e-01   5.428816e-03
  3.239424e+00    4.252687e-01   5.430606e-03
  3.241634e+00    4.351103e-01   5.493211e-03
  3.243845e+00    4.386230e-01   5.515417e-03
  3.246055e+00    4.314524e-01   5.469879e-03
  3.248266e+00    4.402103e-01   5.525305e-03
  3.250476e+00    4.348063e-01   5.491006e-03
  3.252687e+00    4.212725e-01   5.404775e-03
  3.254897e+00    4.304779e-01   5.463377e-03
  3.257107e+00    4.401190e-01   5.523925e-03
  3.259318e+00    4.274349e-01   5.443510e-03
  3.261528e+00    4.219404e-01   5.408245e-03
  3.263739e+00    4.339665e-01   5.484229e-03
  3.265949e+00    4.417557e-01   5.533108e-03
  3.268160e+00    4.214764e-01   5.404202e-03
  3.270370e+00    4.167014e-01   5.372995e-03
  3.272581e+00    4.258778e-01   5.431540e-03
  3.274791e+00    4.269094e-01   5.437593e-03
  3.277002e+00    4.246524e-01   5.422636e-03
  3.279212e+00    4.369579e-01   5.500263e-03
  3.281422e+00    4.344297e-01   5.483744e-03
  3.283633e+00    4.291054e-01   5.449355e-03
  3.285843e+00    4.255652e-01   5.426502e-03
  3.288054e+00    4.182743e-01   5.378862e-03
  3.290264e+00    4.225653e-01   5.406088e-03
  3.292475e+00    4.153470e-01   5.358890e-03
  3.294685e+00    4.027944e-01   5.276652e-03
  3.296896e+00    4.273824e-01   5.434563e-03
  3.299106e+00    4.411953e-01   5.521131e-03
  3.301317e+00    4.386459e-01   5.504101e-03
  3.303527e+00    4.240667e-01   5.411417e-03
  3.305737e+00    4.245824e-01   5.413630e-03
  3.307948e+00    4.269660e-01   5.428150e-03
  3.310158e+00    4.185423e-01   5.373489e-03
  3.312369e+00    4.222880e-01   5.396581e-03
  3.314579e+00    4.198285e-01   5.379959e-03
  3.316790e+00    4.346317e-01   5.473238e-03
  3.319000e+00    4.372616e-01   5.488601e-03
  3.321211e+00    4.306635e-01   5.446398e-03
  3.323421e+00    4.302628e-01   5.442665e-03
  3.325632e+00    4.190110e-01   5.370134e-03
  3.327842e+00    4.217388e-01   5.386668e-03
  3.330052e+00    4.240149e-01   5.400113e-03
  3.332263e+00    4.185329e-01   5.364088e-03
  3.334473e+00    4.234085e-01   5.394318e-03
  3.336684e+00    4.158174e-01   5.344484e-03
  3.338894e+00    4.189570e-01   5.363794e-03
  3.341105e+00    4.203436e-01   5.371454e-03
  3.343315e+00    4.240648e-01   5.394020e-03
  3.345526e+00    4.275285e-01   5.415102e-03
  3.347736e+00    4.325905e-01   5.445650e-03
  3.349947e+00    4.246827e-01   5.394707e-03
  3.352157e+00    4.299965e-01   5.427140e-03
  3.354368e+00    4.350016e-01   5.457343e-03
  3.356578e+00    4.305523e-01   5.428331e-03
  3.358788e+00    4.095907e-01   5.293211e-03
  3.360999e+00    4.290737e-01   5.416377e-03
  3.363209e+00    4.132345e-01   5.314477e-03
  3.365420e+00    4.360052e-01   5.457345e-03
  3.367630e+00    4.302005e-01   5.419903e-03
  3.369841e+00    4.212601e-01   5.361849e-03
  3.372051e+00    4.213537e-01   5.360449e-03
  3.374262e+00    4.210120e-01   5.355821e-03
  3.376472e+00    4.298784e-01   5.409447e-03
  3.378683e+00    4.114962e-01   5.290049e-03
  3.380893e+00    4.041440e-01   5.240241e-03
  3.383103e+00    4.089581e-01   5.268684e-03
  3.385314e+00    4.207110e-01   5.341616e-03
  3.387524e+00    4.110590e-01   5.277271e-03
  3.389735e+00    4.124535e-01   5.283582e-03
  3.391945e+00    4.133562e-01   5.285691e-03
  3.394156e+00    4.222109e-01   5.337740e-03
  3.396366e+00    4.157223e-01   5.293141e-03
  3.398577e+00    3.927882e-01   5.142103e-03
  3.400787e+00    4.027894e-01   5.218920e-03
  3.402998e+00    4.058936e-01   5.276882e-03
  3.405208e+00    4.037676e-01   5.283649e-03
  3.407418e+00    3.961487e-01   5.249279e-03
  3.409629e+00    3.891391e-01   5.216364e-03
  3.411839e+00    3.922476e-01   5.248803e-03
  3.414050e+00    3.934724e-01   5.267982e-03
  3.416260e+00    3.952253e-01   5.289324e-03
  3.418471e+00    3.882078e-01   5.251504e-03
  3.420681e+00    3.954764e-01   5.308987e-03
  3.422892e+00    3.783097e-01   5.200350e-03
  3.425102e+00    3.934966e-01   5.311540e-03
  3.427313e+00    3.944850e-01   5.325466e-03
  3.429523e+00    3.918446e-01   5.314736e-03
  3.431733e+00    3.732173e-01   5.193410e-03
  3.433944e+00    3.762841e-01   5.221122e-03
  3.436154e+00    3.788923e-01   5.245383e-03
  3.438365e+00    3.859059e-01   5.299665e-03
  3.440575e+00    3.749715e-01   5.229956e-03
  3.442786e+00    3.646902e-01   5.163250e-03
  3.444996e+00    3.773252e-01   5.257411e-03
  3.447207e+00    3.650959e-01   5.176758e-03
  3.449417e+00    3.733814e-01   5.276061e-03
  3.451628e+00    3.642088e-01   5.240135e-03
  3.453838e+00    3.760907e-01   5.346294e-03
  3.456049e+00    3.599131e-01   5.253747e-03
  3.458259e+00    3.581592e-01   5.262608e-03
  3.460469e+00    3.714294e-01   5.379113e-03
  3.462680e+00    3.692513e-01   5.382476e-03
  3.464890e+00    3.681142e-01   5.392013e-03
  3.467101e+00    3.681625e-01   5.409857e-03
  3.469311e+00    3.881607e-01   5.571759e-03
  3.471522e+00    4.051951e-01   5.709779e-03
  3.473732e+00    3.923191e-01   5.634566e-03
  3.475943e+00    3.809798e-01   5.568189e-03
  3.478153e+00    3.933500e-01   5.673438e-03
  3.480364e+00    4.151671e-01   5.844158e-03
  3.482574e+00    4.222209e-01   5.909323e-03
  3.484784e+00    4.251674e-01   5.945060e-03
  3.486995e+00    4.177489e-01   5.908056e-03
  3.489205e+00    4.415962e-01   6.089358e-03
  3.491416e+00    4.432482e-01   6.115909e-03
  3.493626e+00    4.486229e-01   6.167711e-03
  3.495837e+00    4.556192e-01   6.230639e-03
  3.498047e+00    4.351151e-01   6.103146e-03
  3.500258e+00    4.568798e-01   6.268565e-03
  3.502468e+00    4.669983e-01   6.352264e-03
  3.504679e+00    4.620572e-01   6.333060e-03
  3.506889e+00    4.714952e-01   6.411930e-03
  3.509099e+00    4.697811e-01   6.414611e-03
  3.511310e+00    4.736023e-01   6.455070e-03
  3.513520e+00    4.767339e-01   6.490717e-03
  3.515731e+00    4.810019e-01   6.533978e-03
  3.517941e+00    4.953021e-01   6.644875e-03
  3.520152e+00    5.086479e-01   6.748303e-03
  3.522362e+00    5.145419e-01   6.801975e-03
  3.524573e+00    5.145529e-01   6.816423e-03
  3.526783e+00    5.191246e-01   6.860133e-03
  3.528994e+00    5.247092e-01   6.909250e-03
  3.531204e+00    5.242389e-01   6.918646e-03
  3.533414e+00    5.565759e-01   7.141280e-03
  3.535625e+00    5.346955e-01   7.011937e-03
  3.537835e+00    5.369470e-01   7.038845e-03
  3.540046e+00    5.449959e-01   7.100421e-03
  3.542256e+00    5.528850e-01   7.159293e-03
  3.544467e+00    5.433874e-01   7.105193e-03
  3.546677e+00    5.358620e-01   7.063411e-03
  3.548888e+00    5.400265e-01   7.098326e-03
  3.551098e+00    5.371127e-01   7.086431e-03
  3.553309e+00    5.602516e-01   7.245841e-03
  3.555519e+00    5.402374e-01   7.126552e-03
  3.557729e+00    5.507661e-01   7.207569e-03
  3.559940e+00    5.360228e-01   7.121976e-03
  3.562150e+00    5.492675e-01   7.221277e-03
  3.564361e+00    5.472217e-01   7.221292e-03
  3.566571e+00    5.444937e-01   7.217211e-03
  3.568782e+00    5.457237e-01   7.239590e-03
  3.570992e+00    5.551483e-01   7.315828e-03
  3.573203e+00    5.530563e-01   7.316427e-03
  3.575413e+00    5.303982e-01   7.178691e-03
  3.577624e+00    5.364316e-01   7.233503e-03
  3.579834e+00    5.425497e-01   7.288611e-03
  3.582045e+00    5.305155e-01   7.221297e-03
  3.584255e+00    5.413615e-01   7.308857e-03
  3.586465e+00    5.483902e-01   7.370213e-03
  3.588676e+00    5.634716e-01   7.485474e-03
  3.590886e+00    5.473210e-01   7.391260e-03
  3.593097e+00    5.420029e-01   7.369822e-03
  3.595307e+00    5.500692e-01   7.438590e-03
  3.597518e+00    5.357727e-01   7.355520e-03
  3.599728e+00    5.335062e-01   7.353989e-03
  3.601939e+00    5.360062e-01   7.385280e-03
  3.604149e+00    5.444070e-01   7.457458e-03
  3.606360e+00    5.400393e-01   7.441674e-03
  3.608570e+00    5.553980e-01   7.561189e-03
  3.610780e+00    5.330517e-01   7.418570e-03
  3.612991e+00    5.584497e-01   7.603449e-03
  3.615201e+00    5.289608e-01   7.409752e-03
  3.617412e+00    5.376397e-01   7.477563e-03
  3.619622e+00    5.385026e-01   7.489533e-03
  3.621833e+00    5.563554e-01   7.619521e-03
  3.624043e+00    5.478668e-01   7.570806e-03
  3.626254e+00    5.254441e-01   7.423875e-03
  3.628464e+00    5.381794e-01   7.524323e-03
  3.630675e+00    5.512724e-01   7.629668e-03
  3.632885e+00    5.282421e-01   7.482924e-03
  3.635095e+00    5.367650e-01   7.557526e-03
  3.637306e+00    5.445950e-01   7.626931e-03
  3.639516e+00    5.541590e-01   7.708450e-03
  3.641727e+00    5.416983e-01   7.635965e-03
  3.643937e+00    5.289940e-01   7.560396e-03
  3.646148e+00    5.347196e-01   7.615793e-03
  3.648358e+00    5.566387e-01   7.785544e-03
  3.650569e+00    5.233408e-01   7.563680e-03
  3.652779e+00    5.468446e-01   7.746620e-03
  3.654990e+00    5.349886e-01   7.677148e-03
  3.657200e+00    5.309691e-01   7.663039e-03
  3.659410e+00    5.600162e-01   7.885274e-03
  3.661621e+00    5.261981e-01   7.658517e-03
  3.663831e+00    5.153009e-01   7.593654e-03
  3.666042e+00    5.486867e-01   7.851169e-03
  3.668252e+00    5.317118e-01   7.744059e-03
  3.670463e+00    5.334382e-01   7.771869e-03
  3.672673e+00    5.403296e-01   7.837462e-03
  3.674884e+00    5.315230e-01   7.788744e-03
  3.677094e+00    5.444096e-01   7.898320e-03
  3.679305e+00    5.379732e-01   7.867134e-03
  3.681515e+00    5.378600e-01   7.882083e-03
  3.683726e+00    5.305833e-01   7.844368e-03
  3.685936e+00    5.462014e-01   7.974905e-03
  3.688146e+00    5.521867e-01   8.034686e-03
  3.690357e+00    5.266208e-01   7.862384e-03
  3.692567e+00    5.299383e-01   7.903278e-03
  3.694778e+00    5.321490e-01   7.935855e-03
  3.696988e+00    5.145153e-01   7.819122e-03
  3.699199e+00    5.223640e-01   7.894687e-03
  3.701409e+00    5.119895e-01   7.832082e-03
  3.703620e+00    5.196335e-01   7.906534e-03
  3.705830e+00    5.310853e-01   8.009695e-03
  3.708041e+00    5.170797e-01   7.919909e-03
  3.710251e+00    5.127938e-01   7.903486e-03
  3.712461e+00    5.273547e-01   8.031759e-03
  3.714672e+00    5.133871e-01   7.941269e-03
  3.716882e+00    5.243815e-01   8.042641e-03
  3.719093e+00    5.227696e-01   8.047410e-03
  3.721303e+00    5.289500e-01   8.111989e-03
  3.723514e+00    5.259765e-01   8.106488e-03
  3.725724e+00    5.050642e-01   7.960700e-03
  3.727935e+00    5.257285e-01   8.139434e-03
  3.730145e+00    5.387126e-01   8.257058e-03
  3.732356e+00    5.330598e-01   8.231467e-03
  3.734566e+00    5.224527e-01   8.166805e-03
  3.736776e+00    5.191414e-01   8.158687e-03
  3.738987e+00    5.148665e-01   8.142808e-03
  3.741197e+00    5.167437e-01   8.175684e-03
  3.743408e+00    5.143381e-01   8.174730e-03
  3.745618e+00    4.868273e-01   7.970940e-03
  3.747829e+00    4.962399e-01   8.065409e-03
  3.750039e+00    5.193325e-01   8.269453e-03
  3.752250e+00    5.020366e-01   8.148940e-03
  3.754460e+00    5.062068e-01   8.201136e-03
  3.756671e+00    5.295312e-01   8.407130e-03
  3.758881e+00    5.302321e-01   8.431742e-03
  3.761091e+00    5.103152e-01   8.291065e-03
  3.763302e+00    4.795914e-01   8.056111e-03
  3.765512e+00    5.004877e-01   8.248847e-03
  3.767723e+00    5.197851e-01   8.425980e-03
  3.769933e+00    5.018033e-01   8.298209e-03
  3.772144e+00    4.895135e-01   8.215170e-03
  3.774354e+00    5.089841e-01   8.396936e-03
  3.776565e+00    4.994063e-01   8.337243e-03
  3.778775e+00    4.987744e-01   8.351802e-03
  3.780986e+00    5.094002e-01   8.460742e-03
  3.783196e+00    5.242933e-01   8.604176e-03
  3.785407e+00    5.011871e-01   8.432847e-03
  3.787617e+00    5.209785e-01   8.618842e-03
  3.789827e+00    5.099823e-01   8.548121e-03
  3.792038e+00    5.087020e-01   8.558309e-03
  3.794248e+00    4.963623e-01   8.474986e-03
  3.796459e+00    4.836853e-01   8.386996e-03
  3.798669e+00    5.181624e-01   8.702489e-03
  3.800880e+00    5.099058e-01   8.654589e-03
  3.803090e+00    4.866812e-01   8.476660e-03
  3.805301e+00    4.970978e-01   8.588954e-03
  3.807511e+00    4.965524e-01   8.606174e-03
  3.809722e+00    4.839762e-01   8.518340e-03
  3.811932e+00    4.918787e-01   8.609645e-03
  3.814142e+00    4.950728e-01   8.660393e-03
  3.816353e+00    4.913229e-01   8.650149e-03
  3.818563e+00    5.208503e-01   8.929902e-03
  3.820774e+00    4.901987e-01   8.686123e-03
  3.822984e+00    5.012075e-01   8.806596e-03
  3.825195e+00    5.124761e-01   8.929058e-03
  3.827405e+00    5.128325e-01   8.956491e-03
  3.829616e+00    5.059574e-01   8.920442e-03
  3.831826e+00    5.098103e-01   8.978860e-03
  3.834037e+00    5.019054e-01   8.933597e-03
  3.836247e+00    4.868437e-01   8.822978e-03
  3.838457e+00    4.856570e-01   8.836926e-03
  3.840668e+00    4.895262e-01   8.897154e-03
  3.842878e+00    4.813382e-01   8.847511e-03
  3.845089e+00    4.631650e-01   8.703619e-03
  3.847299e+00    4.835308e-01   8.918369e-03
  3.849510e+00    4.851953e-01   8.959286e-03
  3.851720e+00    5.059451e-01   9.170517e-03
  3.853931e+00    4.940984e-01   9.081540e-03
  3.856141e+00    5.089384e-01   9.236128e-03
  3.858352e+00    5.312133e-01   9.456113e-03
  3.860562e+00    4.783714e-01   8.992447e-03
  3.862772e+00    4.953879e-01   9.170614e-03
  3.864983e+00    4.734417e-01   8.984439e-03
  3.867193e+00    5.056076e-01   9.304590e-03
  3.869404e+00    4.881034e-01   9.161888e-03
  3.871614e+00    4.761178e-01   9.068273e-03
  3.873825e+00    5.000634e-01   9.313987e-03
  3.876035e+00    5.091794e-01   9.419408e-03
  3.878246e+00    5.098729e-01   9.452059e-03
  3.880456e+00    4.886014e-01   9.281665e-03
  3.882667e+00    4.994788e-01   9.413959e-03
  3.884877e+00    4.923861e-01   9.376640e-03
  3.887087e+00    4.881842e-01   9.366385e-03
  3.889298e+00    5.150571e-01   9.651794e-03
  3.891508e+00    4.997109e-01   9.537785e-03
  3.893719e+00    5.011098e-01   9.582401e-03
  3.895929e+00    4.946035e-01   9.551530e-03
  3.898140e+00    4.909013e-01   9.547459e-03
  3.900350e+00    4.910466e-01   9.580999e-03
  3.902561e+00    5.028592e-01   9.728377e-03
  3.904771e+00    5.098890e-01   9.829519e-03
  3.906982e+00    5.394653e-01   1.014545e-02
  3.909192e+00    5.043868e-01   9.844163e-03
  3.911403e+00    4.763069e-01   9.599647e-03
  3.913613e+00    5.208034e-01   1.007341e-02
  3.915823e+00    5.024717e-01   9.929962e-03
  3.918034e+00    4.889463e-01   9.830564e-03
  3.920244e+00    5.304744e-01   1.027685e-02
  3.922455e+00    4.549902e-01   9.552438e-03
  3.924665e+00    4.936042e-01   9.986159e-03
  3.926876e+00    4.830145e-01   9.915322e-03
  3.929086e+00    5.283569e-01   1.040925e-02
  3.931297e+00    5.024118e-01   1.018580e-02
  3.933507e+00    4.947448e-01   1.013691e-02
  3.935718e+00    4.819353e-01   1.003344e-02
  3.937928e+00    5.133927e-01   1.038584e-02
  3.940138e+00    5.139105e-01   1.042129e-02
  3.942349e+00    5.088981e-01   1.040081e-02
  3.944559e+00    5.284646e-01   1.063020e-02
  3.946770e+00    5.113532e-01   1.048752e-02
  3.948980e+00    4.995197e-01   1.039672e-02
  3.951191e+00    4.834519e-01   1.025875e-02
  3.953401e+00    4.968498e-01   1.043169e-02
  3.955612e+00    5.207650e-01   1.071248e-02
  3.957822e+00    5.006086e-01   1.053540e-02
  3.960033e+00    4.755274e-01   1.030031e-02
  3.962243e+00    4.708898e-01   1.028232e-02
  3.964453e+00    4.574517e-01   1.016656e-02
  3.966664e+00    5.153455e-01   1.082526e-02
  3.968874e+00    4.927457e-01   1.061374e-02
  3.971085e+00    5.162497e-01   1.088661e-02
  3.973295e+00    4.712261e-01   1.042219e-02
  3.975506e+00    5.166509e-01   1.093518e-02
  3.977716e+00    5.554771e-01   1.136219e-02
  3.979927e+00    5.265331e-01   1.108542e-02
  3.982137e+00    4.539653e-01   1.031466e-02
  3.984348e+00    4.570223e-01   1.037119e-02
  3.986558e+00    4.828604e-01   1.068263e-02
  3.988768e+00    5.056469e-01   1.095521e-02
  3.990979e+00    5.020289e-01   1.093918e-02
  3.993189e+00    5.263375e-01   1.122479e-02
  3.995400e+00    5.299546e-01   1.128803e-02
  3.997610e+00    5.364612e-01   1.138841e-02
  3.999821e+00    5.225728e-01   1.127911e-02
  4.002031e+00    4.865486e-01   1.092175e-02
  4.004242e+00    4.877882e-01   1.097427e-02
  4.006452e+00    4.792306e-01   1.091677e-02
  4.008663e+00    4.817447e-01   1.098522e-02
  4.010873e+00    4.705322e-01   1.089601e-02
  4.013084e+00    4.764095e-01   1.100440e-02
  4.015294e+00    4.983855e-01   1.129697e-02
  4.017504e+00    5.256046e-01   1.164491e-02
  4.019715e+00    5.284936e-01   1.172125e-02
  4.021925e+00    4.875846e-01   1.130177e-02
  4.024136e+00    4.667854e-01   1.110089e-02
  4.026346e+00    4.681194e-01   1.116011e-02
  4.028557e+00    5.193158e-01   1.180042e-02
  4.030767e+00    5.179434e-01   1.183216e-02
  4.032978e+00    5.082350e-01   1.176819e-02
  4.035188e+00    4.879802e-01   1.157766e-02
  4.037399e+00    4.523991e-01   1.119364e-02
  4.039609e+00    4.862607e-01   1.165281e-02
  4.041819e+00    4.899358e-01   1.174592e-02
  4.044030e+00    4.572479e-01   1.139578e-02
  4.046240e+00    5.190092e-01   1.219273e-02
  4.048451e+00    4.996191e-01   1.201461e-02
  4.050661e+00    4.927559e-01   1.198381e-02
  4.052872e+00    4.773455e-01   1.184742e-02
  4.055082e+00    4.729987e-01   1.184618e-02
  4.057293e+00    4.817931e-01   1.200966e-02
  4.059503e+00    4.973809e-01   1.225767e-02
  4.061714e+00    5.045460e-01   1.240369e-02
  4.063924e+00    4.911468e-01   1.229489e-02
  4.066134e+00    5.079248e-01   1.256235e-02
  4.068345e+00    4.550403e-01   1.194747e-02
  4.070555e+00    4.947280e-01   1.251776e-02
  4.072766e+00    4.738932e-01   1.231160e-02
  4.074976e+00    4.802871e-01   1.245621e-02
  4.077187e+00    5.036392e-01   1.281889e-02
  4.079397e+00    4.825902e-01   1.261220e-02
  4.081608e+00    4.522028e-01   1.227221e-02
  4.083818e+00    4.381107e-01   1.214219e-02
  4.086029e+00    4.594384e-01   1.249988e-02
  4.088239e+00    4.596590e-01   1.257019e-02
  4.090449e+00    4.536295e-01   1.255516e-02
  4.092660e+00    4.847742e-01   1.305034e-02
  4.094870e+00    4.518396e-01   1.266948e-02
  4.097081e+00    4.318675e-01   1.245403e-02
  4.099291e+00    4.398670e-01   1.262095e-02
  4.101502e+00    4.665486e-01   1.304655e-02
  4.103712e+00    4.767097e-01   1.323686e-02
  4.105923e+00    5.322129e-01   1.404049e-02
  4.108133e+00    5.044573e-01   1.372233e-02
  4.110344e+00    4.609029e-01   1.316656e-02
  4.112554e+00    4.893552e-01   1.362049e-02
  4.114764e+00    4.530176e-01   1.315778e-02
  4.116975e+00    4.678789e-01   1.342438e-02
  4.119185e+00    4.677291e-01   1.347690e-02
  4.121396e+00    4.993503e-01   1.398248e-02
  4.123606e+00    4.816831e-01   1.378933e-02
  4.125817e+00    4.834161e-01   1.387176e-02
  4.128027e+00    4.783921e-01   1.385781e-02
  4.130238e+00    5.100932e-01   1.437093e-02
  4.132448e+00    4.743142e-01   1.391781e-02
  4.134659e+00    5.082794e-01   1.446962e-02
  4.136869e+00    4.790169e-01   1.410958e-02
  4.139080e+00    5.287696e-01   1.489086e-02
  4.141290e+00    4.848275e-01   1.432215e-02
  4.143500e+00    5.002797e-01   1.461547e-02
  4.145711e+00    4.336641e-01   1.367130e-02
  4.147921e+00    4.485666e-01   1.396799e-02
  4.150132e+00    4.645777e-01   1.428282e-02
  4.152342e+00    5.359004e-01   1.541435e-02
  4.154553e+00    5.105489e-01   1.511710e-02
  4.156763e+00    4.963720e-01   1.497953e-02
  4.158974e+00    4.654803e-01   1.457855e-02
  4.161184e+00    5.209919e-01   1.550004e-02
  4.163395e+00    5.168299e-01   1.551682e-02
  4.165605e+00    4.909219e-01   1.520158e-02
  4.167815e+00    4.957885e-01   1.535650e-02
  4.170026e+00    4.655596e-01   1.495926e-02
  4.172236e+00    4.572296e-01   1.490508e-02
  4.174447e+00    4.660853e-01   1.513042e-02
  4.176657e+00    4.852811e-01   1.552340e-02
  4.178868e+00    4.704202e-01   1.537011e-02
  4.181078e+00    5.509723e-01   1.672811e-02
  4.183289e+00    4.973516e-01   1.598428e-02
  4.185499e+00    5.347717e-01   1.667233e-02
  4.187710e+00    4.924324e-01   1.609271e-02
  4.189920e+00    4.872579e-01   1.610407e-02
  4.192130e+00    4.857448e-01   1.617738e-02
  4.194341e+00    4.960826e-01   1.644874e-02
  4.196551e+00    5.310382e-01   1.712632e-02
  4.198762e+00    5.050749e-01   1.680864e-02
  4.200972e+00    4.564028e-01   1.608128e-02
  4.203183e+00    4.601698e-01   1.625413e-02
  4.205393e+00    4.980038e-01   1.702153e-02
  4.207604e+00    4.660425e-01   1.657891e-02
  4.209814e+00    5.151225e-01   1.754938e-02
  4.212025e+00    4.520629e-01   1.655672e-02
  4.214235e+00    4.411755e-01   1.647200e-02
  4.216445e+00    4.108118e-01   1.601001e-02
  4.218656e+00    4.354245e-01   1.660616e-02
  4.220866e+00    5.031246e-01   1.798268e-02
  4.223077e+00    4.557180e-01   1.724630e-02
  4.225287e+00    5.235717e-01   1.863069e-02
  4.227498e+00    5.274742e-01   1.884701e-02
  4.229708e+00    4.594459e-01   1.773296e-02
  4.231919e+00    4.103638e-01   1.689732e-02
  4.234129e+00    4.653103e-01   1.814409e-02
  4.236340e+00    4.151095e-01   1.728402e-02
  4.238550e+00    4.332912e-01   1.781417e-02
  4.240761e+00    4.546812e-01   1.840987e-02
  4.242971e+00    5.308143e-01   2.007381e-02
  4.245181e+00    5.359608e-01   2.036035e-02
  4.247392e+00    4.607750e-01   1.905508e-02
  4.249602e+00    4.921505e-01   1.988816e-02
  4.251813e+00    4.998959e-01   2.024242e-02
  4.254023e+00    3.859062e-01   1.796440e-02
  4.256234e+00    4.966010e-01   2.059595e-02
  4.258444e+00    4.431984e-01   1.966095e-02
  4.260655e+00    4.406333e-01   1.981962e-02
  4.262865e+00    4.347278e-01   1.990942e-02
  4.265076e+00    4.050931e-01   1.943722e-02
  4.267286e+00    4.735573e-01   2.126506e-02
  4.269496e+00    4.473540e-01   2.092088e-02
  4.271707e+00    4.270470e-01   2.069296e-02
  4.273917e+00    4.306298e-01   2.104790e-02
  4.276128e+00    4.306465e-01   2.132801e-02
  4.278338e+00    4.151297e-01   2.122014e-02
  4.280549e+00    4.719338e-01   2.294940e-02
  4.282759e+00    4.590722e-01   2.296048e-02
  4.284970e+00    3.697688e-01   2.091148e-02
  4.287180e+00    4.149037e-01   2.241556e-02
  4.289391e+00    5.069934e-01   2.496535e-02
  4.291601e+00    4.873024e-01   2.467145e-02
  4.293811e+00    4.857913e-01   2.482535e-02
  4.296022e+00    4.504142e-01   2.409626e-02
  4.298232e+00    5.066756e-01   2.577111e-02
  4.300443e+00    3.873398e-01   2.271937e-02
  4.302653e+00    4.321691e-01   2.420511e-02
  4.304864e+00    4.930931e-01   2.607922e-02
  4.307074e+00    4.405947e-01   2.487364e-02
  4.309285e+00    4.565702e-01   2.554955e-02
  4.311495e+00    5.042144e-01   2.710152e-02
  4.313706e+00    4.829857e-01   2.677419e-02
  4.315916e+00    4.113509e-01   2.495215e-02
  4.318126e+00    4.122651e-01   2.522724e-02
  4.320337e+00    5.060995e-01   2.823319e-02
  4.322547e+00    5.178149e-01   2.886191e-02
  4.324758e+00    4.103575e-01   2.595983e-02
  4.326968e+00    4.761930e-01   2.827996e-02
  4.329179e+00    4.925924e-01   2.907871e-02
  4.331389e+00    4.989783e-01   2.960575e-02
  4.333600e+00    3.710147e-01   2.583253e-02
  4.335810e+00    4.616617e-01   2.915878e-02
  4.338021e+00    5.098973e-01   3.103744e-02
  4.340231e+00    4.138515e-01   2.831219e-02
  4.342442e+00    3.617615e-01   2.682645e-02
  4.344652e+00    2.988280e-01   2.471186e-02
  4.346862e+00    2.689619e-01   2.377311e-02
  4.349073e+00    3.456378e-01   2.734194e-02
  4.351283e+00    3.420675e-01   2.760603e-02
  4.353494e+00    4.288662e-01   3.138791e-02
  4.355704e+00    4.334856e-01   3.206570e-02
  4.357915e+00    4.113704e-01   3.175686e-02
  4.360125e+00    4.268072e-01   3.289828e-02
  4.362336e+00    4.096595e-01   3.281868e-02
  4.364546e+00    3.172632e-01   2.940833e-02
  4.366757e+00    4.522746e-01   3.580964e-02
  4.368967e+00    3.477816e-01   3.202876e-02
  4.371177e+00    3.342564e-01   3.206648e-02
  4.373388e+00    4.652072e-01   3.867640e-02
  4.375598e+00    4.105394e-01   3.715987e-02
  4.377809e+00    4.390624e-01   3.940442e-02
  4.380019e+00    2.819104e-01   3.236761e-02
  4.382230e+00    3.603362e-01   3.761554e-02
  4.384440e+00    2.618271e-01   3.298503e-02
  4.386651e+00    4.882391e-01   4.643382e-02
  4.388861e+00    4.678127e-01   4.697812e-02
  4.391072e+00    5.955589e-01   5.486541e-02
  4.393282e+00    6.787971e-01   6.084156e-02
  4.395492e+00    5.681278e-01   5.797230e-02
  4.397703e+00    3.357089e-01   4.660482e-02
  4.399913e+00    2.701406e-01   4.391687e-02
  4.402124e+00    5.098892e-01   6.376174e-02
  4.404334e+00    1.775660e-01   3.999383e-02
  4.406545e+00    2.981862e-01   5.568831e-02
  4.408755e+00    4.090559e-01   7.073210e-02
  4.410966e+00    4.864666e-01   8.537688e-02
  4.413176e+00    3.354577e-02   2.541320e-02
  4.415387e+00   -1.440074e-01            nan
  4.417597e+00   -1.711906e+00            nan
  4.419807e+00   -1.824666e-01            nan
