# == pyFAI calibration ==
# Distance Sample to Detector: 0.216 m
# PONI: 1.166e-01, 1.308e-01 m
# Rotations: 0.000000 0.000000 0.000000 rad
# 
# == Fit2d calibration ==
# Distance Sample-beamCenter: 216.000 mm
# Center: x=1744.293, y=1555.000 pix
# Tilt: 0.000 deg  TiltPlanRot: 0.000 deg
# 
# Detector Eiger 9M	 PixelSize= 7.500e-05, 7.500e-05 m
#    Detector has a mask: True 
#    Detector has a dark current: False 
#    detector has a flat field: False 
# 
# Wavelength: 9.8e-11 m
# Mask applied: from detector
# Dark current applied: False
# Flat field applied: False
# Polarization factor: None
# Normalization factor: 1.0
# 
# Headers of the input frame:
# {
# "_array_data.header_convention": "SLS_1.0",
# "_array_data.header_contents": "# Detector: Dectris Eiger 9M, S/N E-18-0102\r\n# Pixel_size 75e-6 m x 75e-6 m\r\n# Silicon sensor, thickness 0.000450 m\r\n# Exposure_time 0.024997 s\r\n# Exposure_period 0.025000 s\r\n# Count_cutoff 62318 counts\r\n# Wavelength 0.980106 A\r\n# Detector_distance 0.215992 m\r\n# Beam_xy (1555, 1744) pixels\r\n# Start_angle 0.000000 deg.\r\n# Angle_increment 0.000000 deg.",
# "Content-Type": "application/octet-stream;",
# "conversions": "x-CBF_BYTE_OFFSET",
# "Content-Transfer-Encoding": "BINARY",
# "X-Binary-Size": "10166612",
# "X-Binary-ID": "1",
# "X-Binary-Element-Type": "signed 32-bit integer",
# "X-Binary-Element-Byte-Order": "LITTLE_ENDIAN",
# "Content-MD5": "mYF8mGUnSW8F5DqoJzIJgw==",
# "X-Binary-Number-of-Elements": "10166590",
# "X-Binary-Size-Fastest-Dimension": "3110",
# "X-Binary-Size-Second-Dimension": "3269",
# "X-Binary-Size-Padding": "4095"
# }
# --> H:/Proxima2a_2019-04-05/RAW_DATA/C5_gel17_position5/C5_mesh_1_data.cbf/C5_mesh_1_data.cbf000147.dat
#        q_A^-1              I           sigma 
  1.105228e-03    1.314181e+00   6.203183e-01
  3.315685e-03    1.771062e+00   4.377865e-01
  5.526141e-03    1.748982e+00   3.364069e-01
  7.736597e-03    1.154467e+00   2.308932e-01
  9.947054e-03    1.189714e+00   2.066321e-01
  1.215751e-02    1.421554e+00   2.042445e-01
  1.436797e-02    1.532852e+00   1.950859e-01
  1.657842e-02    1.452680e+00   1.767785e-01
  1.878888e-02    1.237771e+00   1.532794e-01
  2.099934e-02    1.406273e+00   1.545742e-01
  2.320979e-02    1.490470e+00   1.513542e-01
  2.542025e-02    1.179307e+00   1.286539e-01
  2.763070e-02    1.296038e+00   1.293597e-01
  2.984116e-02    1.478148e+00   1.329338e-01
  3.205162e-02    1.345105e+00   1.223670e-01
  3.426207e-02    1.479305e+00   1.241091e-01
  3.647253e-02    1.501883e+00   1.212014e-01
  3.868299e-02    1.407128e+00   1.139233e-01
  4.089344e-02    1.492222e+00   1.141031e-01
  4.310390e-02    1.481015e+00   1.107143e-01
  4.531436e-02    1.510590e+00   1.090534e-01
  4.752481e-02    1.567695e+00   1.084800e-01
  4.973527e-02    1.615376e+00   1.076437e-01
  5.194572e-02    1.457842e+00   1.000595e-01
  5.415618e-02    1.492707e+00   9.915760e-02
  5.636664e-02    1.556895e+00   9.926471e-02
  5.857709e-02    1.355829e+00   9.086929e-02
  6.078755e-02    1.394142e+00   9.045045e-02
  6.299801e-02    1.368474e+00   8.802676e-02
  6.520846e-02    1.412049e+00   8.788919e-02
  6.741892e-02    1.504160e+00   8.920658e-02
  6.962938e-02    1.450675e+00   8.620877e-02
  7.183983e-02    1.451535e+00   8.489576e-02
  7.405029e-02    1.430887e+00   8.302022e-02
  7.626074e-02    1.473668e+00   8.302142e-02
  7.847120e-02    1.454337e+00   8.130299e-02
  8.068166e-02    1.537639e+00   8.244522e-02
  8.289211e-02    1.547685e+00   8.160334e-02
  8.510257e-02    1.536130e+00   8.023492e-02
  8.731303e-02    1.499323e+00   7.825505e-02
  8.952348e-02    1.554252e+00   7.868795e-02
  9.173394e-02    1.524965e+00   7.699524e-02
  9.394439e-02    1.497659e+00   7.539729e-02
  9.615485e-02    1.583855e+00   7.663857e-02
  9.836531e-02    1.495592e+00   7.362901e-02
  1.005758e-01    1.542235e+00   7.394260e-02
  1.027862e-01    1.522000e+00   7.265996e-02
  1.049967e-01    1.528766e+00   7.204942e-02
  1.072071e-01    1.526807e+00   7.125621e-02
  1.094176e-01    1.526708e+00   7.052943e-02
  1.116280e-01    1.565608e+00   7.071004e-02
  1.138385e-01    1.629969e+00   7.144354e-02
  1.160490e-01    1.595639e+00   7.000989e-02
  1.182594e-01    1.562161e+00   6.861961e-02
  1.204699e-01    1.538437e+00   6.746840e-02
  1.226803e-01    1.614066e+00   6.847864e-02
  1.248908e-01    1.624767e+00   6.809372e-02
  1.271012e-01    1.646330e+00   6.794409e-02
  1.293117e-01    1.686051e+00   6.816778e-02
  1.315222e-01    1.603802e+00   6.592175e-02
  1.337326e-01    1.531415e+00   6.388105e-02
  1.359431e-01    1.579011e+00   6.490413e-02
  1.381535e-01    1.604427e+00   6.630260e-02
  1.403640e-01    1.609313e+00   6.669020e-02
  1.425744e-01    1.540050e+00   6.534349e-02
  1.447849e-01    1.629908e+00   6.723826e-02
  1.469953e-01    1.614096e+00   6.686945e-02
  1.492058e-01    1.487278e+00   6.411415e-02
  1.514163e-01    1.611622e+00   6.662967e-02
  1.536267e-01    1.641614e+00   6.711550e-02
  1.558372e-01    1.600678e+00   6.612712e-02
  1.580476e-01    1.629142e+00   6.655056e-02
  1.602581e-01    1.698089e+00   6.777166e-02
  1.624685e-01    1.708842e+00   6.779978e-02
  1.646790e-01    1.692017e+00   6.727146e-02
  1.668895e-01    1.754554e+00   6.830551e-02
  1.690999e-01    1.707946e+00   6.718980e-02
  1.713104e-01    1.711073e+00   6.704258e-02
  1.735208e-01    1.764829e+00   6.787582e-02
  1.757313e-01    1.807736e+00   6.848069e-02
  1.779417e-01    1.831640e+00   6.870713e-02
  1.801522e-01    1.873645e+00   6.926919e-02
  1.823626e-01    1.864402e+00   6.886809e-02
  1.845731e-01    1.946944e+00   7.014811e-02
  1.867836e-01    1.966511e+00   7.026178e-02
  1.889940e-01    2.014586e+00   7.088309e-02
  1.912045e-01    1.924678e+00   6.905195e-02
  1.934149e-01    1.934810e+00   6.900175e-02
  1.956254e-01    1.937173e+00   6.881614e-02
  1.978358e-01    1.946627e+00   6.874746e-02
  2.000463e-01    2.009647e+00   6.961992e-02
  2.022568e-01    1.987446e+00   6.900709e-02
  2.044672e-01    1.983612e+00   6.870431e-02
  2.066777e-01    2.005535e+00   6.885362e-02
  2.088881e-01    2.059717e+00   6.954923e-02
  2.110986e-01    2.045120e+00   6.906469e-02
  2.133090e-01    2.041673e+00   6.878214e-02
  2.155195e-01    1.972450e+00   6.738180e-02
  2.177300e-01    2.003698e+00   6.737991e-02
  2.199404e-01    1.951281e+00   6.474067e-02
  2.221509e-01    1.930811e+00   6.334270e-02
  2.243613e-01    1.896298e+00   6.197821e-02
  2.265718e-01    1.990101e+00   6.279282e-02
  2.287822e-01    1.994367e+00   6.223787e-02
  2.309927e-01    2.115758e+00   6.352007e-02
  2.332031e-01    2.176928e+00   6.388028e-02
  2.354136e-01    2.194906e+00   6.362366e-02
  2.376241e-01    2.168553e+00   6.274969e-02
  2.398345e-01    2.176253e+00   6.239578e-02
  2.420450e-01    2.116686e+00   6.109613e-02
  2.442554e-01    2.144956e+00   6.107908e-02
  2.464659e-01    2.142785e+00   6.063828e-02
  2.486763e-01    2.049555e+00   5.891466e-02
  2.508868e-01    2.035479e+00   5.834160e-02
  2.530973e-01    2.081903e+00   5.863737e-02
  2.553077e-01    2.071599e+00   5.813726e-02
  2.575182e-01    2.135970e+00   5.868435e-02
  2.597286e-01    2.110595e+00   5.799563e-02
  2.619391e-01    2.102114e+00   5.754576e-02
  2.641495e-01    2.070557e+00   5.679610e-02
  2.663600e-01    2.057650e+00   5.630745e-02
  2.685704e-01    2.021986e+00   5.551475e-02
  2.707809e-01    2.049149e+00   5.558977e-02
  2.729914e-01    2.050502e+00   5.531831e-02
  2.752018e-01    2.035777e+00   5.483246e-02
  2.774123e-01    2.037742e+00   5.457868e-02
  2.796227e-01    1.997735e+00   5.377294e-02
  2.818332e-01    2.058341e+00   5.431023e-02
  2.840436e-01    2.003983e+00   5.332853e-02
  2.862541e-01    2.067538e+00   5.390718e-02
  2.884646e-01    2.042890e+00   5.333060e-02
  2.906750e-01    1.958387e+00   5.196837e-02
  2.928855e-01    1.995404e+00   5.221415e-02
  2.950959e-01    1.955779e+00   5.145567e-02
  2.973064e-01    1.998015e+00   5.177455e-02
  2.995168e-01    1.934048e+00   5.070833e-02
  3.017273e-01    1.942312e+00   5.059248e-02
  3.039377e-01    1.945155e+00   5.040782e-02
  3.061482e-01    1.944658e+00   5.018333e-02
  3.083587e-01    1.963555e+00   5.020832e-02
  3.105691e-01    1.912089e+00   4.933433e-02
  3.127796e-01    1.879462e+00   4.870596e-02
  3.149900e-01    1.928567e+00   4.913256e-02
  3.172005e-01    1.931242e+00   4.896558e-02
  3.194109e-01    1.844640e+00   4.765759e-02
  3.216214e-01    1.797260e+00   4.684959e-02
  3.238319e-01    1.859825e+00   4.746925e-02
  3.260423e-01    1.808396e+00   4.662186e-02
  3.282528e-01    1.832379e+00   4.674318e-02
  3.304632e-01    1.807443e+00   4.624419e-02
  3.326737e-01    1.847026e+00   4.656543e-02
  3.348841e-01    1.827521e+00   4.613928e-02
  3.370946e-01    1.860175e+00   4.637452e-02
  3.393050e-01    1.819007e+00   4.568477e-02
  3.415155e-01    1.862831e+00   4.605801e-02
  3.437260e-01    1.859411e+00   4.584516e-02
  3.459364e-01    1.855837e+00   4.563163e-02
  3.481469e-01    1.857419e+00   4.548447e-02
  3.503573e-01    1.804850e+00   4.467284e-02
  3.525678e-01    1.853745e+00   4.511258e-02
  3.547782e-01    1.839908e+00   4.478145e-02
  3.569887e-01    1.802565e+00   4.416762e-02
  3.591992e-01    1.827746e+00   4.431769e-02
  3.614096e-01    1.790148e+00   4.370742e-02
  3.636201e-01    1.812767e+00   4.382813e-02
  3.658305e-01    1.809684e+00   4.364146e-02
  3.680410e-01    1.850580e+00   4.398002e-02
  3.702514e-01    1.884935e+00   4.423712e-02
  3.724619e-01    1.876493e+00   4.398764e-02
  3.746724e-01    1.819032e+00   4.316443e-02
  3.768828e-01    1.831961e+00   4.317178e-02
  3.790933e-01    1.835075e+00   4.306768e-02
  3.813037e-01    1.822897e+00   4.278408e-02
  3.835142e-01    1.785874e+00   4.220832e-02
  3.857246e-01    1.756727e+00   4.172695e-02
  3.879351e-01    1.793693e+00   4.202723e-02
  3.901455e-01    1.769925e+00   4.161494e-02
  3.923560e-01    1.796515e+00   4.179311e-02
  3.945665e-01    1.819967e+00   4.193162e-02
  3.967769e-01    1.771066e+00   4.123492e-02
  3.989874e-01    1.800781e+00   4.144956e-02
  4.011978e-01    1.823508e+00   4.158204e-02
  4.034083e-01    1.811546e+00   4.131818e-02
  4.056187e-01    1.801593e+00   4.107760e-02
  4.078292e-01    1.804175e+00   4.098263e-02
  4.100397e-01    1.758297e+00   4.033467e-02
  4.122501e-01    1.824585e+00   4.096501e-02
  4.144606e-01    1.829736e+00   4.090116e-02
  4.166710e-01    1.842770e+00   4.092452e-02
  4.188815e-01    1.863195e+00   4.102915e-02
  4.210919e-01    1.853211e+00   4.079915e-02
  4.233024e-01    1.789707e+00   3.997611e-02
  4.255128e-01    1.777653e+00   3.972607e-02
  4.277233e-01    1.821192e+00   4.009410e-02
  4.299338e-01    1.748452e+00   3.917221e-02
  4.321442e-01    1.780136e+00   3.941242e-02
  4.343547e-01    1.784584e+00   3.935006e-02
  4.365651e-01    1.773212e+00   3.911304e-02
  4.387756e-01    1.792233e+00   3.921214e-02
  4.409860e-01    1.822557e+00   3.943294e-02
  4.431965e-01    1.803600e+00   3.911887e-02
  4.454070e-01    1.727692e+00   3.818030e-02
  4.476174e-01    1.735935e+00   3.816618e-02
  4.498279e-01    1.703180e+00   3.770153e-02
  4.520383e-01    1.718639e+00   3.776831e-02
  4.542488e-01    1.701620e+00   3.747951e-02
  4.564592e-01    1.729142e+00   3.768003e-02
  4.586697e-01    1.744094e+00   3.774215e-02
  4.608801e-01    1.733928e+00   3.753121e-02
  4.630906e-01    1.703492e+00   3.710184e-02
  4.653011e-01    1.725139e+00   3.723865e-02
  4.675115e-01    1.712398e+00   3.700316e-02
  4.697220e-01    1.715700e+00   3.694186e-02
  4.719324e-01    1.736564e+00   3.706965e-02
  4.741429e-01    1.710333e+00   3.669383e-02
  4.763533e-01    1.706425e+00   3.655792e-02
  4.785638e-01    1.673123e+00   3.610592e-02
  4.807743e-01    1.739293e+00   3.671934e-02
  4.829847e-01    1.735716e+00   3.658891e-02
  4.851952e-01    1.727332e+00   3.640808e-02
  4.874056e-01    1.706810e+00   3.609988e-02
  4.896161e-01    1.725649e+00   3.620857e-02
  4.918265e-01    1.670894e+00   3.554100e-02
  4.940370e-01    1.729474e+00   3.606936e-02
  4.962475e-01    1.709789e+00   3.577496e-02
  4.984579e-01    1.677748e+00   3.535083e-02
  5.006684e-01    1.684720e+00   3.533782e-02
  5.028788e-01    1.730978e+00   3.573288e-02
  5.050893e-01    1.764066e+00   3.598506e-02
  5.072997e-01    1.719649e+00   3.544334e-02
  5.095102e-01    1.734199e+00   3.550772e-02
  5.117206e-01    1.672213e+00   3.478444e-02
  5.139311e-01    1.712517e+00   3.511782e-02
  5.161416e-01    1.666958e+00   3.456569e-02
  5.183520e-01    1.650196e+00   3.430971e-02
  5.205625e-01    1.688369e+00   3.462300e-02
  5.227729e-01    1.684745e+00   3.450514e-02
  5.249834e-01    1.710064e+00   3.468276e-02
  5.271938e-01    1.711272e+00   3.461405e-02
  5.294043e-01    1.736381e+00   3.478659e-02
  5.316148e-01    1.774560e+00   3.508641e-02
  5.338252e-01    1.787794e+00   3.513652e-02
  5.360357e-01    1.723002e+00   3.441542e-02
  5.382461e-01    1.739621e+00   3.450281e-02
  5.404566e-01    1.728158e+00   3.431071e-02
  5.426670e-01    1.690138e+00   3.385472e-02
  5.448775e-01    1.742030e+00   3.429372e-02
  5.470879e-01    1.765052e+00   3.444261e-02
  5.492984e-01    1.772028e+00   3.443386e-02
  5.515089e-01    1.781695e+00   3.445108e-02
  5.537193e-01    1.764398e+00   3.420791e-02
  5.559298e-01    1.814965e+00   3.461854e-02
  5.581402e-01    1.846480e+00   3.484149e-02
  5.603507e-01    1.851755e+00   3.481532e-02
  5.625611e-01    1.797344e+00   3.422557e-02
  5.647716e-01    1.796623e+00   3.414439e-02
  5.669821e-01    1.803794e+00   3.413873e-02
  5.691925e-01    1.778224e+00   3.382313e-02
  5.714030e-01    1.768960e+00   3.366298e-02
  5.736134e-01    1.738060e+00   3.329671e-02
  5.758239e-01    1.739084e+00   3.323542e-02
  5.780343e-01    1.733521e+00   3.311203e-02
  5.802448e-01    1.704751e+00   3.276737e-02
  5.824552e-01    1.694054e+00   3.259588e-02
  5.846657e-01    1.669953e+00   3.229571e-02
  5.868762e-01    1.667410e+00   3.220392e-02
  5.890866e-01    1.611255e+00   3.159133e-02
  5.912971e-01    1.638868e+00   3.179489e-02
  5.935075e-01    1.657208e+00   3.190625e-02
  5.957180e-01    1.650490e+00   3.177616e-02
  5.979284e-01    1.655726e+00   3.176157e-02
  6.001389e-01    1.673234e+00   3.186402e-02
  6.023494e-01    1.650485e+00   3.158244e-02
  6.045598e-01    1.612485e+00   3.115317e-02
  6.067703e-01    1.648911e+00   3.143975e-02
  6.089807e-01    1.670501e+00   3.158127e-02
  6.111912e-01    1.687193e+00   3.167530e-02
  6.134016e-01    1.642805e+00   3.119351e-02
  6.156121e-01    1.716554e+00   3.182260e-02
  6.178226e-01    1.702803e+00   3.163216e-02
  6.200330e-01    1.679476e+00   3.135275e-02
  6.222435e-01    1.694576e+00   3.143099e-02
  6.244539e-01    1.725931e+00   3.165835e-02
  6.266644e-01    1.735579e+00   3.168477e-02
  6.288748e-01    1.743828e+00   3.169817e-02
  6.310853e-01    1.776443e+00   3.193110e-02
  6.332957e-01    1.784264e+00   3.193954e-02
  6.355062e-01    1.725884e+00   3.135164e-02
  6.377167e-01    1.731460e+00   3.134200e-02
  6.399271e-01    1.733877e+00   3.130377e-02
  6.421376e-01    1.691937e+00   3.086383e-02
  6.443480e-01    1.703734e+00   3.091232e-02
  6.465585e-01    1.686890e+00   3.070087e-02
  6.487689e-01    1.673750e+00   3.052332e-02
  6.509794e-01    1.645911e+00   3.021132e-02
  6.531899e-01    1.671668e+00   3.038954e-02
  6.554003e-01    1.640340e+00   3.004684e-02
  6.576108e-01    1.626029e+00   2.985978e-02
  6.598212e-01    1.619095e+00   2.974068e-02
  6.620317e-01    1.637135e+00   2.985048e-02
  6.642421e-01    1.617840e+00   2.961914e-02
  6.664526e-01    1.637711e+00   2.974559e-02
  6.686630e-01    1.624552e+00   2.957107e-02
  6.708735e-01    1.607126e+00   2.935809e-02
  6.730840e-01    1.622528e+00   2.944466e-02
  6.752944e-01    1.623973e+00   2.940418e-02
  6.775049e-01    1.624412e+00   2.935477e-02
  6.797153e-01    1.597716e+00   2.905984e-02
  6.819258e-01    1.602071e+00   2.904694e-02
  6.841362e-01    1.572251e+00   2.872359e-02
  6.863467e-01    1.586925e+00   2.880562e-02
  6.885572e-01    1.594983e+00   2.882693e-02
  6.907676e-01    1.589398e+00   2.872485e-02
  6.929781e-01    1.560672e+00   2.841349e-02
  6.951885e-01    1.570506e+00   2.845239e-02
  6.973990e-01    1.573880e+00   2.843258e-02
  6.996094e-01    1.574281e+00   2.838618e-02
  7.018199e-01    1.600017e+00   2.856702e-02
  7.040303e-01    1.606539e+00   2.857490e-02
  7.062408e-01    1.590934e+00   2.838599e-02
  7.084513e-01    1.564857e+00   2.810341e-02
  7.106617e-01    1.573755e+00   2.813422e-02
  7.128722e-01    1.603189e+00   2.834699e-02
  7.150826e-01    1.575819e+00   2.805552e-02
  7.172931e-01    1.557753e+00   2.784616e-02
  7.195035e-01    1.539871e+00   2.763827e-02
  7.217140e-01    1.559299e+00   2.786127e-02
  7.239245e-01    1.566870e+00   2.815501e-02
  7.261349e-01    1.573163e+00   2.832006e-02
  7.283454e-01    1.581726e+00   2.846959e-02
  7.305558e-01    1.571994e+00   2.843582e-02
  7.327663e-01    1.577902e+00   2.853175e-02
  7.349767e-01    1.605064e+00   2.879279e-02
  7.371872e-01    1.630438e+00   2.900812e-02
  7.393976e-01    1.590219e+00   2.863378e-02
  7.416081e-01    1.553783e+00   2.828777e-02
  7.438186e-01    1.581480e+00   2.839414e-02
  7.460290e-01    1.601074e+00   2.827280e-02
  7.482395e-01    1.579669e+00   2.791175e-02
  7.504499e-01    1.548500e+00   2.749986e-02
  7.526604e-01    1.593318e+00   2.777773e-02
  7.548708e-01    1.575366e+00   2.753139e-02
  7.570813e-01    1.579230e+00   2.751406e-02
  7.592918e-01    1.598519e+00   2.764616e-02
  7.615022e-01    1.589682e+00   2.753566e-02
  7.637127e-01    1.617171e+00   2.773950e-02
  7.659231e-01    1.569462e+00   2.729532e-02
  7.681336e-01    1.566085e+00   2.723440e-02
  7.703440e-01    1.620450e+00   2.767142e-02
  7.725545e-01    1.605267e+00   2.751029e-02
  7.747650e-01    1.638702e+00   2.775634e-02
  7.769754e-01    1.617701e+00   2.752451e-02
  7.791859e-01    1.622503e+00   2.751105e-02
  7.813963e-01    1.621469e+00   2.744899e-02
  7.836068e-01    1.595202e+00   2.717358e-02
  7.858172e-01    1.626256e+00   2.738549e-02
  7.880277e-01    1.585726e+00   2.699068e-02
  7.902381e-01    1.596549e+00   2.703338e-02
  7.924486e-01    1.623292e+00   2.720838e-02
  7.946591e-01    1.599578e+00   2.696062e-02
  7.968695e-01    1.638200e+00   2.723534e-02
  7.990800e-01    1.630994e+00   2.712682e-02
  8.012904e-01    1.627079e+00   2.704736e-02
  8.035009e-01    1.630919e+00   2.703109e-02
  8.057113e-01    1.614522e+00   2.684835e-02
  8.079218e-01    1.645438e+00   2.705741e-02
  8.101323e-01    1.632038e+00   2.690126e-02
  8.123427e-01    1.637920e+00   2.690375e-02
  8.145532e-01    1.636122e+00   2.684297e-02
  8.167636e-01    1.625329e+00   2.670930e-02
  8.189741e-01    1.629066e+00   2.669541e-02
  8.211845e-01    1.646465e+00   2.679262e-02
  8.233950e-01    1.627934e+00   2.659808e-02
  8.256054e-01    1.648682e+00   2.672269e-02
  8.278159e-01    1.673960e+00   2.688232e-02
  8.300264e-01    1.661430e+00   2.673812e-02
  8.322368e-01    1.659893e+00   2.668236e-02
  8.344473e-01    1.653350e+00   2.658616e-02
  8.366577e-01    1.641828e+00   2.645072e-02
  8.388682e-01    1.662727e+00   2.657600e-02
  8.410786e-01    1.632438e+00   2.629086e-02
  8.432891e-01    1.645079e+00   2.635052e-02
  8.454996e-01    1.680933e+00   2.659396e-02
  8.477100e-01    1.722373e+00   2.687706e-02
  8.499205e-01    1.693537e+00   2.660927e-02
  8.521309e-01    1.704996e+00   2.665752e-02
  8.543414e-01    1.673846e+00   2.637167e-02
  8.565518e-01    1.643607e+00   2.609169e-02
  8.587623e-01    1.618177e+00   2.584874e-02
  8.609727e-01    1.606133e+00   2.571245e-02
  8.631832e-01    1.594914e+00   2.558297e-02
  8.653937e-01    1.621286e+00   2.575398e-02
  8.676041e-01    1.616813e+00   2.567962e-02
  8.698146e-01    1.638255e+00   2.580983e-02
  8.720250e-01    1.631934e+00   2.572073e-02
  8.742355e-01    1.607018e+00   2.548478e-02
  8.764459e-01    1.601464e+00   2.540187e-02
  8.786564e-01    1.637287e+00   2.564614e-02
  8.808669e-01    1.615146e+00   2.543352e-02
  8.830773e-01    1.607445e+00   2.533461e-02
  8.852878e-01    1.590857e+00   2.516579e-02
  8.874982e-01    1.556526e+00   2.485662e-02
  8.897087e-01    1.581955e+00   2.502137e-02
  8.919191e-01    1.622746e+00   2.530389e-02
  8.941296e-01    1.624317e+00   2.527858e-02
  8.963401e-01    1.630594e+00   2.529061e-02
  8.985505e-01    1.614513e+00   2.512846e-02
  9.007610e-01    1.590756e+00   2.490628e-02
  9.029714e-01    1.552031e+00   2.456593e-02
  9.051819e-01    1.581511e+00   2.476115e-02
  9.073923e-01    1.570821e+00   2.464108e-02
  9.096028e-01    1.577132e+00   2.465586e-02
  9.118132e-01    1.576333e+00   2.461366e-02
  9.140237e-01    1.594197e+00   2.471619e-02
  9.162342e-01    1.593065e+00   2.467292e-02
  9.184446e-01    1.592992e+00   2.463668e-02
  9.206551e-01    1.587387e+00   2.455785e-02
  9.228655e-01    1.612991e+00   2.471972e-02
  9.250760e-01    1.626766e+00   2.478942e-02
  9.272864e-01    1.664413e+00   2.503972e-02
  9.294969e-01    1.658443e+00   2.495835e-02
  9.317074e-01    1.597128e+00   2.445802e-02
  9.339178e-01    1.647328e+00   2.480547e-02
  9.361283e-01    1.664897e+00   2.490067e-02
  9.383387e-01    1.612147e+00   2.446969e-02
  9.405492e-01    1.604426e+00   2.437692e-02
  9.427596e-01    1.655052e+00   2.472288e-02
  9.449701e-01    1.652956e+00   2.467367e-02
  9.471805e-01    1.638471e+00   2.453052e-02
  9.493910e-01    1.689642e+00   2.487643e-02
  9.516015e-01    1.672819e+00   2.471774e-02
  9.538119e-01    1.717133e+00   2.500864e-02
  9.560224e-01    1.765827e+00   2.532509e-02
  9.582328e-01    1.743251e+00   2.512892e-02
  9.604433e-01    1.776726e+00   2.533310e-02
  9.626537e-01    1.823629e+00   2.563081e-02
  9.648642e-01    1.830752e+00   2.564564e-02
  9.670747e-01    1.869072e+00   2.587689e-02
  9.692851e-01    1.966790e+00   2.650945e-02
  9.714956e-01    2.000649e+00   2.669896e-02
  9.737060e-01    2.041110e+00   2.693218e-02
  9.759165e-01    1.969666e+00   2.641935e-02
  9.781269e-01    1.893326e+00   2.586841e-02
  9.803374e-01    1.843104e+00   2.548771e-02
  9.825478e-01    1.869449e+00   2.563536e-02
  9.847583e-01    1.873753e+00   2.562999e-02
  9.869688e-01    1.854438e+00   2.546344e-02
  9.891792e-01    1.818195e+00   2.517986e-02
  9.913897e-01    1.792238e+00   2.496574e-02
  9.936001e-01    1.789039e+00   2.491080e-02
  9.958106e-01    1.726517e+00   2.443841e-02
  9.980210e-01    1.662630e+00   2.395084e-02
  1.000231e+00    1.662657e+00   2.408226e-02
  1.002442e+00    1.621853e+00   2.391129e-02
  1.004652e+00    1.634859e+00   2.407393e-02
  1.006863e+00    1.629020e+00   2.408077e-02
  1.009073e+00    1.620222e+00   2.405243e-02
  1.011284e+00    1.573300e+00   2.373327e-02
  1.013494e+00    1.574343e+00   2.376467e-02
  1.015705e+00    1.547779e+00   2.358560e-02
  1.017915e+00    1.568617e+00   2.376018e-02
  1.020126e+00    1.538062e+00   2.354356e-02
  1.022336e+00    1.525348e+00   2.345759e-02
  1.024547e+00    1.517669e+00   2.340957e-02
  1.026757e+00    1.510550e+00   2.336287e-02
  1.028967e+00    1.554117e+00   2.370508e-02
  1.031178e+00    1.560766e+00   2.376197e-02
  1.033388e+00    1.561176e+00   2.377019e-02
  1.035599e+00    1.572862e+00   2.386246e-02
  1.037809e+00    1.618811e+00   2.421183e-02
  1.040020e+00    1.688886e+00   2.473169e-02
  1.042230e+00    1.636115e+00   2.434428e-02
  1.044441e+00    1.560920e+00   2.377803e-02
  1.046651e+00    1.554008e+00   2.372549e-02
  1.048862e+00    1.558597e+00   2.375968e-02
  1.051072e+00    1.564670e+00   2.380354e-02
  1.053282e+00    1.545298e+00   2.365475e-02
  1.055493e+00    1.511057e+00   2.338689e-02
  1.057703e+00    1.475955e+00   2.311215e-02
  1.059914e+00    1.474646e+00   2.309764e-02
  1.062124e+00    1.481096e+00   2.314407e-02
  1.064335e+00    1.481723e+00   2.314553e-02
  1.066545e+00    1.461634e+00   2.298215e-02
  1.068756e+00    1.450524e+00   2.289093e-02
  1.070966e+00    1.440305e+00   2.280369e-02
  1.073177e+00    1.465734e+00   2.299807e-02
  1.075387e+00    1.448411e+00   2.285659e-02
  1.077597e+00    1.462905e+00   2.296339e-02
  1.079808e+00    1.514896e+00   2.323289e-02
  1.082018e+00    1.545926e+00   2.327525e-02
  1.084229e+00    1.745415e+00   2.461104e-02
  1.086439e+00    2.110609e+00   2.695830e-02
  1.088650e+00    2.031696e+00   2.636022e-02
  1.090860e+00    1.831538e+00   2.495217e-02
  1.093071e+00    1.711667e+00   2.405427e-02
  1.095281e+00    1.531912e+00   2.269726e-02
  1.097492e+00    1.480693e+00   2.225896e-02
  1.099702e+00    1.534784e+00   2.260882e-02
  1.101912e+00    1.586565e+00   2.293579e-02
  1.104123e+00    1.621347e+00   2.313457e-02
  1.106333e+00    1.610183e+00   2.300773e-02
  1.108544e+00    1.590321e+00   2.281871e-02
  1.110754e+00    1.569388e+00   2.262291e-02
  1.112965e+00    1.514702e+00   2.218345e-02
  1.115175e+00    1.457927e+00   2.172198e-02
  1.117386e+00    1.441199e+00   2.155739e-02
  1.119596e+00    1.396183e+00   2.118038e-02
  1.121807e+00    1.415681e+00   2.128885e-02
  1.124017e+00    1.397523e+00   2.111538e-02
  1.126228e+00    1.364059e+00   2.082578e-02
  1.128438e+00    1.378643e+00   2.090036e-02
  1.130648e+00    1.394980e+00   2.098956e-02
  1.132859e+00    1.383011e+00   2.086513e-02
  1.135069e+00    1.379322e+00   2.080272e-02
  1.137280e+00    1.392667e+00   2.087008e-02
  1.139490e+00    1.391417e+00   2.082760e-02
  1.141701e+00    1.354948e+00   2.052010e-02
  1.143911e+00    1.357616e+00   2.050869e-02
  1.146122e+00    1.407275e+00   2.084810e-02
  1.148332e+00    1.386211e+00   2.065955e-02
  1.150543e+00    1.369736e+00   2.050566e-02
  1.152753e+00    1.369857e+00   2.047578e-02
  1.154963e+00    1.400724e+00   2.067384e-02
  1.157174e+00    1.405025e+00   2.067505e-02
  1.159384e+00    1.389058e+00   2.052723e-02
  1.161595e+00    1.376242e+00   2.040237e-02
  1.163805e+00    1.363708e+00   2.028007e-02
  1.166016e+00    1.363318e+00   2.024778e-02
  1.168226e+00    1.357481e+00   2.017552e-02
  1.170437e+00    1.399164e+00   2.045395e-02
  1.172647e+00    1.416922e+00   2.055392e-02
  1.174858e+00    1.439171e+00   2.068581e-02
  1.177068e+00    1.438334e+00   2.065077e-02
  1.179278e+00    1.451121e+00   2.071287e-02
  1.181489e+00    1.396082e+00   2.028891e-02
  1.183699e+00    1.359222e+00   1.999169e-02
  1.185910e+00    1.355216e+00   1.993445e-02
  1.188120e+00    1.368037e+00   2.000173e-02
  1.190331e+00    1.347845e+00   1.982688e-02
  1.192541e+00    1.331609e+00   1.967996e-02
  1.194752e+00    1.324632e+00   1.960156e-02
  1.196962e+00    1.358498e+00   1.982475e-02
  1.199173e+00    1.372714e+00   1.990147e-02
  1.201383e+00    1.371150e+00   1.986277e-02
  1.203593e+00    1.378762e+00   1.989275e-02
  1.205804e+00    1.386723e+00   1.992383e-02
  1.208014e+00    1.376585e+00   1.982376e-02
  1.210225e+00    1.376956e+00   1.980084e-02
  1.212435e+00    1.373432e+00   1.975049e-02
  1.214646e+00    1.357766e+00   1.961135e-02
  1.216856e+00    1.354551e+00   1.956259e-02
  1.219067e+00    1.350123e+00   1.950612e-02
  1.221277e+00    1.347398e+00   1.946143e-02
  1.223488e+00    1.315763e+00   1.920619e-02
  1.225698e+00    1.328275e+00   1.927058e-02
  1.227909e+00    1.350392e+00   1.940021e-02
  1.230119e+00    1.371157e+00   1.951667e-02
  1.232329e+00    1.427039e+00   1.987883e-02
  1.234540e+00    1.411386e+00   1.973855e-02
  1.236750e+00    1.435128e+00   1.987266e-02
  1.238961e+00    1.471721e+00   2.009626e-02
  1.241171e+00    1.489863e+00   2.019435e-02
  1.243382e+00    1.443179e+00   1.985115e-02
  1.245592e+00    1.397647e+00   1.951096e-02
  1.247803e+00    1.380456e+00   1.936669e-02
  1.250013e+00    1.354263e+00   1.915848e-02
  1.252224e+00    1.385699e+00   1.935600e-02
  1.254434e+00    1.367256e+00   1.920288e-02
  1.256644e+00    1.363459e+00   1.915286e-02
  1.258855e+00    1.372338e+00   1.919168e-02
  1.261065e+00    1.382568e+00   1.923941e-02
  1.263276e+00    1.388862e+00   1.925988e-02
  1.265486e+00    1.388644e+00   1.923519e-02
  1.267697e+00    1.376275e+00   1.912608e-02
  1.269907e+00    1.384002e+00   1.915671e-02
  1.272118e+00    1.389635e+00   1.917275e-02
  1.274328e+00    1.403612e+00   1.924576e-02
  1.276539e+00    1.368058e+00   1.897752e-02
  1.278749e+00    1.337468e+00   1.874195e-02
  1.280959e+00    1.345335e+00   1.877449e-02
  1.283170e+00    1.362803e+00   1.887346e-02
  1.285380e+00    1.361655e+00   1.884294e-02
  1.287591e+00    1.365360e+00   1.884642e-02
  1.289801e+00    1.343025e+00   1.867046e-02
  1.292012e+00    1.376660e+00   1.888553e-02
  1.294222e+00    1.409711e+00   1.909430e-02
  1.296433e+00    1.391349e+00   1.895372e-02
  1.298643e+00    1.359712e+00   1.872045e-02
  1.300854e+00    1.377617e+00   1.882671e-02
  1.303064e+00    1.371674e+00   1.876670e-02
  1.305274e+00    1.357206e+00   1.864597e-02
  1.307485e+00    1.367058e+00   1.869183e-02
  1.309695e+00    1.380772e+00   1.876287e-02
  1.311906e+00    1.388442e+00   1.879289e-02
  1.314116e+00    1.377500e+00   1.869770e-02
  1.316327e+00    1.388014e+00   1.874691e-02
  1.318537e+00    1.391102e+00   1.874555e-02
  1.320748e+00    1.422439e+00   1.893338e-02
  1.322958e+00    1.379465e+00   1.862446e-02
  1.325169e+00    1.369425e+00   1.853537e-02
  1.327379e+00    1.360425e+00   1.845247e-02
  1.329589e+00    1.370516e+00   1.849956e-02
  1.331800e+00    1.376173e+00   1.851679e-02
  1.334010e+00    1.372974e+00   1.847444e-02
  1.336221e+00    1.380856e+00   1.850538e-02
  1.338431e+00    1.367703e+00   1.839605e-02
  1.340642e+00    1.345235e+00   1.830838e-02
  1.342852e+00    1.331512e+00   1.831471e-02
  1.345063e+00    1.367673e+00   1.861156e-02
  1.347273e+00    1.362234e+00   1.860992e-02
  1.349484e+00    1.346383e+00   1.852898e-02
  1.351694e+00    1.340460e+00   1.851078e-02
  1.353905e+00    1.348036e+00   1.858103e-02
  1.356115e+00    1.330888e+00   1.847739e-02
  1.358325e+00    1.337719e+00   1.853801e-02
  1.360536e+00    1.334752e+00   1.852900e-02
  1.362746e+00    1.312369e+00   1.838242e-02
  1.364957e+00    1.304263e+00   1.833309e-02
  1.367167e+00    1.338101e+00   1.857650e-02
  1.369378e+00    1.347921e+00   1.865058e-02
  1.371588e+00    1.320396e+00   1.846427e-02
  1.373799e+00    1.323463e+00   1.848933e-02
  1.376009e+00    1.325042e+00   1.850374e-02
  1.378220e+00    1.314946e+00   1.843562e-02
  1.380430e+00    1.310805e+00   1.840926e-02
  1.382640e+00    1.317845e+00   1.845953e-02
  1.384851e+00    1.311676e+00   1.841715e-02
  1.387061e+00    1.305456e+00   1.837372e-02
  1.389272e+00    1.281174e+00   1.820225e-02
  1.391482e+00    1.263768e+00   1.807752e-02
  1.393693e+00    1.267460e+00   1.810302e-02
  1.395903e+00    1.283406e+00   1.821506e-02
  1.398114e+00    1.292333e+00   1.827690e-02
  1.400324e+00    1.307476e+00   1.838153e-02
  1.402535e+00    1.277324e+00   1.816604e-02
  1.404745e+00    1.245437e+00   1.793551e-02
  1.406955e+00    1.287247e+00   1.823135e-02
  1.409166e+00    1.286383e+00   1.822194e-02
  1.411376e+00    1.276998e+00   1.815220e-02
  1.413587e+00    1.299410e+00   1.830696e-02
  1.415797e+00    1.280440e+00   1.816927e-02
  1.418008e+00    1.263148e+00   1.800443e-02
  1.420218e+00    1.252573e+00   1.778018e-02
  1.422429e+00    1.271619e+00   1.782949e-02
  1.424639e+00    1.282070e+00   1.783761e-02
  1.426850e+00    1.279695e+00   1.776617e-02
  1.429060e+00    1.277057e+00   1.769874e-02
  1.431270e+00    1.255272e+00   1.750307e-02
  1.433481e+00    1.278307e+00   1.762184e-02
  1.435691e+00    1.279164e+00   1.758919e-02
  1.437902e+00    1.295942e+00   1.766733e-02
  1.440112e+00    1.282045e+00   1.753684e-02
  1.442323e+00    1.277426e+00   1.747208e-02
  1.444533e+00    1.255962e+00   1.729230e-02
  1.446744e+00    1.260707e+00   1.729392e-02
  1.448954e+00    1.288040e+00   1.744997e-02
  1.451165e+00    1.268695e+00   1.728871e-02
  1.453375e+00    1.273658e+00   1.729440e-02
  1.455586e+00    1.272818e+00   1.726050e-02
  1.457796e+00    1.269883e+00   1.721307e-02
  1.460006e+00    1.276878e+00   1.723309e-02
  1.462217e+00    1.265215e+00   1.712804e-02
  1.464427e+00    1.272223e+00   1.714977e-02
  1.466638e+00    1.293258e+00   1.726540e-02
  1.468848e+00    1.284650e+00   1.718237e-02
  1.471059e+00    1.279123e+00   1.712016e-02
  1.473269e+00    1.304038e+00   1.726140e-02
  1.475480e+00    1.275354e+00   1.704668e-02
  1.477690e+00    1.250947e+00   1.685910e-02
  1.479901e+00    1.268380e+00   1.695230e-02
  1.482111e+00    1.272886e+00   1.695903e-02
  1.484321e+00    1.253477e+00   1.680625e-02
  1.486532e+00    1.249535e+00   1.675761e-02
  1.488742e+00    1.257394e+00   1.678765e-02
  1.490953e+00    1.252763e+00   1.673419e-02
  1.493163e+00    1.252730e+00   1.671180e-02
  1.495374e+00    1.235811e+00   1.657730e-02
  1.497584e+00    1.240307e+00   1.658596e-02
  1.499795e+00    1.252788e+00   1.664762e-02
  1.502005e+00    1.260819e+00   1.667921e-02
  1.504216e+00    1.242045e+00   1.653366e-02
  1.506426e+00    1.262289e+00   1.664701e-02
  1.508636e+00    1.263527e+00   1.663468e-02
  1.510847e+00    1.282112e+00   1.673452e-02
  1.513057e+00    1.265616e+00   1.660135e-02
  1.515268e+00    1.246924e+00   1.645265e-02
  1.517478e+00    1.255059e+00   1.648107e-02
  1.519689e+00    1.249384e+00   1.641886e-02
  1.521899e+00    1.255182e+00   1.643378e-02
  1.524110e+00    1.265796e+00   1.648269e-02
  1.526320e+00    1.269666e+00   1.648815e-02
  1.528531e+00    1.252114e+00   1.635401e-02
  1.530741e+00    1.264050e+00   1.641252e-02
  1.532951e+00    1.241624e+00   1.624676e-02
  1.535162e+00    1.222141e+00   1.620443e-02
  1.537372e+00    1.218181e+00   1.624422e-02
  1.539583e+00    1.238319e+00   1.641203e-02
  1.541793e+00    1.253333e+00   1.651818e-02
  1.544004e+00    1.259219e+00   1.655720e-02
  1.546214e+00    1.253620e+00   1.651884e-02
  1.548425e+00    1.229971e+00   1.636254e-02
  1.550635e+00    1.235485e+00   1.640883e-02
  1.552846e+00    1.244944e+00   1.648116e-02
  1.555056e+00    1.239665e+00   1.640481e-02
  1.557266e+00    1.227738e+00   1.621597e-02
  1.559477e+00    1.240701e+00   1.624234e-02
  1.561687e+00    1.230484e+00   1.614482e-02
  1.563898e+00    1.232676e+00   1.614212e-02
  1.566108e+00    1.232756e+00   1.612675e-02
  1.568319e+00    1.266588e+00   1.633078e-02
  1.570529e+00    1.273254e+00   1.634831e-02
  1.572740e+00    1.247593e+00   1.615507e-02
  1.574950e+00    1.213511e+00   1.590690e-02
  1.577161e+00    1.226085e+00   1.596379e-02
  1.579371e+00    1.234525e+00   1.599508e-02
  1.581582e+00    1.242774e+00   1.602868e-02
  1.583792e+00    1.249602e+00   1.605458e-02
  1.586002e+00    1.249248e+00   1.603467e-02
  1.588213e+00    1.229898e+00   1.589286e-02
  1.590423e+00    1.250851e+00   1.600752e-02
  1.592634e+00    1.249750e+00   1.597882e-02
  1.594844e+00    1.246670e+00   1.593767e-02
  1.597055e+00    1.245892e+00   1.591219e-02
  1.599265e+00    1.247863e+00   1.590399e-02
  1.601476e+00    1.237340e+00   1.581652e-02
  1.603686e+00    1.229729e+00   1.574812e-02
  1.605897e+00    1.233956e+00   1.575503e-02
  1.608107e+00    1.255670e+00   1.587336e-02
  1.610317e+00    1.234938e+00   1.572249e-02
  1.612528e+00    1.239159e+00   1.573012e-02
  1.614738e+00    1.220859e+00   1.559468e-02
  1.616949e+00    1.210679e+00   1.551066e-02
  1.619159e+00    1.217793e+00   1.553748e-02
  1.621370e+00    1.203019e+00   1.542462e-02
  1.623580e+00    1.193628e+00   1.534611e-02
  1.625791e+00    1.195871e+00   1.534236e-02
  1.628001e+00    1.180001e+00   1.522213e-02
  1.630212e+00    1.179094e+00   1.519862e-02
  1.632422e+00    1.182536e+00   1.520294e-02
  1.634632e+00    1.134837e+00   1.487621e-02
  1.636843e+00    1.130669e+00   1.483166e-02
  1.639053e+00    1.142739e+00   1.489356e-02
  1.641264e+00    1.164869e+00   1.502002e-02
  1.643474e+00    1.147281e+00   1.488893e-02
  1.645685e+00    1.152371e+00   1.490528e-02
  1.647895e+00    1.143438e+00   1.483091e-02
  1.650106e+00    1.153517e+00   1.487909e-02
  1.652316e+00    1.156319e+00   1.488062e-02
  1.654527e+00    1.148822e+00   1.481560e-02
  1.656737e+00    1.145276e+00   1.477607e-02
  1.658947e+00    1.192591e+00   1.506148e-02
  1.661158e+00    1.188645e+00   1.501987e-02
  1.663368e+00    1.150167e+00   1.475855e-02
  1.665579e+00    1.124617e+00   1.457751e-02
  1.667789e+00    1.109786e+00   1.446486e-02
  1.670000e+00    1.122597e+00   1.453257e-02
  1.672210e+00    1.138276e+00   1.461761e-02
  1.674421e+00    1.127388e+00   1.453206e-02
  1.676631e+00    1.105479e+00   1.437428e-02
  1.678842e+00    1.112099e+00   1.440135e-02
  1.681052e+00    1.099778e+00   1.430595e-02
  1.683263e+00    1.086460e+00   1.420394e-02
  1.685473e+00    1.124079e+00   1.443232e-02
  1.687683e+00    1.150394e+00   1.458440e-02
  1.689894e+00    1.123401e+00   1.439621e-02
  1.692104e+00    1.155419e+00   1.458444e-02
  1.694315e+00    1.240856e+00   1.509844e-02
  1.696525e+00    1.195476e+00   1.480380e-02
  1.698736e+00    1.115211e+00   1.428302e-02
  1.700946e+00    1.095827e+00   1.414295e-02
  1.703157e+00    1.084259e+00   1.405328e-02
  1.705367e+00    1.084764e+00   1.404182e-02
  1.707578e+00    1.074627e+00   1.396133e-02
  1.709788e+00    1.051269e+00   1.379461e-02
  1.711998e+00    1.034991e+00   1.367244e-02
  1.714209e+00    1.012821e+00   1.351095e-02
  1.716419e+00    1.048924e+00   1.373527e-02
  1.718630e+00    1.025339e+00   1.356577e-02
  1.720840e+00    1.008754e+00   1.344154e-02
  1.723051e+00    1.026439e+00   1.354498e-02
  1.725261e+00    1.029051e+00   1.354748e-02
  1.727472e+00    1.020994e+00   1.348013e-02
  1.729682e+00    1.015962e+00   1.343343e-02
  1.731893e+00    9.957892e-01   1.328559e-02
  1.734103e+00    1.032418e+00   1.351375e-02
  1.736313e+00    1.068623e+00   1.373425e-02
  1.738524e+00    1.019741e+00   1.340251e-02
  1.740734e+00    9.853749e-01   1.316112e-02
  1.742945e+00    1.002051e+00   1.325851e-02
  1.745155e+00    9.904061e-01   1.316784e-02
  1.747366e+00    9.930220e-01   1.317137e-02
  1.749576e+00    1.025808e+00   1.337306e-02
  1.751787e+00    1.037253e+00   1.343378e-02
  1.753997e+00    1.040376e+00   1.344020e-02
  1.756208e+00    1.019321e+00   1.329000e-02
  1.758418e+00    1.032287e+00   1.336075e-02
  1.760628e+00    1.017834e+00   1.325320e-02
  1.762839e+00    9.985209e-01   1.311342e-02
  1.765049e+00    9.980637e-01   1.309705e-02
  1.767260e+00    9.877918e-01   1.301649e-02
  1.769470e+00    9.916577e-01   1.302870e-02
  1.771681e+00    9.931626e-01   1.302517e-02
  1.773891e+00    9.797632e-01   1.292374e-02
  1.776102e+00    9.866047e-01   1.295566e-02
  1.778312e+00    1.009499e+00   1.309193e-02
  1.780523e+00    1.045563e+00   1.331033e-02
  1.782733e+00    1.090729e+00   1.358111e-02
  1.784944e+00    1.054107e+00   1.333752e-02
  1.787154e+00    9.793640e-01   1.284311e-02
  1.789364e+00    9.528791e-01   1.265562e-02
  1.791575e+00    9.330745e-01   1.251083e-02
  1.793785e+00    9.586747e-01   1.266864e-02
  1.795996e+00    9.491988e-01   1.259320e-02
  1.798206e+00    9.157495e-01   1.235681e-02
  1.800417e+00    9.089061e-01   1.229792e-02
  1.802627e+00    9.251335e-01   1.239520e-02
  1.804838e+00    9.421361e-01   1.249627e-02
  1.807048e+00    1.001578e+00   1.287096e-02
  1.809259e+00    1.049271e+00   1.315924e-02
  1.811469e+00    1.014005e+00   1.292040e-02
  1.813679e+00    1.020680e+00   1.294687e-02
  1.815890e+00    1.007813e+00   1.284944e-02
  1.818100e+00    9.218054e-01   1.227360e-02
  1.820311e+00    8.959615e-01   1.208551e-02
  1.822521e+00    8.993310e-01   1.209330e-02
  1.824732e+00    8.939788e-01   1.204241e-02
  1.826942e+00    8.842216e-01   1.196420e-02
  1.829153e+00    9.146994e-01   1.215675e-02
  1.831363e+00    9.074307e-01   1.209619e-02
  1.833574e+00    8.931506e-01   1.198885e-02
  1.835784e+00    9.070069e-01   1.206991e-02
  1.837994e+00    8.870540e-01   1.192461e-02
  1.840205e+00    8.790046e-01   1.185921e-02
  1.842415e+00    8.732460e-01   1.180850e-02
  1.844626e+00    8.842387e-01   1.187095e-02
  1.846836e+00    8.831090e-01   1.185183e-02
  1.849047e+00    8.824066e-01   1.183541e-02
  1.851257e+00    8.798448e-01   1.180855e-02
  1.853468e+00    8.684691e-01   1.172314e-02
  1.855678e+00    8.687614e-01   1.171618e-02
  1.857889e+00    8.550037e-01   1.161458e-02
  1.860099e+00    8.597817e-01   1.163831e-02
  1.862309e+00    8.668339e-01   1.167739e-02
  1.864520e+00    8.655192e-01   1.165993e-02
  1.866730e+00    8.540660e-01   1.157313e-02
  1.868941e+00    8.521815e-01   1.154943e-02
  1.871151e+00    8.427832e-01   1.147422e-02
  1.873362e+00    8.373638e-01   1.142601e-02
  1.875572e+00    8.298733e-01   1.136399e-02
  1.877783e+00    8.528792e-01   1.150895e-02
  1.879993e+00    8.494707e-01   1.147478e-02
  1.882204e+00    8.580211e-01   1.152138e-02
  1.884414e+00    8.698874e-01   1.158955e-02
  1.886624e+00    8.270532e-01   1.128965e-02
  1.888835e+00    8.266044e-01   1.127570e-02
  1.891045e+00    8.409345e-01   1.136213e-02
  1.893256e+00    8.384640e-01   1.133435e-02
  1.895466e+00    8.033060e-01   1.108323e-02
  1.897677e+00    8.125491e-01   1.113602e-02
  1.899887e+00    8.148123e-01   1.114068e-02
  1.902098e+00    8.116415e-01   1.110826e-02
  1.904308e+00    8.146990e-01   1.111870e-02
  1.906519e+00    8.183126e-01   1.113255e-02
  1.908729e+00    8.429894e-01   1.128846e-02
  1.910940e+00    8.481703e-01   1.131184e-02
  1.913150e+00    8.108680e-01   1.104984e-02
  1.915360e+00    8.059288e-01   1.100559e-02
  1.917571e+00    8.164416e-01   1.106633e-02
  1.919781e+00    8.302991e-01   1.114908e-02
  1.921992e+00    8.285964e-01   1.112699e-02
  1.924202e+00    8.217392e-01   1.107006e-02
  1.926413e+00    8.406062e-01   1.118595e-02
  1.928623e+00    8.513393e-01   1.124639e-02
  1.930834e+00    8.165499e-01   1.100375e-02
  1.933044e+00    7.896125e-01   1.081020e-02
  1.935255e+00    8.012404e-01   1.087921e-02
  1.937465e+00    8.155170e-01   1.096528e-02
  1.939675e+00    7.920604e-01   1.079569e-02
  1.941886e+00    7.975256e-01   1.082262e-02
  1.944096e+00    7.941871e-01   1.078983e-02
  1.946307e+00    8.063424e-01   1.086172e-02
  1.948517e+00    7.989833e-01   1.080160e-02
  1.950728e+00    7.967548e-01   1.077629e-02
  1.952938e+00    7.843500e-01   1.068208e-02
  1.955149e+00    7.949705e-01   1.074392e-02
  1.957359e+00    7.914788e-01   1.071029e-02
  1.959570e+00    7.990109e-01   1.075023e-02
  1.961780e+00    7.761812e-01   1.058574e-02
  1.963990e+00    7.762229e-01   1.057599e-02
  1.966201e+00    7.934405e-01   1.068256e-02
  1.968411e+00    7.900252e-01   1.064940e-02
  1.970622e+00    7.834563e-01   1.059497e-02
  1.972832e+00    7.902666e-01   1.063091e-02
  1.975043e+00    7.846391e-01   1.058298e-02
  1.977253e+00    7.867129e-01   1.058698e-02
  1.979464e+00    7.935551e-01   1.062283e-02
  1.981674e+00    7.955816e-01   1.062605e-02
  1.983885e+00    7.783366e-01   1.050024e-02
  1.986095e+00    7.937539e-01   1.059395e-02
  1.988305e+00    7.763830e-01   1.046752e-02
  1.990516e+00    7.870709e-01   1.052932e-02
  1.992726e+00    8.020180e-01   1.061903e-02
  1.994937e+00    7.898470e-01   1.052793e-02
  1.997147e+00    7.911893e-01   1.052706e-02
  1.999358e+00    7.744384e-01   1.040517e-02
  2.001568e+00    7.917838e-01   1.051010e-02
  2.003779e+00    7.969227e-01   1.053205e-02
  2.005989e+00    7.991897e-01   1.053479e-02
  2.008200e+00    8.140324e-01   1.062031e-02
  2.010410e+00    8.117154e-01   1.059313e-02
  2.012621e+00    7.985386e-01   1.049487e-02
  2.014831e+00    7.938505e-01   1.045234e-02
  2.017041e+00    7.864391e-01   1.039292e-02
  2.019252e+00    7.698190e-01   1.027255e-02
  2.021462e+00    7.514898e-01   1.014006e-02
  2.023673e+00    7.748830e-01   1.028725e-02
  2.025883e+00    7.662250e-01   1.022006e-02
  2.028094e+00    7.759977e-01   1.027532e-02
  2.030304e+00    7.700468e-01   1.022624e-02
  2.032515e+00    7.699545e-01   1.021629e-02
  2.034725e+00    7.598062e-01   1.013928e-02
  2.036936e+00    7.618902e-01   1.014383e-02
  2.039146e+00    7.431379e-01   1.000873e-02
  2.041356e+00    7.580437e-01   1.009894e-02
  2.043567e+00    7.638686e-01   1.012832e-02
  2.045777e+00    7.400659e-01   9.960128e-03
  2.047988e+00    7.431068e-01   9.971243e-03
  2.050198e+00    7.730744e-01   1.016179e-02
  2.052409e+00    7.537495e-01   1.002633e-02
  2.054619e+00    7.450967e-01   9.961251e-03
  2.056830e+00    7.567744e-01   1.003181e-02
  2.059040e+00    7.517336e-01   9.990823e-03
  2.061251e+00    7.750137e-01   1.013698e-02
  2.063461e+00    7.624723e-01   1.004697e-02
  2.065671e+00    7.657717e-01   1.005987e-02
  2.067882e+00    7.583728e-01   1.000209e-02
  2.070092e+00    7.493070e-01   9.932918e-03
  2.072303e+00    7.583606e-01   9.983527e-03
  2.074513e+00    7.628697e-01   1.000374e-02
  2.076724e+00    7.665187e-01   1.001802e-02
  2.078934e+00    7.647872e-01   9.997595e-03
  2.081145e+00    7.616970e-01   9.968158e-03
  2.083355e+00    7.475071e-01   9.865679e-03
  2.085566e+00    7.611478e-01   9.946237e-03
  2.087776e+00    7.464911e-01   9.840477e-03
  2.089986e+00    7.507693e-01   9.859768e-03
  2.092197e+00    7.307744e-01   9.718687e-03
  2.094407e+00    7.229698e-01   9.657480e-03
  2.096618e+00    7.469105e-01   9.807111e-03
  2.098828e+00    7.798386e-01   1.001138e-02
  2.101039e+00    7.549713e-01   9.841346e-03
  2.103249e+00    7.580418e-01   9.852522e-03
  2.105460e+00    7.425346e-01   9.742125e-03
  2.107670e+00    7.396985e-01   9.714702e-03
  2.109881e+00    7.473947e-01   9.755806e-03
  2.112091e+00    7.411726e-01   9.706055e-03
  2.114301e+00    7.448584e-01   9.721236e-03
  2.116512e+00    7.416858e-01   9.691613e-03
  2.118722e+00    7.544543e-01   9.765653e-03
  2.120933e+00    7.422386e-01   9.677288e-03
  2.123143e+00    7.388836e-01   9.646349e-03
  2.125354e+00    7.414058e-01   9.654145e-03
  2.127564e+00    7.356412e-01   9.607672e-03
  2.129775e+00    7.263462e-01   9.538010e-03
  2.131985e+00    7.501268e-01   9.683589e-03
  2.134196e+00    7.326418e-01   9.561379e-03
  2.136406e+00    7.317637e-01   9.546777e-03
  2.138617e+00    7.187091e-01   9.452739e-03
  2.140827e+00    7.010303e-01   9.351719e-03
  2.143037e+00    7.220295e-01   9.536692e-03
  2.145248e+00    7.196627e-01   9.543280e-03
  2.147458e+00    7.350159e-01   9.660003e-03
  2.149669e+00    7.084406e-01   9.495658e-03
  2.151879e+00    7.130166e-01   9.535574e-03
  2.154090e+00    7.007179e-01   9.460283e-03
  2.156300e+00    6.976568e-01   9.446187e-03
  2.158511e+00    6.895449e-01   9.396381e-03
  2.160721e+00    6.938704e-01   9.430598e-03
  2.162932e+00    7.060525e-01   9.516781e-03
  2.165142e+00    7.067576e-01   9.524589e-03
  2.167352e+00    6.846513e-01   9.377344e-03
  2.169563e+00    6.928073e-01   9.434959e-03
  2.171773e+00    7.030224e-01   9.506738e-03
  2.173984e+00    7.077793e-01   9.540274e-03
  2.176194e+00    6.906887e-01   9.425585e-03
  2.178405e+00    7.008053e-01   9.495058e-03
  2.180615e+00    7.086310e-01   9.548615e-03
  2.182826e+00    7.070950e-01   9.538952e-03
  2.185036e+00    7.030775e-01   9.511869e-03
  2.187247e+00    7.004252e-01   9.493864e-03
  2.189457e+00    7.038472e-01   9.516599e-03
  2.191667e+00    7.022035e-01   9.505319e-03
  2.193878e+00    6.947093e-01   9.453891e-03
  2.196088e+00    6.901045e-01   9.421816e-03
  2.198299e+00    6.904105e-01   9.422803e-03
  2.200509e+00    6.829309e-01   9.370585e-03
  2.202720e+00    6.932560e-01   9.439967e-03
  2.204930e+00    6.924599e-01   9.433324e-03
  2.207141e+00    6.726930e-01   9.296590e-03
  2.209351e+00    6.794366e-01   9.341176e-03
  2.211562e+00    6.821030e-01   9.357878e-03
  2.213772e+00    6.816636e-01   9.299181e-03
  2.215982e+00    6.839156e-01   9.270046e-03
  2.218193e+00    6.830503e-01   9.234403e-03
  2.220403e+00    6.745390e-01   9.152104e-03
  2.222614e+00    6.805671e-01   9.171846e-03
  2.224824e+00    6.806061e-01   9.152628e-03
  2.227035e+00    6.661579e-01   9.037617e-03
  2.229245e+00    6.586180e-01   8.969501e-03
  2.231456e+00    6.704295e-01   9.033965e-03
  2.233666e+00    6.820083e-01   9.096439e-03
  2.235877e+00    6.700661e-01   9.002187e-03
  2.238087e+00    6.680949e-01   8.975457e-03
  2.240298e+00    6.806946e-01   9.045826e-03
  2.242508e+00    6.655822e-01   8.929756e-03
  2.244718e+00    6.587783e-01   8.868299e-03
  2.246929e+00    6.612374e-01   8.870495e-03
  2.249139e+00    6.634669e-01   8.873087e-03
  2.251350e+00    6.765034e-01   8.948045e-03
  2.253560e+00    6.696419e-01   8.890974e-03
  2.255771e+00    6.683365e-01   8.870856e-03
  2.257981e+00    6.675231e-01   8.854268e-03
  2.260192e+00    6.671584e-01   8.840708e-03
  2.262402e+00    6.598162e-01   8.781126e-03
  2.264613e+00    6.581205e-01   8.759029e-03
  2.266823e+00    6.499622e-01   8.694286e-03
  2.269033e+00    6.623657e-01   8.766459e-03
  2.271244e+00    6.797387e-01   8.870166e-03
  2.273454e+00    6.849384e-01   8.893597e-03
  2.275665e+00    6.696441e-01   8.783382e-03
  2.277875e+00    6.723562e-01   8.791130e-03
  2.280086e+00    6.694637e-01   8.762092e-03
  2.282296e+00    6.512023e-01   8.632422e-03
  2.284507e+00    6.554431e-01   8.650358e-03
  2.286717e+00    6.615403e-01   8.681012e-03
  2.288928e+00    6.671033e-01   8.707515e-03
  2.291138e+00    6.456838e-01   8.557216e-03
  2.293348e+00    6.734977e-01   8.729912e-03
  2.295559e+00    6.684635e-01   8.687834e-03
  2.297769e+00    6.635234e-01   8.646361e-03
  2.299980e+00    6.488960e-01   8.541228e-03
  2.302190e+00    6.433820e-01   8.495796e-03
  2.304401e+00    6.405089e-01   8.467560e-03
  2.306611e+00    6.455362e-01   8.491582e-03
  2.308822e+00    6.489779e-01   8.505807e-03
  2.311032e+00    6.477936e-01   8.491613e-03
  2.313243e+00    6.581947e-01   8.553211e-03
  2.315453e+00    6.530234e-01   8.511926e-03
  2.317663e+00    6.512363e-01   8.491133e-03
  2.319874e+00    6.396660e-01   8.406693e-03
  2.322084e+00    6.455379e-01   8.436206e-03
  2.324295e+00    6.651370e-01   8.554970e-03
  2.326505e+00    6.569567e-01   8.493070e-03
  2.328716e+00    6.343380e-01   8.337090e-03
  2.330926e+00    6.399994e-01   8.365438e-03
  2.333137e+00    6.388140e-01   8.349325e-03
  2.335347e+00    6.510646e-01   8.420062e-03
  2.337558e+00    6.363203e-01   8.315985e-03
  2.339768e+00    6.502268e-01   8.397716e-03
  2.341979e+00    6.359382e-01   8.296589e-03
  2.344189e+00    6.370976e-01   8.295760e-03
  2.346399e+00    6.324716e-01   8.257106e-03
  2.348610e+00    6.343160e-01   8.260696e-03
  2.350820e+00    6.398216e-01   8.288253e-03
  2.353031e+00    6.254304e-01   8.186285e-03
  2.355241e+00    6.296244e-01   8.205652e-03
  2.357452e+00    6.373608e-01   8.247459e-03
  2.359662e+00    6.383877e-01   8.245828e-03
  2.361873e+00    6.455051e-01   8.283352e-03
  2.364083e+00    6.352163e-01   8.209035e-03
  2.366294e+00    6.387531e-01   8.223682e-03
  2.368504e+00    6.192624e-01   8.089215e-03
  2.370714e+00    6.291702e-01   8.145581e-03
  2.372925e+00    6.263798e-01   8.119448e-03
  2.375135e+00    6.263294e-01   8.111050e-03
  2.377346e+00    6.167689e-01   8.041007e-03
  2.379556e+00    6.183484e-01   8.043422e-03
  2.381767e+00    6.149529e-01   8.013491e-03
  2.383977e+00    6.167194e-01   8.017078e-03
  2.386188e+00    6.235409e-01   8.053355e-03
  2.388398e+00    6.113358e-01   7.966248e-03
  2.390609e+00    6.140948e-01   7.976482e-03
  2.392819e+00    6.208366e-01   8.012353e-03
  2.395029e+00    6.198891e-01   7.998540e-03
  2.397240e+00    6.232836e-01   8.012500e-03
  2.399450e+00    6.044569e-01   7.882806e-03
  2.401661e+00    6.072569e-01   7.893395e-03
  2.403871e+00    5.900567e-01   7.773186e-03
  2.406082e+00    6.077811e-01   7.881622e-03
  2.408292e+00    6.195735e-01   7.949869e-03
  2.410503e+00    6.238579e-01   7.969749e-03
  2.412713e+00    6.054563e-01   7.843520e-03
  2.414924e+00    6.027431e-01   7.818474e-03
  2.417134e+00    6.109258e-01   7.863688e-03
  2.419344e+00    5.936179e-01   7.744148e-03
  2.421555e+00    6.000337e-01   7.778388e-03
  2.423765e+00    6.126097e-01   7.851991e-03
  2.425976e+00    6.012170e-01   7.770828e-03
  2.428186e+00    5.988845e-01   7.748529e-03
  2.430397e+00    5.861936e-01   7.658559e-03
  2.432607e+00    6.002724e-01   7.742683e-03
  2.434818e+00    5.984208e-01   7.723184e-03
  2.437028e+00    5.913977e-01   7.670595e-03
  2.439239e+00    5.969476e-01   7.698815e-03
  2.441449e+00    5.945400e-01   7.676068e-03
  2.443659e+00    5.889310e-01   7.632443e-03
  2.445870e+00    5.900794e-01   7.652130e-03
  2.448080e+00    5.828869e-01   7.640155e-03
  2.450291e+00    5.867885e-01   7.682417e-03
  2.452501e+00    5.893407e-01   7.710399e-03
  2.454712e+00    5.703242e-01   7.593406e-03
  2.456922e+00    5.603403e-01   7.533192e-03
  2.459133e+00    5.573434e-01   7.518400e-03
  2.461343e+00    5.794931e-01   7.670734e-03
  2.463554e+00    5.671787e-01   7.592303e-03
  2.465764e+00    5.436111e-01   7.435950e-03
  2.467975e+00    5.669484e-01   7.596171e-03
  2.470185e+00    5.740015e-01   7.645585e-03
  2.472395e+00    5.804011e-01   7.689316e-03
  2.474606e+00    5.815104e-01   7.698279e-03
  2.476816e+00    5.734816e-01   7.645710e-03
  2.479027e+00    5.557749e-01   7.527586e-03
  2.481237e+00    5.653864e-01   7.592681e-03
  2.483448e+00    5.415487e-01   7.431226e-03
  2.485658e+00    5.278333e-01   7.336342e-03
  2.487869e+00    5.436489e-01   7.445484e-03
  2.490079e+00    5.415653e-01   7.430695e-03
  2.492290e+00    5.428605e-01   7.439141e-03
  2.494500e+00    5.380644e-01   7.405453e-03
  2.496710e+00    5.363930e-01   7.393273e-03
  2.498921e+00    5.386813e-01   7.408016e-03
  2.501131e+00    5.317433e-01   7.359215e-03
  2.503342e+00    5.324845e-01   7.363073e-03
  2.505552e+00    5.360057e-01   7.386244e-03
  2.507763e+00    5.289606e-01   7.336131e-03
  2.509973e+00    5.314095e-01   7.351700e-03
  2.512184e+00    5.171671e-01   7.250903e-03
  2.514394e+00    5.273088e-01   7.312294e-03
  2.516605e+00    5.203436e-01   7.217054e-03
  2.518815e+00    5.181661e-01   7.173826e-03
  2.521025e+00    5.289627e-01   7.227138e-03
  2.523236e+00    5.234130e-01   7.171197e-03
  2.525446e+00    5.218921e-01   7.145199e-03
  2.527657e+00    5.382515e-01   7.241536e-03
  2.529867e+00    5.463652e-01   7.281469e-03
  2.532078e+00    5.455974e-01   7.261012e-03
  2.534288e+00    5.414992e-01   7.219592e-03
  2.536499e+00    5.342849e-01   7.159282e-03
  2.538709e+00    5.274970e-01   7.102640e-03
  2.540920e+00    5.257460e-01   7.080171e-03
  2.543130e+00    5.335253e-01   7.121897e-03
  2.545340e+00    5.261278e-01   7.062282e-03
  2.547551e+00    5.322516e-01   7.093219e-03
  2.549761e+00    5.244260e-01   7.031287e-03
  2.551972e+00    5.183728e-01   6.981268e-03
  2.554182e+00    5.249930e-01   7.016478e-03
  2.556393e+00    5.289775e-01   7.033916e-03
  2.558603e+00    5.090114e-01   6.890911e-03
  2.560814e+00    5.134168e-01   6.912015e-03
  2.563024e+00    5.185110e-01   6.937641e-03
  2.565235e+00    5.209938e-01   6.944712e-03
  2.567445e+00    5.284090e-01   6.984310e-03
  2.569656e+00    5.283070e-01   6.973820e-03
  2.571866e+00    5.137407e-01   6.867659e-03
  2.574076e+00    5.212274e-01   6.908233e-03
  2.576287e+00    5.141165e-01   6.852624e-03
  2.578497e+00    5.210284e-01   6.890662e-03
  2.580708e+00    5.158072e-01   6.847958e-03
  2.582918e+00    5.163940e-01   6.844084e-03
  2.585129e+00    5.135700e-01   6.817599e-03
  2.587339e+00    5.101259e-01   6.787040e-03
  2.589550e+00    5.120124e-01   6.792040e-03
  2.591760e+00    5.069489e-01   6.750677e-03
  2.593971e+00    4.980748e-01   6.683903e-03
  2.596181e+00    5.082661e-01   6.745721e-03
  2.598391e+00    5.106888e-01   6.756612e-03
  2.600602e+00    5.105788e-01   6.749956e-03
  2.602812e+00    5.076469e-01   6.723018e-03
  2.605023e+00    5.178919e-01   6.783300e-03
  2.607233e+00    5.087929e-01   6.716290e-03
  2.609444e+00    5.180759e-01   6.769978e-03
  2.611654e+00    5.100957e-01   6.710305e-03
  2.613865e+00    5.104029e-01   6.705242e-03
  2.616075e+00    5.030281e-01   6.649525e-03
  2.618286e+00    5.058323e-01   6.661016e-03
  2.620496e+00    5.171274e-01   6.728204e-03
  2.622706e+00    5.120519e-01   6.689334e-03
  2.624917e+00    5.064173e-01   6.646564e-03
  2.627127e+00    4.891604e-01   6.526677e-03
  2.629338e+00    5.032461e-01   6.614001e-03
  2.631548e+00    5.012804e-01   6.594924e-03
  2.633759e+00    4.933457e-01   6.535436e-03
  2.635969e+00    5.033935e-01   6.594943e-03
  2.638180e+00    5.016481e-01   6.576530e-03
  2.640390e+00    5.081000e-01   6.612027e-03
  2.642601e+00    5.068036e-01   6.596890e-03
  2.644811e+00    4.963770e-01   6.521633e-03
  2.647021e+00    4.993765e-01   6.534739e-03
  2.649232e+00    4.907527e-01   6.471417e-03
  2.651442e+00    5.016701e-01   6.536473e-03
  2.653653e+00    5.067433e-01   6.562594e-03
  2.655863e+00    5.121474e-01   6.590728e-03
  2.658074e+00    5.154002e-01   6.604909e-03
  2.660284e+00    5.049574e-01   6.531232e-03
  2.662495e+00    4.957300e-01   6.464548e-03
  2.664705e+00    5.016415e-01   6.496381e-03
  2.666916e+00    4.969775e-01   6.459643e-03
  2.669126e+00    4.933621e-01   6.429659e-03
  2.671337e+00    4.928655e-01   6.419862e-03
  2.673547e+00    4.865448e-01   6.372236e-03
  2.675757e+00    4.768600e-01   6.302178e-03
  2.677968e+00    4.764883e-01   6.293295e-03
  2.680178e+00    4.872349e-01   6.357510e-03
  2.682389e+00    5.011721e-01   6.441355e-03
  2.684599e+00    5.062653e-01   6.467737e-03
  2.686810e+00    5.111966e-01   6.492428e-03
  2.689020e+00    4.906929e-01   6.354623e-03
  2.691231e+00    4.890867e-01   6.337911e-03
  2.693441e+00    4.958166e-01   6.375205e-03
  2.695652e+00    4.866649e-01   6.309595e-03
  2.697862e+00    4.946359e-01   6.354682e-03
  2.700072e+00    4.965655e-01   6.360953e-03
  2.702283e+00    4.814923e-01   6.257486e-03
  2.704493e+00    4.897685e-01   6.304745e-03
  2.706704e+00    5.007830e-01   6.368766e-03
  2.708914e+00    4.869006e-01   6.273917e-03
  2.711125e+00    4.866959e-01   6.266341e-03
  2.713335e+00    4.955304e-01   6.316826e-03
  2.715546e+00    5.033860e-01   6.360122e-03
  2.717756e+00    5.020783e-01   6.345899e-03
  2.719967e+00    4.742841e-01   6.161605e-03
  2.722177e+00    4.768861e-01   6.172401e-03
  2.724387e+00    4.922471e-01   6.264882e-03
  2.726598e+00    4.840125e-01   6.206217e-03
  2.728808e+00    4.855666e-01   6.210009e-03
  2.731019e+00    4.829835e-01   6.187364e-03
  2.733229e+00    4.788567e-01   6.155100e-03
  2.735440e+00    4.822291e-01   6.170484e-03
  2.737650e+00    4.782461e-01   6.138947e-03
  2.739861e+00    5.003573e-01   6.273089e-03
  2.742071e+00    4.993677e-01   6.261053e-03
  2.744282e+00    4.934304e-01   6.217404e-03
  2.746492e+00    4.851664e-01   6.159060e-03
  2.748702e+00    5.084431e-01   6.299007e-03
  2.750913e+00    4.910975e-01   6.184805e-03
  2.753123e+00    4.748394e-01   6.075481e-03
  2.755334e+00    4.720045e-01   6.051276e-03
  2.757544e+00    4.924405e-01   6.175100e-03
  2.759755e+00    4.831837e-01   6.110877e-03
  2.761965e+00    4.788376e-01   6.077355e-03
  2.764176e+00    4.806050e-01   6.082578e-03
  2.766386e+00    4.792273e-01   6.068064e-03
  2.768597e+00    4.841433e-01   6.093226e-03
  2.770807e+00    4.815646e-01   6.071063e-03
  2.773017e+00    4.872946e-01   6.101080e-03
  2.775228e+00    4.769423e-01   6.030128e-03
  2.777438e+00    4.828966e-01   6.061839e-03
  2.779649e+00    4.859515e-01   6.075033e-03
  2.781859e+00    4.793391e-01   6.027797e-03
  2.784070e+00    4.836790e-01   6.049100e-03
  2.786280e+00    4.791260e-01   6.014807e-03
  2.788491e+00    4.734217e-01   5.973069e-03
  2.790701e+00    4.820869e-01   6.021798e-03
  2.792912e+00    4.878608e-01   6.051734e-03
  2.795122e+00    4.607044e-01   5.875252e-03
  2.797333e+00    4.647317e-01   5.895355e-03
  2.799543e+00    4.784094e-01   5.975616e-03
  2.801753e+00    4.739017e-01   5.941547e-03
  2.803964e+00    4.817652e-01   5.984935e-03
  2.806174e+00    4.770707e-01   5.949552e-03
  2.808385e+00    4.859258e-01   5.997640e-03
  2.810595e+00    4.796350e-01   5.951778e-03
  2.812806e+00    4.693660e-01   5.881158e-03
  2.815016e+00    4.678476e-01   5.866913e-03
  2.817227e+00    4.752143e-01   5.938902e-03
  2.819437e+00    4.683458e-01   5.906828e-03
  2.821648e+00    4.636456e-01   5.879390e-03
  2.823858e+00    4.683972e-01   5.914732e-03
  2.826068e+00    4.599990e-01   5.866404e-03
  2.828279e+00    4.635476e-01   5.892966e-03
  2.830489e+00    4.791618e-01   5.994756e-03
  2.832700e+00    4.817550e-01   6.013549e-03
  2.834910e+00    4.779459e-01   5.991814e-03
  2.837121e+00    4.716679e-01   5.954029e-03
  2.839331e+00    4.734860e-01   5.966728e-03
  2.841542e+00    4.695713e-01   5.943030e-03
  2.843752e+00    4.753403e-01   5.980214e-03
  2.845963e+00    4.699131e-01   5.946381e-03
  2.848173e+00    4.742616e-01   5.973894e-03
  2.850383e+00    4.717501e-01   5.958381e-03
  2.852594e+00    4.574130e-01   5.867044e-03
  2.854804e+00    4.677565e-01   5.932501e-03
  2.857015e+00    4.650242e-01   5.914731e-03
  2.859225e+00    4.691617e-01   5.940718e-03
  2.861436e+00    4.676566e-01   5.930541e-03
  2.863646e+00    4.693780e-01   5.941479e-03
  2.865857e+00    4.658252e-01   5.919287e-03
  2.868067e+00    4.584794e-01   5.872668e-03
  2.870278e+00    4.523911e-01   5.833177e-03
  2.872488e+00    4.527671e-01   5.834451e-03
  2.874698e+00    4.678610e-01   5.929864e-03
  2.876909e+00    4.622194e-01   5.892676e-03
  2.879119e+00    4.533698e-01   5.834399e-03
  2.881330e+00    4.517998e-01   5.822821e-03
  2.883540e+00    4.533012e-01   5.831121e-03
  2.885751e+00    4.557381e-01   5.845122e-03
  2.887961e+00    4.787892e-01   5.989212e-03
  2.890172e+00    4.772845e-01   5.978169e-03
  2.892382e+00    4.670357e-01   5.911822e-03
  2.894593e+00    4.614094e-01   5.874287e-03
  2.896803e+00    4.516374e-01   5.809784e-03
  2.899014e+00    4.578879e-01   5.847946e-03
  2.901224e+00    4.629591e-01   5.878229e-03
  2.903434e+00    4.732463e-01   5.941219e-03
  2.905645e+00    4.580945e-01   5.843123e-03
  2.907855e+00    4.503792e-01   5.791620e-03
  2.910066e+00    4.657535e-01   5.887540e-03
  2.912276e+00    4.586437e-01   5.840329e-03
  2.914487e+00    4.542515e-01   5.809837e-03
  2.916697e+00    4.630017e-01   5.863299e-03
  2.918908e+00    4.664965e-01   5.883363e-03
  2.921118e+00    4.760778e-01   5.940728e-03
  2.923329e+00    4.716882e-01   5.910929e-03
  2.925539e+00    4.646996e-01   5.864695e-03
  2.927749e+00    4.631334e-01   5.852440e-03
  2.929960e+00    4.761978e-01   5.931600e-03
  2.932170e+00    4.555843e-01   5.799473e-03
  2.934381e+00    4.694573e-01   5.884632e-03
  2.936591e+00    4.712622e-01   5.893303e-03
  2.938802e+00    4.594917e-01   5.816540e-03
  2.941012e+00    4.616759e-01   5.827984e-03
  2.943223e+00    4.593338e-01   5.810484e-03
  2.945433e+00    4.593400e-01   5.806766e-03
  2.947644e+00    4.654710e-01   5.841213e-03
  2.949854e+00    4.618479e-01   5.814137e-03
  2.952064e+00    4.595566e-01   5.795448e-03
  2.954275e+00    4.706143e-01   5.860275e-03
  2.956485e+00    4.602446e-01   5.791150e-03
  2.958696e+00    4.549257e-01   5.753209e-03
  2.960906e+00    4.573458e-01   5.764290e-03
  2.963117e+00    4.625185e-01   5.792285e-03
  2.965327e+00    4.560044e-01   5.747437e-03
  2.967538e+00    4.573564e-01   5.753023e-03
  2.969748e+00    4.667878e-01   5.809185e-03
  2.971959e+00    4.530706e-01   5.720083e-03
  2.974169e+00    4.513986e-01   5.706917e-03
  2.976379e+00    4.598388e-01   5.757100e-03
  2.978590e+00    4.536505e-01   5.715091e-03
  2.980800e+00    4.573989e-01   5.735850e-03
  2.983011e+00    4.589128e-01   5.742516e-03
  2.985221e+00    4.599954e-01   5.746124e-03
  2.987432e+00    4.546230e-01   5.709347e-03
  2.989642e+00    4.764919e-01   5.842358e-03
  2.991853e+00    4.575816e-01   5.721980e-03
  2.994063e+00    4.611413e-01   5.741244e-03
  2.996274e+00    4.711551e-01   5.800015e-03
  2.998484e+00    4.626679e-01   5.744812e-03
  3.000694e+00    4.552278e-01   5.694976e-03
  3.002905e+00    4.515666e-01   5.669090e-03
  3.005115e+00    4.622841e-01   5.732956e-03
  3.007326e+00    4.669873e-01   5.758850e-03
  3.009536e+00    4.695042e-01   5.771047e-03
  3.011747e+00    4.621542e-01   5.722734e-03
  3.013957e+00    4.662119e-01   5.744592e-03
  3.016168e+00    4.479762e-01   5.627885e-03
  3.018378e+00    4.380234e-01   5.562014e-03
  3.020589e+00    4.460368e-01   5.609461e-03
  3.022799e+00    4.513947e-01   5.639914e-03
  3.025010e+00    4.476956e-01   5.613518e-03
  3.027220e+00    4.490013e-01   5.618612e-03
  3.029430e+00    4.576726e-01   5.669339e-03
  3.031641e+00    4.493820e-01   5.614622e-03
  3.033851e+00    4.599851e-01   5.676923e-03
  3.036062e+00    4.652830e-01   5.706707e-03
  3.038272e+00    4.527734e-01   5.625891e-03
  3.040483e+00    4.537388e-01   5.628654e-03
  3.042693e+00    4.457237e-01   5.575464e-03
  3.044904e+00    4.592840e-01   5.655590e-03
  3.047114e+00    4.434077e-01   5.552218e-03
  3.049325e+00    4.480650e-01   5.576906e-03
  3.051535e+00    4.721377e-01   5.720267e-03
  3.053745e+00    4.581641e-01   5.630200e-03
  3.055956e+00    4.566864e-01   5.616510e-03
  3.058166e+00    4.528327e-01   5.588475e-03
  3.060377e+00    4.550202e-01   5.597176e-03
  3.062587e+00    4.515908e-01   5.571397e-03
  3.064798e+00    4.569260e-01   5.599938e-03
  3.067008e+00    4.499148e-01   5.552065e-03
  3.069219e+00    4.638327e-01   5.632696e-03
  3.071429e+00    4.598802e-01   5.605113e-03
  3.073640e+00    4.495182e-01   5.538275e-03
  3.075850e+00    4.544414e-01   5.564901e-03
  3.078060e+00    4.611099e-01   5.602442e-03
  3.080271e+00    4.608998e-01   5.597642e-03
  3.082481e+00    4.628818e-01   5.606179e-03
  3.084692e+00    4.471765e-01   5.506861e-03
  3.086902e+00    4.567002e-01   5.561928e-03
  3.089113e+00    4.533587e-01   5.537943e-03
  3.091323e+00    4.680722e-01   5.623640e-03
  3.093534e+00    4.675878e-01   5.617301e-03
  3.095744e+00    4.587705e-01   5.560652e-03
  3.097955e+00    4.594673e-01   5.561293e-03
  3.100165e+00    4.421169e-01   5.451957e-03
  3.102375e+00    4.513445e-01   5.505119e-03
  3.104586e+00    4.564477e-01   5.532636e-03
  3.106796e+00    4.431638e-01   5.448024e-03
  3.109007e+00    4.475853e-01   5.471894e-03
  3.111217e+00    4.578391e-01   5.530489e-03
  3.113428e+00    4.398811e-01   5.417561e-03
  3.115638e+00    4.525717e-01   5.491874e-03
  3.117849e+00    4.446314e-01   5.439777e-03
  3.120059e+00    4.571309e-01   5.512197e-03
  3.122270e+00    4.492226e-01   5.461029e-03
  3.124480e+00    4.488373e-01   5.454992e-03
  3.126691e+00    4.479316e-01   5.445900e-03
  3.128901e+00    4.459746e-01   5.430868e-03
  3.131111e+00    4.531059e-01   5.470240e-03
  3.133322e+00    4.491516e-01   5.442858e-03
  3.135532e+00    4.393222e-01   5.379574e-03
  3.137743e+00    4.539928e-01   5.465166e-03
  3.139953e+00    4.448067e-01   5.405886e-03
  3.142164e+00    4.419141e-01   5.400286e-03
  3.144374e+00    4.420549e-01   5.429524e-03
  3.146585e+00    4.530030e-01   5.511109e-03
  3.148795e+00    4.441545e-01   5.467813e-03
  3.151006e+00    4.361148e-01   5.426581e-03
  3.153216e+00    4.444128e-01   5.485129e-03
  3.155426e+00    4.286660e-01   5.393302e-03
  3.157637e+00    4.467821e-01   5.511623e-03
  3.159847e+00    4.370428e-01   5.456104e-03
  3.162058e+00    4.534622e-01   5.562120e-03
  3.164268e+00    4.380442e-01   5.470823e-03
  3.166479e+00    4.481270e-01   5.537099e-03
  3.168689e+00    4.503048e-01   5.553958e-03
  3.170900e+00    4.472444e-01   5.538236e-03
  3.173110e+00    4.522203e-01   5.571880e-03
  3.175321e+00    4.535786e-01   5.582790e-03
  3.177531e+00    4.378642e-01   5.487970e-03
  3.179741e+00    4.439910e-01   5.528306e-03
  3.181952e+00    4.376203e-01   5.490612e-03
  3.184162e+00    4.428145e-01   5.525308e-03
  3.186373e+00    4.445616e-01   5.537802e-03
  3.188583e+00    4.447108e-01   5.540553e-03
  3.190794e+00    4.478946e-01   5.562116e-03
  3.193004e+00    4.280811e-01   5.438932e-03
  3.195215e+00    4.417076e-01   5.526326e-03
  3.197425e+00    4.395951e-01   5.514327e-03
  3.199636e+00    4.213133e-01   5.397666e-03
  3.201846e+00    4.398435e-01   5.514495e-03
  3.204056e+00    4.305221e-01   5.456637e-03
  3.206267e+00    4.352876e-01   5.487590e-03
  3.208477e+00    4.380551e-01   5.505950e-03
  3.210688e+00    4.256237e-01   5.428087e-03
  3.212898e+00    4.321331e-01   5.470021e-03
  3.215109e+00    4.371735e-01   5.502579e-03
  3.217319e+00    4.396745e-01   5.518938e-03
  3.219530e+00    4.371524e-01   5.503495e-03
  3.221740e+00    4.384235e-01   5.512040e-03
  3.223951e+00    4.552356e-01   5.617213e-03
  3.226161e+00    4.524192e-01   5.600024e-03
  3.228372e+00    4.447457e-01   5.552856e-03
  3.230582e+00    4.286568e-01   5.451633e-03
  3.232792e+00    4.437307e-01   5.546885e-03
  3.235003e+00    4.342582e-01   5.487612e-03
  3.237213e+00    4.329111e-01   5.479190e-03
  3.239424e+00    4.317591e-01   5.471893e-03
  3.241634e+00    4.344029e-01   5.488759e-03
  3.243845e+00    4.399422e-01   5.523688e-03
  3.246055e+00    4.474068e-01   5.570095e-03
  3.248266e+00    4.292631e-01   5.456189e-03
  3.250476e+00    4.407783e-01   5.528565e-03
  3.252687e+00    4.370205e-01   5.504870e-03
  3.254897e+00    4.395490e-01   5.520656e-03
  3.257107e+00    4.294003e-01   5.456246e-03
  3.259318e+00    4.140849e-01   5.357824e-03
  3.261528e+00    4.275039e-01   5.443780e-03
  3.263739e+00    4.346291e-01   5.488407e-03
  3.265949e+00    4.382860e-01   5.511335e-03
  3.268160e+00    4.373051e-01   5.504742e-03
  3.270370e+00    4.234547e-01   5.416358e-03
  3.272581e+00    4.177535e-01   5.379495e-03
  3.274791e+00    4.337824e-01   5.481186e-03
  3.277002e+00    4.286832e-01   5.448323e-03
  3.279212e+00    4.198357e-01   5.391418e-03
  3.281422e+00    4.317279e-01   5.466653e-03
  3.283633e+00    4.354139e-01   5.489277e-03
  3.285843e+00    4.216811e-01   5.401664e-03
  3.288054e+00    4.333413e-01   5.474893e-03
  3.290264e+00    4.453648e-01   5.550000e-03
  3.292475e+00    4.304435e-01   5.455405e-03
  3.294685e+00    4.261906e-01   5.427748e-03
  3.296896e+00    4.258668e-01   5.424930e-03
  3.299106e+00    4.355403e-01   5.485617e-03
  3.301317e+00    4.270674e-01   5.430994e-03
  3.303527e+00    4.288715e-01   5.441960e-03
  3.305737e+00    4.486123e-01   5.564716e-03
  3.307948e+00    4.291946e-01   5.442316e-03
  3.310158e+00    4.341210e-01   5.472566e-03
  3.312369e+00    4.284723e-01   5.435969e-03
  3.314579e+00    4.223323e-01   5.395962e-03
  3.316790e+00    4.307736e-01   5.448917e-03
  3.319000e+00    4.288588e-01   5.435579e-03
  3.321211e+00    4.322624e-01   5.456508e-03
  3.323421e+00    4.378295e-01   5.490310e-03
  3.325632e+00    4.234839e-01   5.398738e-03
  3.327842e+00    4.228709e-01   5.393877e-03
  3.330052e+00    4.279463e-01   5.425093e-03
  3.332263e+00    4.318976e-01   5.449051e-03
  3.334473e+00    4.190351e-01   5.366406e-03
  3.336684e+00    4.169130e-01   5.351529e-03
  3.338894e+00    3.975212e-01   5.224771e-03
  3.341105e+00    4.107960e-01   5.310080e-03
  3.343315e+00    4.325430e-01   5.447683e-03
  3.345526e+00    4.123480e-01   5.318113e-03
  3.347736e+00    4.153631e-01   5.336102e-03
  3.349947e+00    4.358021e-01   5.464857e-03
  3.352157e+00    4.180451e-01   5.351214e-03
  3.354368e+00    4.299018e-01   5.425246e-03
  3.356578e+00    4.168207e-01   5.341056e-03
  3.358788e+00    4.205539e-01   5.363589e-03
  3.360999e+00    4.227930e-01   5.376587e-03
  3.363209e+00    4.278680e-01   5.407750e-03
  3.365420e+00    4.179144e-01   5.342945e-03
  3.367630e+00    4.266196e-01   5.397281e-03
  3.369841e+00    4.390364e-01   5.473800e-03
  3.372051e+00    4.301949e-01   5.416396e-03
  3.374262e+00    4.261637e-01   5.388512e-03
  3.376472e+00    4.140616e-01   5.308974e-03
  3.378683e+00    4.214577e-01   5.353693e-03
  3.380893e+00    4.096617e-01   5.275902e-03
  3.383103e+00    4.086770e-01   5.266883e-03
  3.385314e+00    4.122927e-01   5.287904e-03
  3.387524e+00    4.128042e-01   5.288462e-03
  3.389735e+00    4.115759e-01   5.277957e-03
  3.391945e+00    4.265709e-01   5.369506e-03
  3.394156e+00    4.140180e-01   5.285706e-03
  3.396366e+00    4.226299e-01   5.336924e-03
  3.398577e+00    4.178137e-01   5.303362e-03
  3.400787e+00    4.101587e-01   5.266472e-03
  3.402998e+00    4.098260e-01   5.302368e-03
  3.405208e+00    4.003538e-01   5.261283e-03
  3.407418e+00    3.987845e-01   5.266691e-03
  3.409629e+00    3.875947e-01   5.206010e-03
  3.411839e+00    3.876736e-01   5.218131e-03
  3.414050e+00    3.984394e-01   5.301086e-03
  3.416260e+00    4.038272e-01   5.346597e-03
  3.418471e+00    3.958543e-01   5.302981e-03
  3.420681e+00    3.888989e-01   5.264652e-03
  3.422892e+00    3.995867e-01   5.344570e-03
  3.425102e+00    3.904291e-01   5.290820e-03
  3.427313e+00    3.837931e-01   5.252796e-03
  3.429523e+00    3.793511e-01   5.229314e-03
  3.431733e+00    3.864675e-01   5.284787e-03
  3.433944e+00    3.865383e-01   5.291779e-03
  3.436154e+00    3.733349e-01   5.206794e-03
  3.438365e+00    3.725613e-01   5.207232e-03
  3.440575e+00    3.656763e-01   5.164712e-03
  3.442786e+00    3.746240e-01   5.233093e-03
  3.444996e+00    3.590185e-01   5.128312e-03
  3.447207e+00    3.676665e-01   5.194919e-03
  3.449417e+00    3.886102e-01   5.382588e-03
  3.451628e+00    3.665128e-01   5.256697e-03
  3.453838e+00    3.592417e-01   5.225172e-03
  3.456049e+00    3.717019e-01   5.339094e-03
  3.458259e+00    3.656740e-01   5.317504e-03
  3.460469e+00    3.736348e-01   5.395081e-03
  3.462680e+00    3.884855e-01   5.520877e-03
  3.464890e+00    3.737746e-01   5.433306e-03
  3.467101e+00    3.778706e-01   5.480742e-03
  3.469311e+00    3.754271e-01   5.479597e-03
  3.471522e+00    3.905458e-01   5.605615e-03
  3.473732e+00    3.940786e-01   5.647174e-03
  3.475943e+00    3.908648e-01   5.639974e-03
  3.478153e+00    4.130369e-01   5.813628e-03
  3.480364e+00    4.203447e-01   5.880550e-03
  3.482574e+00    4.113410e-01   5.832673e-03
  3.484784e+00    4.250115e-01   5.943961e-03
  3.486995e+00    4.257153e-01   5.964154e-03
  3.489205e+00    4.144826e-01   5.899428e-03
  3.491416e+00    4.492549e-01   6.157220e-03
  3.493626e+00    4.440305e-01   6.136061e-03
  3.495837e+00    4.363660e-01   6.097571e-03
  3.498047e+00    4.407475e-01   6.142521e-03
  3.500258e+00    4.491927e-01   6.215594e-03
  3.502468e+00    4.649266e-01   6.338161e-03
  3.504679e+00    4.539173e-01   6.277007e-03
  3.506889e+00    4.823891e-01   6.485597e-03
  3.509099e+00    4.895706e-01   6.548319e-03
  3.511310e+00    4.890508e-01   6.559513e-03
  3.513520e+00    4.893715e-01   6.576173e-03
  3.515731e+00    4.914547e-01   6.604626e-03
  3.517941e+00    4.985591e-01   6.666659e-03
  3.520152e+00    4.982791e-01   6.679195e-03
  3.522362e+00    4.965515e-01   6.681991e-03
  3.524573e+00    5.116560e-01   6.797215e-03
  3.526783e+00    5.358432e-01   6.969694e-03
  3.528994e+00    5.246918e-01   6.909161e-03
  3.531204e+00    5.259811e-01   6.930128e-03
  3.533414e+00    5.303579e-01   6.971060e-03
  3.535625e+00    5.153394e-01   6.883858e-03
  3.537835e+00    5.249213e-01   6.959575e-03
  3.540046e+00    5.263709e-01   6.978026e-03
  3.542256e+00    5.580479e-01   7.192616e-03
  3.544467e+00    5.646417e-01   7.242836e-03
  3.546677e+00    5.501177e-01   7.156757e-03
  3.548888e+00    5.415376e-01   7.108245e-03
  3.551098e+00    5.396808e-01   7.103381e-03
  3.553309e+00    5.476173e-01   7.163631e-03
  3.555519e+00    5.473176e-01   7.173125e-03
  3.557729e+00    5.516796e-01   7.213516e-03
  3.559940e+00    5.478768e-01   7.200316e-03
  3.562150e+00    5.378956e-01   7.146148e-03
  3.564361e+00    5.312026e-01   7.114811e-03
  3.566571e+00    5.288298e-01   7.112638e-03
  3.568782e+00    5.456856e-01   7.239334e-03
  3.570992e+00    5.508832e-01   7.287658e-03
  3.573203e+00    5.510771e-01   7.303318e-03
  3.575413e+00    5.443434e-01   7.272455e-03
  3.577624e+00    5.343913e-01   7.219736e-03
  3.579834e+00    5.298379e-01   7.202718e-03
  3.582045e+00    5.536259e-01   7.376876e-03
  3.584255e+00    5.513513e-01   7.376018e-03
  3.586465e+00    5.391291e-01   7.307737e-03
  3.588676e+00    5.417795e-01   7.339955e-03
  3.590886e+00    5.382518e-01   7.329770e-03
  3.593097e+00    5.433824e-01   7.379184e-03
  3.595307e+00    5.603477e-01   7.507782e-03
  3.597518e+00    5.375962e-01   7.368012e-03
  3.599728e+00    5.445894e-01   7.429975e-03
  3.601939e+00    5.563351e-01   7.524055e-03
  3.604149e+00    5.290744e-01   7.351694e-03
  3.606360e+00    5.276504e-01   7.355825e-03
  3.608570e+00    5.312527e-01   7.394997e-03
  3.610780e+00    5.390514e-01   7.460201e-03
  3.612991e+00    5.440860e-01   7.505018e-03
  3.615201e+00    5.346962e-01   7.449804e-03
  3.617412e+00    5.416999e-01   7.505750e-03
  3.619622e+00    5.482655e-01   7.557132e-03
  3.621833e+00    5.497338e-01   7.574044e-03
  3.624043e+00    5.544068e-01   7.615854e-03
  3.626254e+00    5.490014e-01   7.588471e-03
  3.628464e+00    5.400321e-01   7.537261e-03
  3.630675e+00    5.401268e-01   7.552134e-03
  3.632885e+00    5.358534e-01   7.536653e-03
  3.635095e+00    5.427467e-01   7.599524e-03
  3.637306e+00    5.434468e-01   7.618891e-03
  3.639516e+00    5.496680e-01   7.677159e-03
  3.641727e+00    5.382896e-01   7.611888e-03
  3.643937e+00    5.425314e-01   7.656499e-03
  3.646148e+00    5.396080e-01   7.650560e-03
  3.648358e+00    5.288581e-01   7.588758e-03
  3.650569e+00    5.490173e-01   7.747003e-03
  3.652779e+00    5.406577e-01   7.702688e-03
  3.654990e+00    5.266671e-01   7.617183e-03
  3.657200e+00    5.466094e-01   7.775107e-03
  3.659410e+00    5.508029e-01   7.820125e-03
  3.661621e+00    5.351218e-01   7.723196e-03
  3.663831e+00    5.176506e-01   7.610944e-03
  3.666042e+00    5.363781e-01   7.762630e-03
  3.668252e+00    5.298656e-01   7.730565e-03
  3.670463e+00    5.379496e-01   7.804676e-03
  3.672673e+00    5.422537e-01   7.851396e-03
  3.674884e+00    5.569519e-01   7.972848e-03
  3.677094e+00    5.582821e-01   7.998346e-03
  3.679305e+00    5.115157e-01   7.671275e-03
  3.681515e+00    5.181336e-01   7.736184e-03
  3.683726e+00    5.108671e-01   7.697214e-03
  3.685936e+00    5.345173e-01   7.889179e-03
  3.688146e+00    5.451313e-01   7.983169e-03
  3.690357e+00    5.341353e-01   7.918285e-03
  3.692567e+00    5.213158e-01   7.838717e-03
  3.694778e+00    5.264663e-01   7.893384e-03
  3.696988e+00    5.306277e-01   7.940575e-03
  3.699199e+00    5.245792e-01   7.911413e-03
  3.701409e+00    5.353992e-01   8.009124e-03
  3.703620e+00    5.264401e-01   7.958165e-03
  3.705830e+00    5.279857e-01   7.986312e-03
  3.708041e+00    5.232034e-01   7.966635e-03
  3.710251e+00    5.238070e-01   7.987910e-03
  3.712461e+00    5.116163e-01   7.911028e-03
  3.714672e+00    5.153033e-01   7.956046e-03
  3.716882e+00    5.324291e-01   8.104102e-03
  3.719093e+00    5.119053e-01   7.963396e-03
  3.721303e+00    5.109290e-01   7.972592e-03
  3.723514e+00    5.071083e-01   7.959794e-03
  3.725724e+00    5.222467e-01   8.094905e-03
  3.727935e+00    5.371047e-01   8.227098e-03
  3.730145e+00    5.041755e-01   7.988010e-03
  3.732356e+00    5.211551e-01   8.139001e-03
  3.734566e+00    5.358090e-01   8.270483e-03
  3.736776e+00    5.135015e-01   8.114331e-03
  3.738987e+00    5.063456e-01   8.075123e-03
  3.741197e+00    5.194250e-01   8.196860e-03
  3.743408e+00    5.115079e-01   8.152195e-03
  3.745618e+00    5.201365e-01   8.239103e-03
  3.747829e+00    5.013112e-01   8.106547e-03
  3.750039e+00    5.023593e-01   8.133182e-03
  3.752250e+00    5.446802e-01   8.487949e-03
  3.754460e+00    5.080159e-01   8.215825e-03
  3.756671e+00    5.039709e-01   8.201721e-03
  3.758881e+00    5.268350e-01   8.404659e-03
  3.761091e+00    5.203922e-01   8.372514e-03
  3.763302e+00    5.222589e-01   8.406826e-03
  3.765512e+00    5.150028e-01   8.367634e-03
  3.767723e+00    5.278218e-01   8.490872e-03
  3.769933e+00    5.149362e-01   8.406091e-03
  3.772144e+00    4.845398e-01   8.173350e-03
  3.774354e+00    5.174367e-01   8.466326e-03
  3.776565e+00    4.977865e-01   8.323742e-03
  3.778775e+00    5.077394e-01   8.426543e-03
  3.780986e+00    5.258755e-01   8.596461e-03
  3.783196e+00    5.124058e-01   8.506056e-03
  3.785407e+00    5.260454e-01   8.639443e-03
  3.787617e+00    5.110739e-01   8.536578e-03
  3.789827e+00    4.831506e-01   8.320173e-03
  3.792038e+00    5.143309e-01   8.605549e-03
  3.794248e+00    4.967464e-01   8.478243e-03
  3.796459e+00    4.920335e-01   8.459047e-03
  3.798669e+00    5.066928e-01   8.605683e-03
  3.800880e+00    4.934192e-01   8.513480e-03
  3.803090e+00    5.013514e-01   8.603499e-03
  3.805301e+00    5.014729e-01   8.626684e-03
  3.807511e+00    5.156219e-01   8.769790e-03
  3.809722e+00    5.341592e-01   8.949122e-03
  3.811932e+00    5.048493e-01   8.722445e-03
  3.814142e+00    4.902299e-01   8.617893e-03
  3.816353e+00    5.153831e-01   8.859401e-03
  3.818563e+00    5.104035e-01   8.839931e-03
  3.820774e+00    4.942195e-01   8.721674e-03
  3.822984e+00    4.994065e-01   8.790722e-03
  3.825195e+00    5.101480e-01   8.908794e-03
  3.827405e+00    5.425219e-01   9.212039e-03
  3.829616e+00    5.257247e-01   9.093122e-03
  3.831826e+00    4.951167e-01   8.848488e-03
  3.834037e+00    4.823464e-01   8.757809e-03
  3.836247e+00    4.888318e-01   8.840942e-03
  3.838457e+00    4.907651e-01   8.883286e-03
  3.840668e+00    5.504342e-01   9.434348e-03
  3.842878e+00    5.122077e-01   9.126863e-03
  3.845089e+00    5.145684e-01   9.173873e-03
  3.847299e+00    5.157907e-01   9.211096e-03
  3.849510e+00    5.008639e-01   9.102868e-03
  3.851720e+00    4.837844e-01   8.967414e-03
  3.853931e+00    4.767538e-01   8.920716e-03
  3.856141e+00    4.970738e-01   9.127856e-03
  3.858352e+00    4.947107e-01   9.125423e-03
  3.860562e+00    4.964752e-01   9.161016e-03
  3.862772e+00    5.140755e-01   9.341960e-03
  3.864983e+00    4.960353e-01   9.196307e-03
  3.867193e+00    5.109932e-01   9.354061e-03
  3.869404e+00    4.897453e-01   9.177250e-03
  3.871614e+00    4.834715e-01   9.138059e-03
  3.873825e+00    4.838420e-01   9.161709e-03
  3.876035e+00    4.923873e-01   9.262760e-03
  3.878246e+00    4.890571e-01   9.257088e-03
  3.880456e+00    4.746780e-01   9.148465e-03
  3.882667e+00    4.831313e-01   9.258622e-03
  3.884877e+00    4.920967e-01   9.373878e-03
  3.887087e+00    4.850160e-01   9.335936e-03
  3.889298e+00    5.009612e-01   9.518850e-03
  3.891508e+00    4.847575e-01   9.393959e-03
  3.893719e+00    4.932179e-01   9.506656e-03
  3.895929e+00    4.938029e-01   9.543819e-03
  3.898140e+00    5.033915e-01   9.668139e-03
  3.900350e+00    4.759142e-01   9.432236e-03
  3.902561e+00    4.934683e-01   9.637072e-03
  3.904771e+00    4.959714e-01   9.694470e-03
  3.906982e+00    4.907748e-01   9.676822e-03
  3.909192e+00    5.054845e-01   9.854734e-03
  3.911403e+00    5.100479e-01   9.933919e-03
  3.913613e+00    4.976357e-01   9.846879e-03
  3.915823e+00    4.677756e-01   9.580927e-03
  3.918034e+00    5.049457e-01   9.990091e-03
  3.920244e+00    5.118973e-01   1.009528e-02
  3.922455e+00    5.072216e-01   1.008586e-02
  3.924665e+00    5.028902e-01   1.007968e-02
  3.926876e+00    4.765783e-01   9.849112e-03
  3.929086e+00    4.911568e-01   1.003612e-02
  3.931297e+00    4.661920e-01   9.811725e-03
  3.933507e+00    5.002742e-01   1.019334e-02
  3.935718e+00    5.097463e-01   1.031891e-02
  3.937928e+00    4.635978e-01   9.869421e-03
  3.940138e+00    4.874751e-01   1.014961e-02
  3.942349e+00    4.930094e-01   1.023726e-02
  3.944559e+00    4.847083e-01   1.018055e-02
  3.946770e+00    4.671104e-01   1.002365e-02
  3.948980e+00    4.596726e-01   9.973276e-03
  3.951191e+00    5.087005e-01   1.052327e-02
  3.953401e+00    5.018438e-01   1.048401e-02
  3.955612e+00    4.706092e-01   1.018359e-02
  3.957822e+00    4.950267e-01   1.047644e-02
  3.960033e+00    4.836658e-01   1.038802e-02
  3.962243e+00    4.798725e-01   1.037998e-02
  3.964453e+00    4.870653e-01   1.049050e-02
  3.966664e+00    5.008217e-01   1.067154e-02
  3.968874e+00    4.792691e-01   1.046765e-02
  3.971085e+00    4.665814e-01   1.034967e-02
  3.973295e+00    4.904385e-01   1.063249e-02
  3.975506e+00    4.932108e-01   1.068433e-02
  3.977716e+00    4.856813e-01   1.062446e-02
  3.979927e+00    4.775588e-01   1.055718e-02
  3.982137e+00    5.084358e-01   1.091589e-02
  3.984348e+00    4.522448e-01   1.031698e-02
  3.986558e+00    4.984116e-01   1.085318e-02
  3.988768e+00    4.941059e-01   1.082950e-02
  3.990979e+00    5.121405e-01   1.104884e-02
  3.993189e+00    4.395348e-01   1.025767e-02
  3.995400e+00    4.470597e-01   1.036760e-02
  3.997610e+00    4.792660e-01   1.076422e-02
  3.999821e+00    5.094696e-01   1.113665e-02
  4.002031e+00    5.102550e-01   1.118471e-02
  4.004242e+00    4.849090e-01   1.094182e-02
  4.006452e+00    5.024909e-01   1.117857e-02
  4.008663e+00    4.847321e-01   1.101921e-02
  4.010873e+00    4.868906e-01   1.108375e-02
  4.013084e+00    4.706436e-01   1.093771e-02
  4.015294e+00    5.098789e-01   1.142646e-02
  4.017504e+00    5.050281e-01   1.141466e-02
  4.019715e+00    5.199891e-01   1.162668e-02
  4.021925e+00    5.141661e-01   1.160560e-02
  4.024136e+00    4.907329e-01   1.138212e-02
  4.026346e+00    4.792166e-01   1.129166e-02
  4.028557e+00    4.661757e-01   1.118047e-02
  4.030767e+00    4.664060e-01   1.122797e-02
  4.032978e+00    4.936842e-01   1.159845e-02
  4.035188e+00    4.714338e-01   1.137972e-02
  4.037399e+00    4.883523e-01   1.162991e-02
  4.039609e+00    4.592260e-01   1.132423e-02
  4.041819e+00    5.126841e-01   1.201541e-02
  4.044030e+00    4.723780e-01   1.158285e-02
  4.046240e+00    4.885139e-01   1.182915e-02
  4.048451e+00    5.020773e-01   1.204413e-02
  4.050661e+00    4.700578e-01   1.170462e-02
  4.052872e+00    4.460368e-01   1.145225e-02
  4.055082e+00    4.646040e-01   1.174067e-02
  4.057293e+00    4.882438e-01   1.208965e-02
  4.059503e+00    4.630509e-01   1.182722e-02
  4.061714e+00    4.942768e-01   1.227677e-02
  4.063924e+00    4.766308e-01   1.211185e-02
  4.066134e+00    5.074325e-01   1.255612e-02
  4.068345e+00    4.799512e-01   1.227017e-02
  4.070555e+00    4.989438e-01   1.257094e-02
  4.072766e+00    4.713093e-01   1.227806e-02
  4.074976e+00    4.630591e-01   1.223080e-02
  4.077187e+00    5.107233e-01   1.290869e-02
  4.079397e+00    5.109039e-01   1.297685e-02
  4.081608e+00    5.132303e-01   1.307413e-02
  4.083818e+00    4.848071e-01   1.277293e-02
  4.086029e+00    5.088212e-01   1.315455e-02
  4.088239e+00    4.973512e-01   1.307534e-02
  4.090449e+00    5.011759e-01   1.319682e-02
  4.092660e+00    4.677697e-01   1.281943e-02
  4.094870e+00    5.002999e-01   1.333159e-02
  4.097081e+00    4.400025e-01   1.257077e-02
  4.099291e+00    4.943995e-01   1.338040e-02
  4.101502e+00    5.118526e-01   1.366523e-02
  4.103712e+00    5.252288e-01   1.389431e-02
  4.105923e+00    4.898878e-01   1.347071e-02
  4.108133e+00    4.798314e-01   1.338300e-02
  4.110344e+00    4.621087e-01   1.318380e-02
  4.112554e+00    4.873797e-01   1.359304e-02
  4.114764e+00    4.986736e-01   1.380477e-02
  4.116975e+00    4.663352e-01   1.340247e-02
  4.119185e+00    4.866643e-01   1.374682e-02
  4.121396e+00    4.968576e-01   1.394758e-02
  4.123606e+00    5.187633e-01   1.431012e-02
  4.125817e+00    4.744964e-01   1.374350e-02
  4.128027e+00    4.672957e-01   1.369616e-02
  4.130238e+00    4.523339e-01   1.353278e-02
  4.132448e+00    4.889895e-01   1.413151e-02
  4.134659e+00    4.713733e-01   1.393443e-02
  4.136869e+00    4.591941e-01   1.381441e-02
  4.139080e+00    4.650865e-01   1.396562e-02
  4.141290e+00    4.676304e-01   1.406563e-02
  4.143500e+00    5.390571e-01   1.517125e-02
  4.145711e+00    5.410233e-01   1.527013e-02
  4.147921e+00    4.629755e-01   1.419062e-02
  4.150132e+00    4.940282e-01   1.472871e-02
  4.152342e+00    4.785064e-01   1.456571e-02
  4.154553e+00    4.712186e-01   1.452303e-02
  4.156763e+00    4.842365e-01   1.479511e-02
  4.158974e+00    4.955704e-01   1.504244e-02
  4.161184e+00    5.181993e-01   1.545850e-02
  4.163395e+00    4.742409e-01   1.486381e-02
  4.165605e+00    4.650089e-01   1.479485e-02
  4.167815e+00    4.958790e-01   1.535771e-02
  4.170026e+00    5.517885e-01   1.628592e-02
  4.172236e+00    5.109108e-01   1.575578e-02
  4.174447e+00    4.621722e-01   1.506700e-02
  4.176657e+00    4.368863e-01   1.472889e-02
  4.178868e+00    4.687924e-01   1.534374e-02
  4.181078e+00    4.854416e-01   1.570177e-02
  4.183289e+00    5.210334e-01   1.636031e-02
  4.185499e+00    5.265697e-01   1.654393e-02
  4.187710e+00    5.587046e-01   1.714128e-02
  4.189920e+00    4.658484e-01   1.574646e-02
  4.192130e+00    5.077419e-01   1.653959e-02
  4.194341e+00    4.930180e-01   1.639795e-02
  4.196551e+00    5.089902e-01   1.676705e-02
  4.198762e+00    5.181862e-01   1.702519e-02
  4.200972e+00    5.134359e-01   1.705674e-02
  4.203183e+00    4.180659e-01   1.549286e-02
  4.205393e+00    4.656165e-01   1.645844e-02
  4.207604e+00    5.317744e-01   1.770950e-02
  4.209814e+00    5.498360e-01   1.813087e-02
  4.212025e+00    4.891431e-01   1.722267e-02
  4.214235e+00    4.813139e-01   1.720497e-02
  4.216445e+00    4.704664e-01   1.713301e-02
  4.218656e+00    4.698640e-01   1.725037e-02
  4.220866e+00    4.748718e-01   1.747064e-02
  4.223077e+00    4.640715e-01   1.740335e-02
  4.225287e+00    4.797160e-01   1.783358e-02
  4.227498e+00    5.397649e-01   1.906533e-02
  4.229708e+00    4.762203e-01   1.805342e-02
  4.231919e+00    4.562572e-01   1.781735e-02
  4.234129e+00    4.586594e-01   1.801373e-02
  4.236340e+00    4.892418e-01   1.876416e-02
  4.238550e+00    4.555188e-01   1.826552e-02
  4.240761e+00    4.907711e-01   1.912664e-02
  4.242971e+00    4.594642e-01   1.867609e-02
  4.245181e+00    4.393395e-01   1.843405e-02
  4.247392e+00    4.738861e-01   1.932405e-02
  4.249602e+00    5.585826e-01   2.118816e-02
  4.251813e+00    4.572753e-01   1.936014e-02
  4.254023e+00    4.921086e-01   2.028573e-02
  4.256234e+00    5.121920e-01   2.091715e-02
  4.258444e+00    5.004431e-01   2.089202e-02
  4.260655e+00    5.018621e-01   2.115173e-02
  4.262865e+00    4.850602e-01   2.103031e-02
  4.265076e+00    4.700049e-01   2.093695e-02
  4.267286e+00    4.244000e-01   2.013138e-02
  4.269496e+00    4.608765e-01   2.123451e-02
  4.271707e+00    4.853238e-01   2.205941e-02
  4.273917e+00    4.614832e-01   2.178903e-02
  4.276128e+00    4.531589e-01   2.187856e-02
  4.278338e+00    4.920360e-01   2.310215e-02
  4.280549e+00    4.789987e-01   2.312098e-02
  4.282759e+00    4.239396e-01   2.206427e-02
  4.284970e+00    4.192279e-01   2.226540e-02
  4.287180e+00    4.606592e-01   2.361997e-02
  4.289391e+00    5.298685e-01   2.552238e-02
  4.291601e+00    5.341609e-01   2.583015e-02
  4.293811e+00    4.215758e-01   2.312648e-02
  4.296022e+00    5.206406e-01   2.590688e-02
  4.298232e+00    4.645809e-01   2.467775e-02
  4.300443e+00    4.361560e-01   2.410846e-02
  4.302653e+00    4.667686e-01   2.515485e-02
  4.304864e+00    4.890480e-01   2.597264e-02
  4.307074e+00    4.349585e-01   2.471373e-02
  4.309285e+00    4.643266e-01   2.576594e-02
  4.311495e+00    4.965454e-01   2.689473e-02
  4.313706e+00    5.101331e-01   2.751595e-02
  4.315916e+00    5.746410e-01   2.949207e-02
  4.318126e+00    3.748599e-01   2.405566e-02
  4.320337e+00    3.960798e-01   2.497636e-02
  4.322547e+00    5.013468e-01   2.839869e-02
  4.324758e+00    5.013538e-01   2.869440e-02
  4.326968e+00    4.464168e-01   2.738165e-02
  4.329179e+00    5.842281e-01   3.166866e-02
  4.331389e+00    4.830617e-01   2.912893e-02
  4.333600e+00    4.065713e-01   2.704264e-02
  4.335810e+00    5.319895e-01   3.130123e-02
  4.338021e+00    4.626096e-01   2.956258e-02
  4.340231e+00    4.541539e-01   2.965903e-02
  4.342442e+00    5.647357e-01   3.351680e-02
  4.344652e+00    4.035239e-01   2.871628e-02
  4.346862e+00    4.475036e-01   3.066468e-02
  4.349073e+00    4.562202e-01   3.141198e-02
  4.351283e+00    5.273718e-01   3.427681e-02
  4.353494e+00    6.113478e-01   3.747663e-02
  4.355704e+00    5.526882e-01   3.620624e-02
  4.357915e+00    4.904613e-01   3.467541e-02
  4.360125e+00    4.434973e-01   3.353620e-02
  4.362336e+00    4.945597e-01   3.606045e-02
  4.364546e+00    5.718719e-01   3.948066e-02
  4.366757e+00    5.300517e-01   3.876742e-02
  4.368967e+00    4.442873e-01   3.620039e-02
  4.371177e+00    5.047987e-01   3.940710e-02
  4.373388e+00    7.242588e-01   4.825669e-02
  4.375598e+00    4.797965e-01   4.017645e-02
  4.377809e+00    4.839809e-01   4.136810e-02
  4.380019e+00    4.914508e-01   4.273776e-02
  4.382230e+00    2.425883e-01   3.086289e-02
  4.384440e+00    3.288459e-01   3.696746e-02
  4.386651e+00    4.610240e-01   4.512007e-02
  4.388861e+00    5.923617e-01   5.286238e-02
  4.391072e+00    5.109855e-01   5.082194e-02
  4.393282e+00    5.718716e-01   5.584434e-02
  4.395492e+00    5.179211e-01   5.535192e-02
  4.397703e+00    3.139452e-01   4.506615e-02
  4.399913e+00    3.398165e-01   4.926008e-02
  4.402124e+00    5.522022e-01   6.635336e-02
  4.404334e+00    3.916703e-01   5.939877e-02
  4.406545e+00    3.412675e-01   5.957600e-02
  4.408755e+00    6.185327e-01   8.697827e-02
  4.410966e+00    4.242464e-01   7.973393e-02
  4.413176e+00    4.360437e-02   2.896975e-02
  4.415387e+00   -6.966738e-01            nan
  4.417597e+00   -1.979510e+00            nan
  4.419807e+00    1.431295e-01   1.358686e-01
