# == pyFAI calibration ==
# Distance Sample to Detector: 0.216 m
# PONI: 1.166e-01, 1.308e-01 m
# Rotations: 0.000000 0.000000 0.000000 rad
# 
# == Fit2d calibration ==
# Distance Sample-beamCenter: 216.000 mm
# Center: x=1744.293, y=1555.000 pix
# Tilt: 0.000 deg  TiltPlanRot: 0.000 deg
# 
# Detector Eiger 9M	 PixelSize= 7.500e-05, 7.500e-05 m
#    Detector has a mask: True 
#    Detector has a dark current: False 
#    detector has a flat field: False 
# 
# Wavelength: 9.8e-11 m
# Mask applied: from detector
# Dark current applied: False
# Flat field applied: False
# Polarization factor: None
# Normalization factor: 1.0
# 
# Headers of the input frame:
# {
# "_array_data.header_convention": "SLS_1.0",
# "_array_data.header_contents": "# Detector: Dectris Eiger 9M, S/N E-18-0102\r\n# Pixel_size 75e-6 m x 75e-6 m\r\n# Silicon sensor, thickness 0.000450 m\r\n# Exposure_time 0.024997 s\r\n# Exposure_period 0.025000 s\r\n# Count_cutoff 62318 counts\r\n# Wavelength 0.980106 A\r\n# Detector_distance 0.215992 m\r\n# Beam_xy (1555, 1744) pixels\r\n# Start_angle 0.000000 deg.\r\n# Angle_increment 0.000000 deg.",
# "Content-Type": "application/octet-stream;",
# "conversions": "x-CBF_BYTE_OFFSET",
# "Content-Transfer-Encoding": "BINARY",
# "X-Binary-Size": "10166594",
# "X-Binary-ID": "1",
# "X-Binary-Element-Type": "signed 32-bit integer",
# "X-Binary-Element-Byte-Order": "LITTLE_ENDIAN",
# "Content-MD5": "WIZQrbbMBH7Tckg6MF1Kzg==",
# "X-Binary-Number-of-Elements": "10166590",
# "X-Binary-Size-Fastest-Dimension": "3110",
# "X-Binary-Size-Second-Dimension": "3269",
# "X-Binary-Size-Padding": "4095"
# }
# --> H:/Proxima2a_2019-04-05/RAW_DATA/C5_gel17_position5/C5_mesh_1_data.cbf/C5_mesh_1_data.cbf000085.dat
#        q_A^-1              I           sigma 
  1.105228e-03    1.159749e+00   5.827321e-01
  3.315685e-03    1.188759e+00   3.586677e-01
  5.526141e-03    1.305690e+00   2.906646e-01
  7.736597e-03    1.306997e+00   2.456730e-01
  9.947054e-03    1.487689e+00   2.310642e-01
  1.215751e-02    1.198373e+00   1.875273e-01
  1.436797e-02    1.242976e+00   1.756739e-01
  1.657842e-02    1.208798e+00   1.612580e-01
  1.878888e-02    1.341797e+00   1.595905e-01
  2.099934e-02    1.442041e+00   1.565276e-01
  2.320979e-02    1.544734e+00   1.540847e-01
  2.542025e-02    1.497428e+00   1.449714e-01
  2.763070e-02    1.413013e+00   1.350714e-01
  2.984116e-02    1.359609e+00   1.274922e-01
  3.205162e-02    1.543319e+00   1.310733e-01
  3.426207e-02    1.501697e+00   1.250449e-01
  3.647253e-02    1.473715e+00   1.200595e-01
  3.868299e-02    1.476920e+00   1.167143e-01
  4.089344e-02    1.381135e+00   1.097738e-01
  4.310390e-02    1.298965e+00   1.036866e-01
  4.531436e-02    1.352955e+00   1.032066e-01
  4.752481e-02    1.396352e+00   1.023803e-01
  4.973527e-02    1.523581e+00   1.045405e-01
  5.194572e-02    1.399485e+00   9.803633e-02
  5.415618e-02    1.413350e+00   9.648584e-02
  5.636664e-02    1.500413e+00   9.744745e-02
  5.857709e-02    1.527865e+00   9.646217e-02
  6.078755e-02    1.578865e+00   9.625645e-02
  6.299801e-02    1.489058e+00   9.182318e-02
  6.520846e-02    1.432158e+00   8.851284e-02
  6.741892e-02    1.503484e+00   8.918653e-02
  6.962938e-02    1.517214e+00   8.816370e-02
  7.183983e-02    1.439537e+00   8.454414e-02
  7.405029e-02    1.442619e+00   8.335987e-02
  7.626074e-02    1.505224e+00   8.390559e-02
  7.847120e-02    1.591543e+00   8.505175e-02
  8.068166e-02    1.565999e+00   8.320206e-02
  8.289211e-02    1.474301e+00   7.964523e-02
  8.510257e-02    1.420972e+00   7.716887e-02
  8.731303e-02    1.462254e+00   7.728159e-02
  8.952348e-02    1.479915e+00   7.678316e-02
  9.173394e-02    1.508580e+00   7.658044e-02
  9.394439e-02    1.541714e+00   7.649820e-02
  9.615485e-02    1.501926e+00   7.463008e-02
  9.836531e-02    1.565583e+00   7.533217e-02
  1.005758e-01    1.504297e+00   7.302747e-02
  1.027862e-01    1.508611e+00   7.233966e-02
  1.049967e-01    1.450446e+00   7.017960e-02
  1.072071e-01    1.406580e+00   6.839320e-02
  1.094176e-01    1.509136e+00   7.012237e-02
  1.116280e-01    1.518968e+00   6.964887e-02
  1.138385e-01    1.538711e+00   6.941475e-02
  1.160490e-01    1.613805e+00   7.040728e-02
  1.182594e-01    1.533152e+00   6.797951e-02
  1.204699e-01    1.561314e+00   6.796817e-02
  1.226803e-01    1.524690e+00   6.655570e-02
  1.248908e-01    1.584981e+00   6.725483e-02
  1.271012e-01    1.574112e+00   6.643717e-02
  1.293117e-01    1.522028e+00   6.476720e-02
  1.315222e-01    1.651904e+00   6.690299e-02
  1.337326e-01    1.688293e+00   6.707329e-02
  1.359431e-01    1.551019e+00   6.432628e-02
  1.381535e-01    1.506595e+00   6.424936e-02
  1.403640e-01    1.588380e+00   6.625506e-02
  1.425744e-01    1.562119e+00   6.581000e-02
  1.447849e-01    1.610056e+00   6.682753e-02
  1.469953e-01    1.606717e+00   6.671639e-02
  1.492058e-01    1.639859e+00   6.732264e-02
  1.514163e-01    1.560137e+00   6.555676e-02
  1.536267e-01    1.545985e+00   6.513134e-02
  1.558372e-01    1.534568e+00   6.474713e-02
  1.580476e-01    1.610680e+00   6.617240e-02
  1.602581e-01    1.674084e+00   6.729094e-02
  1.624685e-01    1.696873e+00   6.756190e-02
  1.646790e-01    1.680035e+00   6.703285e-02
  1.668895e-01    1.659850e+00   6.643651e-02
  1.690999e-01    1.720124e+00   6.742890e-02
  1.713104e-01    1.700891e+00   6.684281e-02
  1.735208e-01    1.788660e+00   6.833255e-02
  1.757313e-01    1.804875e+00   6.842647e-02
  1.779417e-01    1.881985e+00   6.964500e-02
  1.801522e-01    1.910200e+00   6.994164e-02
  1.823626e-01    2.007166e+00   7.145619e-02
  1.845731e-01    1.916291e+00   6.959371e-02
  1.867836e-01    1.836929e+00   6.790743e-02
  1.889940e-01    1.952142e+00   6.977585e-02
  1.912045e-01    1.994257e+00   7.028902e-02
  1.934149e-01    2.019396e+00   7.049391e-02
  1.956254e-01    1.970691e+00   6.940895e-02
  1.978358e-01    1.899204e+00   6.790492e-02
  2.000463e-01    1.911195e+00   6.789318e-02
  2.022568e-01    1.924332e+00   6.790254e-02
  2.044672e-01    1.962176e+00   6.833205e-02
  2.066777e-01    1.997541e+00   6.871627e-02
  2.088881e-01    1.994701e+00   6.844276e-02
  2.110986e-01    2.006760e+00   6.841389e-02
  2.133090e-01    1.979787e+00   6.773168e-02
  2.155195e-01    1.932834e+00   6.670168e-02
  2.177300e-01    1.916487e+00   6.589725e-02
  2.199404e-01    1.902710e+00   6.392981e-02
  2.221509e-01    1.929526e+00   6.332161e-02
  2.243613e-01    1.946809e+00   6.279825e-02
  2.265718e-01    2.030874e+00   6.343279e-02
  2.287822e-01    2.083892e+00   6.361946e-02
  2.309927e-01    2.112203e+00   6.346669e-02
  2.332031e-01    2.133445e+00   6.323908e-02
  2.354136e-01    2.131255e+00   6.269433e-02
  2.376241e-01    2.132261e+00   6.222240e-02
  2.398345e-01    2.079317e+00   6.099030e-02
  2.420450e-01    2.121156e+00   6.116060e-02
  2.442554e-01    2.145232e+00   6.108301e-02
  2.464659e-01    2.104354e+00   6.009205e-02
  2.486763e-01    2.134694e+00   6.012587e-02
  2.508868e-01    2.125726e+00   5.962094e-02
  2.530973e-01    2.092083e+00   5.878055e-02
  2.553077e-01    2.073074e+00   5.815799e-02
  2.575182e-01    2.031603e+00   5.723267e-02
  2.597286e-01    2.068521e+00   5.741465e-02
  2.619391e-01    2.037885e+00   5.665982e-02
  2.641495e-01    2.043662e+00   5.642600e-02
  2.663600e-01    2.054029e+00   5.625787e-02
  2.685704e-01    1.983086e+00   5.497818e-02
  2.707809e-01    1.957674e+00   5.433482e-02
  2.729914e-01    2.010685e+00   5.477860e-02
  2.752018e-01    2.018953e+00   5.460541e-02
  2.774123e-01    2.055261e+00   5.481281e-02
  2.796227e-01    2.006205e+00   5.388682e-02
  2.818332e-01    2.018006e+00   5.377547e-02
  2.840436e-01    1.985472e+00   5.308166e-02
  2.862541e-01    1.983152e+00   5.279563e-02
  2.884646e-01    1.923423e+00   5.174774e-02
  2.906750e-01    1.943825e+00   5.177480e-02
  2.928855e-01    1.917645e+00   5.118668e-02
  2.950959e-01    1.944668e+00   5.130927e-02
  2.973064e-01    1.999683e+00   5.179617e-02
  2.995168e-01    1.929452e+00   5.064802e-02
  3.017273e-01    1.904572e+00   5.009858e-02
  3.039377e-01    1.895103e+00   4.975504e-02
  3.061482e-01    1.945213e+00   5.019050e-02
  3.083587e-01    1.903898e+00   4.943971e-02
  3.105691e-01    1.922904e+00   4.947364e-02
  3.127796e-01    1.816958e+00   4.788924e-02
  3.149900e-01    1.852810e+00   4.815787e-02
  3.172005e-01    1.938936e+00   4.906302e-02
  3.194109e-01    1.930995e+00   4.876035e-02
  3.216214e-01    1.842153e+00   4.743110e-02
  3.238319e-01    1.835987e+00   4.716405e-02
  3.260423e-01    1.840172e+00   4.702969e-02
  3.282528e-01    1.846453e+00   4.692235e-02
  3.304632e-01    1.876531e+00   4.711973e-02
  3.326737e-01    1.850376e+00   4.660764e-02
  3.348841e-01    1.867789e+00   4.664483e-02
  3.370946e-01    1.882590e+00   4.665310e-02
  3.393050e-01    1.833666e+00   4.586849e-02
  3.415155e-01    1.848987e+00   4.588655e-02
  3.437260e-01    1.822673e+00   4.538999e-02
  3.459364e-01    1.831332e+00   4.532938e-02
  3.481469e-01    1.778806e+00   4.451151e-02
  3.503573e-01    1.802150e+00   4.463941e-02
  3.525678e-01    1.841806e+00   4.496707e-02
  3.547782e-01    1.836607e+00   4.474125e-02
  3.569887e-01    1.766889e+00   4.372837e-02
  3.591992e-01    1.773356e+00   4.365329e-02
  3.614096e-01    1.812865e+00   4.398388e-02
  3.636201e-01    1.806506e+00   4.375238e-02
  3.658305e-01    1.763908e+00   4.308597e-02
  3.680410e-01    1.781552e+00   4.315200e-02
  3.702514e-01    1.811137e+00   4.336250e-02
  3.724619e-01    1.813807e+00   4.324668e-02
  3.746724e-01    1.802680e+00   4.296998e-02
  3.768828e-01    1.834754e+00   4.320468e-02
  3.790933e-01    1.803127e+00   4.269113e-02
  3.813037e-01    1.827093e+00   4.283329e-02
  3.835142e-01    1.813293e+00   4.253109e-02
  3.857246e-01    1.766262e+00   4.184005e-02
  3.879351e-01    1.765997e+00   4.170150e-02
  3.901455e-01    1.757651e+00   4.147040e-02
  3.923560e-01    1.815135e+00   4.200914e-02
  3.945665e-01    1.785589e+00   4.153372e-02
  3.967769e-01    1.801838e+00   4.159158e-02
  3.989874e-01    1.787870e+00   4.130072e-02
  4.011978e-01    1.769536e+00   4.096206e-02
  4.034083e-01    1.767723e+00   4.081535e-02
  4.056187e-01    1.805927e+00   4.112698e-02
  4.078292e-01    1.734010e+00   4.017781e-02
  4.100397e-01    1.793383e+00   4.073509e-02
  4.122501e-01    1.809233e+00   4.079233e-02
  4.144606e-01    1.776162e+00   4.029791e-02
  4.166710e-01    1.819820e+00   4.066889e-02
  4.188815e-01    1.781929e+00   4.012439e-02
  4.210919e-01    1.812762e+00   4.035143e-02
  4.233024e-01    1.814337e+00   4.025024e-02
  4.255128e-01    1.757569e+00   3.950103e-02
  4.277233e-01    1.762886e+00   3.944706e-02
  4.299338e-01    1.751894e+00   3.921074e-02
  4.321442e-01    1.774982e+00   3.935534e-02
  4.343547e-01    1.722382e+00   3.865819e-02
  4.365651e-01    1.810331e+00   3.952027e-02
  4.387756e-01    1.756445e+00   3.881869e-02
  4.409860e-01    1.750931e+00   3.865030e-02
  4.431965e-01    1.796678e+00   3.904372e-02
  4.454070e-01    1.750757e+00   3.843431e-02
  4.476174e-01    1.692656e+00   3.768741e-02
  4.498279e-01    1.735652e+00   3.805924e-02
  4.520383e-01    1.683505e+00   3.738027e-02
  4.542488e-01    1.718078e+00   3.766033e-02
  4.564592e-01    1.689741e+00   3.724827e-02
  4.586697e-01    1.686902e+00   3.711817e-02
  4.608801e-01    1.684966e+00   3.699751e-02
  4.630906e-01    1.674648e+00   3.678638e-02
  4.653011e-01    1.708950e+00   3.706349e-02
  4.675115e-01    1.750013e+00   3.740737e-02
  4.697220e-01    1.726306e+00   3.705587e-02
  4.719324e-01    1.696335e+00   3.663777e-02
  4.741429e-01    1.673688e+00   3.629860e-02
  4.763533e-01    1.738169e+00   3.689637e-02
  4.785638e-01    1.762772e+00   3.706061e-02
  4.807743e-01    1.748555e+00   3.681700e-02
  4.829847e-01    1.676121e+00   3.595531e-02
  4.851952e-01    1.656857e+00   3.565761e-02
  4.874056e-01    1.666762e+00   3.567386e-02
  4.896161e-01    1.676150e+00   3.568548e-02
  4.918265e-01    1.686162e+00   3.570300e-02
  4.940370e-01    1.691667e+00   3.567295e-02
  4.962475e-01    1.711527e+00   3.579313e-02
  4.984579e-01    1.655258e+00   3.511310e-02
  5.006684e-01    1.615347e+00   3.460262e-02
  5.028788e-01    1.603618e+00   3.439321e-02
  5.050893e-01    1.632777e+00   3.462008e-02
  5.072997e-01    1.677059e+00   3.500167e-02
  5.095102e-01    1.692299e+00   3.507614e-02
  5.117206e-01    1.657707e+00   3.463325e-02
  5.139311e-01    1.692323e+00   3.491015e-02
  5.161416e-01    1.695949e+00   3.486497e-02
  5.183520e-01    1.653771e+00   3.434687e-02
  5.205625e-01    1.657390e+00   3.430388e-02
  5.227729e-01    1.624872e+00   3.388647e-02
  5.249834e-01    1.614293e+00   3.369756e-02
  5.271938e-01    1.698863e+00   3.448831e-02
  5.294043e-01    1.733948e+00   3.476221e-02
  5.316148e-01    1.805309e+00   3.538908e-02
  5.338252e-01    1.825472e+00   3.550484e-02
  5.360357e-01    1.767040e+00   3.485247e-02
  5.382461e-01    1.721808e+00   3.432572e-02
  5.404566e-01    1.760057e+00   3.462590e-02
  5.426670e-01    1.761378e+00   3.456085e-02
  5.448775e-01    1.783654e+00   3.470101e-02
  5.470879e-01    1.781208e+00   3.459988e-02
  5.492984e-01    1.782305e+00   3.453357e-02
  5.515089e-01    1.737162e+00   3.401780e-02
  5.537193e-01    1.772746e+00   3.428875e-02
  5.559298e-01    1.775637e+00   3.424142e-02
  5.581402e-01    1.780946e+00   3.421764e-02
  5.603507e-01    1.739114e+00   3.373981e-02
  5.625611e-01    1.748609e+00   3.375835e-02
  5.647716e-01    1.760437e+00   3.379880e-02
  5.669821e-01    1.752520e+00   3.365001e-02
  5.691925e-01    1.775553e+00   3.379773e-02
  5.714030e-01    1.767284e+00   3.364702e-02
  5.736134e-01    1.752256e+00   3.343243e-02
  5.758239e-01    1.683198e+00   3.269706e-02
  5.780343e-01    1.681917e+00   3.261546e-02
  5.802448e-01    1.688818e+00   3.261391e-02
  5.824552e-01    1.678929e+00   3.245003e-02
  5.846657e-01    1.596821e+00   3.158066e-02
  5.868762e-01    1.599073e+00   3.153709e-02
  5.890866e-01    1.598480e+00   3.146584e-02
  5.912971e-01    1.594292e+00   3.135952e-02
  5.935075e-01    1.640750e+00   3.174741e-02
  5.957180e-01    1.643722e+00   3.171096e-02
  5.979284e-01    1.670061e+00   3.189876e-02
  6.001389e-01    1.663352e+00   3.176980e-02
  6.023494e-01    1.663441e+00   3.170615e-02
  6.045598e-01    1.649219e+00   3.150604e-02
  6.067703e-01    1.656613e+00   3.151310e-02
  6.089807e-01    1.639164e+00   3.128366e-02
  6.111912e-01    1.621196e+00   3.104961e-02
  6.134016e-01    1.654610e+00   3.130538e-02
  6.156121e-01    1.660434e+00   3.129809e-02
  6.178226e-01    1.677258e+00   3.139398e-02
  6.200330e-01    1.671327e+00   3.127659e-02
  6.222435e-01    1.678851e+00   3.128484e-02
  6.244539e-01    1.716513e+00   3.157184e-02
  6.266644e-01    1.716035e+00   3.150588e-02
  6.288748e-01    1.711527e+00   3.140323e-02
  6.310853e-01    1.690185e+00   3.114624e-02
  6.332957e-01    1.648103e+00   3.069667e-02
  6.355062e-01    1.679272e+00   3.092538e-02
  6.377167e-01    1.687863e+00   3.094489e-02
  6.399271e-01    1.707798e+00   3.106746e-02
  6.421376e-01    1.696350e+00   3.090406e-02
  6.443480e-01    1.643321e+00   3.035933e-02
  6.465585e-01    1.671399e+00   3.055958e-02
  6.487689e-01    1.664877e+00   3.044231e-02
  6.509794e-01    1.664582e+00   3.038219e-02
  6.531899e-01    1.653337e+00   3.022246e-02
  6.554003e-01    1.638638e+00   3.003125e-02
  6.576108e-01    1.584105e+00   2.947234e-02
  6.598212e-01    1.555200e+00   2.914794e-02
  6.620317e-01    1.558192e+00   2.912189e-02
  6.642421e-01    1.544450e+00   2.893954e-02
  6.664526e-01    1.578870e+00   2.920633e-02
  6.686630e-01    1.589148e+00   2.924708e-02
  6.708735e-01    1.590430e+00   2.920519e-02
  6.730840e-01    1.599140e+00   2.923167e-02
  6.752944e-01    1.583334e+00   2.903395e-02
  6.775049e-01    1.571986e+00   2.887719e-02
  6.797153e-01    1.557592e+00   2.869263e-02
  6.819258e-01    1.557088e+00   2.863624e-02
  6.841362e-01    1.592220e+00   2.890542e-02
  6.863467e-01    1.574041e+00   2.868846e-02
  6.885572e-01    1.570797e+00   2.860752e-02
  6.907676e-01    1.577574e+00   2.861781e-02
  6.929781e-01    1.566521e+00   2.846669e-02
  6.951885e-01    1.561470e+00   2.837042e-02
  6.973990e-01    1.569806e+00   2.839575e-02
  6.996094e-01    1.590054e+00   2.852801e-02
  7.018199e-01    1.589659e+00   2.847442e-02
  7.040303e-01    1.568119e+00   2.823115e-02
  7.062408e-01    1.587358e+00   2.835405e-02
  7.084513e-01    1.575743e+00   2.820101e-02
  7.106617e-01    1.574771e+00   2.814329e-02
  7.128722e-01    1.585089e+00   2.818651e-02
  7.150826e-01    1.608100e+00   2.834143e-02
  7.172931e-01    1.573278e+00   2.798457e-02
  7.195035e-01    1.607292e+00   2.823682e-02
  7.217140e-01    1.561422e+00   2.788026e-02
  7.239245e-01    1.531046e+00   2.783129e-02
  7.261349e-01    1.539612e+00   2.801644e-02
  7.283454e-01    1.530194e+00   2.800198e-02
  7.305558e-01    1.570166e+00   2.841927e-02
  7.327663e-01    1.557378e+00   2.834558e-02
  7.349767e-01    1.591105e+00   2.866731e-02
  7.371872e-01    1.608687e+00   2.881398e-02
  7.393976e-01    1.547006e+00   2.824205e-02
  7.416081e-01    1.525068e+00   2.802517e-02
  7.438186e-01    1.549665e+00   2.810708e-02
  7.460290e-01    1.579102e+00   2.807814e-02
  7.482395e-01    1.553207e+00   2.767698e-02
  7.504499e-01    1.563625e+00   2.763384e-02
  7.526604e-01    1.543229e+00   2.733763e-02
  7.548708e-01    1.547859e+00   2.728997e-02
  7.570813e-01    1.559608e+00   2.734259e-02
  7.592918e-01    1.547171e+00   2.719850e-02
  7.615022e-01    1.570381e+00   2.736798e-02
  7.637127e-01    1.597803e+00   2.757290e-02
  7.659231e-01    1.535796e+00   2.700097e-02
  7.681336e-01    1.548963e+00   2.708512e-02
  7.703440e-01    1.553979e+00   2.709793e-02
  7.725545e-01    1.554520e+00   2.707196e-02
  7.747650e-01    1.627485e+00   2.766118e-02
  7.769754e-01    1.557365e+00   2.700635e-02
  7.791859e-01    1.531185e+00   2.672566e-02
  7.813963e-01    1.565663e+00   2.697248e-02
  7.836068e-01    1.571165e+00   2.696808e-02
  7.858172e-01    1.585963e+00   2.704410e-02
  7.880277e-01    1.609534e+00   2.719252e-02
  7.902381e-01    1.579653e+00   2.688998e-02
  7.924486e-01    1.605424e+00   2.705821e-02
  7.946591e-01    1.609423e+00   2.704345e-02
  7.968695e-01    1.652240e+00   2.735182e-02
  7.990800e-01    1.627857e+00   2.710073e-02
  8.012904e-01    1.606730e+00   2.687770e-02
  8.035009e-01    1.627479e+00   2.700256e-02
  8.057113e-01    1.633360e+00   2.700452e-02
  8.079218e-01    1.682618e+00   2.736140e-02
  8.101323e-01    1.641011e+00   2.697513e-02
  8.123427e-01    1.626443e+00   2.680933e-02
  8.145532e-01    1.610271e+00   2.663007e-02
  8.167636e-01    1.633621e+00   2.677733e-02
  8.189741e-01    1.663820e+00   2.697867e-02
  8.211845e-01    1.654048e+00   2.685424e-02
  8.233950e-01    1.653382e+00   2.680518e-02
  8.256054e-01    1.670444e+00   2.689847e-02
  8.278159e-01    1.630024e+00   2.652719e-02
  8.300264e-01    1.668127e+00   2.679195e-02
  8.322368e-01    1.685541e+00   2.688771e-02
  8.344473e-01    1.690227e+00   2.688100e-02
  8.366577e-01    1.669874e+00   2.667570e-02
  8.388682e-01    1.656949e+00   2.652978e-02
  8.410786e-01    1.635875e+00   2.631853e-02
  8.432891e-01    1.626805e+00   2.620375e-02
  8.454996e-01    1.643772e+00   2.629837e-02
  8.477100e-01    1.650566e+00   2.631083e-02
  8.499205e-01    1.624241e+00   2.605920e-02
  8.521309e-01    1.607383e+00   2.588317e-02
  8.543414e-01    1.654374e+00   2.621782e-02
  8.565518e-01    1.642080e+00   2.607958e-02
  8.587623e-01    1.624818e+00   2.590172e-02
  8.609727e-01    1.635113e+00   2.594337e-02
  8.631832e-01    1.636451e+00   2.591398e-02
  8.653937e-01    1.617941e+00   2.572739e-02
  8.676041e-01    1.623162e+00   2.573000e-02
  8.698146e-01    1.623897e+00   2.569647e-02
  8.720250e-01    1.633500e+00   2.573307e-02
  8.742355e-01    1.592560e+00   2.536989e-02
  8.764459e-01    1.569939e+00   2.515062e-02
  8.786564e-01    1.558596e+00   2.502225e-02
  8.808669e-01    1.548202e+00   2.490086e-02
  8.830773e-01    1.574446e+00   2.507322e-02
  8.852878e-01    1.578176e+00   2.506527e-02
  8.874982e-01    1.591138e+00   2.513146e-02
  8.897087e-01    1.601167e+00   2.517286e-02
  8.919191e-01    1.575932e+00   2.493625e-02
  8.941296e-01    1.568844e+00   2.484317e-02
  8.963401e-01    1.595228e+00   2.501484e-02
  8.985505e-01    1.637571e+00   2.530725e-02
  9.007610e-01    1.641389e+00   2.529954e-02
  9.029714e-01    1.582331e+00   2.480458e-02
  9.051819e-01    1.594789e+00   2.486487e-02
  9.073923e-01    1.582089e+00   2.472930e-02
  9.096028e-01    1.577961e+00   2.466234e-02
  9.118132e-01    1.571062e+00   2.457249e-02
  9.140237e-01    1.571997e+00   2.454348e-02
  9.162342e-01    1.594819e+00   2.468651e-02
  9.184446e-01    1.579826e+00   2.453466e-02
  9.206551e-01    1.626112e+00   2.485559e-02
  9.228655e-01    1.613530e+00   2.472386e-02
  9.250760e-01    1.610852e+00   2.466788e-02
  9.272864e-01    1.587512e+00   2.445443e-02
  9.294969e-01    1.579261e+00   2.435523e-02
  9.317074e-01    1.580910e+00   2.433352e-02
  9.339178e-01    1.559588e+00   2.413584e-02
  9.361283e-01    1.614013e+00   2.451718e-02
  9.383387e-01    1.630523e+00   2.460873e-02
  9.405492e-01    1.611992e+00   2.443435e-02
  9.427596e-01    1.591757e+00   2.424552e-02
  9.449701e-01    1.642214e+00   2.459335e-02
  9.471805e-01    1.672652e+00   2.478506e-02
  9.493910e-01    1.646868e+00   2.455956e-02
  9.516015e-01    1.644813e+00   2.450993e-02
  9.538119e-01    1.681399e+00   2.474708e-02
  9.560224e-01    1.724830e+00   2.502937e-02
  9.582328e-01    1.712998e+00   2.490992e-02
  9.604433e-01    1.742340e+00   2.508677e-02
  9.626537e-01    1.779877e+00   2.532148e-02
  9.648642e-01    1.797143e+00   2.540915e-02
  9.670747e-01    1.826151e+00   2.557806e-02
  9.692851e-01    1.833276e+00   2.559387e-02
  9.714956e-01    1.849372e+00   2.566973e-02
  9.737060e-01    1.851976e+00   2.565405e-02
  9.759165e-01    1.817163e+00   2.537597e-02
  9.781269e-01    1.804679e+00   2.525556e-02
  9.803374e-01    1.803598e+00   2.521307e-02
  9.825478e-01    1.825363e+00   2.533127e-02
  9.847583e-01    1.843879e+00   2.542487e-02
  9.869688e-01    1.829472e+00   2.529145e-02
  9.891792e-01    1.800653e+00   2.505811e-02
  9.913897e-01    1.793592e+00   2.497516e-02
  9.936001e-01    1.792912e+00   2.493776e-02
  9.958106e-01    1.733699e+00   2.448918e-02
  9.980210e-01    1.675903e+00   2.404626e-02
  1.000231e+00    1.670315e+00   2.413765e-02
  1.002442e+00    1.626640e+00   2.394656e-02
  1.004652e+00    1.616117e+00   2.393554e-02
  1.006863e+00    1.623923e+00   2.404307e-02
  1.009073e+00    1.616267e+00   2.402304e-02
  1.011284e+00    1.584596e+00   2.381832e-02
  1.013494e+00    1.546929e+00   2.355686e-02
  1.015705e+00    1.564807e+00   2.371497e-02
  1.017915e+00    1.558336e+00   2.368221e-02
  1.020126e+00    1.552715e+00   2.365543e-02
  1.022336e+00    1.541236e+00   2.357945e-02
  1.024547e+00    1.536136e+00   2.355156e-02
  1.026757e+00    1.524752e+00   2.347245e-02
  1.028967e+00    1.504626e+00   2.332459e-02
  1.031178e+00    1.524039e+00   2.348072e-02
  1.033388e+00    1.524528e+00   2.348954e-02
  1.035599e+00    1.508997e+00   2.337298e-02
  1.037809e+00    1.533430e+00   2.356469e-02
  1.040020e+00    1.554012e+00   2.372361e-02
  1.042230e+00    1.550580e+00   2.369936e-02
  1.044441e+00    1.516014e+00   2.343351e-02
  1.046651e+00    1.475471e+00   2.311819e-02
  1.048862e+00    1.522476e+00   2.348276e-02
  1.051072e+00    1.496145e+00   2.327647e-02
  1.053282e+00    1.480827e+00   2.315606e-02
  1.055493e+00    1.468853e+00   2.305797e-02
  1.057703e+00    1.490229e+00   2.322364e-02
  1.059914e+00    1.456871e+00   2.295802e-02
  1.062124e+00    1.467075e+00   2.303425e-02
  1.064335e+00    1.503016e+00   2.331122e-02
  1.066545e+00    1.501830e+00   2.329601e-02
  1.068756e+00    1.488213e+00   2.318641e-02
  1.070966e+00    1.471504e+00   2.304936e-02
  1.073177e+00    1.487843e+00   2.317086e-02
  1.075387e+00    1.548324e+00   2.363176e-02
  1.077597e+00    1.561016e+00   2.372095e-02
  1.079808e+00    1.546711e+00   2.347559e-02
  1.082018e+00    1.502656e+00   2.294723e-02
  1.084229e+00    1.567248e+00   2.332120e-02
  1.086439e+00    1.655419e+00   2.387499e-02
  1.088650e+00    1.643970e+00   2.371186e-02
  1.090860e+00    1.620574e+00   2.347113e-02
  1.093071e+00    1.622924e+00   2.342238e-02
  1.095281e+00    1.600789e+00   2.320185e-02
  1.097492e+00    1.593206e+00   2.308919e-02
  1.099702e+00    1.577115e+00   2.291851e-02
  1.101912e+00    1.594134e+00   2.299043e-02
  1.104123e+00    1.586664e+00   2.288584e-02
  1.106333e+00    1.485436e+00   2.209853e-02
  1.108544e+00    1.470565e+00   2.194273e-02
  1.110754e+00    1.449772e+00   2.174369e-02
  1.112965e+00    1.428893e+00   2.154591e-02
  1.115175e+00    1.396161e+00   2.125687e-02
  1.117386e+00    1.390233e+00   2.117277e-02
  1.119596e+00    1.407706e+00   2.126760e-02
  1.121807e+00    1.412443e+00   2.126451e-02
  1.124017e+00    1.380449e+00   2.098599e-02
  1.126228e+00    1.393882e+00   2.105221e-02
  1.128438e+00    1.395980e+00   2.103138e-02
  1.130648e+00    1.366029e+00   2.077061e-02
  1.132859e+00    1.394699e+00   2.095310e-02
  1.135069e+00    1.379362e+00   2.080304e-02
  1.137280e+00    1.340611e+00   2.047632e-02
  1.139490e+00    1.365864e+00   2.063546e-02
  1.141701e+00    1.388437e+00   2.077211e-02
  1.143911e+00    1.358769e+00   2.051743e-02
  1.146122e+00    1.358431e+00   2.048311e-02
  1.148332e+00    1.358489e+00   2.045192e-02
  1.150543e+00    1.347989e+00   2.034222e-02
  1.152753e+00    1.352980e+00   2.034926e-02
  1.154963e+00    1.364116e+00   2.040191e-02
  1.157174e+00    1.346400e+00   2.023912e-02
  1.159384e+00    1.362983e+00   2.033364e-02
  1.161595e+00    1.336957e+00   2.010907e-02
  1.163805e+00    1.361668e+00   2.026488e-02
  1.166016e+00    1.356779e+00   2.019916e-02
  1.168226e+00    1.369568e+00   2.026515e-02
  1.170437e+00    1.348880e+00   2.008305e-02
  1.172647e+00    1.384129e+00   2.031468e-02
  1.174858e+00    1.354759e+00   2.007002e-02
  1.177068e+00    1.344383e+00   1.996492e-02
  1.179278e+00    1.372017e+00   2.014039e-02
  1.181489e+00    1.380911e+00   2.017835e-02
  1.183699e+00    1.363849e+00   2.002567e-02
  1.185910e+00    1.374885e+00   2.007859e-02
  1.188120e+00    1.361608e+00   1.995468e-02
  1.190331e+00    1.362220e+00   1.993232e-02
  1.192541e+00    1.353554e+00   1.984145e-02
  1.194752e+00    1.368399e+00   1.992276e-02
  1.196962e+00    1.361904e+00   1.984958e-02
  1.199173e+00    1.359098e+00   1.980254e-02
  1.201383e+00    1.328667e+00   1.955265e-02
  1.203593e+00    1.345710e+00   1.965286e-02
  1.205804e+00    1.327514e+00   1.949384e-02
  1.208014e+00    1.333754e+00   1.951292e-02
  1.210225e+00    1.323221e+00   1.941063e-02
  1.212435e+00    1.365923e+00   1.969641e-02
  1.214646e+00    1.351497e+00   1.956602e-02
  1.216856e+00    1.341204e+00   1.946597e-02
  1.219067e+00    1.337631e+00   1.941568e-02
  1.221277e+00    1.336804e+00   1.938475e-02
  1.223488e+00    1.370173e+00   1.959927e-02
  1.225698e+00    1.358209e+00   1.948655e-02
  1.227909e+00    1.319034e+00   1.917364e-02
  1.230119e+00    1.311929e+00   1.909052e-02
  1.232329e+00    1.333554e+00   1.921668e-02
  1.234540e+00    1.341818e+00   1.924594e-02
  1.236750e+00    1.358907e+00   1.933773e-02
  1.238961e+00    1.348897e+00   1.923945e-02
  1.241171e+00    1.353308e+00   1.924664e-02
  1.243382e+00    1.365036e+00   1.930622e-02
  1.245592e+00    1.344478e+00   1.913625e-02
  1.247803e+00    1.331442e+00   1.901976e-02
  1.250013e+00    1.338234e+00   1.904476e-02
  1.252224e+00    1.342472e+00   1.905171e-02
  1.254434e+00    1.344007e+00   1.903892e-02
  1.256644e+00    1.332436e+00   1.893371e-02
  1.258855e+00    1.336102e+00   1.893660e-02
  1.261065e+00    1.352755e+00   1.903085e-02
  1.263276e+00    1.353003e+00   1.900963e-02
  1.265486e+00    1.341613e+00   1.890664e-02
  1.267697e+00    1.348572e+00   1.893260e-02
  1.269907e+00    1.329091e+00   1.877286e-02
  1.272118e+00    1.352766e+00   1.891668e-02
  1.274328e+00    1.361348e+00   1.895379e-02
  1.276539e+00    1.339003e+00   1.877490e-02
  1.278749e+00    1.360239e+00   1.890081e-02
  1.280959e+00    1.369022e+00   1.893905e-02
  1.283170e+00    1.362441e+00   1.887096e-02
  1.285380e+00    1.348358e+00   1.875072e-02
  1.287591e+00    1.337533e+00   1.865338e-02
  1.289801e+00    1.360052e+00   1.878843e-02
  1.292012e+00    1.344039e+00   1.866045e-02
  1.294222e+00    1.333930e+00   1.857400e-02
  1.296433e+00    1.356493e+00   1.871477e-02
  1.298643e+00    1.387099e+00   1.890804e-02
  1.300854e+00    1.386737e+00   1.888894e-02
  1.303064e+00    1.351600e+00   1.862889e-02
  1.305274e+00    1.334475e+00   1.848914e-02
  1.307485e+00    1.359949e+00   1.864317e-02
  1.309695e+00    1.377291e+00   1.873918e-02
  1.311906e+00    1.376515e+00   1.871202e-02
  1.314116e+00    1.360219e+00   1.858003e-02
  1.316327e+00    1.374044e+00   1.865233e-02
  1.318537e+00    1.386792e+00   1.871649e-02
  1.320748e+00    1.386345e+00   1.869163e-02
  1.322958e+00    1.386685e+00   1.867311e-02
  1.325169e+00    1.392310e+00   1.868961e-02
  1.327379e+00    1.390944e+00   1.865831e-02
  1.329589e+00    1.359995e+00   1.842842e-02
  1.331800e+00    1.370696e+00   1.847991e-02
  1.334010e+00    1.389327e+00   1.858413e-02
  1.336221e+00    1.395527e+00   1.860343e-02
  1.338431e+00    1.411242e+00   1.868656e-02
  1.340642e+00    1.384977e+00   1.857683e-02
  1.342852e+00    1.411956e+00   1.885986e-02
  1.345063e+00    1.416867e+00   1.894333e-02
  1.347273e+00    1.376921e+00   1.870998e-02
  1.349484e+00    1.367697e+00   1.867506e-02
  1.351694e+00    1.360825e+00   1.865087e-02
  1.353905e+00    1.364936e+00   1.869714e-02
  1.356115e+00    1.346032e+00   1.858222e-02
  1.358325e+00    1.326954e+00   1.846328e-02
  1.360536e+00    1.364708e+00   1.873574e-02
  1.362746e+00    1.374119e+00   1.880992e-02
  1.364957e+00    1.349547e+00   1.864864e-02
  1.367167e+00    1.339428e+00   1.858573e-02
  1.369378e+00    1.319337e+00   1.845175e-02
  1.371588e+00    1.351303e+00   1.867910e-02
  1.373799e+00    1.382301e+00   1.889586e-02
  1.376009e+00    1.356874e+00   1.872469e-02
  1.378220e+00    1.323355e+00   1.849448e-02
  1.380430e+00    1.315865e+00   1.844475e-02
  1.382640e+00    1.321731e+00   1.848671e-02
  1.384851e+00    1.338152e+00   1.860211e-02
  1.387061e+00    1.320912e+00   1.848217e-02
  1.389272e+00    1.298281e+00   1.832338e-02
  1.391482e+00    1.283461e+00   1.821782e-02
  1.393693e+00    1.277472e+00   1.817438e-02
  1.395903e+00    1.315861e+00   1.844393e-02
  1.398114e+00    1.302204e+00   1.834658e-02
  1.400324e+00    1.300143e+00   1.832991e-02
  1.402535e+00    1.307118e+00   1.837667e-02
  1.404745e+00    1.288125e+00   1.824031e-02
  1.406955e+00    1.258216e+00   1.802460e-02
  1.409166e+00    1.268988e+00   1.809831e-02
  1.411376e+00    1.266267e+00   1.807577e-02
  1.413587e+00    1.276314e+00   1.814352e-02
  1.415797e+00    1.287015e+00   1.821587e-02
  1.418008e+00    1.259169e+00   1.797604e-02
  1.420218e+00    1.260579e+00   1.783692e-02
  1.422429e+00    1.272108e+00   1.783292e-02
  1.424639e+00    1.256170e+00   1.765653e-02
  1.426850e+00    1.250589e+00   1.756297e-02
  1.429060e+00    1.261873e+00   1.759320e-02
  1.431270e+00    1.284852e+00   1.770807e-02
  1.433481e+00    1.316965e+00   1.788633e-02
  1.435691e+00    1.296368e+00   1.770707e-02
  1.437902e+00    1.314289e+00   1.779196e-02
  1.440112e+00    1.286600e+00   1.756796e-02
  1.442323e+00    1.295482e+00   1.759512e-02
  1.444533e+00    1.275211e+00   1.742432e-02
  1.446744e+00    1.260883e+00   1.729512e-02
  1.448954e+00    1.268174e+00   1.731487e-02
  1.451165e+00    1.263413e+00   1.725268e-02
  1.453375e+00    1.260099e+00   1.720210e-02
  1.455586e+00    1.253102e+00   1.712628e-02
  1.457796e+00    1.289558e+00   1.734589e-02
  1.460006e+00    1.294775e+00   1.735345e-02
  1.462217e+00    1.267256e+00   1.714185e-02
  1.464427e+00    1.255135e+00   1.703421e-02
  1.466638e+00    1.246372e+00   1.694955e-02
  1.468848e+00    1.265700e+00   1.705514e-02
  1.471059e+00    1.285657e+00   1.716385e-02
  1.473269e+00    1.258893e+00   1.695998e-02
  1.475480e+00    1.261747e+00   1.695547e-02
  1.477690e+00    1.277735e+00   1.703865e-02
  1.479901e+00    1.271657e+00   1.697419e-02
  1.482111e+00    1.263570e+00   1.689686e-02
  1.484321e+00    1.255678e+00   1.682099e-02
  1.486532e+00    1.261839e+00   1.683991e-02
  1.488742e+00    1.269561e+00   1.686866e-02
  1.490953e+00    1.266021e+00   1.682252e-02
  1.493163e+00    1.275101e+00   1.686034e-02
  1.495374e+00    1.275350e+00   1.684041e-02
  1.497584e+00    1.253774e+00   1.667577e-02
  1.499795e+00    1.238148e+00   1.655006e-02
  1.502005e+00    1.247741e+00   1.659248e-02
  1.504216e+00    1.249181e+00   1.658109e-02
  1.506426e+00    1.223063e+00   1.638631e-02
  1.508636e+00    1.241846e+00   1.649134e-02
  1.510847e+00    1.261867e+00   1.660186e-02
  1.513057e+00    1.272283e+00   1.664501e-02
  1.515268e+00    1.246503e+00   1.644988e-02
  1.517478e+00    1.276644e+00   1.662218e-02
  1.519689e+00    1.262122e+00   1.650235e-02
  1.521899e+00    1.241799e+00   1.634596e-02
  1.524110e+00    1.245796e+00   1.635195e-02
  1.526320e+00    1.247458e+00   1.634332e-02
  1.528531e+00    1.265108e+00   1.643864e-02
  1.530741e+00    1.262439e+00   1.640205e-02
  1.532951e+00    1.277052e+00   1.647691e-02
  1.535162e+00    1.256553e+00   1.643099e-02
  1.537372e+00    1.264324e+00   1.654901e-02
  1.539583e+00    1.239404e+00   1.641924e-02
  1.541793e+00    1.227319e+00   1.634586e-02
  1.544004e+00    1.245528e+00   1.646694e-02
  1.546214e+00    1.241607e+00   1.643949e-02
  1.548425e+00    1.237119e+00   1.641002e-02
  1.550635e+00    1.233511e+00   1.639570e-02
  1.552846e+00    1.233581e+00   1.640578e-02
  1.555056e+00    1.260382e+00   1.654129e-02
  1.557266e+00    1.311431e+00   1.675956e-02
  1.559477e+00    1.302407e+00   1.664136e-02
  1.561687e+00    1.252179e+00   1.628654e-02
  1.563898e+00    1.251479e+00   1.626477e-02
  1.566108e+00    1.260865e+00   1.630958e-02
  1.568319e+00    1.273766e+00   1.637700e-02
  1.570529e+00    1.257972e+00   1.624990e-02
  1.572740e+00    1.248960e+00   1.616391e-02
  1.574950e+00    1.263281e+00   1.622981e-02
  1.577161e+00    1.260669e+00   1.618736e-02
  1.579371e+00    1.267267e+00   1.620581e-02
  1.581582e+00    1.258101e+00   1.612720e-02
  1.583792e+00    1.256084e+00   1.609619e-02
  1.586002e+00    1.233267e+00   1.593178e-02
  1.588213e+00    1.252992e+00   1.604135e-02
  1.590423e+00    1.270117e+00   1.613034e-02
  1.592634e+00    1.228517e+00   1.584251e-02
  1.594844e+00    1.223202e+00   1.578695e-02
  1.597055e+00    1.220431e+00   1.574876e-02
  1.599265e+00    1.251925e+00   1.592984e-02
  1.601476e+00    1.267429e+00   1.600767e-02
  1.603686e+00    1.302054e+00   1.620458e-02
  1.605897e+00    1.343445e+00   1.643915e-02
  1.608107e+00    1.309877e+00   1.621237e-02
  1.610317e+00    1.311620e+00   1.620326e-02
  1.612528e+00    1.303979e+00   1.613629e-02
  1.614738e+00    1.284217e+00   1.599421e-02
  1.616949e+00    1.281593e+00   1.595845e-02
  1.619159e+00    1.267789e+00   1.585322e-02
  1.621370e+00    1.277849e+00   1.589709e-02
  1.623580e+00    1.242659e+00   1.565815e-02
  1.625791e+00    1.222811e+00   1.551420e-02
  1.628001e+00    1.192446e+00   1.530222e-02
  1.630212e+00    1.164195e+00   1.510228e-02
  1.632422e+00    1.185864e+00   1.522430e-02
  1.634632e+00    1.184641e+00   1.519913e-02
  1.636843e+00    1.195823e+00   1.525301e-02
  1.639053e+00    1.174808e+00   1.510111e-02
  1.641264e+00    1.160164e+00   1.498965e-02
  1.643474e+00    1.166916e+00   1.501579e-02
  1.645685e+00    1.146996e+00   1.487049e-02
  1.647895e+00    1.130404e+00   1.474614e-02
  1.650106e+00    1.117898e+00   1.464758e-02
  1.652316e+00    1.146611e+00   1.481800e-02
  1.654527e+00    1.166942e+00   1.493197e-02
  1.656737e+00    1.149562e+00   1.480371e-02
  1.658947e+00    1.119798e+00   1.459461e-02
  1.661158e+00    1.095369e+00   1.441850e-02
  1.663368e+00    1.121806e+00   1.457544e-02
  1.665579e+00    1.101525e+00   1.442706e-02
  1.667789e+00    1.102505e+00   1.441735e-02
  1.670000e+00    1.113231e+00   1.447183e-02
  1.672210e+00    1.070122e+00   1.417325e-02
  1.674421e+00    1.090719e+00   1.429376e-02
  1.676631e+00    1.106759e+00   1.438256e-02
  1.678842e+00    1.115460e+00   1.442312e-02
  1.681052e+00    1.119623e+00   1.443442e-02
  1.683263e+00    1.121809e+00   1.443317e-02
  1.685473e+00    1.120445e+00   1.440899e-02
  1.687683e+00    1.112123e+00   1.433975e-02
  1.689894e+00    1.128377e+00   1.442803e-02
  1.692104e+00    1.161229e+00   1.462107e-02
  1.694315e+00    1.156660e+00   1.457725e-02
  1.696525e+00    1.089657e+00   1.413342e-02
  1.698736e+00    1.061680e+00   1.393600e-02
  1.700946e+00    1.055403e+00   1.387964e-02
  1.703157e+00    1.063426e+00   1.391761e-02
  1.705367e+00    1.037488e+00   1.373246e-02
  1.707578e+00    1.042701e+00   1.375235e-02
  1.709788e+00    1.054372e+00   1.381496e-02
  1.711998e+00    1.015598e+00   1.354374e-02
  1.714209e+00    1.031820e+00   1.363708e-02
  1.716419e+00    1.040157e+00   1.367776e-02
  1.718630e+00    1.018679e+00   1.352163e-02
  1.720840e+00    1.011073e+00   1.345699e-02
  1.723051e+00    1.009891e+00   1.343535e-02
  1.725261e+00    1.014409e+00   1.345074e-02
  1.727472e+00    1.019083e+00   1.346753e-02
  1.729682e+00    9.860954e-01   1.323451e-02
  1.731893e+00    9.972392e-01   1.329523e-02
  1.734103e+00    1.004166e+00   1.332761e-02
  1.736313e+00    9.852458e-01   1.318757e-02
  1.738524e+00    9.910354e-01   1.321251e-02
  1.740734e+00    9.872336e-01   1.317353e-02
  1.742945e+00    9.901497e-01   1.317954e-02
  1.745155e+00    9.903520e-01   1.316747e-02
  1.747366e+00    9.917500e-01   1.316292e-02
  1.749576e+00    1.010483e+00   1.327282e-02
  1.751787e+00    9.721940e-01   1.300567e-02
  1.753997e+00    9.810479e-01   1.305134e-02
  1.756208e+00    9.838518e-01   1.305673e-02
  1.758418e+00    9.732056e-01   1.297277e-02
  1.760628e+00    9.699183e-01   1.293750e-02
  1.762839e+00    9.536662e-01   1.281549e-02
  1.765049e+00    9.795638e-01   1.297510e-02
  1.767260e+00    1.017274e+00   1.320928e-02
  1.769470e+00    1.043183e+00   1.336289e-02
  1.771681e+00    1.041210e+00   1.333652e-02
  1.773891e+00    1.028151e+00   1.323903e-02
  1.776102e+00    1.021333e+00   1.318172e-02
  1.778312e+00    9.680238e-01   1.282019e-02
  1.780523e+00    9.694284e-01   1.281656e-02
  1.782733e+00    1.045999e+00   1.329969e-02
  1.784944e+00    1.043984e+00   1.327332e-02
  1.787154e+00    9.989938e-01   1.297118e-02
  1.789364e+00    9.550890e-01   1.267030e-02
  1.791575e+00    9.514998e-01   1.263374e-02
  1.793785e+00    9.699353e-01   1.274284e-02
  1.795996e+00    9.770669e-01   1.277671e-02
  1.798206e+00    9.525532e-01   1.260267e-02
  1.800417e+00    9.703784e-01   1.270698e-02
  1.802627e+00    9.698094e-01   1.269098e-02
  1.804838e+00    9.363589e-01   1.245792e-02
  1.807048e+00    9.185534e-01   1.232599e-02
  1.809259e+00    9.139614e-01   1.228149e-02
  1.811469e+00    9.481254e-01   1.249358e-02
  1.813679e+00    9.905715e-01   1.275451e-02
  1.815890e+00    9.755273e-01   1.264192e-02
  1.818100e+00    9.207324e-01   1.226646e-02
  1.820311e+00    8.903894e-01   1.204788e-02
  1.822521e+00    8.714431e-01   1.190433e-02
  1.824732e+00    8.623892e-01   1.182773e-02
  1.826942e+00    8.759967e-01   1.190842e-02
  1.829153e+00    8.731125e-01   1.187719e-02
  1.831363e+00    8.705200e-01   1.184761e-02
  1.833574e+00    8.744570e-01   1.186273e-02
  1.835784e+00    8.611311e-01   1.176070e-02
  1.837994e+00    8.660939e-01   1.178288e-02
  1.840205e+00    8.589491e-01   1.172314e-02
  1.842415e+00    8.498192e-01   1.164902e-02
  1.844626e+00    8.658680e-01   1.174700e-02
  1.846836e+00    8.581993e-01   1.168349e-02
  1.849047e+00    8.705817e-01   1.175583e-02
  1.851257e+00    8.742582e-01   1.177101e-02
  1.853468e+00    8.728941e-01   1.175295e-02
  1.855678e+00    8.855650e-01   1.182895e-02
  1.857889e+00    8.857093e-01   1.182128e-02
  1.860099e+00    8.819177e-01   1.178719e-02
  1.862309e+00    8.586896e-01   1.162242e-02
  1.864520e+00    8.476159e-01   1.153869e-02
  1.866730e+00    8.451243e-01   1.151239e-02
  1.868941e+00    8.470449e-01   1.151457e-02
  1.871151e+00    8.322285e-01   1.140213e-02
  1.873362e+00    8.447725e-01   1.147645e-02
  1.875572e+00    8.524561e-01   1.151757e-02
  1.877783e+00    8.488188e-01   1.148153e-02
  1.879993e+00    8.613671e-01   1.155484e-02
  1.882204e+00    8.451574e-01   1.143470e-02
  1.884414e+00    8.495079e-01   1.145298e-02
  1.886624e+00    8.477685e-01   1.143015e-02
  1.888835e+00    8.430080e-01   1.138704e-02
  1.891045e+00    8.355630e-01   1.132578e-02
  1.893256e+00    8.435639e-01   1.136877e-02
  1.895466e+00    8.355832e-01   1.130369e-02
  1.897677e+00    8.391616e-01   1.131694e-02
  1.899887e+00    8.273824e-01   1.122627e-02
  1.902098e+00    8.408867e-01   1.130663e-02
  1.904308e+00    8.441803e-01   1.131807e-02
  1.906519e+00    8.481622e-01   1.133379e-02
  1.908729e+00    8.492951e-01   1.133059e-02
  1.910940e+00    9.317100e-01   1.185581e-02
  1.913150e+00    9.516721e-01   1.197083e-02
  1.915360e+00    8.701845e-01   1.143596e-02
  1.917571e+00    8.253868e-01   1.112678e-02
  1.919781e+00    8.275039e-01   1.113032e-02
  1.921992e+00    8.201789e-01   1.107033e-02
  1.924202e+00    8.107752e-01   1.099596e-02
  1.926413e+00    8.141266e-01   1.100837e-02
  1.928623e+00    8.238696e-01   1.106346e-02
  1.930834e+00    8.074532e-01   1.094227e-02
  1.933044e+00    8.096082e-01   1.094622e-02
  1.935255e+00    8.043867e-01   1.090056e-02
  1.937465e+00    8.017881e-01   1.087259e-02
  1.939675e+00    7.986544e-01   1.084052e-02
  1.941886e+00    7.929220e-01   1.079136e-02
  1.944096e+00    7.869564e-01   1.074059e-02
  1.946307e+00    7.901270e-01   1.075195e-02
  1.948517e+00    8.052673e-01   1.084399e-02
  1.950728e+00    8.021363e-01   1.081262e-02
  1.952938e+00    8.138200e-01   1.088089e-02
  1.955149e+00    8.188983e-01   1.090441e-02
  1.957359e+00    8.226573e-01   1.091920e-02
  1.959570e+00    8.073336e-01   1.080608e-02
  1.961780e+00    7.863709e-01   1.065500e-02
  1.963990e+00    7.715923e-01   1.054440e-02
  1.966201e+00    7.737208e-01   1.054898e-02
  1.968411e+00    7.829553e-01   1.060163e-02
  1.970622e+00    7.759491e-01   1.054409e-02
  1.972832e+00    7.729192e-01   1.051359e-02
  1.975043e+00    7.843263e-01   1.058086e-02
  1.977253e+00    7.832360e-01   1.056358e-02
  1.979464e+00    7.902721e-01   1.060082e-02
  1.981674e+00    7.722682e-01   1.046920e-02
  1.983885e+00    7.814714e-01   1.052136e-02
  1.986095e+00    7.814213e-01   1.051134e-02
  1.988305e+00    7.727578e-01   1.044302e-02
  1.990516e+00    7.853453e-01   1.051780e-02
  1.992726e+00    7.835079e-01   1.049577e-02
  1.994937e+00    7.715651e-01   1.040539e-02
  1.997147e+00    7.658345e-01   1.035699e-02
  1.999358e+00    7.701273e-01   1.037617e-02
  2.001568e+00    7.781816e-01   1.041943e-02
  2.003779e+00    7.691951e-01   1.034721e-02
  2.005989e+00    7.472638e-01   1.018681e-02
  2.008200e+00    7.515365e-01   1.020448e-02
  2.010410e+00    7.749525e-01   1.035046e-02
  2.012621e+00    7.645989e-01   1.026941e-02
  2.014831e+00    7.769211e-01   1.034028e-02
  2.017041e+00    7.949371e-01   1.044893e-02
  2.019252e+00    7.754547e-01   1.031006e-02
  2.021462e+00    7.890766e-01   1.039057e-02
  2.023673e+00    7.590401e-01   1.018154e-02
  2.025883e+00    7.667259e-01   1.022341e-02
  2.028094e+00    7.592731e-01   1.016398e-02
  2.030304e+00    7.506762e-01   1.009681e-02
  2.032515e+00    7.611670e-01   1.015781e-02
  2.034725e+00    7.609152e-01   1.014668e-02
  2.036936e+00    7.707837e-01   1.020285e-02
  2.039146e+00    7.666817e-01   1.016604e-02
  2.041356e+00    7.727476e-01   1.019642e-02
  2.043567e+00    7.699793e-01   1.016875e-02
  2.045777e+00    7.638713e-01   1.011903e-02
  2.047988e+00    7.657701e-01   1.012218e-02
  2.050198e+00    7.580700e-01   1.006269e-02
  2.052409e+00    7.676903e-01   1.011861e-02
  2.054619e+00    7.818347e-01   1.020387e-02
  2.056830e+00    8.020823e-01   1.032775e-02
  2.059040e+00    7.692226e-01   1.010639e-02
  2.061251e+00    7.721267e-01   1.011809e-02
  2.063461e+00    7.655783e-01   1.006741e-02
  2.065671e+00    7.597147e-01   1.002000e-02
  2.067882e+00    7.711405e-01   1.008593e-02
  2.070092e+00    7.438483e-01   9.896680e-03
  2.072303e+00    7.547470e-01   9.959703e-03
  2.074513e+00    7.655826e-01   1.002152e-02
  2.076724e+00    7.557490e-01   9.947407e-03
  2.078934e+00    7.644758e-01   9.995537e-03
  2.081145e+00    7.616505e-01   9.967867e-03
  2.083355e+00    7.559373e-01   9.921141e-03
  2.085566e+00    7.652864e-01   9.973248e-03
  2.087776e+00    7.456669e-01   9.835041e-03
  2.089986e+00    7.379758e-01   9.775416e-03
  2.092197e+00    7.454864e-01   9.815997e-03
  2.094407e+00    7.464778e-01   9.813257e-03
  2.096618e+00    7.267572e-01   9.673906e-03
  2.098828e+00    7.587038e-01   9.874772e-03
  2.101039e+00    7.518458e-01   9.820964e-03
  2.103249e+00    7.460876e-01   9.774515e-03
  2.105460e+00    7.429224e-01   9.744680e-03
  2.107670e+00    7.318395e-01   9.662942e-03
  2.109881e+00    7.348350e-01   9.673509e-03
  2.112091e+00    7.267908e-01   9.611414e-03
  2.114301e+00    7.322312e-01   9.638485e-03
  2.116512e+00    7.231501e-01   9.569752e-03
  2.118722e+00    7.229593e-01   9.559649e-03
  2.120933e+00    7.233003e-01   9.553019e-03
  2.123143e+00    7.402557e-01   9.655298e-03
  2.125354e+00    7.451313e-01   9.678368e-03
  2.127564e+00    7.322509e-01   9.585514e-03
  2.129775e+00    7.442893e-01   9.655105e-03
  2.131985e+00    7.045081e-01   9.384527e-03
  2.134196e+00    7.129120e-01   9.431748e-03
  2.136406e+00    7.131170e-01   9.424360e-03
  2.138617e+00    7.022388e-01   9.343792e-03
  2.140827e+00    7.125172e-01   9.428019e-03
  2.143037e+00    6.983498e-01   9.379023e-03
  2.145248e+00    7.128936e-01   9.498279e-03
  2.147458e+00    7.143682e-01   9.523354e-03
  2.149669e+00    7.079591e-01   9.492430e-03
  2.151879e+00    7.152498e-01   9.550489e-03
  2.154090e+00    7.131186e-01   9.543627e-03
  2.156300e+00    7.167734e-01   9.574734e-03
  2.158511e+00    6.982880e-01   9.455767e-03
  2.160721e+00    6.970673e-01   9.452300e-03
  2.162932e+00    7.129855e-01   9.563397e-03
  2.165142e+00    7.086500e-01   9.537333e-03
  2.167352e+00    6.986245e-01   9.472540e-03
  2.169563e+00    6.907383e-01   9.420875e-03
  2.171773e+00    6.857213e-01   9.389026e-03
  2.173984e+00    7.110981e-01   9.562599e-03
  2.176194e+00    7.013975e-01   9.498388e-03
  2.178405e+00    7.070971e-01   9.537583e-03
  2.180615e+00    6.998210e-01   9.489075e-03
  2.182826e+00    7.033444e-01   9.513620e-03
  2.185036e+00    7.020794e-01   9.505118e-03
  2.187247e+00    6.908118e-01   9.428482e-03
  2.189457e+00    6.863400e-01   9.397513e-03
  2.191667e+00    6.863160e-01   9.397157e-03
  2.193878e+00    6.890253e-01   9.415145e-03
  2.196088e+00    6.859443e-01   9.393363e-03
  2.198299e+00    6.976577e-01   9.472136e-03
  2.200509e+00    6.880995e-01   9.405978e-03
  2.202720e+00    6.581594e-01   9.197928e-03
  2.204930e+00    6.749943e-01   9.313578e-03
  2.207141e+00    6.751390e-01   9.313467e-03
  2.209351e+00    6.812873e-01   9.353899e-03
  2.211562e+00    6.875547e-01   9.395191e-03
  2.213772e+00    6.864541e-01   9.331802e-03
  2.215982e+00    6.702908e-01   9.177254e-03
  2.218193e+00    6.828922e-01   9.233317e-03
  2.220403e+00    6.762403e-01   9.163644e-03
  2.222614e+00    6.753590e-01   9.136696e-03
  2.224824e+00    6.625416e-01   9.030337e-03
  2.227035e+00    6.761948e-01   9.105435e-03
  2.229245e+00    6.655733e-01   9.016756e-03
  2.231456e+00    6.586506e-01   8.954265e-03
  2.233666e+00    6.628277e-01   8.967607e-03
  2.235877e+00    6.744570e-01   9.031614e-03
  2.238087e+00    6.868037e-01   9.100266e-03
  2.240298e+00    6.840501e-01   9.068100e-03
  2.242508e+00    6.745245e-01   8.989529e-03
  2.244718e+00    6.799805e-01   9.009887e-03
  2.246929e+00    6.600678e-01   8.862659e-03
  2.249139e+00    6.500121e-01   8.782657e-03
  2.251350e+00    6.460299e-01   8.744201e-03
  2.253560e+00    6.428167e-01   8.711062e-03
  2.255771e+00    6.512465e-01   8.756706e-03
  2.257981e+00    6.716859e-01   8.881820e-03
  2.260192e+00    6.573741e-01   8.775651e-03
  2.262402e+00    6.681043e-01   8.836095e-03
  2.264613e+00    6.648765e-01   8.803875e-03
  2.266823e+00    6.589519e-01   8.754207e-03
  2.269033e+00    6.690170e-01   8.810376e-03
  2.271244e+00    6.583515e-01   8.729506e-03
  2.273454e+00    6.660268e-01   8.769958e-03
  2.275665e+00    6.558104e-01   8.692189e-03
  2.277875e+00    6.454749e-01   8.613602e-03
  2.280086e+00    6.482790e-01   8.622342e-03
  2.282296e+00    6.496004e-01   8.621776e-03
  2.284507e+00    6.683646e-01   8.735221e-03
  2.286717e+00    6.608605e-01   8.676561e-03
  2.288928e+00    6.538520e-01   8.620579e-03
  2.291138e+00    6.518370e-01   8.597914e-03
  2.293348e+00    6.452094e-01   8.544614e-03
  2.295559e+00    6.532414e-01   8.588336e-03
  2.297769e+00    6.508010e-01   8.563051e-03
  2.299980e+00    6.611381e-01   8.621432e-03
  2.302190e+00    6.366550e-01   8.451258e-03
  2.304401e+00    6.549261e-01   8.562336e-03
  2.306611e+00    6.448926e-01   8.487342e-03
  2.308822e+00    6.354170e-01   8.416489e-03
  2.311032e+00    6.446165e-01   8.470749e-03
  2.313243e+00    6.460523e-01   8.473943e-03
  2.315453e+00    6.618193e-01   8.569063e-03
  2.317663e+00    6.532931e-01   8.504534e-03
  2.319874e+00    6.391093e-01   8.403037e-03
  2.322084e+00    6.320456e-01   8.347582e-03
  2.324295e+00    6.420502e-01   8.405196e-03
  2.326505e+00    6.262339e-01   8.292094e-03
  2.328716e+00    6.418465e-01   8.386273e-03
  2.330926e+00    6.593884e-01   8.491203e-03
  2.333137e+00    6.465456e-01   8.399706e-03
  2.335347e+00    6.516874e-01   8.424097e-03
  2.337558e+00    6.484699e-01   8.394993e-03
  2.339768e+00    6.431862e-01   8.352128e-03
  2.341979e+00    6.441262e-01   8.349829e-03
  2.344189e+00    6.319390e-01   8.262100e-03
  2.346399e+00    6.522191e-01   8.385031e-03
  2.348610e+00    6.274753e-01   8.216031e-03
  2.350820e+00    6.289707e-01   8.217671e-03
  2.353031e+00    6.281391e-01   8.203981e-03
  2.355241e+00    6.378713e-01   8.259222e-03
  2.357452e+00    6.198046e-01   8.133088e-03
  2.359662e+00    6.360766e-01   8.230885e-03
  2.361873e+00    6.272628e-01   8.165455e-03
  2.364083e+00    6.343580e-01   8.203497e-03
  2.366294e+00    6.272348e-01   8.149193e-03
  2.368504e+00    6.109172e-01   8.034530e-03
  2.370714e+00    6.159589e-01   8.059606e-03
  2.372925e+00    6.287698e-01   8.134910e-03
  2.375135e+00    6.247743e-01   8.100980e-03
  2.377346e+00    6.292233e-01   8.121783e-03
  2.379556e+00    6.228011e-01   8.072333e-03
  2.381767e+00    6.176397e-01   8.030981e-03
  2.383977e+00    6.089957e-01   7.966727e-03
  2.386188e+00    6.110325e-01   7.972158e-03
  2.388398e+00    6.144978e-01   7.986821e-03
  2.390609e+00    6.219730e-01   8.027488e-03
  2.392819e+00    6.106917e-01   7.946621e-03
  2.395029e+00    6.055192e-01   7.905299e-03
  2.397240e+00    6.020785e-01   7.875006e-03
  2.399450e+00    6.083797e-01   7.908354e-03
  2.401661e+00    6.000085e-01   7.846126e-03
  2.403871e+00    6.109219e-01   7.909434e-03
  2.406082e+00    5.990369e-01   7.824727e-03
  2.408292e+00    6.042482e-01   7.850943e-03
  2.410503e+00    6.005449e-01   7.819409e-03
  2.412713e+00    6.070878e-01   7.854078e-03
  2.414924e+00    6.168384e-01   7.909360e-03
  2.417134e+00    5.941907e-01   7.755247e-03
  2.419344e+00    5.888540e-01   7.713003e-03
  2.421555e+00    5.968853e-01   7.757951e-03
  2.423765e+00    5.894035e-01   7.701848e-03
  2.425976e+00    6.029316e-01   7.781891e-03
  2.428186e+00    5.820860e-01   7.639085e-03
  2.430397e+00    5.852076e-01   7.652117e-03
  2.432607e+00    5.910860e-01   7.683219e-03
  2.434818e+00    5.803084e-01   7.605398e-03
  2.437028e+00    5.691864e-01   7.525180e-03
  2.439239e+00    5.814966e-01   7.598510e-03
  2.441449e+00    5.919877e-01   7.659589e-03
  2.443659e+00    5.772485e-01   7.556346e-03
  2.445870e+00    5.867195e-01   7.630323e-03
  2.448080e+00    5.718275e-01   7.567324e-03
  2.450291e+00    5.772918e-01   7.619995e-03
  2.452501e+00    5.772342e-01   7.630802e-03
  2.454712e+00    5.724141e-01   7.607279e-03
  2.456922e+00    5.777362e-01   7.649244e-03
  2.459133e+00    5.600842e-01   7.536874e-03
  2.461343e+00    5.659741e-01   7.580727e-03
  2.463554e+00    5.763758e-01   7.653598e-03
  2.465764e+00    5.515764e-01   7.490240e-03
  2.467975e+00    5.690107e-01   7.609981e-03
  2.470185e+00    5.645890e-01   7.582644e-03
  2.472395e+00    5.523512e-01   7.501216e-03
  2.474606e+00    5.523927e-01   7.503078e-03
  2.476816e+00    5.464987e-01   7.463651e-03
  2.479027e+00    5.474530e-01   7.471018e-03
  2.481237e+00    5.462630e-01   7.463177e-03
  2.483448e+00    5.428294e-01   7.439981e-03
  2.485658e+00    5.540431e-01   7.516285e-03
  2.487869e+00    5.764219e-01   7.666614e-03
  2.490079e+00    5.756907e-01   7.661235e-03
  2.492290e+00    5.661386e-01   7.596965e-03
  2.494500e+00    5.438819e-01   7.445404e-03
  2.496710e+00    5.422327e-01   7.433400e-03
  2.498921e+00    5.406286e-01   7.421386e-03
  2.501131e+00    5.494112e-01   7.480481e-03
  2.503342e+00    5.299699e-01   7.345680e-03
  2.505552e+00    5.343448e-01   7.374778e-03
  2.507763e+00    5.283805e-01   7.332114e-03
  2.509973e+00    5.203285e-01   7.274643e-03
  2.512184e+00    5.338666e-01   7.367039e-03
  2.514394e+00    5.277002e-01   7.315011e-03
  2.516605e+00    5.239010e-01   7.241684e-03
  2.518815e+00    5.223455e-01   7.202702e-03
  2.521025e+00    5.280524e-01   7.220906e-03
  2.523236e+00    5.349769e-01   7.249981e-03
  2.525446e+00    5.232759e-01   7.154678e-03
  2.527657e+00    5.272039e-01   7.166842e-03
  2.529867e+00    5.359404e-01   7.211656e-03
  2.532078e+00    5.286152e-01   7.147127e-03
  2.534288e+00    5.137531e-01   7.032194e-03
  2.536499e+00    5.335934e-01   7.154644e-03
  2.538709e+00    5.326572e-01   7.137281e-03
  2.540920e+00    5.243182e-01   7.070562e-03
  2.543130e+00    5.253472e-01   7.067112e-03
  2.545340e+00    5.223258e-01   7.036710e-03
  2.547551e+00    5.138257e-01   6.969361e-03
  2.549761e+00    5.175583e-01   6.985097e-03
  2.551972e+00    5.199730e-01   6.992019e-03
  2.554182e+00    5.144782e-01   6.945888e-03
  2.556393e+00    5.115975e-01   6.917383e-03
  2.558603e+00    5.160037e-01   6.938068e-03
  2.560814e+00    5.115822e-01   6.899655e-03
  2.563024e+00    5.249857e-01   6.980834e-03
  2.565235e+00    5.181155e-01   6.925494e-03
  2.567445e+00    5.245532e-01   6.958793e-03
  2.569656e+00    5.075080e-01   6.835149e-03
  2.571866e+00    5.183024e-01   6.898104e-03
  2.574076e+00    5.033440e-01   6.788681e-03
  2.576287e+00    5.176064e-01   6.875835e-03
  2.578497e+00    5.244191e-01   6.913043e-03
  2.580708e+00    5.133892e-01   6.831897e-03
  2.582918e+00    5.106983e-01   6.806226e-03
  2.585129e+00    5.169387e-01   6.839923e-03
  2.587339e+00    5.018880e-01   6.732030e-03
  2.589550e+00    4.934713e-01   6.667927e-03
  2.591760e+00    4.994272e-01   6.700405e-03
  2.593971e+00    4.995237e-01   6.693610e-03
  2.596181e+00    5.069368e-01   6.736906e-03
  2.598391e+00    5.079097e-01   6.738196e-03
  2.600602e+00    4.981377e-01   6.667211e-03
  2.602812e+00    5.114683e-01   6.748276e-03
  2.605023e+00    5.108742e-01   6.737182e-03
  2.607233e+00    5.083793e-01   6.713556e-03
  2.609444e+00    5.201682e-01   6.783641e-03
  2.611654e+00    5.051321e-01   6.677575e-03
  2.613865e+00    5.008855e-01   6.642436e-03
  2.616075e+00    5.096894e-01   6.693400e-03
  2.618286e+00    5.239615e-01   6.779335e-03
  2.620496e+00    5.116439e-01   6.692451e-03
  2.622706e+00    5.074762e-01   6.659360e-03
  2.624917e+00    5.128596e-01   6.688712e-03
  2.627127e+00    5.148883e-01   6.696105e-03
  2.629338e+00    5.079350e-01   6.644761e-03
  2.631548e+00    5.000159e-01   6.586598e-03
  2.633759e+00    5.062662e-01   6.620454e-03
  2.635969e+00    4.979438e-01   6.559159e-03
  2.638180e+00    5.021988e-01   6.580137e-03
  2.640390e+00    4.961421e-01   6.533754e-03
  2.642601e+00    5.116440e-01   6.628318e-03
  2.644811e+00    5.022387e-01   6.560022e-03
  2.647021e+00    5.040369e-01   6.565168e-03
  2.649232e+00    4.983714e-01   6.521447e-03
  2.651442e+00    5.032800e-01   6.546960e-03
  2.653653e+00    5.029865e-01   6.538236e-03
  2.655863e+00    4.985628e-01   6.502725e-03
  2.658074e+00    5.036454e-01   6.529144e-03
  2.660284e+00    5.113931e-01   6.572718e-03
  2.662495e+00    5.155306e-01   6.592398e-03
  2.664705e+00    5.138071e-01   6.574677e-03
  2.666916e+00    5.009534e-01   6.485438e-03
  2.669126e+00    4.862801e-01   6.383347e-03
  2.671337e+00    4.869097e-01   6.380946e-03
  2.673547e+00    4.945969e-01   6.424758e-03
  2.675757e+00    4.904343e-01   6.391231e-03
  2.677968e+00    4.981530e-01   6.434785e-03
  2.680178e+00    4.908476e-01   6.381047e-03
  2.682389e+00    5.007930e-01   6.438912e-03
  2.684599e+00    5.010421e-01   6.434292e-03
  2.686810e+00    4.919437e-01   6.368998e-03
  2.689020e+00    4.915728e-01   6.360302e-03
  2.691231e+00    4.887690e-01   6.335857e-03
  2.693441e+00    4.961470e-01   6.377330e-03
  2.695652e+00    4.894219e-01   6.327441e-03
  2.697862e+00    4.894047e-01   6.320996e-03
  2.700072e+00    4.849938e-01   6.286396e-03
  2.702283e+00    4.790890e-01   6.241852e-03
  2.704493e+00    4.905436e-01   6.309729e-03
  2.706704e+00    4.941196e-01   6.326254e-03
  2.708914e+00    4.963816e-01   6.334691e-03
  2.711125e+00    4.830993e-01   6.243171e-03
  2.713335e+00    4.856036e-01   6.253220e-03
  2.715546e+00    4.875560e-01   6.259338e-03
  2.717756e+00    4.750359e-01   6.172632e-03
  2.719967e+00    4.797082e-01   6.196718e-03
  2.722177e+00    4.886745e-01   6.248238e-03
  2.724387e+00    4.840806e-01   6.212689e-03
  2.726598e+00    4.912749e-01   6.252597e-03
  2.728808e+00    4.935709e-01   6.260986e-03
  2.731019e+00    4.931498e-01   6.252154e-03
  2.733229e+00    4.969419e-01   6.270239e-03
  2.735440e+00    5.032210e-01   6.303350e-03
  2.737650e+00    4.906412e-01   6.218017e-03
  2.739861e+00    4.771748e-01   6.126058e-03
  2.742071e+00    4.901446e-01   6.202933e-03
  2.744282e+00    4.916365e-01   6.206107e-03
  2.746492e+00    4.737225e-01   6.085990e-03
  2.748702e+00    4.749227e-01   6.087835e-03
  2.750913e+00    4.778794e-01   6.100988e-03
  2.753123e+00    4.664993e-01   6.021895e-03
  2.755334e+00    4.631416e-01   5.994195e-03
  2.757544e+00    4.884115e-01   6.149773e-03
  2.759755e+00    4.914191e-01   6.162740e-03
  2.761965e+00    4.865605e-01   6.126177e-03
  2.764176e+00    4.836876e-01   6.102046e-03
  2.766386e+00    4.746809e-01   6.039223e-03
  2.768597e+00    4.753816e-01   6.037832e-03
  2.770807e+00    4.668613e-01   5.977676e-03
  2.773017e+00    4.770125e-01   6.036345e-03
  2.775228e+00    4.810934e-01   6.056339e-03
  2.777438e+00    4.618911e-01   5.928527e-03
  2.779649e+00    4.718656e-01   5.986338e-03
  2.781859e+00    4.713305e-01   5.977211e-03
  2.784070e+00    4.762556e-01   6.002519e-03
  2.786280e+00    4.639556e-01   5.918813e-03
  2.788491e+00    4.748381e-01   5.981991e-03
  2.790701e+00    4.753679e-01   5.979699e-03
  2.792912e+00    4.747005e-01   5.969533e-03
  2.795122e+00    4.849429e-01   6.027814e-03
  2.797333e+00    4.789116e-01   5.984633e-03
  2.799543e+00    4.812147e-01   5.993100e-03
  2.801753e+00    4.747377e-01   5.946803e-03
  2.803964e+00    4.816342e-01   5.984113e-03
  2.806174e+00    4.736865e-01   5.928411e-03
  2.808385e+00    4.860620e-01   5.998476e-03
  2.810595e+00    4.781092e-01   5.942320e-03
  2.812806e+00    4.713679e-01   5.893678e-03
  2.815016e+00    4.706141e-01   5.884246e-03
  2.817227e+00    4.719882e-01   5.918686e-03
  2.819437e+00    4.740124e-01   5.942474e-03
  2.821648e+00    4.644632e-01   5.884561e-03
  2.823858e+00    4.683239e-01   5.914271e-03
  2.826068e+00    4.752814e-01   5.963052e-03
  2.828279e+00    4.669636e-01   5.914651e-03
  2.830489e+00    4.633112e-01   5.894766e-03
  2.832700e+00    4.866768e-01   6.044183e-03
  2.834910e+00    4.799979e-01   6.004665e-03
  2.837121e+00    4.691810e-01   5.938320e-03
  2.839331e+00    4.699506e-01   5.944413e-03
  2.841542e+00    4.720751e-01   5.958844e-03
  2.843752e+00    4.683641e-01   5.936165e-03
  2.845963e+00    4.742929e-01   5.974021e-03
  2.848173e+00    4.567654e-01   5.862691e-03
  2.850383e+00    4.652061e-01   5.916892e-03
  2.852594e+00    4.661707e-01   5.922939e-03
  2.854804e+00    4.655755e-01   5.918665e-03
  2.857015e+00    4.675531e-01   5.930784e-03
  2.859225e+00    4.716429e-01   5.956409e-03
  2.861436e+00    4.679517e-01   5.932415e-03
  2.863646e+00    4.641670e-01   5.908397e-03
  2.865857e+00    4.547112e-01   5.848266e-03
  2.868067e+00    4.668840e-01   5.926213e-03
  2.870278e+00    4.820242e-01   6.021202e-03
  2.872488e+00    4.752815e-01   5.977764e-03
  2.874698e+00    4.607744e-01   5.884801e-03
  2.876909e+00    4.481315e-01   5.802168e-03
  2.879119e+00    4.691753e-01   5.935217e-03
  2.881330e+00    4.632866e-01   5.896378e-03
  2.883540e+00    4.665590e-01   5.915771e-03
  2.885751e+00    4.687338e-01   5.927894e-03
  2.887961e+00    4.623327e-01   5.885397e-03
  2.890172e+00    4.529636e-01   5.823857e-03
  2.892382e+00    4.691542e-01   5.925205e-03
  2.894593e+00    4.693305e-01   5.924500e-03
  2.896803e+00    4.550393e-01   5.831620e-03
  2.899014e+00    4.638788e-01   5.886075e-03
  2.901224e+00    4.587259e-01   5.851301e-03
  2.903434e+00    4.680843e-01   5.908732e-03
  2.905645e+00    4.450980e-01   5.759633e-03
  2.907855e+00    4.672936e-01   5.899364e-03
  2.910066e+00    4.689101e-01   5.907476e-03
  2.912276e+00    4.614504e-01   5.858163e-03
  2.914487e+00    4.576165e-01   5.831324e-03
  2.916697e+00    4.501026e-01   5.781048e-03
  2.918908e+00    4.576310e-01   5.827191e-03
  2.921118e+00    4.500790e-01   5.776238e-03
  2.923329e+00    4.683374e-01   5.889894e-03
  2.925539e+00    4.634225e-01   5.856616e-03
  2.927749e+00    4.641285e-01   5.858735e-03
  2.929960e+00    4.570318e-01   5.811018e-03
  2.932170e+00    4.489184e-01   5.756881e-03
  2.934381e+00    4.520889e-01   5.774754e-03
  2.936591e+00    4.530741e-01   5.778460e-03
  2.938802e+00    4.565391e-01   5.797811e-03
  2.941012e+00    4.607616e-01   5.822214e-03
  2.943223e+00    4.698970e-01   5.876902e-03
  2.945433e+00    4.644031e-01   5.838686e-03
  2.947644e+00    4.555754e-01   5.778804e-03
  2.949854e+00    4.426686e-01   5.692129e-03
  2.952064e+00    4.546653e-01   5.764519e-03
  2.954275e+00    4.657761e-01   5.830070e-03
  2.956485e+00    4.676918e-01   5.837813e-03
  2.958696e+00    4.586760e-01   5.776872e-03
  2.960906e+00    4.580592e-01   5.768791e-03
  2.963117e+00    4.637811e-01   5.800175e-03
  2.965327e+00    4.543417e-01   5.736973e-03
  2.967538e+00    4.481553e-01   5.694843e-03
  2.969748e+00    4.603363e-01   5.768921e-03
  2.971959e+00    4.364307e-01   5.614044e-03
  2.974169e+00    4.504435e-01   5.700877e-03
  2.976379e+00    4.400302e-01   5.631749e-03
  2.978590e+00    4.518496e-01   5.703727e-03
  2.980800e+00    4.538141e-01   5.713321e-03
  2.983011e+00    4.501105e-01   5.687189e-03
  2.985221e+00    4.561716e-01   5.722175e-03
  2.987432e+00    4.652149e-01   5.775474e-03
  2.989642e+00    4.673322e-01   5.785942e-03
  2.991853e+00    4.558753e-01   5.711294e-03
  2.994063e+00    4.529882e-01   5.690269e-03
  2.996274e+00    4.575325e-01   5.715550e-03
  2.998484e+00    4.565550e-01   5.706734e-03
  3.000694e+00    4.534893e-01   5.684088e-03
  3.002905e+00    4.501819e-01   5.660381e-03
  3.005115e+00    4.627500e-01   5.735855e-03
  3.007326e+00    4.656356e-01   5.750508e-03
  3.009536e+00    4.504171e-01   5.652522e-03
  3.011747e+00    4.442123e-01   5.610560e-03
  3.013957e+00    4.438123e-01   5.604884e-03
  3.016168e+00    4.530624e-01   5.659729e-03
  3.018378e+00    4.515699e-01   5.647369e-03
  3.020589e+00    4.535310e-01   5.656400e-03
  3.022799e+00    4.563826e-01   5.670969e-03
  3.025010e+00    4.664455e-01   5.729883e-03
  3.027220e+00    4.521045e-01   5.637989e-03
  3.029430e+00    4.606512e-01   5.687755e-03
  3.031641e+00    4.700766e-01   5.742441e-03
  3.033851e+00    4.617707e-01   5.687945e-03
  3.036062e+00    4.647410e-01   5.703385e-03
  3.038272e+00    4.564852e-01   5.648897e-03
  3.040483e+00    4.606282e-01   5.671221e-03
  3.042693e+00    4.605858e-01   5.667658e-03
  3.044904e+00    4.528194e-01   5.615655e-03
  3.047114e+00    4.546880e-01   5.622392e-03
  3.049325e+00    4.454632e-01   5.560706e-03
  3.051535e+00    4.414321e-01   5.531125e-03
  3.053745e+00    4.493604e-01   5.575839e-03
  3.055956e+00    4.516826e-01   5.585650e-03
  3.058166e+00    4.594804e-01   5.629349e-03
  3.060377e+00    4.605079e-01   5.630828e-03
  3.062587e+00    4.404448e-01   5.502226e-03
  3.064798e+00    4.429144e-01   5.513390e-03
  3.067008e+00    4.681191e-01   5.663266e-03
  3.069219e+00    4.644758e-01   5.636625e-03
  3.071429e+00    4.513647e-01   5.552963e-03
  3.073640e+00    4.628111e-01   5.619559e-03
  3.075850e+00    4.573016e-01   5.582407e-03
  3.078060e+00    4.489785e-01   5.528242e-03
  3.080271e+00    4.437581e-01   5.492581e-03
  3.082481e+00    4.351506e-01   5.435647e-03
  3.084692e+00    4.303580e-01   5.402316e-03
  3.086902e+00    4.277026e-01   5.382448e-03
  3.089113e+00    4.392487e-01   5.451088e-03
  3.091323e+00    4.449897e-01   5.483228e-03
  3.093534e+00    4.438255e-01   5.472699e-03
  3.095744e+00    4.497956e-01   5.505993e-03
  3.097955e+00    4.427705e-01   5.459305e-03
  3.100165e+00    4.489855e-01   5.494142e-03
  3.102375e+00    4.517756e-01   5.507757e-03
  3.104586e+00    4.446324e-01   5.460548e-03
  3.106796e+00    4.392199e-01   5.423730e-03
  3.109007e+00    4.414624e-01   5.434351e-03
  3.111217e+00    4.371428e-01   5.404041e-03
  3.113428e+00    4.354349e-01   5.390102e-03
  3.115638e+00    4.468057e-01   5.456776e-03
  3.117849e+00    4.539225e-01   5.496319e-03
  3.120059e+00    4.495221e-01   5.466121e-03
  3.122270e+00    4.600389e-01   5.526384e-03
  3.124480e+00    4.528691e-01   5.479441e-03
  3.126691e+00    4.429295e-01   5.415420e-03
  3.128901e+00    4.569478e-01   5.497260e-03
  3.131111e+00    4.547259e-01   5.480026e-03
  3.133322e+00    4.447860e-01   5.416329e-03
  3.135532e+00    4.572521e-01   5.488262e-03
  3.137743e+00    4.465318e-01   5.420061e-03
  3.139953e+00    4.526836e-01   5.453544e-03
  3.142164e+00    4.431661e-01   5.407925e-03
  3.144374e+00    4.477477e-01   5.464382e-03
  3.146585e+00    4.473330e-01   5.476506e-03
  3.148795e+00    4.317070e-01   5.390652e-03
  3.151006e+00    4.467558e-01   5.492387e-03
  3.153216e+00    4.298625e-01   5.394597e-03
  3.155426e+00    4.305436e-01   5.405081e-03
  3.157637e+00    4.361681e-01   5.445780e-03
  3.159847e+00    4.338207e-01   5.435940e-03
  3.162058e+00    4.463514e-01   5.518339e-03
  3.164268e+00    4.429362e-01   5.501286e-03
  3.166479e+00    4.343737e-01   5.451468e-03
  3.168689e+00    4.395346e-01   5.487130e-03
  3.170900e+00    4.329989e-01   5.449336e-03
  3.173110e+00    4.324345e-01   5.448624e-03
  3.175321e+00    4.427152e-01   5.515530e-03
  3.177531e+00    4.235708e-01   5.397642e-03
  3.179741e+00    4.438484e-01   5.527412e-03
  3.181952e+00    4.551879e-01   5.599732e-03
  3.184162e+00    4.394436e-01   5.504255e-03
  3.186373e+00    4.386670e-01   5.500962e-03
  3.188583e+00    4.336117e-01   5.470971e-03
  3.190794e+00    4.382437e-01   5.501855e-03
  3.193004e+00    4.421618e-01   5.527662e-03
  3.195215e+00    4.353450e-01   5.486393e-03
  3.197425e+00    4.274671e-01   5.437708e-03
  3.199636e+00    4.423221e-01   5.530617e-03
  3.201846e+00    4.319533e-01   5.464829e-03
  3.204056e+00    4.213663e-01   5.398289e-03
  3.206267e+00    4.341333e-01   5.480303e-03
  3.208477e+00    4.313042e-01   5.463367e-03
  3.210688e+00    4.208381e-01   5.397480e-03
  3.212898e+00    4.403910e-01   5.522035e-03
  3.215109e+00    4.325992e-01   5.473718e-03
  3.217319e+00    4.346395e-01   5.487259e-03
  3.219530e+00    4.293384e-01   5.454072e-03
  3.221740e+00    4.328028e-01   5.476593e-03
  3.223951e+00    4.325348e-01   5.475376e-03
  3.226161e+00    4.308778e-01   5.465082e-03
  3.228372e+00    4.232758e-01   5.417154e-03
  3.230582e+00    4.381337e-01   5.511559e-03
  3.232792e+00    4.326378e-01   5.477136e-03
  3.235003e+00    4.280063e-01   5.447952e-03
  3.237213e+00    4.310203e-01   5.467213e-03
  3.239424e+00    4.233342e-01   5.418238e-03
  3.241634e+00    4.339426e-01   5.485845e-03
  3.243845e+00    4.340888e-01   5.486839e-03
  3.246055e+00    4.294464e-01   5.457151e-03
  3.248266e+00    4.122965e-01   5.347266e-03
  3.250476e+00    4.263866e-01   5.437570e-03
  3.252687e+00    4.146875e-01   5.362366e-03
  3.254897e+00    4.280424e-01   5.447915e-03
  3.257107e+00    4.285283e-01   5.450680e-03
  3.259318e+00    4.383634e-01   5.512646e-03
  3.261528e+00    4.349236e-01   5.490852e-03
  3.263739e+00    4.244887e-01   5.423999e-03
  3.265949e+00    4.239727e-01   5.420605e-03
  3.268160e+00    4.228589e-01   5.413040e-03
  3.270370e+00    4.222185e-01   5.408445e-03
  3.272581e+00    4.264804e-01   5.435386e-03
  3.274791e+00    4.263568e-01   5.434076e-03
  3.277002e+00    4.288910e-01   5.449640e-03
  3.279212e+00    4.359480e-01   5.493894e-03
  3.281422e+00    4.256372e-01   5.427986e-03
  3.283633e+00    4.277543e-01   5.440743e-03
  3.285843e+00    4.251220e-01   5.423675e-03
  3.288054e+00    4.223693e-01   5.405133e-03
  3.290264e+00    4.250522e-01   5.421971e-03
  3.292475e+00    4.233093e-01   5.409996e-03
  3.294685e+00    4.266858e-01   5.430899e-03
  3.296896e+00    4.253267e-01   5.421490e-03
  3.299106e+00    4.125803e-01   5.339092e-03
  3.301317e+00    4.257576e-01   5.422632e-03
  3.303527e+00    4.215143e-01   5.395107e-03
  3.305737e+00    4.119441e-01   5.332457e-03
  3.307948e+00    4.099941e-01   5.319154e-03
  3.310158e+00    4.201915e-01   5.384073e-03
  3.312369e+00    4.087601e-01   5.309440e-03
  3.314579e+00    4.221376e-01   5.394723e-03
  3.316790e+00    4.196162e-01   5.377879e-03
  3.319000e+00    4.233641e-01   5.400670e-03
  3.321211e+00    4.126079e-01   5.331005e-03
  3.323421e+00    4.283631e-01   5.430633e-03
  3.325632e+00    4.132096e-01   5.332826e-03
  3.327842e+00    4.116779e-01   5.322026e-03
  3.330052e+00    4.271067e-01   5.419771e-03
  3.332263e+00    4.180974e-01   5.361281e-03
  3.334473e+00    4.271939e-01   5.418394e-03
  3.336684e+00    4.221532e-01   5.385043e-03
  3.338894e+00    4.304445e-01   5.436820e-03
  3.341105e+00    4.217315e-01   5.380328e-03
  3.343315e+00    4.253557e-01   5.402213e-03
  3.345526e+00    4.262803e-01   5.407208e-03
  3.347736e+00    4.356848e-01   5.465080e-03
  3.349947e+00    4.273128e-01   5.411380e-03
  3.352157e+00    4.305463e-01   5.430629e-03
  3.354368e+00    4.099707e-01   5.298009e-03
  3.356578e+00    3.993229e-01   5.227744e-03
  3.358788e+00    4.078695e-01   5.282079e-03
  3.360999e+00    4.101868e-01   5.295835e-03
  3.363209e+00    4.126461e-01   5.310673e-03
  3.365420e+00    4.054447e-01   5.262641e-03
  3.367630e+00    4.044612e-01   5.255251e-03
  3.369841e+00    4.255953e-01   5.389360e-03
  3.372051e+00    4.172559e-01   5.334312e-03
  3.374262e+00    4.203220e-01   5.351448e-03
  3.376472e+00    4.099410e-01   5.282509e-03
  3.378683e+00    4.072983e-01   5.262972e-03
  3.380893e+00    4.093405e-01   5.273840e-03
  3.383103e+00    4.081884e-01   5.263734e-03
  3.385314e+00    4.093903e-01   5.269248e-03
  3.387524e+00    4.000027e-01   5.205824e-03
  3.389735e+00    4.094797e-01   5.264491e-03
  3.391945e+00    4.181219e-01   5.316079e-03
  3.394156e+00    4.146252e-01   5.289565e-03
  3.396366e+00    4.187233e-01   5.312208e-03
  3.398577e+00    4.054601e-01   5.224385e-03
  3.400787e+00    4.156165e-01   5.301380e-03
  3.402998e+00    4.156447e-01   5.339893e-03
  3.405208e+00    4.117727e-01   5.335777e-03
  3.407418e+00    3.991868e-01   5.269362e-03
  3.409629e+00    4.066612e-01   5.332484e-03
  3.411839e+00    3.947140e-01   5.265338e-03
  3.414050e+00    3.896900e-01   5.242567e-03
  3.416260e+00    3.867936e-01   5.232607e-03
  3.418471e+00    3.926179e-01   5.281254e-03
  3.420681e+00    3.877195e-01   5.256649e-03
  3.422892e+00    3.880999e-01   5.267211e-03
  3.425102e+00    3.847262e-01   5.252024e-03
  3.427313e+00    3.842516e-01   5.255935e-03
  3.429523e+00    3.775032e-01   5.216555e-03
  3.431733e+00    3.896618e-01   5.306589e-03
  3.433944e+00    3.739326e-01   5.204799e-03
  3.436154e+00    3.687183e-01   5.174472e-03
  3.438365e+00    3.742816e-01   5.219254e-03
  3.440575e+00    3.773265e-01   5.246323e-03
  3.442786e+00    3.867107e-01   5.316847e-03
  3.444996e+00    3.707573e-01   5.211486e-03
  3.447207e+00    3.797711e-01   5.279754e-03
  3.449417e+00    3.702553e-01   5.253936e-03
  3.451628e+00    3.696830e-01   5.279355e-03
  3.453838e+00    3.898529e-01   5.443241e-03
  3.456049e+00    3.707192e-01   5.332046e-03
  3.458259e+00    3.601596e-01   5.277257e-03
  3.460469e+00    3.687668e-01   5.359831e-03
  3.462680e+00    3.427689e-01   5.185870e-03
  3.464890e+00    3.648279e-01   5.367872e-03
  3.467101e+00    3.699706e-01   5.423135e-03
  3.469311e+00    3.962980e-01   5.629861e-03
  3.471522e+00    3.879202e-01   5.586743e-03
  3.473732e+00    3.974801e-01   5.671469e-03
  3.475943e+00    4.138317e-01   5.803329e-03
  3.478153e+00    4.012089e-01   5.729802e-03
  3.480364e+00    4.153966e-01   5.845812e-03
  3.482574e+00    4.189016e-01   5.886042e-03
  3.484784e+00    4.206387e-01   5.913295e-03
  3.486995e+00    4.216085e-01   5.935305e-03
  3.489205e+00    4.348520e-01   6.042661e-03
  3.491416e+00    4.598360e-01   6.229314e-03
  3.493626e+00    4.463083e-01   6.151795e-03
  3.495837e+00    4.431806e-01   6.144969e-03
  3.498047e+00    4.421462e-01   6.152285e-03
  3.500258e+00    4.452654e-01   6.188372e-03
  3.502468e+00    4.610958e-01   6.311973e-03
  3.504679e+00    4.767795e-01   6.433152e-03
  3.506889e+00    4.717736e-01   6.413843e-03
  3.509099e+00    4.696189e-01   6.413497e-03
  3.511310e+00    4.839338e-01   6.525109e-03
  3.513520e+00    4.907410e-01   6.585345e-03
  3.515731e+00    5.119478e-01   6.740923e-03
  3.517941e+00    5.114927e-01   6.752597e-03
  3.520152e+00    4.807880e-01   6.560935e-03
  3.522362e+00    4.830208e-01   6.590295e-03
  3.524573e+00    5.139662e-01   6.812547e-03
  3.526783e+00    5.207941e-01   6.871148e-03
  3.528994e+00    5.211573e-01   6.885841e-03
  3.531204e+00    5.337329e-01   6.980977e-03
  3.533414e+00    5.562453e-01   7.139168e-03
  3.535625e+00    5.513366e-01   7.120213e-03
  3.537835e+00    5.191184e-01   6.921053e-03
  3.540046e+00    5.333675e-01   7.024219e-03
  3.542256e+00    5.502734e-01   7.142376e-03
  3.544467e+00    5.325183e-01   7.033776e-03
  3.546677e+00    5.530115e-01   7.175548e-03
  3.548888e+00    5.375363e-01   7.081923e-03
  3.551098e+00    5.316386e-01   7.050257e-03
  3.553309e+00    5.452996e-01   7.148464e-03
  3.555519e+00    5.391738e-01   7.119553e-03
  3.557729e+00    5.361670e-01   7.111375e-03
  3.559940e+00    5.519330e-01   7.226930e-03
  3.562150e+00    5.393140e-01   7.155553e-03
  3.564361e+00    5.286562e-01   7.097753e-03
  3.566571e+00    5.199615e-01   7.052732e-03
  3.568782e+00    5.440353e-01   7.228389e-03
  3.570992e+00    5.228101e-01   7.099562e-03
  3.573203e+00    5.276980e-01   7.146707e-03
  3.575413e+00    5.476823e-01   7.294689e-03
  3.577624e+00    5.389586e-01   7.250550e-03
  3.579834e+00    5.404488e-01   7.274476e-03
  3.582045e+00    5.580242e-01   7.406145e-03
  3.584255e+00    5.312942e-01   7.240580e-03
  3.586465e+00    5.538468e-01   7.406817e-03
  3.588676e+00    5.426255e-01   7.345703e-03
  3.590886e+00    5.380479e-01   7.328378e-03
  3.593097e+00    5.152880e-01   7.185912e-03
  3.595307e+00    5.460457e-01   7.411301e-03
  3.597518e+00    5.606979e-01   7.524670e-03
  3.599728e+00    5.309608e-01   7.336450e-03
  3.601939e+00    5.294297e-01   7.339839e-03
  3.604149e+00    5.288513e-01   7.350103e-03
  3.606360e+00    5.412831e-01   7.450282e-03
  3.608570e+00    5.343832e-01   7.416754e-03
  3.610780e+00    5.266140e-01   7.373635e-03
  3.612991e+00    5.383254e-01   7.465184e-03
  3.615201e+00    5.366524e-01   7.463425e-03
  3.617412e+00    5.423330e-01   7.510127e-03
  3.619622e+00    5.419408e-01   7.513422e-03
  3.621833e+00    5.341669e-01   7.466021e-03
  3.624043e+00    5.536488e-01   7.610644e-03
  3.626254e+00    5.409063e-01   7.532338e-03
  3.628464e+00    5.436870e-01   7.562707e-03
  3.630675e+00    5.441995e-01   7.580568e-03
  3.632885e+00    5.418511e-01   7.578704e-03
  3.635095e+00    5.486805e-01   7.640932e-03
  3.637306e+00    5.375640e-01   7.577568e-03
  3.639516e+00    5.319995e-01   7.552751e-03
  3.641727e+00    5.416842e-01   7.635856e-03
  3.643937e+00    5.281804e-01   7.554573e-03
  3.646148e+00    5.390356e-01   7.646497e-03
  3.648358e+00    5.294095e-01   7.592721e-03
  3.650569e+00    5.232750e-01   7.563204e-03
  3.652779e+00    5.519238e-01   7.782475e-03
  3.654990e+00    5.434695e-01   7.737757e-03
  3.657200e+00    5.375095e-01   7.710130e-03
  3.659410e+00    5.320199e-01   7.685646e-03
  3.661621e+00    5.332758e-01   7.709817e-03
  3.663831e+00    5.239851e-01   7.657390e-03
  3.666042e+00    5.419776e-01   7.803028e-03
  3.668252e+00    5.271070e-01   7.710449e-03
  3.670463e+00    5.396832e-01   7.817227e-03
  3.672673e+00    5.287304e-01   7.752896e-03
  3.674884e+00    5.285062e-01   7.766607e-03
  3.677094e+00    5.338045e-01   7.821000e-03
  3.679305e+00    5.407748e-01   7.887620e-03
  3.681515e+00    5.245010e-01   7.783581e-03
  3.683726e+00    5.302866e-01   7.842119e-03
  3.685936e+00    5.540919e-01   8.032372e-03
  3.688146e+00    5.401618e-01   7.946683e-03
  3.690357e+00    5.396709e-01   7.959208e-03
  3.692567e+00    5.035768e-01   7.704221e-03
  3.694778e+00    5.186993e-01   7.834910e-03
  3.696988e+00    5.471208e-01   8.063023e-03
  3.699199e+00    5.409979e-01   8.034260e-03
  3.701409e+00    5.345506e-01   8.002812e-03
  3.703620e+00    5.234777e-01   7.935737e-03
  3.705830e+00    5.260750e-01   7.971825e-03
  3.708041e+00    5.121469e-01   7.882033e-03
  3.710251e+00    5.034047e-01   7.830801e-03
  3.712461e+00    5.269243e-01   8.028452e-03
  3.714672e+00    5.343889e-01   8.102123e-03
  3.716882e+00    5.138014e-01   7.961060e-03
  3.719093e+00    5.064928e-01   7.921184e-03
  3.721303e+00    5.006991e-01   7.892353e-03
  3.723514e+00    5.050232e-01   7.943405e-03
  3.725724e+00    5.070601e-01   7.976389e-03
  3.727935e+00    5.250636e-01   8.134277e-03
  3.730145e+00    5.241354e-01   8.144618e-03
  3.732356e+00    5.216896e-01   8.143159e-03
  3.734566e+00    5.334112e-01   8.252015e-03
  3.736776e+00    5.049354e-01   8.046303e-03
  3.738987e+00    5.204734e-01   8.187037e-03
  3.741197e+00    4.907133e-01   7.967109e-03
  3.743408e+00    5.004408e-01   8.063492e-03
  3.745618e+00    5.058753e-01   8.125366e-03
  3.747829e+00    5.228866e-01   8.279146e-03
  3.750039e+00    4.985113e-01   8.102012e-03
  3.752250e+00    5.243333e-01   8.327911e-03
  3.754460e+00    4.861338e-01   8.036943e-03
  3.756671e+00    5.058668e-01   8.217087e-03
  3.758881e+00    5.137514e-01   8.299693e-03
  3.761091e+00    5.042221e-01   8.241368e-03
  3.763302e+00    5.017841e-01   8.240432e-03
  3.765512e+00    4.952936e-01   8.205918e-03
  3.767723e+00    5.245983e-01   8.464911e-03
  3.769933e+00    5.160643e-01   8.415282e-03
  3.772144e+00    4.850446e-01   8.177641e-03
  3.774354e+00    4.919684e-01   8.255341e-03
  3.776565e+00    5.054368e-01   8.387463e-03
  3.778775e+00    5.090336e-01   8.437217e-03
  3.780986e+00    5.153030e-01   8.509659e-03
  3.783196e+00    5.306469e-01   8.656145e-03
  3.785407e+00    5.102170e-01   8.508490e-03
  3.787617e+00    4.790623e-01   8.264869e-03
  3.789827e+00    4.987650e-01   8.453511e-03
  3.792038e+00    5.151392e-01   8.612351e-03
  3.794248e+00    5.086101e-01   8.578842e-03
  3.796459e+00    5.064777e-01   8.582359e-03
  3.798669e+00    4.853380e-01   8.422387e-03
  3.800880e+00    4.920275e-01   8.501466e-03
  3.803090e+00    5.291674e-01   8.838908e-03
  3.805301e+00    5.097043e-01   8.697146e-03
  3.807511e+00    5.208195e-01   8.814007e-03
  3.809722e+00    4.964202e-01   8.627154e-03
  3.811932e+00    5.037587e-01   8.712987e-03
  3.814142e+00    5.310339e-01   8.969373e-03
  3.816353e+00    5.039323e-01   8.760478e-03
  3.818563e+00    5.031654e-01   8.776977e-03
  3.820774e+00    5.135902e-01   8.890975e-03
  3.822984e+00    5.132983e-01   8.912132e-03
  3.825195e+00    5.173187e-01   8.971218e-03
  3.827405e+00    4.865497e-01   8.723936e-03
  3.829616e+00    5.008988e-01   8.875750e-03
  3.831826e+00    4.962769e-01   8.858882e-03
  3.834037e+00    5.000148e-01   8.916765e-03
  3.836247e+00    4.867511e-01   8.822093e-03
  3.838457e+00    4.906738e-01   8.882514e-03
  3.840668e+00    4.901528e-01   8.902783e-03
  3.842878e+00    5.143794e-01   9.146140e-03
  3.845089e+00    5.058801e-01   9.096111e-03
  3.847299e+00    4.878393e-01   8.958039e-03
  3.849510e+00    4.947225e-01   9.046841e-03
  3.851720e+00    5.012912e-01   9.128273e-03
  3.853931e+00    4.899019e-01   9.042834e-03
  3.856141e+00    4.985704e-01   9.141612e-03
  3.858352e+00    5.192230e-01   9.348734e-03
  3.860562e+00    5.204783e-01   9.379905e-03
  3.862772e+00    4.869371e-01   9.092037e-03
  3.864983e+00    5.136510e-01   9.358161e-03
  3.867193e+00    5.076074e-01   9.323043e-03
  3.869404e+00    4.831015e-01   9.114769e-03
  3.871614e+00    5.009381e-01   9.301667e-03
  3.873825e+00    4.992847e-01   9.306714e-03
  3.876035e+00    4.872167e-01   9.214045e-03
  3.878246e+00    4.899501e-01   9.265557e-03
  3.880456e+00    4.910589e-01   9.304950e-03
  3.882667e+00    4.965862e-01   9.386678e-03
  3.884877e+00    5.005118e-01   9.453676e-03
  3.887087e+00    4.749323e-01   9.238413e-03
  3.889298e+00    4.899509e-01   9.413646e-03
  3.891508e+00    4.944002e-01   9.486919e-03
  3.893719e+00    4.764160e-01   9.343334e-03
  3.895929e+00    4.997046e-01   9.600665e-03
  3.898140e+00    4.933183e-01   9.570959e-03
  3.900350e+00    5.012475e-01   9.679982e-03
  3.902561e+00    4.879802e-01   9.583355e-03
  3.904771e+00    4.623987e-01   9.360672e-03
  3.906982e+00    4.679123e-01   9.448677e-03
  3.909192e+00    4.942190e-01   9.744299e-03
  3.911403e+00    4.998481e-01   9.834097e-03
  3.913613e+00    5.085343e-01   9.954073e-03
  3.915823e+00    4.893229e-01   9.799072e-03
  3.918034e+00    5.090418e-01   1.003064e-02
  3.920244e+00    4.794914e-01   9.770514e-03
  3.922455e+00    4.763302e-01   9.773878e-03
  3.924665e+00    4.938349e-01   9.988498e-03
  3.926876e+00    4.764702e-01   9.848010e-03
  3.929086e+00    4.686683e-01   9.803560e-03
  3.931297e+00    4.894809e-01   1.005391e-02
  3.933507e+00    5.036345e-01   1.022751e-02
  3.935718e+00    4.885916e-01   1.010255e-02
  3.937928e+00    4.770068e-01   1.001103e-02
  3.940138e+00    4.844151e-01   1.011780e-02
  3.942349e+00    5.179446e-01   1.049285e-02
  3.944559e+00    4.960010e-01   1.029850e-02
  3.946770e+00    4.814100e-01   1.017591e-02
  3.948980e+00    4.838877e-01   1.023266e-02
  3.951191e+00    4.835489e-01   1.025983e-02
  3.953401e+00    4.916866e-01   1.037734e-02
  3.955612e+00    4.768296e-01   1.025067e-02
  3.957822e+00    4.473353e-01   9.959102e-03
  3.960033e+00    4.490006e-01   1.000880e-02
  3.962243e+00    4.849476e-01   1.043465e-02
  3.964453e+00    5.024960e-01   1.065538e-02
  3.966664e+00    4.920139e-01   1.057735e-02
  3.968874e+00    4.742203e-01   1.041236e-02
  3.971085e+00    4.879184e-01   1.058363e-02
  3.973295e+00    4.893038e-01   1.062024e-02
  3.975506e+00    4.867727e-01   1.061433e-02
  3.977716e+00    4.923850e-01   1.069753e-02
  3.979927e+00    4.889198e-01   1.068206e-02
  3.982137e+00    4.852295e-01   1.066380e-02
  3.984348e+00    5.146252e-01   1.100551e-02
  3.986558e+00    4.824211e-01   1.067774e-02
  3.988768e+00    4.774834e-01   1.064580e-02
  3.990979e+00    4.800956e-01   1.069748e-02
  3.993189e+00    5.572349e-01   1.154962e-02
  3.995400e+00    4.802940e-01   1.074617e-02
  3.997610e+00    4.734402e-01   1.069861e-02
  3.999821e+00    4.889408e-01   1.091002e-02
  4.002031e+00    5.061241e-01   1.113929e-02
  4.004242e+00    4.970933e-01   1.107845e-02
  4.006452e+00    5.018212e-01   1.117108e-02
  4.008663e+00    4.900424e-01   1.107945e-02
  4.010873e+00    4.928061e-01   1.115092e-02
  4.013084e+00    5.099381e-01   1.138505e-02
  4.015294e+00    4.975362e-01   1.128738e-02
  4.017504e+00    5.084673e-01   1.145349e-02
  4.019715e+00    5.014634e-01   1.141768e-02
  4.021925e+00    4.904302e-01   1.133461e-02
  4.024136e+00    4.721105e-01   1.116406e-02
  4.026346e+00    4.501656e-01   1.094403e-02
  4.028557e+00    4.504511e-01   1.099021e-02
  4.030767e+00    5.020891e-01   1.164962e-02
  4.032978e+00    4.811249e-01   1.144997e-02
  4.035188e+00    4.776185e-01   1.145406e-02
  4.037399e+00    4.732791e-01   1.144902e-02
  4.039609e+00    4.733609e-01   1.149727e-02
  4.041819e+00    4.597170e-01   1.137783e-02
  4.044030e+00    4.569810e-01   1.139254e-02
  4.046240e+00    4.541828e-01   1.140582e-02
  4.048451e+00    4.945297e-01   1.195324e-02
  4.050661e+00    5.115870e-01   1.221066e-02
  4.052872e+00    4.835819e-01   1.192448e-02
  4.055082e+00    4.973729e-01   1.214775e-02
  4.057293e+00    4.706320e-01   1.186957e-02
  4.059503e+00    5.102769e-01   1.241584e-02
  4.061714e+00    4.388265e-01   1.156753e-02
  4.063924e+00    4.894984e-01   1.227428e-02
  4.066134e+00    4.857203e-01   1.228462e-02
  4.068345e+00    4.865335e-01   1.235407e-02
  4.070555e+00    4.643010e-01   1.212669e-02
  4.072766e+00    4.536969e-01   1.204645e-02
  4.074976e+00    4.462333e-01   1.200646e-02
  4.077187e+00    4.673971e-01   1.234899e-02
  4.079397e+00    4.775040e-01   1.254562e-02
  4.081608e+00    4.921848e-01   1.280320e-02
  4.083818e+00    4.798616e-01   1.270768e-02
  4.086029e+00    4.915633e-01   1.292943e-02
  4.088239e+00    4.741551e-01   1.276695e-02
  4.090449e+00    5.044228e-01   1.323932e-02
  4.092660e+00    4.960100e-01   1.320080e-02
  4.094870e+00    5.065699e-01   1.341478e-02
  4.097081e+00    4.881516e-01   1.324080e-02
  4.099291e+00    4.836909e-01   1.323473e-02
  4.101502e+00    4.881707e-01   1.334537e-02
  4.103712e+00    4.839219e-01   1.333684e-02
  4.105923e+00    4.855539e-01   1.341089e-02
  4.108133e+00    4.755330e-01   1.332299e-02
  4.110344e+00    5.050988e-01   1.378342e-02
  4.112554e+00    4.511396e-01   1.307788e-02
  4.114764e+00    4.826969e-01   1.358187e-02
  4.116975e+00    5.154483e-01   1.409032e-02
  4.119185e+00    4.894032e-01   1.378575e-02
  4.121396e+00    4.573461e-01   1.338139e-02
  4.123606e+00    4.603603e-01   1.348071e-02
  4.125817e+00    4.707718e-01   1.368934e-02
  4.128027e+00    4.872515e-01   1.398535e-02
  4.130238e+00    5.028064e-01   1.426795e-02
  4.132448e+00    4.681514e-01   1.382714e-02
  4.134659e+00    4.952569e-01   1.428302e-02
  4.136869e+00    4.824794e-01   1.416051e-02
  4.139080e+00    5.029523e-01   1.452287e-02
  4.141290e+00    4.714024e-01   1.412234e-02
  4.143500e+00    4.498700e-01   1.385963e-02
  4.145711e+00    4.812068e-01   1.440124e-02
  4.147921e+00    4.605419e-01   1.415314e-02
  4.150132e+00    4.782591e-01   1.449161e-02
  4.152342e+00    4.748345e-01   1.450975e-02
  4.154553e+00    4.723547e-01   1.454053e-02
  4.156763e+00    4.900185e-01   1.488322e-02
  4.158974e+00    4.289969e-01   1.399580e-02
  4.161184e+00    4.565119e-01   1.450917e-02
  4.163395e+00    4.868008e-01   1.505909e-02
  4.165605e+00    5.482290e-01   1.606442e-02
  4.167815e+00    5.442860e-01   1.609007e-02
  4.170026e+00    4.986929e-01   1.548233e-02
  4.172236e+00    4.698064e-01   1.510878e-02
  4.174447e+00    5.075048e-01   1.578848e-02
  4.176657e+00    5.002651e-01   1.576136e-02
  4.178868e+00    5.176954e-01   1.612399e-02
  4.181078e+00    4.696434e-01   1.544440e-02
  4.183289e+00    4.817362e-01   1.573109e-02
  4.185499e+00    4.618241e-01   1.549367e-02
  4.187710e+00    4.257712e-01   1.496371e-02
  4.189920e+00    4.525918e-01   1.552062e-02
  4.192130e+00    4.682721e-01   1.588376e-02
  4.194341e+00    4.778199e-01   1.614327e-02
  4.196551e+00    4.735819e-01   1.617328e-02
  4.198762e+00    4.908280e-01   1.656969e-02
  4.200972e+00    4.485441e-01   1.594245e-02
  4.203183e+00    4.387444e-01   1.587123e-02
  4.205393e+00    4.457340e-01   1.610349e-02
  4.207604e+00    4.664876e-01   1.658671e-02
  4.209814e+00    4.610040e-01   1.660187e-02
  4.212025e+00    4.976656e-01   1.737167e-02
  4.214235e+00    5.367506e-01   1.816863e-02
  4.216445e+00    5.063654e-01   1.777486e-02
  4.218656e+00    5.001071e-01   1.779696e-02
  4.220866e+00    5.125843e-01   1.815095e-02
  4.223077e+00    5.231280e-01   1.847775e-02
  4.225287e+00    4.546158e-01   1.736096e-02
  4.227498e+00    5.147590e-01   1.861821e-02
  4.229708e+00    5.088293e-01   1.866131e-02
  4.231919e+00    4.979053e-01   1.861264e-02
  4.234129e+00    5.224292e-01   1.922547e-02
  4.236340e+00    5.011327e-01   1.899057e-02
  4.238550e+00    4.767816e-01   1.868728e-02
  4.240761e+00    4.225096e-01   1.774667e-02
  4.242971e+00    5.083062e-01   1.964342e-02
  4.245181e+00    4.712534e-01   1.909201e-02
  4.247392e+00    4.400871e-01   1.862209e-02
  4.249602e+00    4.996816e-01   2.003994e-02
  4.251813e+00    5.120428e-01   2.048650e-02
  4.254023e+00    4.285753e-01   1.893127e-02
  4.256234e+00    4.574244e-01   1.976718e-02
  4.258444e+00    4.992073e-01   2.086623e-02
  4.260655e+00    5.452803e-01   2.204751e-02
  4.262865e+00    4.751523e-01   2.081463e-02
  4.265076e+00    4.338898e-01   2.011635e-02
  4.267286e+00    4.795137e-01   2.139851e-02
  4.269496e+00    4.469237e-01   2.091070e-02
  4.271707e+00    4.434898e-01   2.108707e-02
  4.273917e+00    4.622857e-01   2.180804e-02
  4.276128e+00    5.109034e-01   2.323041e-02
  4.278338e+00    5.048975e-01   2.340246e-02
  4.280549e+00    4.812142e-01   2.317421e-02
  4.282759e+00    4.622924e-01   2.304052e-02
  4.284970e+00    4.891459e-01   2.405117e-02
  4.287180e+00    4.676653e-01   2.379859e-02
  4.289391e+00    4.884225e-01   2.450376e-02
  4.291601e+00    5.145121e-01   2.535101e-02
  4.293811e+00    4.189526e-01   2.305456e-02
  4.296022e+00    4.964797e-01   2.529849e-02
  4.298232e+00    4.246614e-01   2.359389e-02
  4.300443e+00    3.876621e-01   2.272830e-02
  4.302653e+00    4.138191e-01   2.368608e-02
  4.304864e+00    4.246560e-01   2.420175e-02
  4.307074e+00    3.954178e-01   2.356377e-02
  4.309285e+00    4.950202e-01   2.660345e-02
  4.311495e+00    5.274525e-01   2.771950e-02
  4.313706e+00    5.197212e-01   2.777344e-02
  4.315916e+00    4.705483e-01   2.668773e-02
  4.318126e+00    5.733655e-01   2.975021e-02
  4.320337e+00    5.024280e-01   2.813114e-02
  4.322547e+00    4.494471e-01   2.688798e-02
  4.324758e+00    4.990401e-01   2.862875e-02
  4.326968e+00    5.001640e-01   2.898204e-02
  4.329179e+00    4.649167e-01   2.825133e-02
  4.331389e+00    4.727812e-01   2.881719e-02
  4.333600e+00    4.974671e-01   2.991299e-02
  4.335810e+00    4.270764e-01   2.804526e-02
  4.338021e+00    4.350598e-01   2.866934e-02
  4.340231e+00    5.332242e-01   3.213692e-02
  4.342442e+00    4.379228e-01   2.951571e-02
  4.344652e+00    3.707598e-01   2.752505e-02
  4.346862e+00    5.230830e-01   3.315265e-02
  4.349073e+00    5.565994e-01   3.469652e-02
  4.351283e+00    4.799184e-01   3.269963e-02
  4.353494e+00    4.461027e-01   3.201244e-02
  4.355704e+00    4.149422e-01   3.137266e-02
  4.357915e+00    3.747500e-01   3.030977e-02
  4.360125e+00    3.810682e-01   3.108618e-02
  4.362336e+00    4.942867e-01   3.604972e-02
  4.364546e+00    5.016671e-01   3.697808e-02
  4.366757e+00    5.045817e-01   3.782521e-02
  4.368967e+00    3.224717e-01   3.084108e-02
  4.371177e+00    4.437299e-01   3.694563e-02
  4.373388e+00    5.836195e-01   4.331839e-02
  4.375598e+00    3.949479e-01   3.645109e-02
  4.377809e+00    3.838863e-01   3.684329e-02
  4.380019e+00    3.290384e-01   3.496902e-02
  4.382230e+00    3.785886e-01   3.855536e-02
  4.384440e+00    4.118607e-01   4.137151e-02
  4.386651e+00    5.281594e-01   4.829589e-02
  4.388861e+00    4.891562e-01   4.803523e-02
  4.391072e+00    6.516446e-01   5.739170e-02
  4.393282e+00    5.972493e-01   5.707068e-02
  4.395492e+00    3.491929e-01   4.544836e-02
  4.397703e+00    5.544925e-01   5.989212e-02
  4.399913e+00    6.089394e-01   6.593971e-02
  4.402124e+00    3.983030e-01   5.635342e-02
  4.404334e+00    5.394786e-01   6.971500e-02
  4.406545e+00    2.630348e-01   5.230499e-02
  4.408755e+00    2.958314e-01   6.015343e-02
  4.410966e+00    2.766363e-01   6.438518e-02
  4.413176e+00    3.722914e-01   8.453909e-02
  4.415387e+00   -5.327520e-01            nan
  4.417597e+00   -1.902338e+00            nan
  4.419807e+00   -3.766224e-01            nan
