# == pyFAI calibration ==
# Distance Sample to Detector: 0.216 m
# PONI: 1.166e-01, 1.308e-01 m
# Rotations: 0.000000 0.000000 0.000000 rad
# 
# == Fit2d calibration ==
# Distance Sample-beamCenter: 216.000 mm
# Center: x=1744.293, y=1555.000 pix
# Tilt: 0.000 deg  TiltPlanRot: 0.000 deg
# 
# Detector Eiger 9M	 PixelSize= 7.500e-05, 7.500e-05 m
#    Detector has a mask: True 
#    Detector has a dark current: False 
#    detector has a flat field: False 
# 
# Wavelength: 9.8e-11 m
# Mask applied: from detector
# Dark current applied: False
# Flat field applied: False
# Polarization factor: None
# Normalization factor: 1.0
# 
# Headers of the input frame:
# {
# "_array_data.header_convention": "SLS_1.0",
# "_array_data.header_contents": "# Detector: Dectris Eiger 9M, S/N E-18-0102\r\n# Pixel_size 75e-6 m x 75e-6 m\r\n# Silicon sensor, thickness 0.000450 m\r\n# Exposure_time 0.024997 s\r\n# Exposure_period 0.025000 s\r\n# Count_cutoff 62318 counts\r\n# Wavelength 0.980106 A\r\n# Detector_distance 0.215992 m\r\n# Beam_xy (1555, 1744) pixels\r\n# Start_angle 0.000000 deg.\r\n# Angle_increment 0.000000 deg.",
# "Content-Type": "application/octet-stream;",
# "conversions": "x-CBF_BYTE_OFFSET",
# "Content-Transfer-Encoding": "BINARY",
# "X-Binary-Size": "10166622",
# "X-Binary-ID": "1",
# "X-Binary-Element-Type": "signed 32-bit integer",
# "X-Binary-Element-Byte-Order": "LITTLE_ENDIAN",
# "Content-MD5": "yhXNH2N0ZUZhYzyJbI4h6A==",
# "X-Binary-Number-of-Elements": "10166590",
# "X-Binary-Size-Fastest-Dimension": "3110",
# "X-Binary-Size-Second-Dimension": "3269",
# "X-Binary-Size-Padding": "4095"
# }
# --> H:/Proxima2a_2019-04-05/RAW_DATA/C5_gel17_position5/C5_mesh_1_data.cbf/C5_mesh_1_data.cbf000200.dat
#        q_A^-1              I           sigma 
  1.105228e-03    8.420088e-01   4.965298e-01
  3.315685e-03    9.459304e-01   3.199448e-01
  5.526141e-03    1.327505e+00   2.930827e-01
  7.736597e-03    1.293462e+00   2.443977e-01
  9.947054e-03    1.467839e+00   2.295175e-01
  1.215751e-02    1.570402e+00   2.146713e-01
  1.436797e-02    1.513636e+00   1.938593e-01
  1.657842e-02    1.267110e+00   1.651017e-01
  1.878888e-02    1.382282e+00   1.619801e-01
  2.099934e-02    1.406608e+00   1.545926e-01
  2.320979e-02    1.356441e+00   1.443887e-01
  2.542025e-02    1.362092e+00   1.382651e-01
  2.763070e-02    1.434930e+00   1.361149e-01
  2.984116e-02    1.396768e+00   1.292226e-01
  3.205162e-02    1.521738e+00   1.301536e-01
  3.426207e-02    1.394742e+00   1.205096e-01
  3.647253e-02    1.595959e+00   1.249397e-01
  3.868299e-02    1.424408e+00   1.146207e-01
  4.089344e-02    1.403393e+00   1.106548e-01
  4.310390e-02    1.490430e+00   1.110656e-01
  4.531436e-02    1.480752e+00   1.079710e-01
  4.752481e-02    1.320504e+00   9.956091e-02
  4.973527e-02    1.352042e+00   9.847975e-02
  5.194572e-02    1.462217e+00   1.002095e-01
  5.415618e-02    1.367453e+00   9.490630e-02
  5.636664e-02    1.349517e+00   9.241752e-02
  5.857709e-02    1.389837e+00   9.200183e-02
  6.078755e-02    1.419989e+00   9.128506e-02
  6.299801e-02    1.533986e+00   9.319811e-02
  6.520846e-02    1.579013e+00   9.294020e-02
  6.741892e-02    1.424460e+00   8.681105e-02
  6.962938e-02    1.484400e+00   8.720510e-02
  7.183983e-02    1.512057e+00   8.664753e-02
  7.405029e-02    1.549842e+00   8.640225e-02
  7.626074e-02    1.463988e+00   8.274831e-02
  7.847120e-02    1.486349e+00   8.219291e-02
  8.068166e-02    1.473866e+00   8.071741e-02
  8.289211e-02    1.424065e+00   7.827652e-02
  8.510257e-02    1.480996e+00   7.878190e-02
  8.731303e-02    1.446284e+00   7.685842e-02
  8.952348e-02    1.583656e+00   7.942881e-02
  9.173394e-02    1.462647e+00   7.540563e-02
  9.394439e-02    1.383087e+00   7.245594e-02
  9.615485e-02    1.525744e+00   7.521950e-02
  9.836531e-02    1.566296e+00   7.534933e-02
  1.005758e-01    1.476486e+00   7.234927e-02
  1.027862e-01    1.455357e+00   7.105140e-02
  1.049967e-01    1.586803e+00   7.340429e-02
  1.072071e-01    1.564113e+00   7.212152e-02
  1.094176e-01    1.650692e+00   7.333738e-02
  1.116280e-01    1.579543e+00   7.102408e-02
  1.138385e-01    1.423354e+00   6.676205e-02
  1.160490e-01    1.513865e+00   6.819234e-02
  1.182594e-01    1.463692e+00   6.642174e-02
  1.204699e-01    1.560653e+00   6.795380e-02
  1.226803e-01    1.660424e+00   6.945506e-02
  1.248908e-01    1.588517e+00   6.732982e-02
  1.271012e-01    1.644438e+00   6.790505e-02
  1.293117e-01    1.621882e+00   6.685802e-02
  1.315222e-01    1.580993e+00   6.545129e-02
  1.337326e-01    1.670585e+00   6.672058e-02
  1.359431e-01    1.592312e+00   6.517695e-02
  1.381535e-01    1.543079e+00   6.502265e-02
  1.403640e-01    1.411714e+00   6.246190e-02
  1.425744e-01    1.494080e+00   6.436084e-02
  1.447849e-01    1.553742e+00   6.564845e-02
  1.469953e-01    1.564302e+00   6.582990e-02
  1.492058e-01    1.531199e+00   6.505395e-02
  1.514163e-01    1.561882e+00   6.559338e-02
  1.536267e-01    1.675987e+00   6.781450e-02
  1.558372e-01    1.610066e+00   6.632075e-02
  1.580476e-01    1.569025e+00   6.531115e-02
  1.602581e-01    1.584678e+00   6.546941e-02
  1.624685e-01    1.619731e+00   6.600833e-02
  1.646790e-01    1.597737e+00   6.537040e-02
  1.668895e-01    1.665692e+00   6.655332e-02
  1.690999e-01    1.734997e+00   6.771980e-02
  1.713104e-01    1.798640e+00   6.873668e-02
  1.735208e-01    1.749450e+00   6.757945e-02
  1.757313e-01    1.838148e+00   6.905431e-02
  1.779417e-01    1.820899e+00   6.850541e-02
  1.801522e-01    1.787117e+00   6.765082e-02
  1.823626e-01    1.718083e+00   6.611049e-02
  1.845731e-01    1.859327e+00   6.855150e-02
  1.867836e-01    1.888461e+00   6.885336e-02
  1.889940e-01    1.914937e+00   6.910777e-02
  1.912045e-01    1.951843e+00   6.953753e-02
  1.934149e-01    2.024782e+00   7.058786e-02
  1.956254e-01    2.016391e+00   7.020912e-02
  1.978358e-01    2.022256e+00   7.007021e-02
  2.000463e-01    1.985192e+00   6.919505e-02
  2.022568e-01    2.017198e+00   6.952167e-02
  2.044672e-01    1.995013e+00   6.890149e-02
  2.066777e-01    1.936497e+00   6.765814e-02
  2.088881e-01    1.940193e+00   6.750112e-02
  2.110986e-01    1.996500e+00   6.823877e-02
  2.133090e-01    1.968160e+00   6.753250e-02
  2.155195e-01    1.946808e+00   6.694239e-02
  2.177300e-01    1.913491e+00   6.584570e-02
  2.199404e-01    1.913318e+00   6.410778e-02
  2.221509e-01    1.922758e+00   6.321046e-02
  2.243613e-01    1.902501e+00   6.207951e-02
  2.265718e-01    1.960599e+00   6.232564e-02
  2.287822e-01    1.999472e+00   6.231750e-02
  2.309927e-01    2.060429e+00   6.268401e-02
  2.332031e-01    2.061019e+00   6.215641e-02
  2.354136e-01    2.122879e+00   6.257100e-02
  2.376241e-01    2.215060e+00   6.341898e-02
  2.398345e-01    2.204365e+00   6.279749e-02
  2.420450e-01    2.144878e+00   6.150168e-02
  2.442554e-01    2.112516e+00   6.061544e-02
  2.464659e-01    2.184506e+00   6.122576e-02
  2.486763e-01    2.164346e+00   6.054202e-02
  2.508868e-01    2.070511e+00   5.884153e-02
  2.530973e-01    2.138076e+00   5.942316e-02
  2.553077e-01    2.079340e+00   5.824580e-02
  2.575182e-01    2.133901e+00   5.865593e-02
  2.597286e-01    2.088517e+00   5.769150e-02
  2.619391e-01    2.137813e+00   5.803235e-02
  2.641495e-01    2.049068e+00   5.650061e-02
  2.663600e-01    2.053783e+00   5.625450e-02
  2.685704e-01    2.088031e+00   5.641413e-02
  2.707809e-01    2.012993e+00   5.509717e-02
  2.729914e-01    2.008379e+00   5.474717e-02
  2.752018e-01    2.023702e+00   5.466959e-02
  2.774123e-01    2.020960e+00   5.435348e-02
  2.796227e-01    2.019488e+00   5.406492e-02
  2.818332e-01    2.000719e+00   5.354464e-02
  2.840436e-01    1.966015e+00   5.282094e-02
  2.862541e-01    1.996838e+00   5.297748e-02
  2.884646e-01    2.027714e+00   5.313215e-02
  2.906750e-01    1.941707e+00   5.174659e-02
  2.928855e-01    1.942281e+00   5.151441e-02
  2.950959e-01    1.924276e+00   5.103958e-02
  2.973064e-01    1.930421e+00   5.089123e-02
  2.995168e-01    1.918547e+00   5.050471e-02
  3.017273e-01    1.965159e+00   5.088917e-02
  3.039377e-01    1.967220e+00   5.069292e-02
  3.061482e-01    1.884745e+00   4.940426e-02
  3.083587e-01    1.854058e+00   4.878831e-02
  3.105691e-01    1.884266e+00   4.897406e-02
  3.127796e-01    1.925025e+00   4.929282e-02
  3.149900e-01    1.914449e+00   4.895239e-02
  3.172005e-01    1.966812e+00   4.941446e-02
  3.194109e-01    1.933856e+00   4.879645e-02
  3.216214e-01    1.881721e+00   4.793780e-02
  3.238319e-01    1.888384e+00   4.783233e-02
  3.260423e-01    1.814684e+00   4.670286e-02
  3.282528e-01    1.828531e+00   4.669407e-02
  3.304632e-01    1.846275e+00   4.673832e-02
  3.326737e-01    1.825480e+00   4.629304e-02
  3.348841e-01    1.836230e+00   4.624910e-02
  3.370946e-01    1.823289e+00   4.591243e-02
  3.393050e-01    1.879030e+00   4.643241e-02
  3.415155e-01    1.892184e+00   4.641945e-02
  3.437260e-01    1.882868e+00   4.613344e-02
  3.459364e-01    1.826816e+00   4.527345e-02
  3.481469e-01    1.935124e+00   4.642612e-02
  3.503573e-01    1.827226e+00   4.494894e-02
  3.525678e-01    1.815167e+00   4.464069e-02
  3.547782e-01    1.786097e+00   4.412175e-02
  3.569887e-01    1.788291e+00   4.399239e-02
  3.591992e-01    1.767632e+00   4.358280e-02
  3.614096e-01    1.731122e+00   4.298081e-02
  3.636201e-01    1.722260e+00   4.271999e-02
  3.658305e-01    1.725170e+00   4.261023e-02
  3.680410e-01    1.782114e+00   4.315878e-02
  3.702514e-01    1.809081e+00   4.333790e-02
  3.724619e-01    1.730725e+00   4.224460e-02
  3.746724e-01    1.805938e+00   4.300878e-02
  3.768828e-01    1.787210e+00   4.264123e-02
  3.790933e-01    1.785007e+00   4.247607e-02
  3.813037e-01    1.813981e+00   4.267932e-02
  3.835142e-01    1.792337e+00   4.228462e-02
  3.857246e-01    1.745844e+00   4.159750e-02
  3.879351e-01    1.776377e+00   4.182388e-02
  3.901455e-01    1.762089e+00   4.152272e-02
  3.923560e-01    1.796621e+00   4.179435e-02
  3.945665e-01    1.789375e+00   4.157773e-02
  3.967769e-01    1.721822e+00   4.065762e-02
  3.989874e-01    1.713474e+00   4.043228e-02
  4.011978e-01    1.780280e+00   4.108620e-02
  4.034083e-01    1.808960e+00   4.128870e-02
  4.056187e-01    1.792730e+00   4.097642e-02
  4.078292e-01    1.815032e+00   4.110575e-02
  4.100397e-01    1.786996e+00   4.066250e-02
  4.122501e-01    1.778181e+00   4.044074e-02
  4.144606e-01    1.781126e+00   4.035419e-02
  4.166710e-01    1.777783e+00   4.019643e-02
  4.188815e-01    1.741549e+00   3.966716e-02
  4.210919e-01    1.761660e+00   3.977861e-02
  4.233024e-01    1.791340e+00   3.999432e-02
  4.255128e-01    1.785859e+00   3.981768e-02
  4.277233e-01    1.728225e+00   3.905734e-02
  4.299338e-01    1.808969e+00   3.984434e-02
  4.321442e-01    1.780232e+00   3.941351e-02
  4.343547e-01    1.761122e+00   3.909052e-02
  4.365651e-01    1.737200e+00   3.871384e-02
  4.387756e-01    1.754918e+00   3.880180e-02
  4.409860e-01    1.765121e+00   3.880661e-02
  4.431965e-01    1.738670e+00   3.840827e-02
  4.454070e-01    1.743405e+00   3.835351e-02
  4.476174e-01    1.737974e+00   3.818860e-02
  4.498279e-01    1.755588e+00   3.827718e-02
  4.520383e-01    1.767692e+00   3.830352e-02
  4.542488e-01    1.735473e+00   3.785050e-02
  4.564592e-01    1.699853e+00   3.735956e-02
  4.586697e-01    1.661549e+00   3.683819e-02
  4.608801e-01    1.716840e+00   3.734579e-02
  4.630906e-01    1.671661e+00   3.675357e-02
  4.653011e-01    1.697604e+00   3.694026e-02
  4.675115e-01    1.736831e+00   3.726620e-02
  4.697220e-01    1.728848e+00   3.708315e-02
  4.719324e-01    1.691379e+00   3.658420e-02
  4.741429e-01    1.707677e+00   3.666532e-02
  4.763533e-01    1.701103e+00   3.650087e-02
  4.785638e-01    1.678023e+00   3.615874e-02
  4.807743e-01    1.694356e+00   3.624190e-02
  4.829847e-01    1.699619e+00   3.620645e-02
  4.851952e-01    1.719732e+00   3.632788e-02
  4.874056e-01    1.712710e+00   3.616225e-02
  4.896161e-01    1.721163e+00   3.616146e-02
  4.918265e-01    1.719888e+00   3.605830e-02
  4.940370e-01    1.685210e+00   3.560480e-02
  4.962475e-01    1.676875e+00   3.542895e-02
  4.984579e-01    1.657285e+00   3.513457e-02
  5.006684e-01    1.670176e+00   3.518496e-02
  5.028788e-01    1.679791e+00   3.520059e-02
  5.050893e-01    1.679970e+00   3.511686e-02
  5.072997e-01    1.620245e+00   3.440369e-02
  5.095102e-01    1.663584e+00   3.477727e-02
  5.117206e-01    1.691883e+00   3.498843e-02
  5.139311e-01    1.675819e+00   3.473951e-02
  5.161416e-01    1.667786e+00   3.457428e-02
  5.183520e-01    1.650709e+00   3.431505e-02
  5.205625e-01    1.662438e+00   3.435609e-02
  5.227729e-01    1.640919e+00   3.405337e-02
  5.249834e-01    1.681941e+00   3.439639e-02
  5.271938e-01    1.688293e+00   3.438086e-02
  5.294043e-01    1.722106e+00   3.464330e-02
  5.316148e-01    1.754450e+00   3.488704e-02
  5.338252e-01    1.767820e+00   3.493968e-02
  5.360357e-01    1.776356e+00   3.494420e-02
  5.382461e-01    1.761379e+00   3.471792e-02
  5.404566e-01    1.733938e+00   3.436803e-02
  5.426670e-01    1.752245e+00   3.447114e-02
  5.448775e-01    1.728529e+00   3.416057e-02
  5.470879e-01    1.706575e+00   3.386725e-02
  5.492984e-01    1.736891e+00   3.409074e-02
  5.515089e-01    1.762597e+00   3.426595e-02
  5.537193e-01    1.748133e+00   3.404988e-02
  5.559298e-01    1.767806e+00   3.416583e-02
  5.581402e-01    1.772735e+00   3.413866e-02
  5.603507e-01    1.806952e+00   3.439154e-02
  5.625611e-01    1.824960e+00   3.448750e-02
  5.647716e-01    1.793505e+00   3.411476e-02
  5.669821e-01    1.820788e+00   3.429916e-02
  5.691925e-01    1.784697e+00   3.388464e-02
  5.714030e-01    1.746413e+00   3.344776e-02
  5.736134e-01    1.705178e+00   3.298024e-02
  5.758239e-01    1.733469e+00   3.318173e-02
  5.780343e-01    1.673060e+00   3.252947e-02
  5.802448e-01    1.697787e+00   3.270037e-02
  5.824552e-01    1.656013e+00   3.222783e-02
  5.846657e-01    1.634945e+00   3.195541e-02
  5.868762e-01    1.643485e+00   3.197206e-02
  5.890866e-01    1.608411e+00   3.156343e-02
  5.912971e-01    1.621785e+00   3.162876e-02
  5.935075e-01    1.660994e+00   3.194266e-02
  5.957180e-01    1.653643e+00   3.180651e-02
  5.979284e-01    1.660183e+00   3.180427e-02
  6.001389e-01    1.688642e+00   3.201041e-02
  6.023494e-01    1.656035e+00   3.163549e-02
  6.045598e-01    1.634075e+00   3.136107e-02
  6.067703e-01    1.623851e+00   3.119991e-02
  6.089807e-01    1.616160e+00   3.106338e-02
  6.111912e-01    1.677689e+00   3.158593e-02
  6.134016e-01    1.703157e+00   3.176133e-02
  6.156121e-01    1.636250e+00   3.106933e-02
  6.178226e-01    1.713966e+00   3.173564e-02
  6.200330e-01    1.738963e+00   3.190320e-02
  6.222435e-01    1.720301e+00   3.166867e-02
  6.244539e-01    1.699253e+00   3.141273e-02
  6.266644e-01    1.716686e+00   3.151185e-02
  6.288748e-01    1.681918e+00   3.113042e-02
  6.310853e-01    1.706953e+00   3.130034e-02
  6.332957e-01    1.694388e+00   3.112473e-02
  6.355062e-01    1.691554e+00   3.103826e-02
  6.377167e-01    1.700503e+00   3.106057e-02
  6.399271e-01    1.677814e+00   3.079352e-02
  6.421376e-01    1.704374e+00   3.097705e-02
  6.443480e-01    1.716315e+00   3.102626e-02
  6.465585e-01    1.684072e+00   3.067522e-02
  6.487689e-01    1.662644e+00   3.042189e-02
  6.509794e-01    1.648183e+00   3.023216e-02
  6.531899e-01    1.654604e+00   3.023405e-02
  6.554003e-01    1.620834e+00   2.986765e-02
  6.576108e-01    1.613605e+00   2.974548e-02
  6.598212e-01    1.581760e+00   2.939580e-02
  6.620317e-01    1.580320e+00   2.932792e-02
  6.642421e-01    1.603408e+00   2.948675e-02
  6.664526e-01    1.638479e+00   2.975255e-02
  6.686630e-01    1.608924e+00   2.942850e-02
  6.708735e-01    1.578483e+00   2.909530e-02
  6.730840e-01    1.589259e+00   2.914120e-02
  6.752944e-01    1.596223e+00   2.915189e-02
  6.775049e-01    1.605125e+00   2.917997e-02
  6.797153e-01    1.618332e+00   2.924673e-02
  6.819258e-01    1.629815e+00   2.929736e-02
  6.841362e-01    1.644318e+00   2.937452e-02
  6.863467e-01    1.591521e+00   2.884733e-02
  6.885572e-01    1.593933e+00   2.881744e-02
  6.907676e-01    1.560104e+00   2.845891e-02
  6.929781e-01    1.583665e+00   2.862202e-02
  6.951885e-01    1.602081e+00   2.873698e-02
  6.973990e-01    1.594973e+00   2.862247e-02
  6.996094e-01    1.584064e+00   2.847422e-02
  7.018199e-01    1.559458e+00   2.820264e-02
  7.040303e-01    1.597432e+00   2.849380e-02
  7.062408e-01    1.613326e+00   2.858502e-02
  7.084513e-01    1.685902e+00   2.917009e-02
  7.106617e-01    1.651061e+00   2.881697e-02
  7.128722e-01    1.591981e+00   2.824771e-02
  7.150826e-01    1.575978e+00   2.805695e-02
  7.172931e-01    1.570711e+00   2.796172e-02
  7.195035e-01    1.556640e+00   2.778835e-02
  7.217140e-01    1.593479e+00   2.816498e-02
  7.239245e-01    1.532710e+00   2.784642e-02
  7.261349e-01    1.532940e+00   2.795566e-02
  7.283454e-01    1.555340e+00   2.823112e-02
  7.305558e-01    1.552798e+00   2.826168e-02
  7.327663e-01    1.564671e+00   2.841185e-02
  7.349767e-01    1.600178e+00   2.874895e-02
  7.371872e-01    1.585179e+00   2.860267e-02
  7.393976e-01    1.556643e+00   2.832987e-02
  7.416081e-01    1.551703e+00   2.826885e-02
  7.438186e-01    1.561733e+00   2.821630e-02
  7.460290e-01    1.571425e+00   2.800981e-02
  7.482395e-01    1.569301e+00   2.781999e-02
  7.504499e-01    1.564139e+00   2.763839e-02
  7.526604e-01    1.571476e+00   2.758668e-02
  7.548708e-01    1.590832e+00   2.766620e-02
  7.570813e-01    1.546340e+00   2.722605e-02
  7.592918e-01    1.584251e+00   2.752248e-02
  7.615022e-01    1.591164e+00   2.754850e-02
  7.637127e-01    1.538487e+00   2.705626e-02
  7.659231e-01    1.560775e+00   2.721966e-02
  7.681336e-01    1.585566e+00   2.740326e-02
  7.703440e-01    1.598629e+00   2.748448e-02
  7.725545e-01    1.585100e+00   2.733693e-02
  7.747650e-01    1.661649e+00   2.795000e-02
  7.769754e-01    1.588444e+00   2.727450e-02
  7.791859e-01    1.553976e+00   2.692382e-02
  7.813963e-01    1.550342e+00   2.684020e-02
  7.836068e-01    1.569978e+00   2.695788e-02
  7.858172e-01    1.604743e+00   2.720375e-02
  7.880277e-01    1.639741e+00   2.744650e-02
  7.902381e-01    1.633601e+00   2.734529e-02
  7.924486e-01    1.647394e+00   2.740962e-02
  7.946591e-01    1.624331e+00   2.716844e-02
  7.968695e-01    1.615163e+00   2.704317e-02
  7.990800e-01    1.658803e+00   2.735709e-02
  8.012904e-01    1.666970e+00   2.737693e-02
  8.035009e-01    1.639408e+00   2.710135e-02
  8.057113e-01    1.632732e+00   2.699933e-02
  8.079218e-01    1.646878e+00   2.706926e-02
  8.101323e-01    1.654026e+00   2.708187e-02
  8.123427e-01    1.665372e+00   2.712826e-02
  8.145532e-01    1.680799e+00   2.720700e-02
  8.167636e-01    1.635298e+00   2.679108e-02
  8.189741e-01    1.680653e+00   2.711478e-02
  8.211845e-01    1.716337e+00   2.735520e-02
  8.233950e-01    1.728172e+00   2.740472e-02
  8.256054e-01    1.725152e+00   2.733541e-02
  8.278159e-01    1.690395e+00   2.701398e-02
  8.300264e-01    1.653726e+00   2.667607e-02
  8.322368e-01    1.616114e+00   2.632814e-02
  8.344473e-01    1.601559e+00   2.616644e-02
  8.366577e-01    1.612993e+00   2.621741e-02
  8.388682e-01    1.660130e+00   2.655523e-02
  8.410786e-01    1.642653e+00   2.637299e-02
  8.432891e-01    1.609638e+00   2.606515e-02
  8.454996e-01    1.641546e+00   2.628054e-02
  8.477100e-01    1.661140e+00   2.639498e-02
  8.499205e-01    1.662883e+00   2.636735e-02
  8.521309e-01    1.624367e+00   2.601958e-02
  8.543414e-01    1.637182e+00   2.608124e-02
  8.565518e-01    1.656513e+00   2.619393e-02
  8.587623e-01    1.616020e+00   2.583152e-02
  8.609727e-01    1.599284e+00   2.565756e-02
  8.631832e-01    1.602212e+00   2.564143e-02
  8.653937e-01    1.593557e+00   2.553280e-02
  8.676041e-01    1.609270e+00   2.561964e-02
  8.698146e-01    1.607565e+00   2.556695e-02
  8.720250e-01    1.558960e+00   2.513909e-02
  8.742355e-01    1.566732e+00   2.516330e-02
  8.764459e-01    1.612461e+00   2.548895e-02
  8.786564e-01    1.622913e+00   2.553331e-02
  8.808669e-01    1.637642e+00   2.561002e-02
  8.830773e-01    1.591593e+00   2.520941e-02
  8.852878e-01    1.556856e+00   2.489538e-02
  8.874982e-01    1.570331e+00   2.496660e-02
  8.897087e-01    1.570490e+00   2.493055e-02
  8.919191e-01    1.586535e+00   2.501998e-02
  8.941296e-01    1.606991e+00   2.514341e-02
  8.963401e-01    1.581586e+00   2.490765e-02
  8.985505e-01    1.603607e+00   2.504344e-02
  9.007610e-01    1.605070e+00   2.501808e-02
  9.029714e-01    1.578806e+00   2.477693e-02
  9.051819e-01    1.614056e+00   2.501462e-02
  9.073923e-01    1.586226e+00   2.476162e-02
  9.096028e-01    1.573151e+00   2.462473e-02
  9.118132e-01    1.586118e+00   2.468992e-02
  9.140237e-01    1.624792e+00   2.495224e-02
  9.162342e-01    1.590872e+00   2.465593e-02
  9.184446e-01    1.613107e+00   2.479174e-02
  9.206551e-01    1.590163e+00   2.457932e-02
  9.228655e-01    1.605156e+00   2.465962e-02
  9.250760e-01    1.633173e+00   2.483819e-02
  9.272864e-01    1.630438e+00   2.478285e-02
  9.294969e-01    1.613891e+00   2.462083e-02
  9.317074e-01    1.571570e+00   2.426154e-02
  9.339178e-01    1.598071e+00   2.443181e-02
  9.361283e-01    1.631993e+00   2.465336e-02
  9.383387e-01    1.655988e+00   2.480017e-02
  9.405492e-01    1.612513e+00   2.443827e-02
  9.427596e-01    1.635290e+00   2.457485e-02
  9.449701e-01    1.649648e+00   2.464895e-02
  9.471805e-01    1.684732e+00   2.487441e-02
  9.493910e-01    1.666356e+00   2.470443e-02
  9.516015e-01    1.669474e+00   2.469301e-02
  9.538119e-01    1.673744e+00   2.469069e-02
  9.560224e-01    1.677326e+00   2.468229e-02
  9.582328e-01    1.714959e+00   2.492416e-02
  9.604433e-01    1.769193e+00   2.527935e-02
  9.626537e-01    1.763257e+00   2.520297e-02
  9.648642e-01    1.808187e+00   2.548711e-02
  9.670747e-01    1.806152e+00   2.543763e-02
  9.692851e-01    1.818525e+00   2.549069e-02
  9.714956e-01    1.842000e+00   2.561851e-02
  9.737060e-01    1.846583e+00   2.561667e-02
  9.759165e-01    1.822719e+00   2.541472e-02
  9.781269e-01    1.803393e+00   2.524656e-02
  9.803374e-01    1.806359e+00   2.523235e-02
  9.825478e-01    1.818043e+00   2.528044e-02
  9.847583e-01    1.800320e+00   2.512276e-02
  9.869688e-01    1.823204e+00   2.524806e-02
  9.891792e-01    1.805421e+00   2.509127e-02
  9.913897e-01    1.744329e+00   2.462981e-02
  9.936001e-01    1.746664e+00   2.461401e-02
  9.958106e-01    1.701935e+00   2.426380e-02
  9.980210e-01    1.683163e+00   2.409828e-02
  1.000231e+00    1.689302e+00   2.427445e-02
  1.002442e+00    1.675215e+00   2.430147e-02
  1.004652e+00    1.618684e+00   2.395457e-02
  1.006863e+00    1.578325e+00   2.370312e-02
  1.009073e+00    1.583519e+00   2.377841e-02
  1.011284e+00    1.601627e+00   2.394597e-02
  1.013494e+00    1.594326e+00   2.391502e-02
  1.015705e+00    1.586386e+00   2.387794e-02
  1.017915e+00    1.584224e+00   2.387811e-02
  1.020126e+00    1.576945e+00   2.383930e-02
  1.022336e+00    1.537358e+00   2.354976e-02
  1.024547e+00    1.523874e+00   2.345736e-02
  1.026757e+00    1.542684e+00   2.361006e-02
  1.028967e+00    1.549248e+00   2.366793e-02
  1.031178e+00    1.514174e+00   2.340461e-02
  1.033388e+00    1.499073e+00   2.329261e-02
  1.035599e+00    1.500199e+00   2.330475e-02
  1.037809e+00    1.485360e+00   2.319243e-02
  1.040020e+00    1.463188e+00   2.301991e-02
  1.042230e+00    1.482965e+00   2.317687e-02
  1.044441e+00    1.494663e+00   2.326790e-02
  1.046651e+00    1.487670e+00   2.321355e-02
  1.048862e+00    1.487122e+00   2.320852e-02
  1.051072e+00    1.501847e+00   2.332075e-02
  1.053282e+00    1.502199e+00   2.332256e-02
  1.055493e+00    1.511389e+00   2.338945e-02
  1.057703e+00    1.448001e+00   2.289225e-02
  1.059914e+00    1.445131e+00   2.286531e-02
  1.062124e+00    1.505230e+00   2.333186e-02
  1.064335e+00    1.469252e+00   2.304793e-02
  1.066545e+00    1.439914e+00   2.281075e-02
  1.068756e+00    1.436817e+00   2.278252e-02
  1.070966e+00    1.447651e+00   2.286176e-02
  1.073177e+00    1.475921e+00   2.307787e-02
  1.075387e+00    1.437984e+00   2.277417e-02
  1.077597e+00    1.462242e+00   2.295819e-02
  1.079808e+00    1.485177e+00   2.300387e-02
  1.082018e+00    1.479155e+00   2.276708e-02
  1.084229e+00    1.465840e+00   2.255412e-02
  1.086439e+00    1.503296e+00   2.275158e-02
  1.088650e+00    1.488114e+00   2.255988e-02
  1.090860e+00    1.468854e+00   2.234545e-02
  1.093071e+00    1.453420e+00   2.216550e-02
  1.095281e+00    1.440912e+00   2.201276e-02
  1.097492e+00    1.416891e+00   2.177412e-02
  1.099702e+00    1.467202e+00   2.210545e-02
  1.101912e+00    1.478947e+00   2.214426e-02
  1.104123e+00    1.518985e+00   2.239239e-02
  1.106333e+00    1.555244e+00   2.261177e-02
  1.108544e+00    1.642503e+00   2.319006e-02
  1.110754e+00    1.524040e+00   2.229369e-02
  1.112965e+00    1.448599e+00   2.169398e-02
  1.115175e+00    1.445318e+00   2.162784e-02
  1.117386e+00    1.447280e+00   2.160281e-02
  1.119596e+00    1.455479e+00   2.162546e-02
  1.121807e+00    1.437685e+00   2.145367e-02
  1.124017e+00    1.431105e+00   2.136756e-02
  1.126228e+00    1.400258e+00   2.110032e-02
  1.128438e+00    1.380898e+00   2.091746e-02
  1.130648e+00    1.413771e+00   2.113044e-02
  1.132859e+00    1.401861e+00   2.100685e-02
  1.135069e+00    1.369364e+00   2.072751e-02
  1.137280e+00    1.369628e+00   2.069672e-02
  1.139490e+00    1.396842e+00   2.086817e-02
  1.141701e+00    1.359384e+00   2.055366e-02
  1.143911e+00    1.359004e+00   2.051919e-02
  1.146122e+00    1.360560e+00   2.049917e-02
  1.148332e+00    1.366520e+00   2.051226e-02
  1.150543e+00    1.392828e+00   2.067778e-02
  1.152753e+00    1.385154e+00   2.058980e-02
  1.154963e+00    1.379127e+00   2.051386e-02
  1.157174e+00    1.352889e+00   2.028785e-02
  1.159384e+00    1.357221e+00   2.029060e-02
  1.161595e+00    1.360573e+00   2.028590e-02
  1.163805e+00    1.376828e+00   2.037738e-02
  1.166016e+00    1.365083e+00   2.026089e-02
  1.168226e+00    1.376502e+00   2.031637e-02
  1.170437e+00    1.382702e+00   2.033328e-02
  1.172647e+00    1.383281e+00   2.030846e-02
  1.174858e+00    1.393143e+00   2.035233e-02
  1.177068e+00    1.384225e+00   2.025861e-02
  1.179278e+00    1.383394e+00   2.022373e-02
  1.181489e+00    1.351774e+00   1.996434e-02
  1.183699e+00    1.346200e+00   1.989569e-02
  1.185910e+00    1.351435e+00   1.990662e-02
  1.188120e+00    1.373880e+00   2.004440e-02
  1.190331e+00    1.379094e+00   2.005539e-02
  1.192541e+00    1.376408e+00   2.000826e-02
  1.194752e+00    1.380839e+00   2.001311e-02
  1.196962e+00    1.386827e+00   2.003038e-02
  1.199173e+00    1.387190e+00   2.000614e-02
  1.201383e+00    1.397018e+00   2.004927e-02
  1.203593e+00    1.364066e+00   1.978645e-02
  1.205804e+00    1.377156e+00   1.985498e-02
  1.208014e+00    1.349072e+00   1.962465e-02
  1.210225e+00    1.383837e+00   1.985024e-02
  1.212435e+00    1.378937e+00   1.979004e-02
  1.214646e+00    1.346610e+00   1.953061e-02
  1.216856e+00    1.338850e+00   1.944888e-02
  1.219067e+00    1.343019e+00   1.945473e-02
  1.221277e+00    1.363224e+00   1.957538e-02
  1.223488e+00    1.384726e+00   1.970308e-02
  1.225698e+00    1.364343e+00   1.953048e-02
  1.227909e+00    1.396070e+00   1.972559e-02
  1.230119e+00    1.394880e+00   1.968481e-02
  1.232329e+00    1.362388e+00   1.942332e-02
  1.234540e+00    1.354530e+00   1.933691e-02
  1.236750e+00    1.327055e+00   1.910977e-02
  1.238961e+00    1.337362e+00   1.915698e-02
  1.241171e+00    1.365382e+00   1.933232e-02
  1.243382e+00    1.331361e+00   1.906661e-02
  1.245592e+00    1.338859e+00   1.909620e-02
  1.247803e+00    1.359155e+00   1.921669e-02
  1.250013e+00    1.315582e+00   1.888289e-02
  1.252224e+00    1.348479e+00   1.909428e-02
  1.254434e+00    1.355503e+00   1.912017e-02
  1.256644e+00    1.334157e+00   1.894595e-02
  1.258855e+00    1.333282e+00   1.891661e-02
  1.261065e+00    1.342447e+00   1.895820e-02
  1.263276e+00    1.336250e+00   1.889157e-02
  1.265486e+00    1.333488e+00   1.884931e-02
  1.267697e+00    1.325891e+00   1.877271e-02
  1.269907e+00    1.328628e+00   1.876958e-02
  1.272118e+00    1.312286e+00   1.863152e-02
  1.274328e+00    1.321897e+00   1.867713e-02
  1.276539e+00    1.314680e+00   1.860360e-02
  1.278749e+00    1.322068e+00   1.863373e-02
  1.280959e+00    1.350051e+00   1.880735e-02
  1.283170e+00    1.360713e+00   1.885898e-02
  1.285380e+00    1.368830e+00   1.889252e-02
  1.287591e+00    1.362194e+00   1.882455e-02
  1.289801e+00    1.373346e+00   1.888005e-02
  1.292012e+00    1.355892e+00   1.874255e-02
  1.294222e+00    1.349350e+00   1.868104e-02
  1.296433e+00    1.381702e+00   1.888788e-02
  1.298643e+00    1.376375e+00   1.883483e-02
  1.300854e+00    1.359883e+00   1.870514e-02
  1.303064e+00    1.347992e+00   1.860400e-02
  1.305274e+00    1.348361e+00   1.858510e-02
  1.307485e+00    1.344275e+00   1.853543e-02
  1.309695e+00    1.335829e+00   1.845498e-02
  1.311906e+00    1.333687e+00   1.841860e-02
  1.314116e+00    1.339233e+00   1.843614e-02
  1.316327e+00    1.357209e+00   1.853773e-02
  1.318537e+00    1.356596e+00   1.851159e-02
  1.320748e+00    1.361893e+00   1.852605e-02
  1.322958e+00    1.365266e+00   1.852835e-02
  1.325169e+00    1.353099e+00   1.842456e-02
  1.327379e+00    1.379081e+00   1.857855e-02
  1.329589e+00    1.366758e+00   1.847419e-02
  1.331800e+00    1.367616e+00   1.845913e-02
  1.334010e+00    1.394830e+00   1.862090e-02
  1.336221e+00    1.419955e+00   1.876554e-02
  1.338431e+00    1.425331e+00   1.877961e-02
  1.340642e+00    1.379482e+00   1.853996e-02
  1.342852e+00    1.382340e+00   1.866101e-02
  1.345063e+00    1.392208e+00   1.877776e-02
  1.347273e+00    1.371000e+00   1.866971e-02
  1.349484e+00    1.363152e+00   1.864401e-02
  1.351694e+00    1.341848e+00   1.852038e-02
  1.353905e+00    1.341897e+00   1.853866e-02
  1.356115e+00    1.370877e+00   1.875292e-02
  1.358325e+00    1.390382e+00   1.889938e-02
  1.360536e+00    1.402606e+00   1.899414e-02
  1.362746e+00    1.381879e+00   1.886296e-02
  1.364957e+00    1.371433e+00   1.879925e-02
  1.367167e+00    1.338618e+00   1.858010e-02
  1.369378e+00    1.350746e+00   1.867010e-02
  1.371588e+00    1.361526e+00   1.874963e-02
  1.373799e+00    1.412761e+00   1.910290e-02
  1.376009e+00    1.423708e+00   1.918028e-02
  1.378220e+00    1.568084e+00   2.013199e-02
  1.380430e+00    1.764453e+00   2.135853e-02
  1.382640e+00    1.765114e+00   2.136366e-02
  1.384851e+00    1.575313e+00   2.018339e-02
  1.387061e+00    1.457823e+00   1.941641e-02
  1.389272e+00    1.410566e+00   1.909933e-02
  1.391482e+00    1.345721e+00   1.865447e-02
  1.393693e+00    1.342111e+00   1.862852e-02
  1.395903e+00    1.311821e+00   1.841561e-02
  1.398114e+00    1.306624e+00   1.837769e-02
  1.400324e+00    1.284995e+00   1.822282e-02
  1.402535e+00    1.318552e+00   1.845684e-02
  1.404745e+00    1.376844e+00   1.885798e-02
  1.406955e+00    1.381770e+00   1.888889e-02
  1.409166e+00    1.354743e+00   1.869984e-02
  1.411376e+00    1.331420e+00   1.853497e-02
  1.413587e+00    1.333025e+00   1.854223e-02
  1.415797e+00    1.294165e+00   1.826641e-02
  1.418008e+00    1.293055e+00   1.821629e-02
  1.420218e+00    1.305683e+00   1.815324e-02
  1.422429e+00    1.275725e+00   1.785826e-02
  1.424639e+00    1.282090e+00   1.783774e-02
  1.426850e+00    1.317716e+00   1.802815e-02
  1.429060e+00    1.370747e+00   1.833645e-02
  1.431270e+00    1.365969e+00   1.825853e-02
  1.433481e+00    1.345540e+00   1.807935e-02
  1.435691e+00    1.291846e+00   1.767618e-02
  1.437902e+00    1.279787e+00   1.755686e-02
  1.440112e+00    1.283442e+00   1.754638e-02
  1.442323e+00    1.294009e+00   1.758512e-02
  1.444533e+00    1.279114e+00   1.745095e-02
  1.446744e+00    1.266161e+00   1.733129e-02
  1.448954e+00    1.269583e+00   1.732448e-02
  1.451165e+00    1.293000e+00   1.745353e-02
  1.453375e+00    1.279583e+00   1.733456e-02
  1.455586e+00    1.284066e+00   1.733660e-02
  1.457796e+00    1.278326e+00   1.727020e-02
  1.460006e+00    1.280506e+00   1.725754e-02
  1.462217e+00    1.313196e+00   1.744979e-02
  1.464427e+00    1.300117e+00   1.733676e-02
  1.466638e+00    1.286957e+00   1.722330e-02
  1.468848e+00    1.279121e+00   1.714535e-02
  1.471059e+00    1.289508e+00   1.718953e-02
  1.473269e+00    1.294855e+00   1.720049e-02
  1.475480e+00    1.291819e+00   1.715637e-02
  1.477690e+00    1.290015e+00   1.712032e-02
  1.479901e+00    1.295661e+00   1.713365e-02
  1.482111e+00    1.303246e+00   1.716007e-02
  1.484321e+00    1.272731e+00   1.693485e-02
  1.486532e+00    1.252314e+00   1.677622e-02
  1.488742e+00    1.270071e+00   1.687206e-02
  1.490953e+00    1.259871e+00   1.678161e-02
  1.493163e+00    1.268142e+00   1.681427e-02
  1.495374e+00    1.289171e+00   1.693140e-02
  1.497584e+00    1.267802e+00   1.676881e-02
  1.499795e+00    1.245803e+00   1.660114e-02
  1.502005e+00    1.270805e+00   1.674511e-02
  1.504216e+00    1.260360e+00   1.665513e-02
  1.506426e+00    1.259766e+00   1.663036e-02
  1.508636e+00    1.282291e+00   1.675773e-02
  1.510847e+00    1.276141e+00   1.669553e-02
  1.513057e+00    1.246834e+00   1.647770e-02
  1.515268e+00    1.242325e+00   1.642228e-02
  1.517478e+00    1.248218e+00   1.643609e-02
  1.519689e+00    1.264271e+00   1.651638e-02
  1.521899e+00    1.257881e+00   1.645145e-02
  1.524110e+00    1.258216e+00   1.643326e-02
  1.526320e+00    1.250827e+00   1.636537e-02
  1.528531e+00    1.252345e+00   1.635550e-02
  1.530741e+00    1.280518e+00   1.651908e-02
  1.532951e+00    1.245463e+00   1.627186e-02
  1.535162e+00    1.251555e+00   1.639826e-02
  1.537372e+00    1.267837e+00   1.657200e-02
  1.539583e+00    1.234708e+00   1.638810e-02
  1.541793e+00    1.239550e+00   1.642711e-02
  1.544004e+00    1.240519e+00   1.643380e-02
  1.546214e+00    1.259646e+00   1.655849e-02
  1.548425e+00    1.245692e+00   1.646678e-02
  1.550635e+00    1.238637e+00   1.642974e-02
  1.552846e+00    1.231114e+00   1.638937e-02
  1.555056e+00    1.246128e+00   1.644750e-02
  1.557266e+00    1.230730e+00   1.623573e-02
  1.559477e+00    1.238255e+00   1.622631e-02
  1.561687e+00    1.272414e+00   1.641759e-02
  1.563898e+00    1.270077e+00   1.638518e-02
  1.566108e+00    1.260825e+00   1.630933e-02
  1.568319e+00    1.236294e+00   1.613432e-02
  1.570529e+00    1.242271e+00   1.614815e-02
  1.572740e+00    1.242909e+00   1.612472e-02
  1.574950e+00    1.228650e+00   1.600580e-02
  1.577161e+00    1.240999e+00   1.606059e-02
  1.579371e+00    1.263491e+00   1.618164e-02
  1.581582e+00    1.255392e+00   1.610985e-02
  1.583792e+00    1.257091e+00   1.610261e-02
  1.586002e+00    1.287902e+00   1.628084e-02
  1.588213e+00    1.318314e+00   1.645417e-02
  1.590423e+00    1.335610e+00   1.654101e-02
  1.592634e+00    1.291900e+00   1.624603e-02
  1.594844e+00    1.315691e+00   1.637292e-02
  1.597055e+00    1.292409e+00   1.620653e-02
  1.599265e+00    1.299737e+00   1.623119e-02
  1.601476e+00    1.301760e+00   1.622301e-02
  1.603686e+00    1.306797e+00   1.623409e-02
  1.605897e+00    1.304654e+00   1.620008e-02
  1.608107e+00    1.329483e+00   1.633324e-02
  1.610317e+00    1.324325e+00   1.628156e-02
  1.612528e+00    1.282765e+00   1.600450e-02
  1.614738e+00    1.341257e+00   1.634552e-02
  1.616949e+00    1.319913e+00   1.619531e-02
  1.619159e+00    1.254341e+00   1.576892e-02
  1.621370e+00    1.234463e+00   1.562489e-02
  1.623580e+00    1.237035e+00   1.562266e-02
  1.625791e+00    1.217679e+00   1.548162e-02
  1.628001e+00    1.194444e+00   1.531501e-02
  1.630212e+00    1.179079e+00   1.519854e-02
  1.632422e+00    1.166445e+00   1.509913e-02
  1.634632e+00    1.196658e+00   1.527602e-02
  1.636843e+00    1.175379e+00   1.512207e-02
  1.639053e+00    1.158451e+00   1.499561e-02
  1.641264e+00    1.134463e+00   1.482270e-02
  1.643474e+00    1.140279e+00   1.484342e-02
  1.645685e+00    1.147814e+00   1.487578e-02
  1.647895e+00    1.163454e+00   1.496015e-02
  1.650106e+00    1.150433e+00   1.485919e-02
  1.652316e+00    1.143681e+00   1.479908e-02
  1.654527e+00    1.136687e+00   1.473713e-02
  1.656737e+00    1.151618e+00   1.481693e-02
  1.658947e+00    1.144909e+00   1.475734e-02
  1.661158e+00    1.152420e+00   1.478920e-02
  1.663368e+00    1.185463e+00   1.498326e-02
  1.665579e+00    1.174105e+00   1.489480e-02
  1.667789e+00    1.166171e+00   1.482779e-02
  1.670000e+00    1.120659e+00   1.452003e-02
  1.672210e+00    1.099056e+00   1.436358e-02
  1.674421e+00    1.101487e+00   1.436415e-02
  1.676631e+00    1.098972e+00   1.433189e-02
  1.678842e+00    1.103940e+00   1.434844e-02
  1.681052e+00    1.095017e+00   1.427495e-02
  1.683263e+00    1.079098e+00   1.415573e-02
  1.685473e+00    1.075313e+00   1.411582e-02
  1.687683e+00    1.070406e+00   1.406823e-02
  1.689894e+00    1.076587e+00   1.409305e-02
  1.692104e+00    1.076089e+00   1.407488e-02
  1.694315e+00    1.064649e+00   1.398541e-02
  1.696525e+00    1.073189e+00   1.402620e-02
  1.698736e+00    1.079559e+00   1.405286e-02
  1.700946e+00    1.058034e+00   1.389693e-02
  1.703157e+00    1.053543e+00   1.385279e-02
  1.705367e+00    1.036507e+00   1.372596e-02
  1.707578e+00    1.030601e+00   1.367233e-02
  1.709788e+00    1.044768e+00   1.375187e-02
  1.711998e+00    1.056254e+00   1.381217e-02
  1.714209e+00    1.032481e+00   1.364146e-02
  1.716419e+00    1.013872e+00   1.350382e-02
  1.718630e+00    1.009504e+00   1.346061e-02
  1.720840e+00    9.862393e-01   1.329070e-02
  1.723051e+00    9.854717e-01   1.327193e-02
  1.725261e+00    9.879034e-01   1.327385e-02
  1.727472e+00    9.970375e-01   1.332105e-02
  1.729682e+00    9.881906e-01   1.324856e-02
  1.731893e+00    9.742681e-01   1.314123e-02
  1.734103e+00    9.846091e-01   1.319716e-02
  1.736313e+00    9.960872e-01   1.325993e-02
  1.738524e+00    9.811223e-01   1.314626e-02
  1.740734e+00    9.849080e-01   1.315801e-02
  1.742945e+00    9.682567e-01   1.303303e-02
  1.745155e+00    9.848067e-01   1.313055e-02
  1.747366e+00    9.720230e-01   1.303136e-02
  1.749576e+00    9.578344e-01   1.292242e-02
  1.751787e+00    9.633085e-01   1.294607e-02
  1.753997e+00    9.699086e-01   1.297706e-02
  1.756208e+00    9.571879e-01   1.287858e-02
  1.758418e+00    9.705589e-01   1.295512e-02
  1.760628e+00    9.600557e-01   1.287155e-02
  1.762839e+00    9.474534e-01   1.277369e-02
  1.765049e+00    9.443856e-01   1.273999e-02
  1.767260e+00    9.405613e-01   1.270149e-02
  1.769470e+00    9.278501e-01   1.260258e-02
  1.771681e+00    9.292731e-01   1.259924e-02
  1.773891e+00    9.526168e-01   1.274344e-02
  1.776102e+00    9.380343e-01   1.263273e-02
  1.778312e+00    9.280053e-01   1.255241e-02
  1.780523e+00    9.102891e-01   1.241948e-02
  1.782733e+00    9.190105e-01   1.246628e-02
  1.784944e+00    9.321824e-01   1.254245e-02
  1.787154e+00    9.115222e-01   1.239029e-02
  1.789364e+00    9.139604e-01   1.239447e-02
  1.791575e+00    9.035295e-01   1.231117e-02
  1.793785e+00    9.164560e-01   1.238655e-02
  1.795996e+00    9.013922e-01   1.227196e-02
  1.798206e+00    9.098340e-01   1.231682e-02
  1.800417e+00    9.027844e-01   1.225644e-02
  1.802627e+00    8.907514e-01   1.216271e-02
  1.804838e+00    8.908265e-01   1.215122e-02
  1.807048e+00    8.937540e-01   1.215847e-02
  1.809259e+00    8.997526e-01   1.218565e-02
  1.811469e+00    8.916056e-01   1.211550e-02
  1.813679e+00    8.874394e-01   1.207230e-02
  1.815890e+00    8.818976e-01   1.201994e-02
  1.818100e+00    8.804156e-01   1.199486e-02
  1.820311e+00    8.778743e-01   1.196290e-02
  1.822521e+00    8.848327e-01   1.199542e-02
  1.824732e+00    8.854480e-01   1.198481e-02
  1.826942e+00    9.114403e-01   1.214695e-02
  1.829153e+00    8.850895e-01   1.195839e-02
  1.831363e+00    8.620995e-01   1.179017e-02
  1.833574e+00    8.747133e-01   1.186445e-02
  1.835784e+00    8.833888e-01   1.191172e-02
  1.837994e+00    8.739284e-01   1.183607e-02
  1.840205e+00    8.820063e-01   1.187942e-02
  1.842415e+00    8.902997e-01   1.192325e-02
  1.844626e+00    8.800797e-01   1.184302e-02
  1.846836e+00    8.893476e-01   1.189360e-02
  1.849047e+00    9.124821e-01   1.203542e-02
  1.851257e+00    9.008129e-01   1.194844e-02
  1.853468e+00    8.932004e-01   1.188888e-02
  1.855678e+00    9.137946e-01   1.201601e-02
  1.857889e+00    8.826588e-01   1.180092e-02
  1.860099e+00    8.685287e-01   1.169738e-02
  1.862309e+00    8.693953e-01   1.169463e-02
  1.864520e+00    8.803925e-01   1.175967e-02
  1.866730e+00    8.573209e-01   1.159518e-02
  1.868941e+00    8.483807e-01   1.152364e-02
  1.871151e+00    8.398437e-01   1.145419e-02
  1.873362e+00    8.481132e-01   1.149912e-02
  1.875572e+00    8.418048e-01   1.144539e-02
  1.877783e+00    8.445793e-01   1.145282e-02
  1.879993e+00    8.387248e-01   1.140196e-02
  1.882204e+00    8.528406e-01   1.148655e-02
  1.884414e+00    8.602794e-01   1.152536e-02
  1.886624e+00    8.643452e-01   1.154137e-02
  1.888835e+00    8.384926e-01   1.135651e-02
  1.891045e+00    8.292697e-01   1.128305e-02
  1.893256e+00    8.316211e-01   1.128799e-02
  1.895466e+00    8.409829e-01   1.134016e-02
  1.897677e+00    8.371819e-01   1.130358e-02
  1.899887e+00    8.304502e-01   1.124707e-02
  1.902098e+00    8.348883e-01   1.126623e-02
  1.904308e+00    8.218677e-01   1.116751e-02
  1.906519e+00    8.090860e-01   1.106963e-02
  1.908729e+00    8.107179e-01   1.107027e-02
  1.910940e+00    8.361359e-01   1.123132e-02
  1.913150e+00    8.111460e-01   1.105170e-02
  1.915360e+00    8.341187e-01   1.119641e-02
  1.917571e+00    8.341771e-01   1.118588e-02
  1.919781e+00    8.295466e-01   1.114404e-02
  1.921992e+00    8.235235e-01   1.109288e-02
  1.924202e+00    8.255045e-01   1.109539e-02
  1.926413e+00    8.145788e-01   1.101144e-02
  1.928623e+00    8.006546e-01   1.090645e-02
  1.930834e+00    8.098238e-01   1.095833e-02
  1.933044e+00    7.990633e-01   1.087468e-02
  1.935255e+00    7.983897e-01   1.085986e-02
  1.937465e+00    8.040682e-01   1.088802e-02
  1.939675e+00    8.035653e-01   1.087381e-02
  1.941886e+00    7.977310e-01   1.082401e-02
  1.944096e+00    8.076835e-01   1.088113e-02
  1.946307e+00    8.006812e-01   1.082352e-02
  1.948517e+00    7.873827e-01   1.072290e-02
  1.950728e+00    8.034317e-01   1.082134e-02
  1.952938e+00    8.095355e-01   1.085222e-02
  1.955149e+00    8.006096e-01   1.078197e-02
  1.957359e+00    7.852136e-01   1.066781e-02
  1.959570e+00    8.073153e-01   1.080595e-02
  1.961780e+00    7.757416e-01   1.058274e-02
  1.963990e+00    7.729315e-01   1.055354e-02
  1.966201e+00    7.959941e-01   1.069974e-02
  1.968411e+00    7.877514e-01   1.063405e-02
  1.970622e+00    8.093304e-01   1.076850e-02
  1.972832e+00    8.025205e-01   1.071305e-02
  1.975043e+00    7.880471e-01   1.060593e-02
  1.977253e+00    7.970737e-01   1.065647e-02
  1.979464e+00    8.041756e-01   1.069368e-02
  1.981674e+00    8.078244e-01   1.070749e-02
  1.983885e+00    7.915633e-01   1.058909e-02
  1.986095e+00    7.721710e-01   1.044893e-02
  1.988305e+00    7.842870e-01   1.052064e-02
  1.990516e+00    8.042859e-01   1.064387e-02
  1.992726e+00    7.646037e-01   1.036839e-02
  1.994937e+00    7.659305e-01   1.036731e-02
  1.997147e+00    7.734874e-01   1.040862e-02
  1.999358e+00    7.657944e-01   1.034694e-02
  2.001568e+00    7.673131e-01   1.034642e-02
  2.003779e+00    7.610717e-01   1.029243e-02
  2.005989e+00    7.809424e-01   1.041382e-02
  2.008200e+00    7.765008e-01   1.037261e-02
  2.010410e+00    7.614496e-01   1.025990e-02
  2.012621e+00    7.493053e-01   1.016618e-02
  2.014831e+00    7.577837e-01   1.021213e-02
  2.017041e+00    7.686757e-01   1.027488e-02
  2.019252e+00    7.659032e-01   1.024637e-02
  2.021462e+00    7.595405e-01   1.019425e-02
  2.023673e+00    7.850093e-01   1.035419e-02
  2.025883e+00    9.356056e-01   1.129325e-02
  2.028094e+00    1.018223e+00   1.177031e-02
  2.030304e+00    8.456649e-01   1.071668e-02
  2.032515e+00    7.700320e-01   1.021680e-02
  2.034725e+00    7.582165e-01   1.012869e-02
  2.036936e+00    7.401892e-01   9.998298e-03
  2.039146e+00    7.611142e-01   1.012906e-02
  2.041356e+00    7.537917e-01   1.007059e-02
  2.043567e+00    7.643893e-01   1.013177e-02
  2.045777e+00    7.767552e-01   1.020401e-02
  2.047988e+00    7.652795e-01   1.011895e-02
  2.050198e+00    7.498461e-01   1.000796e-02
  2.052409e+00    7.568254e-01   1.004674e-02
  2.054619e+00    7.783574e-01   1.018116e-02
  2.056830e+00    7.671910e-01   1.010062e-02
  2.059040e+00    7.633171e-01   1.006752e-02
  2.061251e+00    7.541759e-01   9.999791e-03
  2.063461e+00    7.589381e-01   1.002364e-02
  2.065671e+00    7.589207e-01   1.001477e-02
  2.067882e+00    7.464771e-01   9.923331e-03
  2.070092e+00    7.556455e-01   9.974845e-03
  2.072303e+00    7.443562e-01   9.890908e-03
  2.074513e+00    7.595179e-01   9.981744e-03
  2.076724e+00    7.537249e-01   9.934081e-03
  2.078934e+00    7.426946e-01   9.852114e-03
  2.081145e+00    7.498792e-01   9.890536e-03
  2.083355e+00    7.465987e-01   9.859675e-03
  2.085566e+00    7.367777e-01   9.785726e-03
  2.087776e+00    7.435020e-01   9.820744e-03
  2.089986e+00    7.521089e-01   9.868564e-03
  2.092197e+00    7.587135e-01   9.902700e-03
  2.094407e+00    7.643252e-01   9.929871e-03
  2.096618e+00    7.397338e-01   9.759904e-03
  2.098828e+00    7.350001e-01   9.719294e-03
  2.101039e+00    7.397429e-01   9.741589e-03
  2.103249e+00    7.357680e-01   9.706684e-03
  2.105460e+00    7.210988e-01   9.600486e-03
  2.107670e+00    7.265086e-01   9.627688e-03
  2.109881e+00    7.229987e-01   9.595282e-03
  2.112091e+00    7.297978e-01   9.631261e-03
  2.114301e+00    7.522717e-01   9.769497e-03
  2.116512e+00    7.448449e-01   9.712236e-03
  2.118722e+00    7.194114e-01   9.536176e-03
  2.120933e+00    7.266712e-01   9.575250e-03
  2.123143e+00    7.253014e-01   9.557288e-03
  2.125354e+00    7.134631e-01   9.470466e-03
  2.127564e+00    7.063613e-01   9.414542e-03
  2.129775e+00    7.118207e-01   9.442139e-03
  2.131985e+00    7.273809e-01   9.535654e-03
  2.134196e+00    7.318909e-01   9.556467e-03
  2.136406e+00    7.305604e-01   9.538930e-03
  2.138617e+00    7.118977e-01   9.407839e-03
  2.140827e+00    7.168432e-01   9.456586e-03
  2.143037e+00    7.388694e-01   9.647273e-03
  2.145248e+00    7.447320e-01   9.708063e-03
  2.147458e+00    7.466362e-01   9.736068e-03
  2.149669e+00    7.191941e-01   9.567467e-03
  2.151879e+00    7.164528e-01   9.558504e-03
  2.154090e+00    7.260723e-01   9.629925e-03
  2.156300e+00    7.077078e-01   9.513992e-03
  2.158511e+00    7.138548e-01   9.560574e-03
  2.160721e+00    7.048469e-01   9.504915e-03
  2.162932e+00    7.008393e-01   9.481584e-03
  2.165142e+00    7.000762e-01   9.479459e-03
  2.167352e+00    6.949744e-01   9.447774e-03
  2.169563e+00    6.715795e-01   9.289303e-03
  2.171773e+00    6.737136e-01   9.306458e-03
  2.173984e+00    6.912017e-01   9.427869e-03
  2.176194e+00    7.211056e-01   9.630891e-03
  2.178405e+00    7.245256e-01   9.654410e-03
  2.180615e+00    7.301303e-01   9.692379e-03
  2.182826e+00    7.421873e-01   9.772789e-03
  2.185036e+00    7.299623e-01   9.692024e-03
  2.187247e+00    7.082108e-01   9.546499e-03
  2.189457e+00    6.784256e-01   9.343171e-03
  2.191667e+00    6.815978e-01   9.364798e-03
  2.193878e+00    6.953319e-01   9.458127e-03
  2.196088e+00    6.976256e-01   9.473018e-03
  2.198299e+00    6.844444e-01   9.382008e-03
  2.200509e+00    6.877991e-01   9.403918e-03
  2.202720e+00    6.905378e-01   9.421448e-03
  2.204930e+00    6.991969e-01   9.479083e-03
  2.207141e+00    7.026352e-01   9.501229e-03
  2.209351e+00    7.026958e-01   9.499733e-03
  2.211562e+00    6.714306e-01   9.284393e-03
  2.213772e+00    6.733133e-01   9.242038e-03
  2.215982e+00    6.653690e-01   9.143503e-03
  2.218193e+00    6.648327e-01   9.110411e-03
  2.220403e+00    6.758420e-01   9.160941e-03
  2.222614e+00    6.804708e-01   9.171204e-03
  2.224824e+00    6.719548e-01   9.094266e-03
  2.227035e+00    6.848876e-01   9.163771e-03
  2.229245e+00    6.745514e-01   9.077362e-03
  2.231456e+00    6.802788e-01   9.100092e-03
  2.233666e+00    6.590594e-01   8.942091e-03
  2.235877e+00    6.702198e-01   9.003205e-03
  2.238087e+00    6.753979e-01   9.024384e-03
  2.240298e+00    6.755165e-01   9.011360e-03
  2.242508e+00    6.648521e-01   8.924855e-03
  2.244718e+00    6.713472e-01   8.952493e-03
  2.246929e+00    6.732188e-01   8.950506e-03
  2.249139e+00    6.776518e-01   8.967431e-03
  2.251350e+00    6.820452e-01   8.984635e-03
  2.253560e+00    6.678241e-01   8.878892e-03
  2.255771e+00    6.638376e-01   8.840949e-03
  2.257981e+00    6.555414e-01   8.774446e-03
  2.260192e+00    6.673366e-01   8.841891e-03
  2.262402e+00    6.796947e-01   8.912398e-03
  2.264613e+00    6.658306e-01   8.810207e-03
  2.266823e+00    6.705611e-01   8.830970e-03
  2.269033e+00    6.734679e-01   8.839641e-03
  2.271244e+00    6.585100e-01   8.730571e-03
  2.273454e+00    6.461130e-01   8.637853e-03
  2.275665e+00    6.453268e-01   8.622431e-03
  2.277875e+00    6.570169e-01   8.690260e-03
  2.280086e+00    6.578847e-01   8.685989e-03
  2.282296e+00    6.457590e-01   8.596260e-03
  2.284507e+00    6.483730e-01   8.603593e-03
  2.286717e+00    6.562148e-01   8.645992e-03
  2.288928e+00    6.724272e-01   8.742176e-03
  2.291138e+00    6.530712e-01   8.606055e-03
  2.293348e+00    6.391390e-01   8.504326e-03
  2.295559e+00    6.372836e-01   8.482787e-03
  2.297769e+00    6.658702e-01   8.661618e-03
  2.299980e+00    6.642555e-01   8.641724e-03
  2.302190e+00    6.457922e-01   8.511703e-03
  2.304401e+00    6.512740e-01   8.538418e-03
  2.306611e+00    6.457958e-01   8.493294e-03
  2.308822e+00    6.484826e-01   8.502567e-03
  2.311032e+00    6.468652e-01   8.485529e-03
  2.313243e+00    6.415536e-01   8.444394e-03
  2.315453e+00    6.357197e-01   8.398389e-03
  2.317663e+00    6.452916e-01   8.452301e-03
  2.319874e+00    6.226240e-01   8.293937e-03
  2.322084e+00    6.429852e-01   8.419514e-03
  2.324295e+00    6.608777e-01   8.527532e-03
  2.326505e+00    6.560512e-01   8.487217e-03
  2.328716e+00    6.373572e-01   8.356901e-03
  2.330926e+00    6.439192e-01   8.391018e-03
  2.333137e+00    6.381240e-01   8.344823e-03
  2.335347e+00    6.511801e-01   8.420805e-03
  2.337558e+00    6.423317e-01   8.355173e-03
  2.339768e+00    6.456796e-01   8.368297e-03
  2.341979e+00    6.375336e-01   8.306997e-03
  2.344189e+00    6.316068e-01   8.259925e-03
  2.346399e+00    6.347151e-01   8.271747e-03
  2.348610e+00    6.443420e-01   8.325718e-03
  2.350820e+00    6.372748e-01   8.271735e-03
  2.353031e+00    6.509556e-01   8.351665e-03
  2.355241e+00    6.370870e-01   8.254140e-03
  2.357452e+00    6.474410e-01   8.312430e-03
  2.359662e+00    6.253154e-01   8.160977e-03
  2.361873e+00    6.386718e-01   8.239374e-03
  2.364083e+00    6.471937e-01   8.286064e-03
  2.366294e+00    6.351895e-01   8.200716e-03
  2.368504e+00    6.354001e-01   8.193931e-03
  2.370714e+00    6.364004e-01   8.192259e-03
  2.372925e+00    6.309556e-01   8.149050e-03
  2.375135e+00    6.416463e-01   8.209619e-03
  2.377346e+00    6.390646e-01   8.185065e-03
  2.379556e+00    6.234320e-01   8.076416e-03
  2.381767e+00    6.184548e-01   8.036281e-03
  2.383977e+00    6.212353e-01   8.046365e-03
  2.386188e+00    6.365201e-01   8.136749e-03
  2.388398e+00    6.146938e-01   7.988093e-03
  2.390609e+00    6.095195e-01   7.946713e-03
  2.392819e+00    6.178820e-01   7.993263e-03
  2.395029e+00    6.318846e-01   8.075559e-03
  2.397240e+00    6.224344e-01   8.007049e-03
  2.399450e+00    5.968031e-01   7.832740e-03
  2.401661e+00    6.030306e-01   7.865869e-03
  2.403871e+00    6.009055e-01   7.844315e-03
  2.406082e+00    6.073705e-01   7.878973e-03
  2.408292e+00    5.996291e-01   7.820873e-03
  2.410503e+00    5.982758e-01   7.804619e-03
  2.412713e+00    6.045929e-01   7.837933e-03
  2.414924e+00    5.889337e-01   7.728393e-03
  2.417134e+00    5.993413e-01   7.788765e-03
  2.419344e+00    5.997924e-01   7.784317e-03
  2.421555e+00    5.999492e-01   7.777841e-03
  2.423765e+00    6.097876e-01   7.833880e-03
  2.425976e+00    6.011431e-01   7.770362e-03
  2.428186e+00    5.860224e-01   7.664865e-03
  2.430397e+00    5.968866e-01   7.728090e-03
  2.432607e+00    6.038101e-01   7.765478e-03
  2.434818e+00    5.910160e-01   7.675240e-03
  2.437028e+00    5.912309e-01   7.669509e-03
  2.439239e+00    5.947169e-01   7.684429e-03
  2.441449e+00    5.768363e-01   7.560931e-03
  2.443659e+00    5.685247e-01   7.499035e-03
  2.445870e+00    5.753149e-01   7.555787e-03
  2.448080e+00    5.852878e-01   7.655863e-03
  2.450291e+00    5.758451e-01   7.610456e-03
  2.452501e+00    5.758733e-01   7.621791e-03
  2.454712e+00    5.652143e-01   7.559306e-03
  2.456922e+00    5.711288e-01   7.605363e-03
  2.459133e+00    5.610627e-01   7.543456e-03
  2.461343e+00    5.607722e-01   7.545819e-03
  2.463554e+00    5.459193e-01   7.448640e-03
  2.465764e+00    5.614319e-01   7.556845e-03
  2.467975e+00    5.525873e-01   7.499371e-03
  2.470185e+00    5.526466e-01   7.502003e-03
  2.472395e+00    5.571833e-01   7.533965e-03
  2.474606e+00    5.501003e-01   7.487477e-03
  2.476816e+00    5.455835e-01   7.457417e-03
  2.479027e+00    5.314366e-01   7.360916e-03
  2.481237e+00    5.572536e-01   7.537873e-03
  2.483448e+00    5.387700e-01   7.412117e-03
  2.485658e+00    5.532047e-01   7.510591e-03
  2.487869e+00    5.503100e-01   7.490973e-03
  2.490079e+00    5.297869e-01   7.349452e-03
  2.492290e+00    5.328156e-01   7.369979e-03
  2.494500e+00    5.473487e-01   7.469093e-03
  2.496710e+00    5.195903e-01   7.276550e-03
  2.498921e+00    5.255787e-01   7.317354e-03
  2.501131e+00    5.479178e-01   7.470312e-03
  2.503342e+00    5.301447e-01   7.346874e-03
  2.505552e+00    5.328172e-01   7.364254e-03
  2.507763e+00    5.208731e-01   7.279832e-03
  2.509973e+00    5.266616e-01   7.318774e-03
  2.512184e+00    5.210057e-01   7.277766e-03
  2.514394e+00    5.295593e-01   7.327877e-03
  2.516605e+00    5.321513e-01   7.298481e-03
  2.518815e+00    5.265617e-01   7.231717e-03
  2.521025e+00    5.267698e-01   7.212133e-03
  2.523236e+00    5.317253e-01   7.227913e-03
  2.525446e+00    5.180353e-01   7.118763e-03
  2.527657e+00    5.093669e-01   7.044569e-03
  2.529867e+00    5.222315e-01   7.118816e-03
  2.532078e+00    5.258591e-01   7.128462e-03
  2.534288e+00    5.249873e-01   7.108665e-03
  2.536499e+00    5.227064e-01   7.081288e-03
  2.538709e+00    5.186375e-01   7.042730e-03
  2.540920e+00    5.259306e-01   7.081417e-03
  2.543130e+00    5.123509e-01   6.979153e-03
  2.545340e+00    5.221985e-01   7.035848e-03
  2.547551e+00    5.215148e-01   7.021315e-03
  2.549761e+00    5.093022e-01   6.929160e-03
  2.551972e+00    4.993491e-01   6.851960e-03
  2.554182e+00    5.251788e-01   7.017728e-03
  2.556393e+00    5.241163e-01   7.001509e-03
  2.558603e+00    5.179844e-01   6.951391e-03
  2.560814e+00    5.096484e-01   6.886595e-03
  2.563024e+00    5.105272e-01   6.884030e-03
  2.565235e+00    5.130112e-01   6.891310e-03
  2.567445e+00    5.096002e-01   6.858879e-03
  2.569656e+00    5.181192e-01   6.906244e-03
  2.571866e+00    5.164313e-01   6.885620e-03
  2.574076e+00    5.182916e-01   6.888751e-03
  2.576287e+00    5.048656e-01   6.790704e-03
  2.578497e+00    5.180283e-01   6.870780e-03
  2.580708e+00    5.108521e-01   6.814988e-03
  2.582918e+00    5.135521e-01   6.825227e-03
  2.585129e+00    5.201639e-01   6.861211e-03
  2.587339e+00    5.104868e-01   6.789463e-03
  2.589550e+00    5.120387e-01   6.792210e-03
  2.591760e+00    5.066379e-01   6.748600e-03
  2.593971e+00    5.080829e-01   6.750720e-03
  2.596181e+00    5.071862e-01   6.738565e-03
  2.598391e+00    5.074071e-01   6.734854e-03
  2.600602e+00    5.177521e-01   6.797202e-03
  2.602812e+00    5.068795e-01   6.717950e-03
  2.605023e+00    5.127097e-01   6.749267e-03
  2.607233e+00    5.009556e-01   6.664372e-03
  2.609444e+00    5.077409e-01   6.702110e-03
  2.611654e+00    5.127895e-01   6.727993e-03
  2.613865e+00    5.051661e-01   6.670761e-03
  2.616075e+00    4.974281e-01   6.612409e-03
  2.618286e+00    4.837911e-01   6.514286e-03
  2.620496e+00    4.989979e-01   6.609208e-03
  2.622706e+00    4.885975e-01   6.534339e-03
  2.624917e+00    4.862112e-01   6.512601e-03
  2.627127e+00    5.072092e-01   6.645995e-03
  2.629338e+00    4.968040e-01   6.571541e-03
  2.631548e+00    5.062692e-01   6.627647e-03
  2.633759e+00    4.957912e-01   6.551622e-03
  2.635969e+00    4.914367e-01   6.516158e-03
  2.638180e+00    4.992114e-01   6.560528e-03
  2.640390e+00    4.933277e-01   6.515211e-03
  2.642601e+00    5.100299e-01   6.617843e-03
  2.644811e+00    5.100996e-01   6.611163e-03
  2.647021e+00    5.136865e-01   6.627702e-03
  2.649232e+00    5.240299e-01   6.687224e-03
  2.651442e+00    5.031975e-01   6.546437e-03
  2.653653e+00    4.847287e-01   6.418467e-03
  2.655863e+00    4.958227e-01   6.484828e-03
  2.658074e+00    5.000897e-01   6.506054e-03
  2.660284e+00    5.050927e-01   6.532113e-03
  2.662495e+00    5.033618e-01   6.514117e-03
  2.664705e+00    5.076174e-01   6.534953e-03
  2.666916e+00    4.990183e-01   6.472898e-03
  2.669126e+00    4.915377e-01   6.417752e-03
  2.671337e+00    4.892775e-01   6.396470e-03
  2.673547e+00    5.010900e-01   6.466765e-03
  2.675757e+00    4.960559e-01   6.427765e-03
  2.677968e+00    5.011160e-01   6.453900e-03
  2.680178e+00    4.824480e-01   6.326217e-03
  2.682389e+00    4.851497e-01   6.337557e-03
  2.684599e+00    4.877838e-01   6.348579e-03
  2.686810e+00    5.028885e-01   6.439449e-03
  2.689020e+00    5.007985e-01   6.419715e-03
  2.691231e+00    5.075392e-01   6.456368e-03
  2.693441e+00    4.980352e-01   6.389455e-03
  2.695652e+00    4.999738e-01   6.395282e-03
  2.697862e+00    5.014828e-01   6.398527e-03
  2.700072e+00    4.873958e-01   6.301941e-03
  2.702283e+00    4.899046e-01   6.311917e-03
  2.704493e+00    4.808828e-01   6.247290e-03
  2.706704e+00    4.918445e-01   6.311674e-03
  2.708914e+00    4.745752e-01   6.193996e-03
  2.711125e+00    4.763214e-01   6.199200e-03
  2.713335e+00    4.777182e-01   6.202265e-03
  2.715546e+00    4.814820e-01   6.220201e-03
  2.717756e+00    5.046846e-01   6.362332e-03
  2.719967e+00    4.836383e-01   6.222081e-03
  2.722177e+00    4.767357e-01   6.171429e-03
  2.724387e+00    4.954802e-01   6.285416e-03
  2.726598e+00    4.853278e-01   6.214641e-03
  2.728808e+00    4.873408e-01   6.221350e-03
  2.731019e+00    4.821446e-01   6.181984e-03
  2.733229e+00    4.940703e-01   6.252102e-03
  2.735440e+00    4.858398e-01   6.193551e-03
  2.737650e+00    4.737874e-01   6.110280e-03
  2.739861e+00    4.706196e-01   6.083821e-03
  2.742071e+00    4.840348e-01   6.164176e-03
  2.744282e+00    4.832840e-01   6.153133e-03
  2.746492e+00    4.815509e-01   6.136079e-03
  2.748702e+00    4.794554e-01   6.116819e-03
  2.750913e+00    4.693598e-01   6.046361e-03
  2.753123e+00    4.756704e-01   6.080788e-03
  2.755334e+00    4.788028e-01   6.094713e-03
  2.757544e+00    4.719454e-01   6.045230e-03
  2.759755e+00    4.775420e-01   6.075088e-03
  2.761965e+00    4.749700e-01   6.052768e-03
  2.764176e+00    4.776160e-01   6.063630e-03
  2.766386e+00    4.873830e-01   6.119483e-03
  2.768597e+00    4.835106e-01   6.089231e-03
  2.770807e+00    4.769441e-01   6.041886e-03
  2.773017e+00    4.850215e-01   6.086818e-03
  2.775228e+00    4.817140e-01   6.060227e-03
  2.777438e+00    4.775967e-01   6.028487e-03
  2.779649e+00    4.914740e-01   6.109445e-03
  2.781859e+00    4.745256e-01   5.997456e-03
  2.784070e+00    4.752936e-01   5.996453e-03
  2.786280e+00    4.688038e-01   5.949652e-03
  2.788491e+00    4.755737e-01   5.986621e-03
  2.790701e+00    4.913874e-01   6.079616e-03
  2.792912e+00    4.890304e-01   6.058971e-03
  2.795122e+00    4.886591e-01   6.050870e-03
  2.797333e+00    4.756582e-01   5.964274e-03
  2.799543e+00    4.710398e-01   5.929409e-03
  2.801753e+00    4.717623e-01   5.928122e-03
  2.803964e+00    4.797577e-01   5.972448e-03
  2.806174e+00    4.819186e-01   5.979710e-03
  2.808385e+00    4.762247e-01   5.937468e-03
  2.810595e+00    4.802102e-01   5.955347e-03
  2.812806e+00    4.695513e-01   5.882325e-03
  2.815016e+00    4.720361e-01   5.893117e-03
  2.817227e+00    4.736267e-01   5.928959e-03
  2.819437e+00    4.774595e-01   5.964033e-03
  2.821648e+00    4.684066e-01   5.909490e-03
  2.823858e+00    4.636186e-01   5.884502e-03
  2.826068e+00    4.703424e-01   5.931970e-03
  2.828279e+00    4.760441e-01   5.971875e-03
  2.830489e+00    4.758466e-01   5.973998e-03
  2.832700e+00    4.701320e-01   5.940559e-03
  2.834910e+00    4.664511e-01   5.919316e-03
  2.837121e+00    4.648836e-01   5.911059e-03
  2.839331e+00    4.796621e-01   6.005516e-03
  2.841542e+00    4.685935e-01   5.936838e-03
  2.843752e+00    4.737021e-01   5.969898e-03
  2.845963e+00    4.705714e-01   5.950544e-03
  2.848173e+00    4.574311e-01   5.866940e-03
  2.850383e+00    4.574698e-01   5.867501e-03
  2.852594e+00    4.654770e-01   5.918527e-03
  2.854804e+00    4.716863e-01   5.957376e-03
  2.857015e+00    4.720539e-01   5.959263e-03
  2.859225e+00    4.584856e-01   5.872756e-03
  2.861436e+00    4.566526e-01   5.860340e-03
  2.863646e+00    4.790184e-01   6.002166e-03
  2.865857e+00    4.793520e-01   6.004633e-03
  2.868067e+00    4.663578e-01   5.922894e-03
  2.870278e+00    4.726816e-01   5.962556e-03
  2.872488e+00    4.734437e-01   5.966190e-03
  2.874698e+00    4.790010e-01   6.000046e-03
  2.876909e+00    4.687828e-01   5.934367e-03
  2.879119e+00    4.666729e-01   5.919377e-03
  2.881330e+00    4.582358e-01   5.864145e-03
  2.883540e+00    4.526397e-01   5.826866e-03
  2.885751e+00    4.633664e-01   5.893848e-03
  2.887961e+00    4.576809e-01   5.855701e-03
  2.890172e+00    4.579245e-01   5.855676e-03
  2.892382e+00    4.529613e-01   5.822054e-03
  2.894593e+00    4.543488e-01   5.829166e-03
  2.896803e+00    4.554157e-01   5.834032e-03
  2.899014e+00    4.706582e-01   5.928924e-03
  2.901224e+00    4.578758e-01   5.845888e-03
  2.903434e+00    4.538541e-01   5.818215e-03
  2.905645e+00    4.633829e-01   5.876742e-03
  2.907855e+00    4.500265e-01   5.789363e-03
  2.910066e+00    4.536928e-01   5.810806e-03
  2.912276e+00    4.645762e-01   5.877975e-03
  2.914487e+00    4.537218e-01   5.806463e-03
  2.916697e+00    4.555650e-01   5.816007e-03
  2.918908e+00    4.644165e-01   5.870228e-03
  2.921118e+00    4.722506e-01   5.916807e-03
  2.923329e+00    4.514691e-01   5.782873e-03
  2.925539e+00    4.446909e-01   5.737025e-03
  2.927749e+00    4.505597e-01   5.772461e-03
  2.929960e+00    4.579334e-01   5.816726e-03
  2.932170e+00    4.586151e-01   5.818730e-03
  2.934381e+00    4.535853e-01   5.784301e-03
  2.936591e+00    4.690532e-01   5.879475e-03
  2.938802e+00    4.543734e-01   5.784045e-03
  2.941012e+00    4.566902e-01   5.796451e-03
  2.943223e+00    4.398631e-01   5.685988e-03
  2.945433e+00    4.444467e-01   5.711854e-03
  2.947644e+00    4.528383e-01   5.761409e-03
  2.949854e+00    4.561954e-01   5.778432e-03
  2.952064e+00    4.500453e-01   5.735178e-03
  2.954275e+00    4.531268e-01   5.750352e-03
  2.956485e+00    4.594042e-01   5.785854e-03
  2.958696e+00    4.640948e-01   5.810897e-03
  2.960906e+00    4.596617e-01   5.778876e-03
  2.963117e+00    4.518954e-01   5.725369e-03
  2.965327e+00    4.541816e-01   5.735950e-03
  2.967538e+00    4.558943e-01   5.743823e-03
  2.969748e+00    4.629138e-01   5.785026e-03
  2.971959e+00    4.642667e-01   5.790315e-03
  2.974169e+00    4.526433e-01   5.714794e-03
  2.976379e+00    4.601977e-01   5.759337e-03
  2.978590e+00    4.635597e-01   5.777174e-03
  2.980800e+00    4.622584e-01   5.766241e-03
  2.983011e+00    4.501486e-01   5.687428e-03
  2.985221e+00    4.593961e-01   5.742370e-03
  2.987432e+00    4.622290e-01   5.756902e-03
  2.989642e+00    4.527215e-01   5.694790e-03
  2.991853e+00    4.551100e-01   5.706492e-03
  2.994063e+00    4.579308e-01   5.721224e-03
  2.996274e+00    4.525962e-01   5.684648e-03
  2.998484e+00    4.535751e-01   5.688061e-03
  3.000694e+00    4.577516e-01   5.710744e-03
  3.002905e+00    4.405574e-01   5.599563e-03
  3.005115e+00    4.509992e-01   5.662547e-03
  3.007326e+00    4.732859e-01   5.797554e-03
  3.009536e+00    4.576775e-01   5.697887e-03
  3.011747e+00    4.675020e-01   5.755754e-03
  3.013957e+00    4.567012e-01   5.685699e-03
  3.016168e+00    4.326290e-01   5.530634e-03
  3.018378e+00    4.535459e-01   5.659705e-03
  3.020589e+00    4.505671e-01   5.637889e-03
  3.022799e+00    4.499653e-01   5.630970e-03
  3.025010e+00    4.476961e-01   5.613535e-03
  3.027220e+00    4.399781e-01   5.561871e-03
  3.029430e+00    4.395009e-01   5.555639e-03
  3.031641e+00    4.646293e-01   5.709076e-03
  3.033851e+00    4.661184e-01   5.714655e-03
  3.036062e+00    4.465894e-01   5.590893e-03
  3.038272e+00    4.491415e-01   5.603285e-03
  3.040483e+00    4.550158e-01   5.636559e-03
  3.042693e+00    4.568533e-01   5.644650e-03
  3.044904e+00    4.599394e-01   5.659631e-03
  3.047114e+00    4.514487e-01   5.602327e-03
  3.049325e+00    4.444234e-01   5.554198e-03
  3.051535e+00    4.497862e-01   5.583232e-03
  3.053745e+00    4.472672e-01   5.562840e-03
  3.055956e+00    4.439095e-01   5.537385e-03
  3.058166e+00    4.335932e-01   5.468485e-03
  3.060377e+00    4.315513e-01   5.450907e-03
  3.062587e+00    4.420853e-01   5.512456e-03
  3.064798e+00    4.442085e-01   5.521446e-03
  3.067008e+00    4.447654e-01   5.520204e-03
  3.069219e+00    4.431908e-01   5.505959e-03
  3.071429e+00    4.374851e-01   5.466905e-03
  3.073640e+00    4.489545e-01   5.534801e-03
  3.075850e+00    4.440831e-01   5.501121e-03
  3.078060e+00    4.438747e-01   5.496741e-03
  3.080271e+00    4.541262e-01   5.556347e-03
  3.082481e+00    4.596103e-01   5.586328e-03
  3.084692e+00    4.587829e-01   5.577864e-03
  3.086902e+00    4.574952e-01   5.566786e-03
  3.089113e+00    4.508388e-01   5.522521e-03
  3.091323e+00    4.634047e-01   5.595552e-03
  3.093534e+00    4.352008e-01   5.419266e-03
  3.095744e+00    4.360808e-01   5.421412e-03
  3.097955e+00    4.451736e-01   5.474086e-03
  3.100165e+00    4.395607e-01   5.436190e-03
  3.102375e+00    4.362502e-01   5.412284e-03
  3.104586e+00    4.376489e-01   5.417491e-03
  3.106796e+00    4.434167e-01   5.449578e-03
  3.109007e+00    4.411828e-01   5.432630e-03
  3.111217e+00    4.471424e-01   5.465503e-03
  3.113428e+00    4.418512e-01   5.429665e-03
  3.115638e+00    4.369396e-01   5.396209e-03
  3.117849e+00    4.414006e-01   5.419966e-03
  3.120059e+00    4.542387e-01   5.494733e-03
  3.122270e+00    4.315279e-01   5.352402e-03
  3.124480e+00    4.414518e-01   5.409918e-03
  3.126691e+00    4.493386e-01   5.454449e-03
  3.128901e+00    4.475571e-01   5.440493e-03
  3.131111e+00    4.387386e-01   5.382817e-03
  3.133322e+00    4.506111e-01   5.451688e-03
  3.135532e+00    4.495864e-01   5.442067e-03
  3.137743e+00    4.451691e-01   5.411783e-03
  3.139953e+00    4.453275e-01   5.409039e-03
  3.142164e+00    4.420516e-01   5.401130e-03
  3.144374e+00    4.405499e-01   5.420289e-03
  3.146585e+00    4.477474e-01   5.479028e-03
  3.148795e+00    4.425990e-01   5.458240e-03
  3.151006e+00    4.243262e-01   5.352735e-03
  3.153216e+00    4.340599e-01   5.420864e-03
  3.155426e+00    4.293822e-01   5.397799e-03
  3.157637e+00    4.441688e-01   5.495486e-03
  3.159847e+00    4.419226e-01   5.486468e-03
  3.162058e+00    4.469746e-01   5.522203e-03
  3.164268e+00    4.502891e-01   5.546741e-03
  3.166479e+00    4.479147e-01   5.535797e-03
  3.168689e+00    4.502401e-01   5.553554e-03
  3.170900e+00    4.473000e-01   5.538586e-03
  3.173110e+00    4.457786e-01   5.532059e-03
  3.175321e+00    4.420067e-01   5.511114e-03
  3.177531e+00    4.412636e-01   5.509220e-03
  3.179741e+00    4.293182e-01   5.436189e-03
  3.181952e+00    4.492130e-01   5.562873e-03
  3.184162e+00    4.406417e-01   5.511723e-03
  3.186373e+00    4.377367e-01   5.495152e-03
  3.188583e+00    4.351588e-01   5.480713e-03
  3.190794e+00    4.402983e-01   5.514742e-03
  3.193004e+00    4.278246e-01   5.437317e-03
  3.195215e+00    4.374302e-01   5.499492e-03
  3.197425e+00    4.312996e-01   5.462054e-03
  3.199636e+00    4.073996e-01   5.307816e-03
  3.201846e+00    4.259651e-01   5.426769e-03
  3.204056e+00    4.315601e-01   5.463220e-03
  3.206267e+00    4.299389e-01   5.453766e-03
  3.208477e+00    4.480202e-01   5.568207e-03
  3.210688e+00    4.448692e-01   5.549467e-03
  3.212898e+00    4.235928e-01   5.415701e-03
  3.215109e+00    4.233879e-01   5.415134e-03
  3.217319e+00    4.252779e-01   5.427837e-03
  3.219530e+00    4.250985e-01   5.427064e-03
  3.221740e+00    4.377753e-01   5.507970e-03
  3.223951e+00    4.265716e-01   5.437510e-03
  3.226161e+00    4.349611e-01   5.490901e-03
  3.228372e+00    4.253487e-01   5.430423e-03
  3.230582e+00    4.263285e-01   5.436803e-03
  3.232792e+00    4.289857e-01   5.453944e-03
  3.235003e+00    4.289804e-01   5.454157e-03
  3.237213e+00    4.101195e-01   5.333022e-03
  3.239424e+00    4.107074e-01   5.336820e-03
  3.241634e+00    4.209827e-01   5.403300e-03
  3.243845e+00    4.221987e-01   5.411168e-03
  3.246055e+00    4.243070e-01   5.424386e-03
  3.248266e+00    4.195247e-01   5.393945e-03
  3.250476e+00    4.257834e-01   5.433702e-03
  3.252687e+00    4.286290e-01   5.451771e-03
  3.254897e+00    4.354196e-01   5.494656e-03
  3.257107e+00    4.220442e-01   5.409305e-03
  3.259318e+00    4.246374e-01   5.425658e-03
  3.261528e+00    4.204123e-01   5.398459e-03
  3.263739e+00    4.166394e-01   5.373632e-03
  3.265949e+00    4.268827e-01   5.439143e-03
  3.268160e+00    4.349009e-01   5.489597e-03
  3.270370e+00    4.218290e-01   5.405952e-03
  3.272581e+00    4.191891e-01   5.388736e-03
  3.274791e+00    4.219032e-01   5.405608e-03
  3.277002e+00    4.263733e-01   5.433623e-03
  3.279212e+00    4.164262e-01   5.369490e-03
  3.281422e+00    4.169445e-01   5.372240e-03
  3.283633e+00    4.278116e-01   5.441128e-03
  3.285843e+00    4.354445e-01   5.489110e-03
  3.288054e+00    4.277212e-01   5.439288e-03
  3.290264e+00    4.213793e-01   5.398494e-03
  3.292475e+00    4.198731e-01   5.388004e-03
  3.294685e+00    4.163173e-01   5.364509e-03
  3.296896e+00    4.144633e-01   5.351803e-03
  3.299106e+00    4.119081e-01   5.334723e-03
  3.301317e+00    4.154157e-01   5.356384e-03
  3.303527e+00    4.291075e-01   5.443458e-03
  3.305737e+00    4.307790e-01   5.453004e-03
  3.307948e+00    4.154726e-01   5.354592e-03
  3.310158e+00    4.175604e-01   5.367178e-03
  3.312369e+00    4.179748e-01   5.368960e-03
  3.314579e+00    4.253773e-01   5.415386e-03
  3.316790e+00    4.398433e-01   5.505963e-03
  3.319000e+00    4.296878e-01   5.440862e-03
  3.321211e+00    4.236127e-01   5.401625e-03
  3.323421e+00    4.368723e-01   5.484292e-03
  3.325632e+00    4.250758e-01   5.408869e-03
  3.327842e+00    4.339612e-01   5.464158e-03
  3.330052e+00    4.228087e-01   5.392440e-03
  3.332263e+00    4.368069e-01   5.479934e-03
  3.334473e+00    4.195500e-01   5.369688e-03
  3.336684e+00    4.291213e-01   5.429309e-03
  3.338894e+00    4.241710e-01   5.397063e-03
  3.341105e+00    4.230846e-01   5.388932e-03
  3.343315e+00    4.170502e-01   5.349255e-03
  3.345526e+00    4.166597e-01   5.345807e-03
  3.347736e+00    4.305878e-01   5.433034e-03
  3.349947e+00    4.212543e-01   5.372871e-03
  3.352157e+00    4.279172e-01   5.414024e-03
  3.354368e+00    4.114580e-01   5.307604e-03
  3.356578e+00    4.097891e-01   5.295804e-03
  3.358788e+00    4.088631e-01   5.288525e-03
  3.360999e+00    4.230161e-01   5.377989e-03
  3.363209e+00    4.235260e-01   5.380240e-03
  3.365420e+00    4.172210e-01   5.338511e-03
  3.367630e+00    4.236090e-01   5.378215e-03
  3.369841e+00    4.204621e-01   5.356771e-03
  3.372051e+00    4.061928e-01   5.263123e-03
  3.374262e+00    4.133421e-01   5.306825e-03
  3.376472e+00    4.028071e-01   5.236348e-03
  3.378683e+00    3.996003e-01   5.212998e-03
  3.380893e+00    4.161661e-01   5.317621e-03
  3.383103e+00    4.078311e-01   5.261434e-03
  3.385314e+00    4.048260e-01   5.239787e-03
  3.387524e+00    4.226890e-01   5.351406e-03
  3.389735e+00    4.087669e-01   5.259939e-03
  3.391945e+00    4.110547e-01   5.270940e-03
  3.394156e+00    4.013712e-01   5.204343e-03
  3.396366e+00    4.149761e-01   5.288383e-03
  3.398577e+00    4.158988e-01   5.291203e-03
  3.400787e+00    4.040048e-01   5.226801e-03
  3.402998e+00    3.964165e-01   5.214914e-03
  3.405208e+00    4.103335e-01   5.326435e-03
  3.407418e+00    4.010940e-01   5.281924e-03
  3.409629e+00    4.023653e-01   5.304265e-03
  3.411839e+00    3.948943e-01   5.266508e-03
  3.414050e+00    3.926139e-01   5.262216e-03
  3.416260e+00    3.868785e-01   5.233180e-03
  3.418471e+00    3.838787e-01   5.222130e-03
  3.420681e+00    4.155634e-01   5.442151e-03
  3.422892e+00    3.735287e-01   5.167393e-03
  3.425102e+00    3.907275e-01   5.292810e-03
  3.427313e+00    3.928372e-01   5.314350e-03
  3.429523e+00    3.829029e-01   5.253728e-03
  3.431733e+00    3.821783e-01   5.255383e-03
  3.433944e+00    3.826105e-01   5.264822e-03
  3.436154e+00    3.860136e-01   5.294448e-03
  3.438365e+00    3.855161e-01   5.297006e-03
  3.440575e+00    3.671682e-01   5.175249e-03
  3.442786e+00    3.724279e-01   5.217719e-03
  3.444996e+00    3.745159e-01   5.237822e-03
  3.447207e+00    3.699286e-01   5.210893e-03
  3.449417e+00    3.729323e-01   5.272899e-03
  3.451628e+00    3.725667e-01   5.299911e-03
  3.453838e+00    3.829690e-01   5.394964e-03
  3.456049e+00    3.653481e-01   5.293262e-03
  3.458259e+00    3.657378e-01   5.317991e-03
  3.460469e+00    3.675616e-01   5.351030e-03
  3.462680e+00    3.807358e-01   5.465538e-03
  3.464890e+00    3.712862e-01   5.415207e-03
  3.467101e+00    3.792742e-01   5.490890e-03
  3.469311e+00    3.777052e-01   5.496215e-03
  3.471522e+00    3.895487e-01   5.598457e-03
  3.473732e+00    3.965364e-01   5.664744e-03
  3.475943e+00    3.949098e-01   5.669076e-03
  3.478153e+00    4.150209e-01   5.827603e-03
  3.480364e+00    4.178836e-01   5.863290e-03
  3.482574e+00    4.147513e-01   5.856810e-03
  3.484784e+00    4.205016e-01   5.912334e-03
  3.486995e+00    4.160100e-01   5.895778e-03
  3.489205e+00    4.401101e-01   6.079069e-03
  3.491416e+00    4.393204e-01   6.088777e-03
  3.493626e+00    4.456034e-01   6.146888e-03
  3.495837e+00    4.651970e-01   6.295789e-03
  3.498047e+00    4.487563e-01   6.198071e-03
  3.500258e+00    4.576192e-01   6.273674e-03
  3.502468e+00    4.537825e-01   6.261715e-03
  3.504679e+00    4.701780e-01   6.388450e-03
  3.506889e+00    4.790868e-01   6.463364e-03
  3.509099e+00    4.641835e-01   6.376285e-03
  3.511310e+00    4.829850e-01   6.518671e-03
  3.513520e+00    4.940728e-01   6.607699e-03
  3.515731e+00    5.030389e-01   6.682006e-03
  3.517941e+00    4.976720e-01   6.660759e-03
  3.520152e+00    5.087783e-01   6.749142e-03
  3.522362e+00    5.052541e-01   6.740316e-03
  3.524573e+00    5.199276e-01   6.851946e-03
  3.526783e+00    5.118805e-01   6.812093e-03
  3.528994e+00    5.197552e-01   6.876554e-03
  3.531204e+00    5.256549e-01   6.927996e-03
  3.533414e+00    5.227844e-01   6.921079e-03
  3.535625e+00    5.444219e-01   7.075437e-03
  3.537835e+00    5.350939e-01   7.026670e-03
  3.540046e+00    5.640678e-01   7.223603e-03
  3.542256e+00    5.384197e-01   7.065034e-03
  3.544467e+00    5.464143e-01   7.124934e-03
  3.546677e+00    5.378827e-01   7.076724e-03
  3.548888e+00    5.480283e-01   7.150730e-03
  3.551098e+00    5.325074e-01   7.055996e-03
  3.553309e+00    5.281948e-01   7.035471e-03
  3.555519e+00    5.389045e-01   7.117768e-03
  3.557729e+00    5.426376e-01   7.154171e-03
  3.559940e+00    5.399922e-01   7.148309e-03
  3.562150e+00    5.285556e-01   7.083829e-03
  3.564361e+00    5.645924e-01   7.334971e-03
  3.566571e+00    5.665075e-01   7.361667e-03
  3.568782e+00    5.520552e-01   7.281495e-03
  3.570992e+00    5.239618e-01   7.107382e-03
  3.573203e+00    5.357074e-01   7.200728e-03
  3.575413e+00    5.488052e-01   7.302174e-03
  3.577624e+00    5.294179e-01   7.186087e-03
  3.579834e+00    5.138180e-01   7.092998e-03
  3.582045e+00    5.303088e-01   7.219872e-03
  3.584255e+00    5.405914e-01   7.303661e-03
  3.586465e+00    5.273345e-01   7.227386e-03
  3.588676e+00    5.262569e-01   7.234026e-03
  3.590886e+00    5.241038e-01   7.232795e-03
  3.593097e+00    5.289362e-01   7.280453e-03
  3.595307e+00    5.538595e-01   7.464150e-03
  3.597518e+00    5.423199e-01   7.400326e-03
  3.599728e+00    5.451020e-01   7.433475e-03
  3.601939e+00    5.375401e-01   7.395857e-03
  3.604149e+00    5.419960e-01   7.440908e-03
  3.606360e+00    5.424005e-01   7.457946e-03
  3.608570e+00    5.383099e-01   7.443946e-03
  3.610780e+00    5.445554e-01   7.498194e-03
  3.612991e+00    5.324258e-01   7.424170e-03
  3.615201e+00    5.450255e-01   7.521421e-03
  3.617412e+00    5.300741e-01   7.424786e-03
  3.619622e+00    5.248192e-01   7.393768e-03
  3.621833e+00    5.334568e-01   7.461054e-03
  3.624043e+00    5.470461e-01   7.565144e-03
  3.626254e+00    5.358320e-01   7.496895e-03
  3.628464e+00    5.261758e-01   7.439944e-03
  3.630675e+00    5.387186e-01   7.542272e-03
  3.632885e+00    5.466206e-01   7.611991e-03
  3.635095e+00    5.375193e-01   7.562823e-03
  3.637306e+00    5.450396e-01   7.630056e-03
  3.639516e+00    5.349258e-01   7.573497e-03
  3.641727e+00    5.299022e-01   7.552395e-03
  3.643937e+00    5.243979e-01   7.527443e-03
  3.646148e+00    5.377023e-01   7.637031e-03
  3.648358e+00    5.300186e-01   7.597097e-03
  3.650569e+00    5.371695e-01   7.662940e-03
  3.652779e+00    5.390805e-01   7.691444e-03
  3.654990e+00    5.349676e-01   7.676967e-03
  3.657200e+00    5.237865e-01   7.611099e-03
  3.659410e+00    5.242029e-01   7.628946e-03
  3.661621e+00    5.321342e-01   7.701590e-03
  3.663831e+00    5.233979e-01   7.653079e-03
  3.666042e+00    5.323975e-01   7.733746e-03
  3.668252e+00    5.502446e-01   7.877868e-03
  3.670463e+00    5.105262e-01   7.603152e-03
  3.672673e+00    5.080460e-01   7.599714e-03
  3.674884e+00    5.189481e-01   7.696046e-03
  3.677094e+00    5.488500e-01   7.930428e-03
  3.679305e+00    5.604635e-01   8.029929e-03
  3.681515e+00    5.321932e-01   7.840442e-03
  3.683726e+00    5.380036e-01   7.899023e-03
  3.685936e+00    5.366467e-01   7.904874e-03
  3.688146e+00    5.215419e-01   7.808572e-03
  3.690357e+00    5.081612e-01   7.723317e-03
  3.692567e+00    5.361890e-01   7.949718e-03
  3.694778e+00    5.440462e-01   8.024119e-03
  3.696988e+00    5.289457e-01   7.927967e-03
  3.699199e+00    5.339650e-01   7.981902e-03
  3.701409e+00    5.202838e-01   7.895231e-03
  3.703620e+00    5.265868e-01   7.959289e-03
  3.705830e+00    5.430527e-01   8.099430e-03
  3.708041e+00    5.308949e-01   8.024966e-03
  3.710251e+00    5.257799e-01   8.002997e-03
  3.712461e+00    5.195553e-01   7.972127e-03
  3.714672e+00    5.341605e-01   8.100346e-03
  3.716882e+00    5.322574e-01   8.102803e-03
  3.719093e+00    5.265913e-01   8.076801e-03
  3.721303e+00    5.352920e-01   8.160437e-03
  3.723514e+00    5.307055e-01   8.142875e-03
  3.725724e+00    5.448115e-01   8.267968e-03
  3.727935e+00    5.196810e-01   8.092541e-03
  3.730145e+00    5.113996e-01   8.045039e-03
  3.732356e+00    5.005972e-01   7.976857e-03
  3.734566e+00    5.146143e-01   8.105277e-03
  3.736776e+00    5.155960e-01   8.130791e-03
  3.738987e+00    5.058610e-01   8.071283e-03
  3.741197e+00    5.345746e-01   8.315561e-03
  3.743408e+00    5.128537e-01   8.162905e-03
  3.745618e+00    4.999393e-01   8.077546e-03
  3.747829e+00    5.158808e-01   8.223478e-03
  3.750039e+00    5.252986e-01   8.316832e-03
  3.752250e+00    5.159546e-01   8.261123e-03
  3.754460e+00    4.984560e-01   8.138130e-03
  3.756671e+00    4.950942e-01   8.129184e-03
  3.758881e+00    5.043650e-01   8.223490e-03
  3.761091e+00    5.039178e-01   8.238883e-03
  3.763302e+00    5.061641e-01   8.276328e-03
  3.765512e+00    4.872238e-01   8.138818e-03
  3.767723e+00    5.027580e-01   8.286790e-03
  3.769933e+00    5.174505e-01   8.426588e-03
  3.772144e+00    4.825793e-01   8.156831e-03
  3.774354e+00    4.977480e-01   8.303677e-03
  3.776565e+00    5.013003e-01   8.353078e-03
  3.778775e+00    4.997054e-01   8.359578e-03
  3.780986e+00    5.217574e-01   8.562751e-03
  3.783196e+00    5.169040e-01   8.543340e-03
  3.785407e+00    5.148818e-01   8.547271e-03
  3.787617e+00    5.135894e-01   8.557509e-03
  3.789827e+00    4.987944e-01   8.453812e-03
  3.792038e+00    5.099838e-01   8.569117e-03
  3.794248e+00    5.198238e-01   8.672932e-03
  3.796459e+00    4.940540e-01   8.476434e-03
  3.798669e+00    4.778771e-01   8.357370e-03
  3.800880e+00    4.937415e-01   8.516273e-03
  3.803090e+00    4.911070e-01   8.515119e-03
  3.805301e+00    4.955695e-01   8.575767e-03
  3.807511e+00    4.905333e-01   8.553817e-03
  3.809722e+00    4.992106e-01   8.651367e-03
  3.811932e+00    4.990068e-01   8.671851e-03
  3.814142e+00    4.907302e-01   8.622319e-03
  3.816353e+00    4.991958e-01   8.719153e-03
  3.818563e+00    5.108686e-01   8.843941e-03
  3.820774e+00    5.064564e-01   8.828952e-03
  3.822984e+00    4.802981e-01   8.620992e-03
  3.825195e+00    4.916058e-01   8.745344e-03
  3.827405e+00    5.091292e-01   8.924033e-03
  3.829616e+00    5.191056e-01   9.035651e-03
  3.831826e+00    5.026079e-01   8.915209e-03
  3.834037e+00    4.790881e-01   8.728195e-03
  3.836247e+00    4.892625e-01   8.844806e-03
  3.838457e+00    5.078831e-01   9.036911e-03
  3.840668e+00    4.845313e-01   8.851639e-03
  3.842878e+00    5.067727e-01   9.078229e-03
  3.845089e+00    5.020050e-01   9.061184e-03
  3.847299e+00    4.885454e-01   8.964527e-03
  3.849510e+00    5.148852e-01   9.229300e-03
  3.851720e+00    5.318753e-01   9.402650e-03
  3.853931e+00    5.161030e-01   9.281497e-03
  3.856141e+00    5.172915e-01   9.311714e-03
  3.858352e+00    5.007489e-01   9.180906e-03
  3.860562e+00    4.950502e-01   9.147897e-03
  3.862772e+00    4.914232e-01   9.133786e-03
  3.864983e+00    5.345380e-01   9.546541e-03
  3.867193e+00    4.782492e-01   9.049464e-03
  3.869404e+00    4.860219e-01   9.142291e-03
  3.871614e+00    4.722610e-01   9.031513e-03
  3.873825e+00    4.585924e-01   8.919428e-03
  3.876035e+00    4.876368e-01   9.217933e-03
  3.878246e+00    4.933394e-01   9.297569e-03
  3.880456e+00    4.712570e-01   9.115452e-03
  3.882667e+00    5.098593e-01   9.511189e-03
  3.884877e+00    5.280983e-01   9.710778e-03
  3.887087e+00    4.746177e-01   9.235350e-03
  3.889298e+00    4.879270e-01   9.394185e-03
  3.891508e+00    4.906178e-01   9.450520e-03
  3.893719e+00    5.094140e-01   9.661488e-03
  3.895929e+00    4.903526e-01   9.510488e-03
  3.898140e+00    4.628933e-01   9.271051e-03
  3.900350e+00    4.872276e-01   9.543622e-03
  3.902561e+00    5.076296e-01   9.774427e-03
  3.904771e+00    4.883702e-01   9.619874e-03
  3.906982e+00    5.071456e-01   9.836881e-03
  3.909192e+00    4.743547e-01   9.546530e-03
  3.911403e+00    4.944266e-01   9.780547e-03
  3.913613e+00    5.156075e-01   1.002312e-02
  3.915823e+00    4.759935e-01   9.664732e-03
  3.918034e+00    4.754885e-01   9.694370e-03
  3.920244e+00    4.936793e-01   9.913981e-03
  3.922455e+00    4.709004e-01   9.718023e-03
  3.924665e+00    4.892902e-01   9.942410e-03
  3.926876e+00    5.105242e-01   1.019383e-02
  3.929086e+00    4.982578e-01   1.010843e-02
  3.931297e+00    4.813475e-01   9.969933e-03
  3.933507e+00    4.959987e-01   1.014974e-02
  3.935718e+00    4.667699e-01   9.874306e-03
  3.937928e+00    4.964200e-01   1.021277e-02
  3.940138e+00    4.746647e-01   1.001545e-02
  3.942349e+00    5.052719e-01   1.036373e-02
  3.944559e+00    4.852223e-01   1.018594e-02
  3.946770e+00    5.059036e-01   1.043151e-02
  3.948980e+00    4.919372e-01   1.031749e-02
  3.951191e+00    4.708246e-01   1.012394e-02
  3.953401e+00    4.633633e-01   1.007403e-02
  3.955612e+00    4.961905e-01   1.045669e-02
  3.957822e+00    4.851163e-01   1.037104e-02
  3.960033e+00    4.960427e-01   1.052011e-02
  3.962243e+00    4.921432e-01   1.051180e-02
  3.964453e+00    4.604764e-01   1.020023e-02
  3.966664e+00    4.806457e-01   1.045436e-02
  3.968874e+00    4.994040e-01   1.068524e-02
  3.971085e+00    4.882610e-01   1.058738e-02
  3.973295e+00    4.706323e-01   1.041567e-02
  3.975506e+00    4.819321e-01   1.056140e-02
  3.977716e+00    4.965872e-01   1.074305e-02
  3.979927e+00    4.984775e-01   1.078592e-02
  3.982137e+00    4.601704e-01   1.038497e-02
  3.984348e+00    4.512934e-01   1.030598e-02
  3.986558e+00    4.980992e-01   1.084983e-02
  3.988768e+00    4.977072e-01   1.086895e-02
  3.990979e+00    4.977245e-01   1.089210e-02
  3.993189e+00    5.055267e-01   1.100081e-02
  3.995400e+00    4.873599e-01   1.082477e-02
  3.997610e+00    5.058872e-01   1.105927e-02
  3.999821e+00    4.770198e-01   1.077614e-02
  4.002031e+00    4.700061e-01   1.073449e-02
  4.004242e+00    4.822659e-01   1.091202e-02
  4.006452e+00    4.849626e-01   1.098173e-02
  4.008663e+00    5.058835e-01   1.125711e-02
  4.010873e+00    4.932881e-01   1.115639e-02
  4.013084e+00    4.994267e-01   1.126711e-02
  4.015294e+00    4.881239e-01   1.118015e-02
  4.017504e+00    4.887421e-01   1.122907e-02
  4.019715e+00    4.668734e-01   1.101692e-02
  4.021925e+00    4.914729e-01   1.134653e-02
  4.024136e+00    4.991621e-01   1.147943e-02
  4.026346e+00    4.666765e-01   1.114298e-02
  4.028557e+00    4.900355e-01   1.146294e-02
  4.030767e+00    5.142106e-01   1.178937e-02
  4.032978e+00    4.841085e-01   1.148543e-02
  4.035188e+00    4.670109e-01   1.132620e-02
  4.037399e+00    4.897174e-01   1.164608e-02
  4.039609e+00    4.932445e-01   1.173624e-02
  4.041819e+00    4.836681e-01   1.167047e-02
  4.044030e+00    5.049557e-01   1.197557e-02
  4.046240e+00    5.021622e-01   1.199322e-02
  4.048451e+00    4.968669e-01   1.198152e-02
  4.050661e+00    4.716859e-01   1.172477e-02
  4.052872e+00    4.850403e-01   1.194250e-02
  4.055082e+00    4.483003e-01   1.153288e-02
  4.057293e+00    4.488665e-01   1.159186e-02
  4.059503e+00    5.069963e-01   1.237573e-02
  4.061714e+00    4.803440e-01   1.210235e-02
  4.063924e+00    5.160557e-01   1.260298e-02
  4.066134e+00    4.844364e-01   1.226831e-02
  4.068345e+00    4.891171e-01   1.238682e-02
  4.070555e+00    4.757459e-01   1.227519e-02
  4.072766e+00    5.177815e-01   1.286914e-02
  4.074976e+00    4.728259e-01   1.235914e-02
  4.077187e+00    4.784510e-01   1.249416e-02
  4.079397e+00    4.844489e-01   1.263651e-02
  4.081608e+00    4.539979e-01   1.229659e-02
  4.083818e+00    4.885368e-01   1.282191e-02
  4.086029e+00    4.884920e-01   1.288901e-02
  4.088239e+00    4.588892e-01   1.255974e-02
  4.090449e+00    4.881675e-01   1.302424e-02
  4.092660e+00    5.165500e-01   1.347131e-02
  4.094870e+00    5.021573e-01   1.335633e-02
  4.097081e+00    4.877503e-01   1.323533e-02
  4.099291e+00    4.978383e-01   1.342681e-02
  4.101502e+00    5.070271e-01   1.360084e-02
  4.103712e+00    5.062783e-01   1.364125e-02
  4.105923e+00    5.357190e-01   1.408670e-02
  4.108133e+00    4.699523e-01   1.324460e-02
  4.110344e+00    4.976665e-01   1.368161e-02
  4.112554e+00    5.112374e-01   1.392176e-02
  4.114764e+00    4.919557e-01   1.371151e-02
  4.116975e+00    4.973235e-01   1.384042e-02
  4.119185e+00    4.848684e-01   1.372168e-02
  4.121396e+00    4.718578e-01   1.359214e-02
  4.123606e+00    4.787700e-01   1.374729e-02
  4.125817e+00    5.370856e-01   1.462178e-02
  4.128027e+00    5.060284e-01   1.425246e-02
  4.130238e+00    4.463876e-01   1.344364e-02
  4.132448e+00    4.923603e-01   1.418002e-02
  4.134659e+00    5.193569e-01   1.462651e-02
  4.136869e+00    4.830133e-01   1.416824e-02
  4.139080e+00    4.522992e-01   1.377241e-02
  4.141290e+00    4.522727e-01   1.383265e-02
  4.143500e+00    4.768068e-01   1.426857e-02
  4.145711e+00    5.136018e-01   1.487801e-02
  4.147921e+00    4.688417e-01   1.428013e-02
  4.150132e+00    5.004067e-01   1.482354e-02
  4.152342e+00    4.768960e-01   1.454108e-02
  4.154553e+00    4.949955e-01   1.488500e-02
  4.156763e+00    5.308561e-01   1.549110e-02
  4.158974e+00    4.549270e-01   1.441242e-02
  4.161184e+00    4.744039e-01   1.479076e-02
  4.163395e+00    4.711062e-01   1.481450e-02
  4.165605e+00    4.692386e-01   1.486222e-02
  4.167815e+00    4.851650e-01   1.519085e-02
  4.170026e+00    4.937403e-01   1.540530e-02
  4.172236e+00    5.018528e-01   1.561560e-02
  4.174447e+00    4.818998e-01   1.538495e-02
  4.176657e+00    4.834752e-01   1.549449e-02
  4.178868e+00    5.003467e-01   1.585178e-02
  4.181078e+00    4.947501e-01   1.585164e-02
  4.183289e+00    4.527156e-01   1.525014e-02
  4.185499e+00    4.658351e-01   1.556057e-02
  4.187710e+00    5.171664e-01   1.649179e-02
  4.189920e+00    4.410154e-01   1.532099e-02
  4.192130e+00    5.109543e-01   1.659179e-02
  4.194341e+00    5.032281e-01   1.656686e-02
  4.196551e+00    4.846430e-01   1.636114e-02
  4.198762e+00    4.781259e-01   1.635394e-02
  4.200972e+00    4.916393e-01   1.669073e-02
  4.203183e+00    4.733110e-01   1.648447e-02
  4.205393e+00    4.727514e-01   1.658451e-02
  4.207604e+00    4.593172e-01   1.645857e-02
  4.209814e+00    5.103931e-01   1.746859e-02
  4.212025e+00    5.039663e-01   1.748129e-02
  4.214235e+00    4.905588e-01   1.736964e-02
  4.216445e+00    4.825032e-01   1.735076e-02
  4.218656e+00    4.612657e-01   1.709210e-02
  4.220866e+00    4.286717e-01   1.659875e-02
  4.223077e+00    4.635526e-01   1.739395e-02
  4.225287e+00    4.731377e-01   1.771072e-02
  4.227498e+00    4.665697e-01   1.772560e-02
  4.229708e+00    4.951421e-01   1.840853e-02
  4.231919e+00    4.757449e-01   1.819395e-02
  4.234129e+00    4.363559e-01   1.757056e-02
  4.236340e+00    4.944621e-01   1.886373e-02
  4.238550e+00    5.083066e-01   1.929475e-02
  4.240761e+00    4.936040e-01   1.918207e-02
  4.242971e+00    4.929465e-01   1.934453e-02
  4.245181e+00    4.821160e-01   1.931056e-02
  4.247392e+00    5.039877e-01   1.992801e-02
  4.249602e+00    5.130865e-01   2.030752e-02
  4.251813e+00    5.046207e-01   2.033721e-02
  4.254023e+00    4.875875e-01   2.019281e-02
  4.256234e+00    4.888846e-01   2.043536e-02
  4.258444e+00    4.922950e-01   2.072140e-02
  4.260655e+00    4.749019e-01   2.057563e-02
  4.262865e+00    4.844791e-01   2.101771e-02
  4.265076e+00    4.252527e-01   1.991552e-02
  4.267286e+00    4.647176e-01   2.106556e-02
  4.269496e+00    4.741769e-01   2.153889e-02
  4.271707e+00    5.198371e-01   2.283024e-02
  4.273917e+00    4.779450e-01   2.217440e-02
  4.276128e+00    4.204679e-01   2.107516e-02
  4.278338e+00    4.562583e-01   2.224622e-02
  4.280549e+00    4.754865e-01   2.303539e-02
  4.282759e+00    4.676835e-01   2.317488e-02
  4.284970e+00    4.338233e-01   2.265001e-02
  4.287180e+00    3.891822e-01   2.171080e-02
  4.289391e+00    4.037051e-01   2.227696e-02
  4.291601e+00    5.672517e-01   2.661838e-02
  4.293811e+00    4.631680e-01   2.424093e-02
  4.296022e+00    4.578400e-01   2.429415e-02
  4.298232e+00    6.065663e-01   2.819684e-02
  4.300443e+00    5.539411e-01   2.716960e-02
  4.302653e+00    4.466172e-01   2.460666e-02
  4.304864e+00    5.101497e-01   2.652583e-02
  4.307074e+00    5.147907e-01   2.688659e-02
  4.309285e+00    4.458660e-01   2.524914e-02
  4.311495e+00    4.149206e-01   2.458512e-02
  4.313706e+00    4.381868e-01   2.550184e-02
  4.315916e+00    4.288329e-01   2.547653e-02
  4.318126e+00    5.047932e-01   2.791448e-02
  4.320337e+00    5.142671e-01   2.846045e-02
  4.322547e+00    5.300727e-01   2.920124e-02
  4.324758e+00    5.221992e-01   2.928486e-02
  4.326968e+00    4.215055e-01   2.660629e-02
  4.329179e+00    4.206987e-01   2.687437e-02
  4.331389e+00    4.595953e-01   2.841208e-02
  4.333600e+00    4.300755e-01   2.781304e-02
  4.335810e+00    4.505659e-01   2.880627e-02
  4.338021e+00    4.143011e-01   2.797655e-02
  4.340231e+00    4.813077e-01   3.053231e-02
  4.342442e+00    4.664712e-01   3.046206e-02
  4.344652e+00    3.877035e-01   2.814765e-02
  4.346862e+00    5.204475e-01   3.306898e-02
  4.349073e+00    5.700397e-01   3.511307e-02
  4.351283e+00    5.036162e-01   3.349818e-02
  4.353494e+00    3.395113e-01   2.792722e-02
  4.355704e+00    3.964416e-01   3.066463e-02
  4.357915e+00    4.764289e-01   3.417578e-02
  4.360125e+00    4.159281e-01   3.247722e-02
  4.362336e+00    4.480168e-01   3.432130e-02
  4.364546e+00    4.557386e-01   3.524495e-02
  4.366757e+00    4.132803e-01   3.423131e-02
  4.368967e+00    4.494131e-01   3.640877e-02
  4.371177e+00    4.768729e-01   3.830196e-02
  4.373388e+00    4.691369e-01   3.883853e-02
  4.375598e+00    4.274430e-01   3.791888e-02
  4.377809e+00    4.426790e-01   3.956458e-02
  4.380019e+00    4.120111e-01   3.912991e-02
  4.382230e+00    3.513608e-01   3.714332e-02
  4.384440e+00    3.486582e-01   3.806508e-02
  4.386651e+00    4.000983e-01   4.203240e-02
  4.388861e+00    3.425033e-01   4.019806e-02
  4.391072e+00    5.232453e-01   5.142704e-02
  4.393282e+00    4.748457e-01   5.088541e-02
  4.395492e+00    5.699349e-01   5.806711e-02
  4.397703e+00    1.834960e-01   3.445875e-02
  4.399913e+00    1.945917e-01   3.727100e-02
  4.402124e+00    3.246842e-01   5.087912e-02
  4.404334e+00    6.345482e-01   7.560646e-02
  4.406545e+00    2.733825e-01   5.332176e-02
  4.408755e+00    5.456501e-01   8.169732e-02
  4.410966e+00    2.588253e-01   6.227952e-02
  4.413176e+00    1.188501e-01   4.776789e-02
  4.415387e+00   -4.235375e-01            nan
  4.417597e+00   -1.997080e+00            nan
  4.419807e+00    1.431295e-01   1.358686e-01
