# == pyFAI calibration ==
# Distance Sample to Detector: 0.216 m
# PONI: 1.166e-01, 1.308e-01 m
# Rotations: 0.000000 0.000000 0.000000 rad
# 
# == Fit2d calibration ==
# Distance Sample-beamCenter: 216.000 mm
# Center: x=1744.293, y=1555.000 pix
# Tilt: 0.000 deg  TiltPlanRot: 0.000 deg
# 
# Detector Eiger 9M	 PixelSize= 7.500e-05, 7.500e-05 m
#    Detector has a mask: True 
#    Detector has a dark current: False 
#    detector has a flat field: False 
# 
# Wavelength: 9.8e-11 m
# Mask applied: from detector
# Dark current applied: False
# Flat field applied: False
# Polarization factor: None
# Normalization factor: 1.0
# 
# Headers of the input frame:
# {
# "_array_data.header_convention": "SLS_1.0",
# "_array_data.header_contents": "# Detector: Dectris Eiger 9M, S/N E-18-0102\r\n# Pixel_size 75e-6 m x 75e-6 m\r\n# Silicon sensor, thickness 0.000450 m\r\n# Exposure_time 0.024997 s\r\n# Exposure_period 0.025000 s\r\n# Count_cutoff 62318 counts\r\n# Wavelength 0.980106 A\r\n# Detector_distance 0.215992 m\r\n# Beam_xy (1555, 1744) pixels\r\n# Start_angle 0.000000 deg.\r\n# Angle_increment 0.000000 deg.",
# "Content-Type": "application/octet-stream;",
# "conversions": "x-CBF_BYTE_OFFSET",
# "Content-Transfer-Encoding": "BINARY",
# "X-Binary-Size": "10166590",
# "X-Binary-ID": "1",
# "X-Binary-Element-Type": "signed 32-bit integer",
# "X-Binary-Element-Byte-Order": "LITTLE_ENDIAN",
# "Content-MD5": "yUB7uC5UT7XXLT4qng2ZUw==",
# "X-Binary-Number-of-Elements": "10166590",
# "X-Binary-Size-Fastest-Dimension": "3110",
# "X-Binary-Size-Second-Dimension": "3269",
# "X-Binary-Size-Padding": "4095"
# }
# --> H:/Proxima2a_2019-04-05/RAW_DATA/C5_gel17_position5/C5_mesh_1_data.cbf/C5_mesh_1_data.cbf000136.dat
#        q_A^-1              I           sigma 
  1.105228e-03    1.800589e+00   7.260963e-01
  3.315685e-03    1.649915e+00   4.225482e-01
  5.526141e-03    1.426314e+00   3.037944e-01
  7.736597e-03    1.712145e+00   2.811839e-01
  9.947054e-03    1.777944e+00   2.526013e-01
  1.215751e-02    1.611582e+00   2.174677e-01
  1.436797e-02    1.775863e+00   2.099813e-01
  1.657842e-02    1.484744e+00   1.787188e-01
  1.878888e-02    1.313592e+00   1.579042e-01
  2.099934e-02    1.497631e+00   1.595161e-01
  2.320979e-02    1.336300e+00   1.433128e-01
  2.542025e-02    1.469884e+00   1.436319e-01
  2.763070e-02    1.463814e+00   1.374780e-01
  2.984116e-02    1.422489e+00   1.304071e-01
  3.205162e-02    1.379169e+00   1.239067e-01
  3.426207e-02    1.599081e+00   1.290358e-01
  3.647253e-02    1.566583e+00   1.237846e-01
  3.868299e-02    1.482854e+00   1.169485e-01
  4.089344e-02    1.427038e+00   1.115831e-01
  4.310390e-02    1.422759e+00   1.085149e-01
  4.531436e-02    1.392929e+00   1.047202e-01
  4.752481e-02    1.418198e+00   1.031781e-01
  4.973527e-02    1.372429e+00   9.921943e-02
  5.194572e-02    1.236885e+00   9.216535e-02
  5.415618e-02    1.346094e+00   9.416214e-02
  5.636664e-02    1.385865e+00   9.365386e-02
  5.857709e-02    1.462046e+00   9.436155e-02
  6.078755e-02    1.487706e+00   9.343636e-02
  6.299801e-02    1.437812e+00   9.022927e-02
  6.520846e-02    1.520643e+00   9.120619e-02
  6.741892e-02    1.509336e+00   8.935994e-02
  6.962938e-02    1.501447e+00   8.770437e-02
  7.183983e-02    1.509131e+00   8.656368e-02
  7.405029e-02    1.489514e+00   8.470393e-02
  7.626074e-02    1.523106e+00   8.440253e-02
  7.847120e-02    1.635250e+00   8.621167e-02
  8.068166e-02    1.562625e+00   8.311240e-02
  8.289211e-02    1.457448e+00   7.918870e-02
  8.510257e-02    1.488204e+00   7.897335e-02
  8.731303e-02    1.569334e+00   8.006125e-02
  8.952348e-02    1.495257e+00   7.718014e-02
  9.173394e-02    1.472227e+00   7.565213e-02
  9.394439e-02    1.635434e+00   7.878903e-02
  9.615485e-02    1.509723e+00   7.482357e-02
  9.836531e-02    1.367846e+00   7.041432e-02
  1.005758e-01    1.440652e+00   7.146590e-02
  1.027862e-01    1.527684e+00   7.279553e-02
  1.049967e-01    1.511220e+00   7.163475e-02
  1.072071e-01    1.475654e+00   7.005240e-02
  1.094176e-01    1.535187e+00   7.072500e-02
  1.116280e-01    1.516902e+00   6.960148e-02
  1.138385e-01    1.581069e+00   7.036370e-02
  1.160490e-01    1.571113e+00   6.946975e-02
  1.182594e-01    1.565035e+00   6.868270e-02
  1.204699e-01    1.591906e+00   6.863084e-02
  1.226803e-01    1.610090e+00   6.839422e-02
  1.248908e-01    1.687505e+00   6.939592e-02
  1.271012e-01    1.703313e+00   6.910995e-02
  1.293117e-01    1.504733e+00   6.439820e-02
  1.315222e-01    1.497474e+00   6.369903e-02
  1.337326e-01    1.590698e+00   6.510577e-02
  1.359431e-01    1.624425e+00   6.583088e-02
  1.381535e-01    1.633243e+00   6.689535e-02
  1.403640e-01    1.535511e+00   6.514308e-02
  1.425744e-01    1.585802e+00   6.630698e-02
  1.447849e-01    1.700899e+00   6.868695e-02
  1.469953e-01    1.605375e+00   6.668852e-02
  1.492058e-01    1.659969e+00   6.773417e-02
  1.514163e-01    1.596046e+00   6.630695e-02
  1.536267e-01    1.565093e+00   6.553258e-02
  1.558372e-01    1.604312e+00   6.620213e-02
  1.580476e-01    1.614108e+00   6.624279e-02
  1.602581e-01    1.692865e+00   6.766734e-02
  1.624685e-01    1.724090e+00   6.810158e-02
  1.646790e-01    1.711745e+00   6.766250e-02
  1.668895e-01    1.685831e+00   6.695443e-02
  1.690999e-01    1.746758e+00   6.794893e-02
  1.713104e-01    1.787292e+00   6.851950e-02
  1.735208e-01    1.774286e+00   6.805745e-02
  1.757313e-01    1.814983e+00   6.861778e-02
  1.779417e-01    1.860124e+00   6.923932e-02
  1.801522e-01    1.925867e+00   7.022791e-02
  1.823626e-01    1.890772e+00   6.935341e-02
  1.845731e-01    1.920998e+00   6.967910e-02
  1.867836e-01    1.992416e+00   7.072306e-02
  1.889940e-01    2.025735e+00   7.107893e-02
  1.912045e-01    2.028092e+00   7.088277e-02
  1.934149e-01    2.040503e+00   7.086137e-02
  1.956254e-01    1.925832e+00   6.861443e-02
  1.978358e-01    1.956051e+00   6.891365e-02
  2.000463e-01    1.981938e+00   6.913834e-02
  2.022568e-01    1.993222e+00   6.910725e-02
  2.044672e-01    2.043754e+00   6.973809e-02
  2.066777e-01    1.972306e+00   6.828085e-02
  2.088881e-01    1.940545e+00   6.750725e-02
  2.110986e-01    2.024204e+00   6.871060e-02
  2.133090e-01    2.068711e+00   6.923608e-02
  2.155195e-01    1.984607e+00   6.758915e-02
  2.177300e-01    1.907347e+00   6.573990e-02
  2.199404e-01    2.005055e+00   6.562666e-02
  2.221509e-01    2.035639e+00   6.503948e-02
  2.243613e-01    2.027858e+00   6.409211e-02
  2.265718e-01    1.976144e+00   6.257223e-02
  2.287822e-01    2.082502e+00   6.359824e-02
  2.309927e-01    2.048646e+00   6.250452e-02
  2.332031e-01    2.149374e+00   6.347471e-02
  2.354136e-01    2.170557e+00   6.326978e-02
  2.376241e-01    2.135199e+00   6.226524e-02
  2.398345e-01    2.256166e+00   6.353104e-02
  2.420450e-01    2.194731e+00   6.221230e-02
  2.442554e-01    2.127468e+00   6.082958e-02
  2.464659e-01    2.075078e+00   5.967259e-02
  2.486763e-01    2.128049e+00   6.003220e-02
  2.508868e-01    2.174823e+00   6.030552e-02
  2.530973e-01    2.189462e+00   6.013302e-02
  2.553077e-01    2.098001e+00   5.850659e-02
  2.575182e-01    2.048192e+00   5.746586e-02
  2.597286e-01    2.098364e+00   5.782733e-02
  2.619391e-01    2.134245e+00   5.798390e-02
  2.641495e-01    2.065317e+00   5.672419e-02
  2.663600e-01    2.077893e+00   5.658372e-02
  2.685704e-01    2.109147e+00   5.669868e-02
  2.707809e-01    2.076842e+00   5.596415e-02
  2.729914e-01    2.031991e+00   5.506807e-02
  2.752018e-01    2.034323e+00   5.481287e-02
  2.774123e-01    2.033290e+00   5.451905e-02
  2.796227e-01    2.059139e+00   5.459308e-02
  2.818332e-01    2.072699e+00   5.449932e-02
  2.840436e-01    2.039450e+00   5.379837e-02
  2.862541e-01    2.004233e+00   5.307552e-02
  2.884646e-01    1.956286e+00   5.218793e-02
  2.906750e-01    1.986798e+00   5.234397e-02
  2.928855e-01    1.995812e+00   5.221950e-02
  2.950959e-01    1.993401e+00   5.194821e-02
  2.973064e-01    2.025177e+00   5.212529e-02
  2.995168e-01    1.963671e+00   5.109519e-02
  3.017273e-01    1.956099e+00   5.077172e-02
  3.039377e-01    1.958678e+00   5.058274e-02
  3.061482e-01    1.878909e+00   4.932770e-02
  3.083587e-01    1.923359e+00   4.969174e-02
  3.105691e-01    1.958164e+00   4.992518e-02
  3.127796e-01    1.938787e+00   4.946870e-02
  3.149900e-01    1.886191e+00   4.858977e-02
  3.172005e-01    1.865918e+00   4.813034e-02
  3.194109e-01    1.849329e+00   4.771810e-02
  3.216214e-01    1.843833e+00   4.745273e-02
  3.238319e-01    1.877542e+00   4.769481e-02
  3.260423e-01    1.836774e+00   4.698626e-02
  3.282528e-01    1.887318e+00   4.743873e-02
  3.304632e-01    1.919657e+00   4.765810e-02
  3.326737e-01    1.860647e+00   4.673683e-02
  3.348841e-01    1.797244e+00   4.575549e-02
  3.370946e-01    1.818743e+00   4.585516e-02
  3.393050e-01    1.848017e+00   4.604762e-02
  3.415155e-01    1.869081e+00   4.613520e-02
  3.437260e-01    1.808532e+00   4.521358e-02
  3.459364e-01    1.831376e+00   4.532992e-02
  3.481469e-01    1.831686e+00   4.516828e-02
  3.503573e-01    1.852212e+00   4.525518e-02
  3.525678e-01    1.777610e+00   4.417647e-02
  3.547782e-01    1.752301e+00   4.370231e-02
  3.569887e-01    1.811370e+00   4.427537e-02
  3.591992e-01    1.788146e+00   4.383496e-02
  3.614096e-01    1.828486e+00   4.417296e-02
  3.636201e-01    1.818203e+00   4.389379e-02
  3.658305e-01    1.795003e+00   4.346409e-02
  3.680410e-01    1.802074e+00   4.339981e-02
  3.702514e-01    1.818632e+00   4.345213e-02
  3.724619e-01    1.802018e+00   4.310592e-02
  3.746724e-01    1.794662e+00   4.287429e-02
  3.768828e-01    1.832267e+00   4.317539e-02
  3.790933e-01    1.803811e+00   4.269924e-02
  3.813037e-01    1.778064e+00   4.225469e-02
  3.835142e-01    1.782026e+00   4.216280e-02
  3.857246e-01    1.781921e+00   4.202511e-02
  3.879351e-01    1.793770e+00   4.202813e-02
  3.901455e-01    1.774528e+00   4.166902e-02
  3.923560e-01    1.834190e+00   4.222906e-02
  3.945665e-01    1.837813e+00   4.213672e-02
  3.967769e-01    1.795234e+00   4.151531e-02
  3.989874e-01    1.806249e+00   4.151244e-02
  4.011978e-01    1.850577e+00   4.188953e-02
  4.034083e-01    1.802432e+00   4.121413e-02
  4.056187e-01    1.785803e+00   4.089719e-02
  4.078292e-01    1.824756e+00   4.121570e-02
  4.100397e-01    1.841173e+00   4.127429e-02
  4.122501e-01    1.845255e+00   4.119642e-02
  4.144606e-01    1.785586e+00   4.040467e-02
  4.166710e-01    1.839192e+00   4.088478e-02
  4.188815e-01    1.844033e+00   4.081762e-02
  4.210919e-01    1.900673e+00   4.131829e-02
  4.233024e-01    1.875750e+00   4.092579e-02
  4.255128e-01    1.754463e+00   3.946613e-02
  4.277233e-01    1.777150e+00   3.960631e-02
  4.299338e-01    1.788652e+00   3.961997e-02
  4.321442e-01    1.787203e+00   3.949057e-02
  4.343547e-01    1.816409e+00   3.969938e-02
  4.365651e-01    1.772585e+00   3.910612e-02
  4.387756e-01    1.764133e+00   3.890353e-02
  4.409860e-01    1.781670e+00   3.898811e-02
  4.431965e-01    1.785153e+00   3.891830e-02
  4.454070e-01    1.726200e+00   3.816380e-02
  4.476174e-01    1.748644e+00   3.830563e-02
  4.498279e-01    1.767986e+00   3.841211e-02
  4.520383e-01    1.738810e+00   3.798929e-02
  4.542488e-01    1.747298e+00   3.797924e-02
  4.564592e-01    1.756442e+00   3.797631e-02
  4.586697e-01    1.732938e+00   3.762127e-02
  4.608801e-01    1.732584e+00   3.751663e-02
  4.630906e-01    1.761235e+00   3.772542e-02
  4.653011e-01    1.746202e+00   3.746529e-02
  4.675115e-01    1.772288e+00   3.764468e-02
  4.697220e-01    1.739734e+00   3.719971e-02
  4.719324e-01    1.699694e+00   3.667402e-02
  4.741429e-01    1.727401e+00   3.687645e-02
  4.763533e-01    1.704764e+00   3.654014e-02
  4.785638e-01    1.667657e+00   3.604689e-02
  4.807743e-01    1.732282e+00   3.664527e-02
  4.829847e-01    1.723870e+00   3.646383e-02
  4.851952e-01    1.726576e+00   3.640010e-02
  4.874056e-01    1.809397e+00   3.716893e-02
  4.896161e-01    1.775555e+00   3.672843e-02
  4.918265e-01    1.692005e+00   3.576482e-02
  4.940370e-01    1.689201e+00   3.564695e-02
  4.962475e-01    1.688926e+00   3.555602e-02
  4.984579e-01    1.663264e+00   3.519790e-02
  5.006684e-01    1.662654e+00   3.510564e-02
  5.028788e-01    1.697116e+00   3.538163e-02
  5.050893e-01    1.738783e+00   3.572626e-02
  5.072997e-01    1.712618e+00   3.537080e-02
  5.095102e-01    1.695893e+00   3.511337e-02
  5.117206e-01    1.676678e+00   3.483086e-02
  5.139311e-01    1.681196e+00   3.479521e-02
  5.161416e-01    1.709858e+00   3.500764e-02
  5.183520e-01    1.669979e+00   3.451478e-02
  5.205625e-01    1.662978e+00   3.436165e-02
  5.227729e-01    1.692899e+00   3.458855e-02
  5.249834e-01    1.704127e+00   3.462249e-02
  5.271938e-01    1.720976e+00   3.471204e-02
  5.294043e-01    1.712200e+00   3.454354e-02
  5.316148e-01    1.748658e+00   3.482939e-02
  5.338252e-01    1.820986e+00   3.546118e-02
  5.360357e-01    1.755051e+00   3.473403e-02
  5.382461e-01    1.758983e+00   3.469429e-02
  5.404566e-01    1.758232e+00   3.460795e-02
  5.426670e-01    1.788135e+00   3.482236e-02
  5.448775e-01    1.780872e+00   3.467394e-02
  5.470879e-01    1.807499e+00   3.485429e-02
  5.492984e-01    1.776187e+00   3.447426e-02
  5.515089e-01    1.792148e+00   3.455197e-02
  5.537193e-01    1.817062e+00   3.471470e-02
  5.559298e-01    1.810870e+00   3.457946e-02
  5.581402e-01    1.821447e+00   3.460453e-02
  5.603507e-01    1.805475e+00   3.437750e-02
  5.625611e-01    1.818401e+00   3.442546e-02
  5.647716e-01    1.782247e+00   3.400753e-02
  5.669821e-01    1.786280e+00   3.397258e-02
  5.691925e-01    1.787934e+00   3.391535e-02
  5.714030e-01    1.776363e+00   3.373336e-02
  5.736134e-01    1.727452e+00   3.319494e-02
  5.758239e-01    1.763854e+00   3.347127e-02
  5.780343e-01    1.733231e+00   3.310928e-02
  5.802448e-01    1.673601e+00   3.246663e-02
  5.824552e-01    1.682922e+00   3.248860e-02
  5.846657e-01    1.684161e+00   3.243280e-02
  5.868762e-01    1.651353e+00   3.204850e-02
  5.890866e-01    1.662725e+00   3.209193e-02
  5.912971e-01    1.658556e+00   3.198531e-02
  5.935075e-01    1.648052e+00   3.181799e-02
  5.957180e-01    1.602752e+00   3.131326e-02
  5.979284e-01    1.626235e+00   3.147743e-02
  6.001389e-01    1.675785e+00   3.188831e-02
  6.023494e-01    1.655186e+00   3.162739e-02
  6.045598e-01    1.650941e+00   3.152248e-02
  6.067703e-01    1.676471e+00   3.170139e-02
  6.089807e-01    1.716143e+00   3.200980e-02
  6.111912e-01    1.719426e+00   3.197643e-02
  6.134016e-01    1.727052e+00   3.198335e-02
  6.156121e-01    1.728699e+00   3.193499e-02
  6.178226e-01    1.703929e+00   3.164261e-02
  6.200330e-01    1.700763e+00   3.155082e-02
  6.222435e-01    1.717325e+00   3.164127e-02
  6.244539e-01    1.703638e+00   3.145324e-02
  6.266644e-01    1.671898e+00   3.109807e-02
  6.288748e-01    1.726956e+00   3.154445e-02
  6.310853e-01    1.743269e+00   3.163156e-02
  6.332957e-01    1.732724e+00   3.147487e-02
  6.355062e-01    1.686471e+00   3.099160e-02
  6.377167e-01    1.720150e+00   3.123946e-02
  6.399271e-01    1.747638e+00   3.142774e-02
  6.421376e-01    1.726611e+00   3.117849e-02
  6.443480e-01    1.713503e+00   3.100083e-02
  6.465585e-01    1.725233e+00   3.104781e-02
  6.487689e-01    1.748618e+00   3.119853e-02
  6.509794e-01    1.660933e+00   3.034888e-02
  6.531899e-01    1.637879e+00   3.008086e-02
  6.554003e-01    1.615820e+00   2.982142e-02
  6.576108e-01    1.629534e+00   2.989193e-02
  6.598212e-01    1.618999e+00   2.973981e-02
  6.620317e-01    1.637732e+00   2.985591e-02
  6.642421e-01    1.594852e+00   2.940797e-02
  6.664526e-01    1.631103e+00   2.968550e-02
  6.686630e-01    1.657595e+00   2.987029e-02
  6.708735e-01    1.625088e+00   2.952169e-02
  6.730840e-01    1.599956e+00   2.923912e-02
  6.752944e-01    1.605566e+00   2.923707e-02
  6.775049e-01    1.596058e+00   2.909745e-02
  6.797153e-01    1.629464e+00   2.934713e-02
  6.819258e-01    1.608614e+00   2.910619e-02
  6.841362e-01    1.606490e+00   2.903467e-02
  6.863467e-01    1.588188e+00   2.881709e-02
  6.885572e-01    1.598896e+00   2.886226e-02
  6.907676e-01    1.607453e+00   2.888754e-02
  6.929781e-01    1.598360e+00   2.875452e-02
  6.951885e-01    1.614766e+00   2.885053e-02
  6.973990e-01    1.603372e+00   2.869773e-02
  6.996094e-01    1.611660e+00   2.872119e-02
  7.018199e-01    1.617197e+00   2.871998e-02
  7.040303e-01    1.634234e+00   2.882015e-02
  7.062408e-01    1.609588e+00   2.855192e-02
  7.084513e-01    1.623891e+00   2.862860e-02
  7.106617e-01    1.598205e+00   2.835194e-02
  7.128722e-01    1.597520e+00   2.829681e-02
  7.150826e-01    1.627907e+00   2.851542e-02
  7.172931e-01    1.632419e+00   2.850571e-02
  7.195035e-01    1.587532e+00   2.806272e-02
  7.217140e-01    1.584608e+00   2.808649e-02
  7.239245e-01    1.572553e+00   2.820601e-02
  7.261349e-01    1.575647e+00   2.834241e-02
  7.283454e-01    1.568915e+00   2.835407e-02
  7.305558e-01    1.562454e+00   2.834941e-02
  7.327663e-01    1.573178e+00   2.848900e-02
  7.349767e-01    1.554183e+00   2.833276e-02
  7.371872e-01    1.608899e+00   2.881586e-02
  7.393976e-01    1.668408e+00   2.932926e-02
  7.416081e-01    1.626401e+00   2.894129e-02
  7.438186e-01    1.595288e+00   2.851783e-02
  7.460290e-01    1.588071e+00   2.815777e-02
  7.482395e-01    1.595645e+00   2.805253e-02
  7.504499e-01    1.563185e+00   2.762996e-02
  7.526604e-01    1.570452e+00   2.757769e-02
  7.548708e-01    1.594898e+00   2.770152e-02
  7.570813e-01    1.605846e+00   2.774495e-02
  7.592918e-01    1.606502e+00   2.771511e-02
  7.615022e-01    1.554564e+00   2.722983e-02
  7.637127e-01    1.553488e+00   2.718784e-02
  7.659231e-01    1.566600e+00   2.727040e-02
  7.681336e-01    1.599516e+00   2.752356e-02
  7.703440e-01    1.606948e+00   2.755589e-02
  7.725545e-01    1.586886e+00   2.735234e-02
  7.747650e-01    1.607114e+00   2.748752e-02
  7.769754e-01    1.575715e+00   2.716498e-02
  7.791859e-01    1.583897e+00   2.718178e-02
  7.813963e-01    1.584453e+00   2.713386e-02
  7.836068e-01    1.581067e+00   2.705293e-02
  7.858172e-01    1.608510e+00   2.723565e-02
  7.880277e-01    1.657194e+00   2.759219e-02
  7.902381e-01    1.603938e+00   2.709588e-02
  7.924486e-01    1.637649e+00   2.732842e-02
  7.946591e-01    1.670252e+00   2.754978e-02
  7.968695e-01    1.596004e+00   2.688233e-02
  7.990800e-01    1.612226e+00   2.697027e-02
  8.012904e-01    1.610189e+00   2.690663e-02
  8.035009e-01    1.616353e+00   2.691010e-02
  8.057113e-01    1.630579e+00   2.698153e-02
  8.079218e-01    1.662308e+00   2.719576e-02
  8.101323e-01    1.626295e+00   2.685390e-02
  8.123427e-01    1.656657e+00   2.705718e-02
  8.145532e-01    1.679219e+00   2.719422e-02
  8.167636e-01    1.655669e+00   2.695745e-02
  8.189741e-01    1.621308e+00   2.663178e-02
  8.211845e-01    1.672808e+00   2.700609e-02
  8.233950e-01    1.663770e+00   2.688925e-02
  8.256054e-01    1.690070e+00   2.705602e-02
  8.278159e-01    1.647886e+00   2.667215e-02
  8.300264e-01    1.640848e+00   2.657197e-02
  8.322368e-01    1.695538e+00   2.696732e-02
  8.344473e-01    1.688570e+00   2.686783e-02
  8.366577e-01    1.673057e+00   2.670111e-02
  8.388682e-01    1.648234e+00   2.645992e-02
  8.410786e-01    1.646972e+00   2.640763e-02
  8.432891e-01    1.643771e+00   2.634005e-02
  8.454996e-01    1.635749e+00   2.623411e-02
  8.477100e-01    1.638987e+00   2.621840e-02
  8.499205e-01    1.618171e+00   2.601045e-02
  8.521309e-01    1.611112e+00   2.591319e-02
  8.543414e-01    1.618463e+00   2.593170e-02
  8.565518e-01    1.626507e+00   2.595561e-02
  8.587623e-01    1.594642e+00   2.566008e-02
  8.609727e-01    1.617742e+00   2.580519e-02
  8.631832e-01    1.627655e+00   2.584423e-02
  8.653937e-01    1.617754e+00   2.572591e-02
  8.676041e-01    1.628092e+00   2.576904e-02
  8.698146e-01    1.645210e+00   2.586455e-02
  8.720250e-01    1.663829e+00   2.597086e-02
  8.742355e-01    1.637973e+00   2.572906e-02
  8.764459e-01    1.608144e+00   2.545482e-02
  8.786564e-01    1.572861e+00   2.513649e-02
  8.808669e-01    1.604457e+00   2.534922e-02
  8.830773e-01    1.593925e+00   2.522784e-02
  8.852878e-01    1.589998e+00   2.515899e-02
  8.874982e-01    1.548345e+00   2.479120e-02
  8.897087e-01    1.585271e+00   2.504759e-02
  8.919191e-01    1.592517e+00   2.506710e-02
  8.941296e-01    1.595347e+00   2.505215e-02
  8.963401e-01    1.602545e+00   2.507214e-02
  8.985505e-01    1.586916e+00   2.491278e-02
  9.007610e-01    1.610379e+00   2.505940e-02
  9.029714e-01    1.641276e+00   2.526238e-02
  9.051819e-01    1.635083e+00   2.517702e-02
  9.073923e-01    1.634065e+00   2.513224e-02
  9.096028e-01    1.611938e+00   2.492645e-02
  9.118132e-01    1.627309e+00   2.500848e-02
  9.140237e-01    1.647385e+00   2.512511e-02
  9.162342e-01    1.623505e+00   2.490754e-02
  9.184446e-01    1.609288e+00   2.476237e-02
  9.206551e-01    1.650743e+00   2.504313e-02
  9.228655e-01    1.607257e+00   2.467576e-02
  9.250760e-01    1.596705e+00   2.455931e-02
  9.272864e-01    1.605056e+00   2.458918e-02
  9.294969e-01    1.617093e+00   2.464523e-02
  9.317074e-01    1.640385e+00   2.478701e-02
  9.339178e-01    1.630717e+00   2.468010e-02
  9.361283e-01    1.646377e+00   2.476177e-02
  9.383387e-01    1.643224e+00   2.470441e-02
  9.405492e-01    1.652901e+00   2.474243e-02
  9.427596e-01    1.658672e+00   2.474991e-02
  9.449701e-01    1.656678e+00   2.470142e-02
  9.471805e-01    1.676321e+00   2.481223e-02
  9.493910e-01    1.699092e+00   2.494590e-02
  9.516015e-01    1.743108e+00   2.523168e-02
  9.538119e-01    1.731994e+00   2.511667e-02
  9.560224e-01    1.727430e+00   2.504822e-02
  9.582328e-01    1.766741e+00   2.529766e-02
  9.604433e-01    1.767337e+00   2.526610e-02
  9.626537e-01    1.780526e+00   2.532608e-02
  9.648642e-01    1.802608e+00   2.544777e-02
  9.670747e-01    1.800886e+00   2.540052e-02
  9.692851e-01    1.781852e+00   2.523237e-02
  9.714956e-01    1.801035e+00   2.533202e-02
  9.737060e-01    1.838305e+00   2.555919e-02
  9.759165e-01    1.818759e+00   2.538710e-02
  9.781269e-01    1.832692e+00   2.545080e-02
  9.803374e-01    1.856025e+00   2.557690e-02
  9.825478e-01    1.826406e+00   2.533852e-02
  9.847583e-01    1.854068e+00   2.549502e-02
  9.869688e-01    1.814286e+00   2.518626e-02
  9.891792e-01    1.771266e+00   2.485280e-02
  9.913897e-01    1.770227e+00   2.481195e-02
  9.936001e-01    1.749510e+00   2.463408e-02
  9.958106e-01    1.686111e+00   2.415074e-02
  9.980210e-01    1.656935e+00   2.390979e-02
  1.000231e+00    1.662749e+00   2.408291e-02
  1.002442e+00    1.687111e+00   2.438760e-02
  1.004652e+00    1.618558e+00   2.395364e-02
  1.006863e+00    1.591278e+00   2.380017e-02
  1.009073e+00    1.647140e+00   2.425138e-02
  1.011284e+00    1.642464e+00   2.424933e-02
  1.013494e+00    1.617003e+00   2.408451e-02
  1.015705e+00    1.589860e+00   2.390407e-02
  1.017915e+00    1.543915e+00   2.357239e-02
  1.020126e+00    1.556447e+00   2.368383e-02
  1.022336e+00    1.578521e+00   2.386294e-02
  1.024547e+00    1.607171e+00   2.408995e-02
  1.026757e+00    1.588545e+00   2.395844e-02
  1.028967e+00    1.595009e+00   2.401491e-02
  1.031178e+00    1.658856e+00   2.449727e-02
  1.033388e+00    1.680763e+00   2.466377e-02
  1.035599e+00    1.729057e+00   2.501928e-02
  1.037809e+00    1.621975e+00   2.423552e-02
  1.040020e+00    1.605751e+00   2.411530e-02
  1.042230e+00    1.591010e+00   2.400635e-02
  1.044441e+00    1.587655e+00   2.398078e-02
  1.046651e+00    1.590983e+00   2.400610e-02
  1.048862e+00    1.549956e+00   2.369374e-02
  1.051072e+00    1.543200e+00   2.363964e-02
  1.053282e+00    1.558437e+00   2.375510e-02
  1.055493e+00    1.575712e+00   2.388198e-02
  1.057703e+00    1.563118e+00   2.378481e-02
  1.059914e+00    1.546309e+00   2.365222e-02
  1.062124e+00    1.611358e+00   2.414035e-02
  1.064335e+00    1.674321e+00   2.460382e-02
  1.066545e+00    1.655155e+00   2.445630e-02
  1.068756e+00    1.604935e+00   2.407852e-02
  1.070966e+00    1.595456e+00   2.400052e-02
  1.073177e+00    1.560103e+00   2.372690e-02
  1.075387e+00    1.515653e+00   2.338111e-02
  1.077597e+00    1.564635e+00   2.374844e-02
  1.079808e+00    1.514400e+00   2.322910e-02
  1.082018e+00    1.486627e+00   2.282452e-02
  1.084229e+00    1.452147e+00   2.244853e-02
  1.086439e+00    1.445295e+00   2.230837e-02
  1.088650e+00    1.442136e+00   2.220861e-02
  1.090860e+00    1.450131e+00   2.220258e-02
  1.093071e+00    1.410850e+00   2.183848e-02
  1.095281e+00    1.406523e+00   2.174848e-02
  1.097492e+00    1.441382e+00   2.196150e-02
  1.099702e+00    1.443280e+00   2.192451e-02
  1.101912e+00    1.438079e+00   2.183617e-02
  1.104123e+00    1.429441e+00   2.172235e-02
  1.106333e+00    1.453178e+00   2.185724e-02
  1.108544e+00    1.467274e+00   2.191816e-02
  1.110754e+00    1.439059e+00   2.166321e-02
  1.112965e+00    1.419849e+00   2.147760e-02
  1.115175e+00    1.438710e+00   2.157835e-02
  1.117386e+00    1.429307e+00   2.146824e-02
  1.119596e+00    1.427310e+00   2.141519e-02
  1.121807e+00    1.414229e+00   2.127793e-02
  1.124017e+00    1.398375e+00   2.112182e-02
  1.126228e+00    1.392958e+00   2.104523e-02
  1.128438e+00    1.405148e+00   2.110032e-02
  1.130648e+00    1.395409e+00   2.099280e-02
  1.132859e+00    1.396942e+00   2.096993e-02
  1.135069e+00    1.397722e+00   2.094104e-02
  1.137280e+00    1.369496e+00   2.069572e-02
  1.139490e+00    1.379669e+00   2.073950e-02
  1.141701e+00    1.360408e+00   2.056137e-02
  1.143911e+00    1.408676e+00   2.089080e-02
  1.146122e+00    1.418728e+00   2.093278e-02
  1.148332e+00    1.430815e+00   2.098927e-02
  1.150543e+00    1.451466e+00   2.110856e-02
  1.152753e+00    1.430391e+00   2.092333e-02
  1.154963e+00    1.390936e+00   2.060150e-02
  1.157174e+00    1.394231e+00   2.059548e-02
  1.159384e+00    1.387017e+00   2.051213e-02
  1.161595e+00    1.371713e+00   2.036878e-02
  1.163805e+00    1.384179e+00   2.043170e-02
  1.166016e+00    1.371768e+00   2.031043e-02
  1.168226e+00    1.379340e+00   2.033732e-02
  1.170437e+00    1.387127e+00   2.036578e-02
  1.172647e+00    1.381058e+00   2.029214e-02
  1.174858e+00    1.361338e+00   2.011867e-02
  1.177068e+00    1.376099e+00   2.019907e-02
  1.179278e+00    1.356528e+00   2.002639e-02
  1.181489e+00    1.359642e+00   2.002234e-02
  1.183699e+00    1.361297e+00   2.000693e-02
  1.185910e+00    1.357373e+00   1.995031e-02
  1.188120e+00    1.389275e+00   2.015639e-02
  1.190331e+00    1.370116e+00   1.999001e-02
  1.192541e+00    1.379897e+00   2.003360e-02
  1.194752e+00    1.379002e+00   1.999979e-02
  1.196962e+00    1.387341e+00   2.003410e-02
  1.199173e+00    1.362149e+00   1.982475e-02
  1.201383e+00    1.377073e+00   1.990562e-02
  1.203593e+00    1.375458e+00   1.986890e-02
  1.205804e+00    1.356677e+00   1.970681e-02
  1.208014e+00    1.360784e+00   1.970964e-02
  1.210225e+00    1.375419e+00   1.978980e-02
  1.212435e+00    1.352834e+00   1.960182e-02
  1.214646e+00    1.361494e+00   1.963825e-02
  1.216856e+00    1.372512e+00   1.969185e-02
  1.219067e+00    1.356531e+00   1.955237e-02
  1.221277e+00    1.353637e+00   1.950643e-02
  1.223488e+00    1.365072e+00   1.956276e-02
  1.225698e+00    1.337057e+00   1.933421e-02
  1.227909e+00    1.337700e+00   1.930882e-02
  1.230119e+00    1.355653e+00   1.940604e-02
  1.232329e+00    1.325145e+00   1.915601e-02
  1.234540e+00    1.345212e+00   1.927025e-02
  1.236750e+00    1.342012e+00   1.921716e-02
  1.238961e+00    1.329114e+00   1.909783e-02
  1.241171e+00    1.341536e+00   1.916276e-02
  1.243382e+00    1.337746e+00   1.911226e-02
  1.245592e+00    1.326463e+00   1.900761e-02
  1.247803e+00    1.317520e+00   1.892006e-02
  1.250013e+00    1.348849e+00   1.912013e-02
  1.252224e+00    1.358624e+00   1.916598e-02
  1.254434e+00    1.351917e+00   1.909485e-02
  1.256644e+00    1.357624e+00   1.911185e-02
  1.258855e+00    1.338049e+00   1.895039e-02
  1.261065e+00    1.347595e+00   1.899453e-02
  1.263276e+00    1.329027e+00   1.884044e-02
  1.265486e+00    1.337362e+00   1.887666e-02
  1.267697e+00    1.365563e+00   1.905149e-02
  1.269907e+00    1.343603e+00   1.887506e-02
  1.272118e+00    1.335856e+00   1.879810e-02
  1.274328e+00    1.353884e+00   1.890176e-02
  1.276539e+00    1.355687e+00   1.889150e-02
  1.278749e+00    1.369926e+00   1.896800e-02
  1.280959e+00    1.354251e+00   1.883661e-02
  1.283170e+00    1.379083e+00   1.898584e-02
  1.285380e+00    1.355222e+00   1.879840e-02
  1.287591e+00    1.346229e+00   1.871391e-02
  1.289801e+00    1.365121e+00   1.882341e-02
  1.292012e+00    1.377469e+00   1.889109e-02
  1.294222e+00    1.394643e+00   1.899199e-02
  1.296433e+00    1.355322e+00   1.870673e-02
  1.298643e+00    1.332188e+00   1.853001e-02
  1.300854e+00    1.358941e+00   1.869867e-02
  1.303064e+00    1.343049e+00   1.856985e-02
  1.305274e+00    1.355199e+00   1.863217e-02
  1.307485e+00    1.342808e+00   1.852531e-02
  1.309695e+00    1.366715e+00   1.866711e-02
  1.311906e+00    1.368790e+00   1.865941e-02
  1.314116e+00    1.383321e+00   1.873716e-02
  1.316327e+00    1.378222e+00   1.868068e-02
  1.318537e+00    1.362228e+00   1.854999e-02
  1.320748e+00    1.345350e+00   1.841320e-02
  1.322958e+00    1.363582e+00   1.851691e-02
  1.325169e+00    1.368666e+00   1.853024e-02
  1.327379e+00    1.348103e+00   1.836872e-02
  1.329589e+00    1.351768e+00   1.837257e-02
  1.331800e+00    1.380954e+00   1.854894e-02
  1.334010e+00    1.357361e+00   1.836910e-02
  1.336221e+00    1.342959e+00   1.824968e-02
  1.338431e+00    1.360303e+00   1.834621e-02
  1.340642e+00    1.336559e+00   1.824924e-02
  1.342852e+00    1.353556e+00   1.846570e-02
  1.345063e+00    1.344461e+00   1.845296e-02
  1.347273e+00    1.356902e+00   1.857345e-02
  1.349484e+00    1.365328e+00   1.865888e-02
  1.351694e+00    1.336886e+00   1.848612e-02
  1.353905e+00    1.332442e+00   1.847322e-02
  1.356115e+00    1.340347e+00   1.854294e-02
  1.358325e+00    1.343369e+00   1.857712e-02
  1.360536e+00    1.351999e+00   1.864832e-02
  1.362746e+00    1.315939e+00   1.840740e-02
  1.364957e+00    1.326188e+00   1.848654e-02
  1.367167e+00    1.336537e+00   1.856566e-02
  1.369378e+00    1.332673e+00   1.854478e-02
  1.371588e+00    1.330865e+00   1.853731e-02
  1.373799e+00    1.336152e+00   1.857775e-02
  1.376009e+00    1.336360e+00   1.858260e-02
  1.378220e+00    1.308575e+00   1.839091e-02
  1.380430e+00    1.312840e+00   1.842354e-02
  1.382640e+00    1.305157e+00   1.837045e-02
  1.384851e+00    1.313565e+00   1.843041e-02
  1.387061e+00    1.310265e+00   1.840753e-02
  1.389272e+00    1.319836e+00   1.847484e-02
  1.391482e+00    1.310504e+00   1.840876e-02
  1.393693e+00    1.261595e+00   1.806110e-02
  1.395903e+00    1.285858e+00   1.823244e-02
  1.398114e+00    1.292466e+00   1.827785e-02
  1.400324e+00    1.271903e+00   1.812976e-02
  1.402535e+00    1.281419e+00   1.819512e-02
  1.404745e+00    1.267166e+00   1.809130e-02
  1.406955e+00    1.284495e+00   1.821186e-02
  1.409166e+00    1.291368e+00   1.825720e-02
  1.411376e+00    1.297393e+00   1.829659e-02
  1.413587e+00    1.256827e+00   1.800449e-02
  1.415797e+00    1.248128e+00   1.793856e-02
  1.418008e+00    1.255870e+00   1.795247e-02
  1.420218e+00    1.281549e+00   1.798465e-02
  1.422429e+00    1.286051e+00   1.793039e-02
  1.424639e+00    1.275599e+00   1.779255e-02
  1.426850e+00    1.248894e+00   1.755105e-02
  1.429060e+00    1.287440e+00   1.777053e-02
  1.431270e+00    1.286430e+00   1.771897e-02
  1.433481e+00    1.288862e+00   1.769445e-02
  1.435691e+00    1.275994e+00   1.756739e-02
  1.437902e+00    1.251253e+00   1.736003e-02
  1.440112e+00    1.288445e+00   1.758054e-02
  1.442323e+00    1.289553e+00   1.755482e-02
  1.444533e+00    1.276622e+00   1.743394e-02
  1.446744e+00    1.263349e+00   1.731203e-02
  1.448954e+00    1.274445e+00   1.735763e-02
  1.451165e+00    1.285909e+00   1.740560e-02
  1.453375e+00    1.269267e+00   1.726456e-02
  1.455586e+00    1.264116e+00   1.720139e-02
  1.457796e+00    1.282017e+00   1.729511e-02
  1.460006e+00    1.264430e+00   1.714890e-02
  1.462217e+00    1.278134e+00   1.721524e-02
  1.464427e+00    1.294387e+00   1.729851e-02
  1.466638e+00    1.293024e+00   1.726385e-02
  1.468848e+00    1.234969e+00   1.684684e-02
  1.471059e+00    1.263292e+00   1.701389e-02
  1.473269e+00    1.280594e+00   1.710553e-02
  1.475480e+00    1.253848e+00   1.690233e-02
  1.477690e+00    1.268978e+00   1.698015e-02
  1.479901e+00    1.267243e+00   1.694472e-02
  1.482111e+00    1.271576e+00   1.695030e-02
  1.484321e+00    1.260716e+00   1.685470e-02
  1.486532e+00    1.267216e+00   1.687575e-02
  1.488742e+00    1.269232e+00   1.686649e-02
  1.490953e+00    1.249454e+00   1.671209e-02
  1.493163e+00    1.274080e+00   1.685359e-02
  1.495374e+00    1.264213e+00   1.676671e-02
  1.497584e+00    1.283954e+00   1.687526e-02
  1.499795e+00    1.265386e+00   1.673112e-02
  1.502005e+00    1.268537e+00   1.673016e-02
  1.504216e+00    1.286101e+00   1.682434e-02
  1.506426e+00    1.260592e+00   1.663583e-02
  1.508636e+00    1.249833e+00   1.654429e-02
  1.510847e+00    1.255455e+00   1.655964e-02
  1.513057e+00    1.252464e+00   1.651487e-02
  1.515268e+00    1.253759e+00   1.649768e-02
  1.517478e+00    1.248414e+00   1.643740e-02
  1.519689e+00    1.266557e+00   1.653129e-02
  1.521899e+00    1.301236e+00   1.673257e-02
  1.524110e+00    1.265717e+00   1.648218e-02
  1.526320e+00    1.263148e+00   1.644577e-02
  1.528531e+00    1.294912e+00   1.663114e-02
  1.530741e+00    1.291282e+00   1.658838e-02
  1.532951e+00    1.259557e+00   1.636367e-02
  1.535162e+00    1.230820e+00   1.626186e-02
  1.537372e+00    1.244147e+00   1.641644e-02
  1.539583e+00    1.253523e+00   1.651246e-02
  1.541793e+00    1.260421e+00   1.656484e-02
  1.544004e+00    1.277055e+00   1.667404e-02
  1.546214e+00    1.254160e+00   1.652239e-02
  1.548425e+00    1.255106e+00   1.652889e-02
  1.550635e+00    1.237426e+00   1.642171e-02
  1.552846e+00    1.244416e+00   1.647768e-02
  1.555056e+00    1.236041e+00   1.638081e-02
  1.557266e+00    1.247156e+00   1.634370e-02
  1.559477e+00    1.233836e+00   1.619735e-02
  1.561687e+00    1.233444e+00   1.616422e-02
  1.563898e+00    1.252809e+00   1.627341e-02
  1.566108e+00    1.232467e+00   1.612488e-02
  1.568319e+00    1.256260e+00   1.626406e-02
  1.570529e+00    1.252811e+00   1.621653e-02
  1.572740e+00    1.264715e+00   1.626554e-02
  1.574950e+00    1.248510e+00   1.613464e-02
  1.577161e+00    1.249193e+00   1.611353e-02
  1.579371e+00    1.253049e+00   1.611464e-02
  1.581582e+00    1.260225e+00   1.614082e-02
  1.583792e+00    1.234655e+00   1.595829e-02
  1.586002e+00    1.206117e+00   1.575543e-02
  1.588213e+00    1.233499e+00   1.591608e-02
  1.590423e+00    1.268183e+00   1.611804e-02
  1.592634e+00    1.278264e+00   1.616007e-02
  1.594844e+00    1.268039e+00   1.607369e-02
  1.597055e+00    1.256445e+00   1.597945e-02
  1.599265e+00    1.266122e+00   1.601991e-02
  1.601476e+00    1.248297e+00   1.588641e-02
  1.603686e+00    1.245618e+00   1.584952e-02
  1.605897e+00    1.250483e+00   1.586020e-02
  1.608107e+00    1.237685e+00   1.575927e-02
  1.610317e+00    1.229025e+00   1.568479e-02
  1.612528e+00    1.227696e+00   1.565719e-02
  1.614738e+00    1.212757e+00   1.554284e-02
  1.616949e+00    1.201332e+00   1.545067e-02
  1.619159e+00    1.218829e+00   1.554407e-02
  1.621370e+00    1.209153e+00   1.546389e-02
  1.623580e+00    1.190197e+00   1.532404e-02
  1.625791e+00    1.174541e+00   1.520490e-02
  1.628001e+00    1.196065e+00   1.532540e-02
  1.630212e+00    1.169266e+00   1.513516e-02
  1.632422e+00    1.134849e+00   1.489325e-02
  1.634632e+00    1.162091e+00   1.505374e-02
  1.636843e+00    1.169480e+00   1.508409e-02
  1.639053e+00    1.161545e+00   1.501561e-02
  1.641264e+00    1.134373e+00   1.482212e-02
  1.643474e+00    1.154100e+00   1.493309e-02
  1.645685e+00    1.139467e+00   1.482162e-02
  1.647895e+00    1.116684e+00   1.465636e-02
  1.650106e+00    1.134546e+00   1.475624e-02
  1.652316e+00    1.144179e+00   1.480230e-02
  1.654527e+00    1.133600e+00   1.471711e-02
  1.656737e+00    1.126124e+00   1.465202e-02
  1.658947e+00    1.099967e+00   1.446480e-02
  1.661158e+00    1.106468e+00   1.449136e-02
  1.663368e+00    1.110834e+00   1.450398e-02
  1.665579e+00    1.115606e+00   1.451899e-02
  1.667789e+00    1.088043e+00   1.432248e-02
  1.670000e+00    1.097284e+00   1.436779e-02
  1.672210e+00    1.084170e+00   1.426596e-02
  1.674421e+00    1.092787e+00   1.430731e-02
  1.676631e+00    1.094259e+00   1.430113e-02
  1.678842e+00    1.083471e+00   1.421480e-02
  1.681052e+00    1.104802e+00   1.433857e-02
  1.683263e+00    1.084915e+00   1.419384e-02
  1.685473e+00    1.091450e+00   1.422133e-02
  1.687683e+00    1.081308e+00   1.413970e-02
  1.689894e+00    1.068109e+00   1.403745e-02
  1.692104e+00    1.053536e+00   1.392660e-02
  1.694315e+00    1.066299e+00   1.399624e-02
  1.696525e+00    1.051861e+00   1.388614e-02
  1.698736e+00    1.029135e+00   1.372075e-02
  1.700946e+00    1.055242e+00   1.387856e-02
  1.703157e+00    1.055804e+00   1.386766e-02
  1.705367e+00    1.031794e+00   1.369471e-02
  1.707578e+00    1.038956e+00   1.372764e-02
  1.709788e+00    1.028934e+00   1.364728e-02
  1.711998e+00    1.033044e+00   1.365956e-02
  1.714209e+00    1.034662e+00   1.365586e-02
  1.716419e+00    1.033422e+00   1.363340e-02
  1.718630e+00    1.008866e+00   1.345635e-02
  1.720840e+00    1.033109e+00   1.360283e-02
  1.723051e+00    1.032324e+00   1.358376e-02
  1.725261e+00    1.018865e+00   1.348026e-02
  1.727472e+00    1.006044e+00   1.338109e-02
  1.729682e+00    9.836578e-01   1.321813e-02
  1.731893e+00    9.905053e-01   1.325028e-02
  1.734103e+00    1.009850e+00   1.336525e-02
  1.736313e+00    1.000615e+00   1.329004e-02
  1.738524e+00    9.905921e-01   1.320955e-02
  1.740734e+00    9.934009e-01   1.321461e-02
  1.742945e+00    9.799516e-01   1.311151e-02
  1.745155e+00    9.861086e-01   1.313921e-02
  1.747366e+00    9.906523e-01   1.315564e-02
  1.749576e+00    9.895852e-01   1.313485e-02
  1.751787e+00    9.844918e-01   1.308765e-02
  1.753997e+00    9.785374e-01   1.303465e-02
  1.756208e+00    9.694031e-01   1.296049e-02
  1.758418e+00    9.684762e-01   1.294121e-02
  1.760628e+00    9.470063e-01   1.278377e-02
  1.762839e+00    9.618235e-01   1.287017e-02
  1.765049e+00    9.768768e-01   1.295730e-02
  1.767260e+00    9.585957e-01   1.282268e-02
  1.769470e+00    9.592975e-01   1.281436e-02
  1.771681e+00    9.476423e-01   1.272317e-02
  1.773891e+00    9.473099e-01   1.270790e-02
  1.776102e+00    9.439960e-01   1.267280e-02
  1.778312e+00    9.620923e-01   1.278086e-02
  1.780523e+00    9.337472e-01   1.257849e-02
  1.782733e+00    9.620721e-01   1.275500e-02
  1.784944e+00    9.516517e-01   1.267274e-02
  1.787154e+00    9.984987e-01   1.296792e-02
  1.789364e+00    1.059629e+00   1.334570e-02
  1.791575e+00    1.014366e+00   1.304446e-02
  1.793785e+00    9.693080e-01   1.273872e-02
  1.795996e+00    9.847315e-01   1.282671e-02
  1.798206e+00    9.767117e-01   1.276150e-02
  1.800417e+00    9.325144e-01   1.245661e-02
  1.802627e+00    9.683943e-01   1.268170e-02
  1.804838e+00    9.695213e-01   1.267660e-02
  1.807048e+00    9.528377e-01   1.255392e-02
  1.809259e+00    9.411657e-01   1.246293e-02
  1.811469e+00    9.425008e-01   1.245650e-02
  1.813679e+00    9.315647e-01   1.236879e-02
  1.815890e+00    9.485322e-01   1.246577e-02
  1.818100e+00    9.405378e-01   1.239766e-02
  1.820311e+00    9.249145e-01   1.227923e-02
  1.822521e+00    9.216309e-01   1.224231e-02
  1.824732e+00    9.343420e-01   1.231127e-02
  1.826942e+00    9.098741e-01   1.213652e-02
  1.829153e+00    8.844963e-01   1.195439e-02
  1.831363e+00    8.414270e-01   1.164795e-02
  1.833574e+00    8.769744e-01   1.187978e-02
  1.835784e+00    8.923578e-01   1.197202e-02
  1.837994e+00    8.750947e-01   1.184397e-02
  1.840205e+00    8.775592e-01   1.184944e-02
  1.842415e+00    8.927385e-01   1.193956e-02
  1.844626e+00    8.808588e-01   1.184826e-02
  1.846836e+00    8.724656e-01   1.178020e-02
  1.849047e+00    8.778645e-01   1.180491e-02
  1.851257e+00    8.872445e-01   1.185810e-02
  1.853468e+00    8.536754e-01   1.162287e-02
  1.855678e+00    8.542200e-01   1.161771e-02
  1.857889e+00    8.596734e-01   1.164624e-02
  1.860099e+00    8.611876e-01   1.164783e-02
  1.862309e+00    8.841122e-01   1.179319e-02
  1.864520e+00    9.563211e-01   1.225628e-02
  1.866730e+00    9.393151e-01   1.213701e-02
  1.868941e+00    8.858305e-01   1.177524e-02
  1.871151e+00    8.549497e-01   1.155676e-02
  1.873362e+00    8.615604e-01   1.158991e-02
  1.875572e+00    8.563285e-01   1.154371e-02
  1.877783e+00    8.443912e-01   1.145155e-02
  1.879993e+00    8.405750e-01   1.141453e-02
  1.882204e+00    8.383768e-01   1.138873e-02
  1.884414e+00    8.514677e-01   1.146618e-02
  1.886624e+00    8.407598e-01   1.138281e-02
  1.888835e+00    8.468979e-01   1.141327e-02
  1.891045e+00    8.488473e-01   1.141546e-02
  1.893256e+00    8.213834e-01   1.121831e-02
  1.895466e+00    8.057894e-01   1.110032e-02
  1.897677e+00    8.488255e-01   1.138189e-02
  1.899887e+00    8.405995e-01   1.131561e-02
  1.902098e+00    8.135111e-01   1.112105e-02
  1.904308e+00    8.427922e-01   1.130876e-02
  1.906519e+00    8.297542e-01   1.121013e-02
  1.908729e+00    8.193701e-01   1.112920e-02
  1.910940e+00    8.107579e-01   1.105956e-02
  1.913150e+00    8.096896e-01   1.104177e-02
  1.915360e+00    8.272424e-01   1.115018e-02
  1.917571e+00    7.964332e-01   1.092990e-02
  1.919781e+00    8.033847e-01   1.096689e-02
  1.921992e+00    8.154100e-01   1.103810e-02
  1.924202e+00    8.108903e-01   1.099673e-02
  1.926413e+00    8.088097e-01   1.097236e-02
  1.928623e+00    8.259128e-01   1.107714e-02
  1.930834e+00    8.357556e-01   1.113241e-02
  1.933044e+00    8.083673e-01   1.093782e-02
  1.935255e+00    8.039578e-01   1.089765e-02
  1.937465e+00    8.335974e-01   1.108615e-02
  1.939675e+00    8.175701e-01   1.096816e-02
  1.941886e+00    8.359749e-01   1.108044e-02
  1.944096e+00    8.114099e-01   1.090620e-02
  1.946307e+00    8.058144e-01   1.085817e-02
  1.948517e+00    8.028183e-01   1.082748e-02
  1.950728e+00    8.131659e-01   1.088672e-02
  1.952938e+00    7.998474e-01   1.078708e-02
  1.955149e+00    8.025818e-01   1.079523e-02
  1.957359e+00    7.993597e-01   1.076349e-02
  1.959570e+00    7.784530e-01   1.061103e-02
  1.961780e+00    7.781152e-01   1.059891e-02
  1.963990e+00    7.716494e-01   1.054479e-02
  1.966201e+00    7.929993e-01   1.067959e-02
  1.968411e+00    8.059556e-01   1.075622e-02
  1.970622e+00    7.902801e-01   1.064102e-02
  1.972832e+00    7.935085e-01   1.065270e-02
  1.975043e+00    7.882317e-01   1.060719e-02
  1.977253e+00    7.754064e-01   1.051064e-02
  1.979464e+00    7.653365e-01   1.043225e-02
  1.981674e+00    7.878432e-01   1.057422e-02
  1.983885e+00    7.981798e-01   1.063326e-02
  1.986095e+00    7.824549e-01   1.051827e-02
  1.988305e+00    7.763100e-01   1.046702e-02
  1.990516e+00    7.730352e-01   1.043502e-02
  1.992726e+00    7.967232e-01   1.058391e-02
  1.994937e+00    7.939744e-01   1.055541e-02
  1.997147e+00    7.908598e-01   1.052485e-02
  1.999358e+00    7.825844e-01   1.045975e-02
  2.001568e+00    7.705270e-01   1.036807e-02
  2.003779e+00    7.693357e-01   1.034816e-02
  2.005989e+00    7.554473e-01   1.024243e-02
  2.008200e+00    7.770045e-01   1.037594e-02
  2.010410e+00    7.788152e-01   1.037625e-02
  2.012621e+00    7.595831e-01   1.023567e-02
  2.014831e+00    7.767620e-01   1.033921e-02
  2.017041e+00    7.934835e-01   1.043937e-02
  2.019252e+00    7.896878e-01   1.040424e-02
  2.021462e+00    7.887098e-01   1.038817e-02
  2.023673e+00    7.688293e-01   1.024698e-02
  2.025883e+00    7.659712e-01   1.021838e-02
  2.028094e+00    7.608932e-01   1.017482e-02
  2.030304e+00    7.557790e-01   1.013107e-02
  2.032515e+00    7.496489e-01   1.008066e-02
  2.034725e+00    7.604787e-01   1.014377e-02
  2.036936e+00    7.578444e-01   1.011685e-02
  2.039146e+00    7.537814e-01   1.008014e-02
  2.041356e+00    7.589592e-01   1.010504e-02
  2.043567e+00    7.629684e-01   1.012236e-02
  2.045777e+00    7.564999e-01   1.007009e-02
  2.047988e+00    7.642670e-01   1.011223e-02
  2.050198e+00    7.539107e-01   1.003506e-02
  2.052409e+00    7.597253e-01   1.006597e-02
  2.054619e+00    7.594193e-01   1.005655e-02
  2.056830e+00    7.540427e-01   1.001369e-02
  2.059040e+00    7.581549e-01   1.003340e-02
  2.061251e+00    7.491209e-01   9.966223e-03
  2.063461e+00    7.487046e-01   9.955830e-03
  2.065671e+00    7.595010e-01   1.001859e-02
  2.067882e+00    7.695289e-01   1.007539e-02
  2.070092e+00    7.634239e-01   1.002605e-02
  2.072303e+00    7.620642e-01   1.000788e-02
  2.074513e+00    7.557591e-01   9.957009e-03
  2.076724e+00    7.493767e-01   9.905387e-03
  2.078934e+00    7.468882e-01   9.879888e-03
  2.081145e+00    7.572345e-01   9.938927e-03
  2.083355e+00    7.477912e-01   9.867543e-03
  2.085566e+00    7.469851e-01   9.853288e-03
  2.087776e+00    7.477403e-01   9.848687e-03
  2.089986e+00    7.445009e-01   9.818531e-03
  2.092197e+00    7.441647e-01   9.807314e-03
  2.094407e+00    7.396759e-01   9.768420e-03
  2.096618e+00    7.554524e-01   9.863053e-03
  2.098828e+00    7.382928e-01   9.741048e-03
  2.101039e+00    7.411894e-01   9.751103e-03
  2.103249e+00    7.434184e-01   9.757016e-03
  2.105460e+00    7.311282e-01   9.667029e-03
  2.107670e+00    7.170408e-01   9.564738e-03
  2.109881e+00    7.281747e-01   9.629562e-03
  2.112091e+00    7.293115e-01   9.628068e-03
  2.114301e+00    7.222811e-01   9.572773e-03
  2.116512e+00    7.432894e-01   9.702086e-03
  2.118722e+00    7.247892e-01   9.571739e-03
  2.120933e+00    7.231903e-01   9.552306e-03
  2.123143e+00    7.182364e-01   9.510616e-03
  2.125354e+00    7.035539e-01   9.404472e-03
  2.127564e+00    7.188060e-01   9.497101e-03
  2.129775e+00    7.232166e-01   9.517424e-03
  2.131985e+00    7.156165e-01   9.458235e-03
  2.134196e+00    7.143335e-01   9.441135e-03
  2.136406e+00    7.039832e-01   9.363824e-03
  2.138617e+00    6.979244e-01   9.315039e-03
  2.140827e+00    7.051042e-01   9.378847e-03
  2.143037e+00    7.115194e-01   9.467040e-03
  2.145248e+00    7.097337e-01   9.477214e-03
  2.147458e+00    7.098304e-01   9.493052e-03
  2.149669e+00    7.068897e-01   9.485270e-03
  2.151879e+00    6.973884e-01   9.430476e-03
  2.154090e+00    7.021264e-01   9.469797e-03
  2.156300e+00    7.056328e-01   9.500019e-03
  2.158511e+00    7.157124e-01   9.573012e-03
  2.160721e+00    7.115341e-01   9.549885e-03
  2.162932e+00    7.098366e-01   9.542258e-03
  2.165142e+00    7.112662e-01   9.554922e-03
  2.167352e+00    7.150059e-01   9.582943e-03
  2.169563e+00    6.975002e-01   9.466886e-03
  2.171773e+00    7.010064e-01   9.493095e-03
  2.173984e+00    6.921061e-01   9.434047e-03
  2.176194e+00    7.020099e-01   9.502519e-03
  2.178405e+00    6.969169e-01   9.468679e-03
  2.180615e+00    6.956261e-01   9.460605e-03
  2.182826e+00    6.942571e-01   9.451953e-03
  2.185036e+00    6.960745e-01   9.464380e-03
  2.187247e+00    6.846214e-01   9.386148e-03
  2.189457e+00    6.724046e-01   9.301608e-03
  2.191667e+00    6.842580e-01   9.383068e-03
  2.193878e+00    6.924587e-01   9.438551e-03
  2.196088e+00    7.041612e-01   9.517291e-03
  2.198299e+00    6.942405e-01   9.448912e-03
  2.200509e+00    6.804372e-01   9.353458e-03
  2.202720e+00    6.719184e-01   9.293565e-03
  2.204930e+00    6.772387e-01   9.329046e-03
  2.207141e+00    7.024516e-01   9.499991e-03
  2.209351e+00    6.822598e-01   9.360579e-03
  2.211562e+00    6.895800e-01   9.409024e-03
  2.213772e+00    6.843047e-01   9.317166e-03
  2.215982e+00    6.855351e-01   9.281026e-03
  2.218193e+00    6.945963e-01   9.312114e-03
  2.220403e+00    6.696547e-01   9.118916e-03
  2.222614e+00    6.685966e-01   9.090836e-03
  2.224824e+00    6.704565e-01   9.084119e-03
  2.227035e+00    6.685978e-01   9.054133e-03
  2.229245e+00    6.799343e-01   9.113513e-03
  2.231456e+00    6.685637e-01   9.021387e-03
  2.233666e+00    6.629019e-01   8.968116e-03
  2.235877e+00    6.580353e-01   8.921001e-03
  2.238087e+00    6.738832e-01   9.014250e-03
  2.240298e+00    6.779021e-01   9.027251e-03
  2.242508e+00    6.694993e-01   8.955996e-03
  2.244718e+00    6.692172e-01   8.938284e-03
  2.246929e+00    6.864325e-01   9.037908e-03
  2.249139e+00    6.629524e-01   8.869664e-03
  2.251350e+00    6.538119e-01   8.796697e-03
  2.253560e+00    6.784632e-01   8.949319e-03
  2.255771e+00    6.693435e-01   8.877552e-03
  2.257981e+00    6.643530e-01   8.833219e-03
  2.260192e+00    6.567603e-01   8.771545e-03
  2.262402e+00    6.573818e-01   8.764900e-03
  2.264613e+00    6.717871e-01   8.849510e-03
  2.266823e+00    6.600170e-01   8.761285e-03
  2.269033e+00    6.555530e-01   8.721260e-03
  2.271244e+00    6.588562e-01   8.732853e-03
  2.273454e+00    6.648734e-01   8.762361e-03
  2.275665e+00    6.800902e-01   8.851613e-03
  2.277875e+00    6.728587e-01   8.794424e-03
  2.280086e+00    6.687638e-01   8.757511e-03
  2.282296e+00    6.557639e-01   8.662585e-03
  2.284507e+00    6.712580e-01   8.754112e-03
  2.286717e+00    6.625735e-01   8.687797e-03
  2.288928e+00    6.539598e-01   8.621291e-03
  2.291138e+00    6.641327e-01   8.678618e-03
  2.293348e+00    6.487595e-01   8.568101e-03
  2.295559e+00    6.571363e-01   8.613888e-03
  2.297769e+00    6.678741e-01   8.674669e-03
  2.299980e+00    6.518645e-01   8.560726e-03
  2.302190e+00    6.587049e-01   8.596373e-03
  2.304401e+00    6.497001e-01   8.528112e-03
  2.306611e+00    6.336408e-01   8.412979e-03
  2.308822e+00    6.512859e-01   8.520907e-03
  2.311032e+00    6.614484e-01   8.580660e-03
  2.313243e+00    6.560733e-01   8.539394e-03
  2.315453e+00    6.627042e-01   8.574812e-03
  2.317663e+00    6.399763e-01   8.417401e-03
  2.319874e+00    6.383612e-01   8.398106e-03
  2.322084e+00    6.499570e-01   8.465030e-03
  2.324295e+00    6.507652e-01   8.462057e-03
  2.326505e+00    6.552647e-01   8.482108e-03
  2.328716e+00    6.450028e-01   8.406885e-03
  2.330926e+00    6.437678e-01   8.390029e-03
  2.333137e+00    6.462294e-01   8.397646e-03
  2.335347e+00    6.452549e-01   8.382423e-03
  2.337558e+00    6.381810e-01   8.328122e-03
  2.339768e+00    6.481458e-01   8.384272e-03
  2.341979e+00    6.392616e-01   8.318235e-03
  2.344189e+00    6.354898e-01   8.285281e-03
  2.346399e+00    6.489204e-01   8.363790e-03
  2.348610e+00    6.454291e-01   8.332747e-03
  2.350820e+00    6.446656e-01   8.319571e-03
  2.353031e+00    6.273531e-01   8.198869e-03
  2.355241e+00    6.295165e-01   8.204944e-03
  2.357452e+00    6.364067e-01   8.241284e-03
  2.359662e+00    6.250985e-01   8.159559e-03
  2.361873e+00    6.359053e-01   8.221521e-03
  2.364083e+00    6.274100e-01   8.158437e-03
  2.366294e+00    6.242119e-01   8.129542e-03
  2.368504e+00    6.108539e-01   8.034100e-03
  2.370714e+00    6.273110e-01   8.133534e-03
  2.372925e+00    6.473688e-01   8.254351e-03
  2.375135e+00    6.385531e-01   8.189827e-03
  2.377346e+00    6.315051e-01   8.136500e-03
  2.379556e+00    6.156885e-01   8.026113e-03
  2.381767e+00    6.262990e-01   8.087072e-03
  2.383977e+00    6.141470e-01   8.000350e-03
  2.386188e+00    6.040850e-01   7.926716e-03
  2.388398e+00    6.118923e-01   7.969866e-03
  2.390609e+00    6.157544e-01   7.987250e-03
  2.392819e+00    6.364585e-01   8.112533e-03
  2.395029e+00    6.243525e-01   8.027292e-03
  2.397240e+00    6.172617e-01   7.973698e-03
  2.399450e+00    6.028661e-01   7.872430e-03
  2.401661e+00    6.050856e-01   7.879259e-03
  2.403871e+00    5.976026e-01   7.822735e-03
  2.406082e+00    5.974268e-01   7.814202e-03
  2.408292e+00    6.196373e-01   7.950280e-03
  2.410503e+00    6.246811e-01   7.974993e-03
  2.412713e+00    6.074100e-01   7.856181e-03
  2.414924e+00    6.008573e-01   7.806218e-03
  2.417134e+00    6.147718e-01   7.888416e-03
  2.419344e+00    5.868403e-01   7.699799e-03
  2.421555e+00    5.940871e-01   7.739748e-03
  2.423765e+00    5.999096e-01   7.770180e-03
  2.425976e+00    5.996618e-01   7.760764e-03
  2.428186e+00    6.104195e-01   7.822788e-03
  2.430397e+00    5.870075e-01   7.663891e-03
  2.432607e+00    5.858296e-01   7.648971e-03
  2.434818e+00    5.917823e-01   7.680224e-03
  2.437028e+00    6.067103e-01   7.769248e-03
  2.439239e+00    5.992166e-01   7.713445e-03
  2.441449e+00    5.934654e-01   7.669130e-03
  2.443659e+00    5.831507e-01   7.594896e-03
  2.445870e+00    5.825728e-01   7.603297e-03
  2.448080e+00    5.805441e-01   7.624785e-03
  2.450291e+00    5.742275e-01   7.599755e-03
  2.452501e+00    5.742452e-01   7.611010e-03
  2.454712e+00    5.674373e-01   7.574144e-03
  2.456922e+00    5.603861e-01   7.533512e-03
  2.459133e+00    5.696129e-01   7.600699e-03
  2.461343e+00    5.678654e-01   7.593398e-03
  2.463554e+00    5.710754e-01   7.618314e-03
  2.465764e+00    5.642284e-01   7.575664e-03
  2.467975e+00    5.757503e-01   7.654915e-03
  2.470185e+00    5.659633e-01   7.591869e-03
  2.472395e+00    5.453917e-01   7.453816e-03
  2.474606e+00    5.459902e-01   7.459452e-03
  2.476816e+00    5.487492e-01   7.479005e-03
  2.479027e+00    5.423786e-01   7.436328e-03
  2.481237e+00    5.511476e-01   7.496452e-03
  2.483448e+00    5.586843e-01   7.547850e-03
  2.485658e+00    5.387374e-01   7.411771e-03
  2.487869e+00    5.256839e-01   7.321423e-03
  2.490079e+00    5.364546e-01   7.395551e-03
  2.492290e+00    5.506433e-01   7.492257e-03
  2.494500e+00    5.398260e-01   7.417589e-03
  2.496710e+00    5.481124e-01   7.473579e-03
  2.498921e+00    5.557809e-01   7.524692e-03
  2.501131e+00    5.411648e-01   7.424127e-03
  2.503342e+00    5.314299e-01   7.355786e-03
  2.505552e+00    5.208384e-01   7.280992e-03
  2.507763e+00    5.233374e-01   7.297026e-03
  2.509973e+00    5.302636e-01   7.343763e-03
  2.512184e+00    5.342727e-01   7.369839e-03
  2.514394e+00    5.261980e-01   7.304598e-03
  2.516605e+00    5.291741e-01   7.278033e-03
  2.518815e+00    5.208533e-01   7.192410e-03
  2.521025e+00    5.181074e-01   7.152599e-03
  2.523236e+00    5.306461e-01   7.220557e-03
  2.525446e+00    5.407097e-01   7.272876e-03
  2.527657e+00    5.471084e-01   7.300890e-03
  2.529867e+00    5.471416e-01   7.286633e-03
  2.532078e+00    5.269299e-01   7.135727e-03
  2.534288e+00    5.250271e-01   7.108923e-03
  2.536499e+00    5.317479e-01   7.142271e-03
  2.538709e+00    5.298746e-01   7.118606e-03
  2.540920e+00    5.354842e-01   7.145456e-03
  2.543130e+00    5.368068e-01   7.143769e-03
  2.545340e+00    5.320496e-01   7.101913e-03
  2.547551e+00    5.139692e-01   6.970338e-03
  2.549761e+00    5.098727e-01   6.933030e-03
  2.551972e+00    5.225249e-01   7.009165e-03
  2.554182e+00    5.327737e-01   7.068281e-03
  2.556393e+00    5.355451e-01   7.077450e-03
  2.558603e+00    5.147926e-01   6.929934e-03
  2.560814e+00    5.181601e-01   6.943862e-03
  2.563024e+00    5.226408e-01   6.965226e-03
  2.565235e+00    5.049537e-01   6.836981e-03
  2.567445e+00    5.245601e-01   6.958825e-03
  2.569656e+00    5.195281e-01   6.915627e-03
  2.571866e+00    5.119408e-01   6.855628e-03
  2.574076e+00    5.142357e-01   6.861733e-03
  2.576287e+00    5.234224e-01   6.914364e-03
  2.578497e+00    5.235800e-01   6.907518e-03
  2.580708e+00    5.090159e-01   6.802735e-03
  2.582918e+00    5.103747e-01   6.804073e-03
  2.585129e+00    5.092269e-01   6.788703e-03
  2.587339e+00    5.159062e-01   6.825385e-03
  2.589550e+00    5.072218e-01   6.760199e-03
  2.591760e+00    5.116311e-01   6.781772e-03
  2.593971e+00    5.077029e-01   6.748193e-03
  2.596181e+00    5.120872e-01   6.771042e-03
  2.598391e+00    5.187406e-01   6.809649e-03
  2.600602e+00    5.167651e-01   6.790735e-03
  2.602812e+00    5.223261e-01   6.819521e-03
  2.605023e+00    5.200559e-01   6.797458e-03
  2.607233e+00    5.084240e-01   6.713870e-03
  2.609444e+00    5.072454e-01   6.698840e-03
  2.611654e+00    4.988399e-01   6.635844e-03
  2.613865e+00    5.182692e-01   6.756721e-03
  2.616075e+00    5.138870e-01   6.720913e-03
  2.618286e+00    4.959087e-01   6.595362e-03
  2.620496e+00    5.070109e-01   6.662070e-03
  2.622706e+00    5.034738e-01   6.633054e-03
  2.624917e+00    5.032045e-01   6.625439e-03
  2.627127e+00    5.042958e-01   6.626894e-03
  2.629338e+00    5.006968e-01   6.597226e-03
  2.631548e+00    5.018772e-01   6.598840e-03
  2.633759e+00    5.111900e-01   6.652575e-03
  2.635969e+00    5.017606e-01   6.584251e-03
  2.638180e+00    5.145621e-01   6.660630e-03
  2.640390e+00    5.073094e-01   6.606894e-03
  2.642601e+00    5.065636e-01   6.595328e-03
  2.644811e+00    5.021834e-01   6.559656e-03
  2.647021e+00    5.112259e-01   6.611821e-03
  2.649232e+00    5.109407e-01   6.603173e-03
  2.651442e+00    4.960165e-01   6.499550e-03
  2.653653e+00    5.107605e-01   6.588551e-03
  2.655863e+00    5.099952e-01   6.576870e-03
  2.658074e+00    5.081011e-01   6.557971e-03
  2.660284e+00    4.932415e-01   6.455021e-03
  2.662495e+00    5.011117e-01   6.499540e-03
  2.664705e+00    5.060290e-01   6.524725e-03
  2.666916e+00    5.097901e-01   6.542381e-03
  2.669126e+00    4.976778e-01   6.457718e-03
  2.671337e+00    4.910322e-01   6.407918e-03
  2.673547e+00    4.873033e-01   6.377203e-03
  2.675757e+00    4.921534e-01   6.402418e-03
  2.677968e+00    4.972705e-01   6.429086e-03
  2.680178e+00    4.865252e-01   6.352890e-03
  2.682389e+00    5.002188e-01   6.435221e-03
  2.684599e+00    4.931743e-01   6.383575e-03
  2.686810e+00    5.015435e-01   6.430832e-03
  2.689020e+00    4.969420e-01   6.394951e-03
  2.691231e+00    5.009344e-01   6.414219e-03
  2.693441e+00    4.945912e-01   6.367316e-03
  2.695652e+00    4.946862e-01   6.361399e-03
  2.697862e+00    4.887826e-01   6.316968e-03
  2.700072e+00    4.857365e-01   6.291205e-03
  2.702283e+00    5.026064e-01   6.393205e-03
  2.704493e+00    4.933002e-01   6.327448e-03
  2.706704e+00    4.916098e-01   6.310169e-03
  2.708914e+00    4.885578e-01   6.284572e-03
  2.711125e+00    4.957006e-01   6.324052e-03
  2.713335e+00    4.923866e-01   6.296758e-03
  2.715546e+00    4.839781e-01   6.236328e-03
  2.717756e+00    4.941243e-01   6.295404e-03
  2.719967e+00    5.028113e-01   6.344206e-03
  2.722177e+00    4.834215e-01   6.214567e-03
  2.724387e+00    4.732604e-01   6.142876e-03
  2.726598e+00    4.818696e-01   6.192452e-03
  2.728808e+00    4.798522e-01   6.173360e-03
  2.731019e+00    4.821629e-01   6.182109e-03
  2.733229e+00    4.791510e-01   6.156983e-03
  2.735440e+00    4.973951e-01   6.266751e-03
  2.737650e+00    4.809819e-01   6.156503e-03
  2.739861e+00    4.828232e-01   6.162197e-03
  2.742071e+00    4.858469e-01   6.175704e-03
  2.744282e+00    4.869099e-01   6.176182e-03
  2.746492e+00    4.953218e-01   6.223186e-03
  2.748702e+00    4.889927e-01   6.177363e-03
  2.750913e+00    4.818738e-01   6.126426e-03
  2.753123e+00    4.824556e-01   6.124015e-03
  2.755334e+00    4.709831e-01   6.044729e-03
  2.757544e+00    4.886052e-01   6.151009e-03
  2.759755e+00    4.834536e-01   6.112582e-03
  2.761965e+00    4.904624e-01   6.150683e-03
  2.764176e+00    4.948468e-01   6.172042e-03
  2.766386e+00    4.747043e-01   6.039367e-03
  2.768597e+00    4.807250e-01   6.071670e-03
  2.770807e+00    4.864016e-01   6.101485e-03
  2.773017e+00    4.844050e-01   6.082958e-03
  2.775228e+00    4.792113e-01   6.044470e-03
  2.777438e+00    4.743041e-01   6.007662e-03
  2.779649e+00    4.685929e-01   5.965549e-03
  2.781859e+00    4.651956e-01   5.938193e-03
  2.784070e+00    4.702595e-01   5.964599e-03
  2.786280e+00    4.749724e-01   5.988672e-03
  2.788491e+00    4.835595e-01   6.036668e-03
  2.790701e+00    4.927652e-01   6.088142e-03
  2.792912e+00    4.863885e-01   6.042591e-03
  2.795122e+00    4.701610e-01   5.935240e-03
  2.797333e+00    4.764724e-01   5.969357e-03
  2.799543e+00    4.772840e-01   5.968595e-03
  2.801753e+00    4.764160e-01   5.957286e-03
  2.803964e+00    4.769103e-01   5.954700e-03
  2.806174e+00    4.816521e-01   5.978055e-03
  2.808385e+00    4.739189e-01   5.923071e-03
  2.810595e+00    4.749210e-01   5.922460e-03
  2.812806e+00    4.744217e-01   5.912744e-03
  2.815016e+00    4.737208e-01   5.903632e-03
  2.817227e+00    4.836933e-01   5.991626e-03
  2.819437e+00    4.827507e-01   5.996986e-03
  2.821648e+00    4.871795e-01   6.026750e-03
  2.823858e+00    4.733217e-01   5.945768e-03
  2.826068e+00    4.748164e-01   5.960118e-03
  2.828279e+00    4.746331e-01   5.963017e-03
  2.830489e+00    4.807004e-01   6.004387e-03
  2.832700e+00    4.690682e-01   5.933837e-03
  2.834910e+00    4.655983e-01   5.913908e-03
  2.837121e+00    4.514540e-01   5.825054e-03
  2.839331e+00    4.646052e-01   5.910499e-03
  2.841542e+00    4.708302e-01   5.951003e-03
  2.843752e+00    4.623575e-01   5.897972e-03
  2.845963e+00    4.753046e-01   5.980372e-03
  2.848173e+00    4.832638e-01   6.030348e-03
  2.850383e+00    4.769237e-01   5.990947e-03
  2.852594e+00    4.653710e-01   5.917872e-03
  2.854804e+00    4.699528e-01   5.946414e-03
  2.857015e+00    4.701948e-01   5.947521e-03
  2.859225e+00    4.729288e-01   5.964522e-03
  2.861436e+00    4.773933e-01   5.991955e-03
  2.863646e+00    4.737614e-01   5.969169e-03
  2.865857e+00    4.775968e-01   5.993597e-03
  2.868067e+00    4.798369e-01   6.007886e-03
  2.870278e+00    4.644269e-01   5.910279e-03
  2.872488e+00    4.528031e-01   5.834681e-03
  2.874698e+00    4.647884e-01   5.910357e-03
  2.876909e+00    4.695306e-01   5.939097e-03
  2.879119e+00    4.664024e-01   5.917660e-03
  2.881330e+00    4.705775e-01   5.942588e-03
  2.883540e+00    4.593548e-01   5.869933e-03
  2.885751e+00    4.589560e-01   5.865735e-03
  2.887961e+00    4.512036e-01   5.814116e-03
  2.890172e+00    4.654023e-01   5.903278e-03
  2.892382e+00    4.527483e-01   5.820696e-03
  2.894593e+00    4.608518e-01   5.870721e-03
  2.896803e+00    4.609621e-01   5.869475e-03
  2.899014e+00    4.508525e-01   5.802825e-03
  2.901224e+00    4.604985e-01   5.862597e-03
  2.903434e+00    4.534171e-01   5.815435e-03
  2.905645e+00    4.463703e-01   5.767846e-03
  2.907855e+00    4.537933e-01   5.813537e-03
  2.910066e+00    4.564376e-01   5.828348e-03
  2.912276e+00    4.747477e-01   5.941981e-03
  2.914487e+00    4.698164e-01   5.908542e-03
  2.916697e+00    4.633910e-01   5.865762e-03
  2.918908e+00    4.582767e-01   5.831304e-03
  2.921118e+00    4.650556e-01   5.871549e-03
  2.923329e+00    4.632044e-01   5.857536e-03
  2.925539e+00    4.502579e-01   5.772832e-03
  2.927749e+00    4.441547e-01   5.731289e-03
  2.929960e+00    4.587860e-01   5.822137e-03
  2.932170e+00    4.569885e-01   5.808406e-03
  2.934381e+00    4.594871e-01   5.821809e-03
  2.936591e+00    4.533360e-01   5.780135e-03
  2.938802e+00    4.487807e-01   5.748341e-03
  2.941012e+00    4.590579e-01   5.811432e-03
  2.943223e+00    4.662762e-01   5.854222e-03
  2.945433e+00    4.576660e-01   5.796186e-03
  2.947644e+00    4.732139e-01   5.889589e-03
  2.949854e+00    4.689166e-01   5.858463e-03
  2.952064e+00    4.578772e-01   5.784847e-03
  2.954275e+00    4.648977e-01   5.824580e-03
  2.956485e+00    4.560481e-01   5.764688e-03
  2.958696e+00    4.525934e-01   5.738433e-03
  2.960906e+00    4.572122e-01   5.763453e-03
  2.963117e+00    4.458255e-01   5.686791e-03
  2.965327e+00    4.509574e-01   5.715554e-03
  2.967538e+00    4.579947e-01   5.757031e-03
  2.969748e+00    4.551454e-01   5.736286e-03
  2.971959e+00    4.648201e-01   5.793761e-03
  2.974169e+00    4.600065e-01   5.761083e-03
  2.976379e+00    4.647834e-01   5.787962e-03
  2.978590e+00    4.630122e-01   5.773773e-03
  2.980800e+00    4.520848e-01   5.702429e-03
  2.983011e+00    4.684304e-01   5.801755e-03
  2.985221e+00    4.560533e-01   5.721458e-03
  2.987432e+00    4.499832e-01   5.680129e-03
  2.989642e+00    4.579858e-01   5.727797e-03
  2.991853e+00    4.538448e-01   5.698564e-03
  2.994063e+00    4.435606e-01   5.630747e-03
  2.996274e+00    4.483436e-01   5.657853e-03
  2.998484e+00    4.510421e-01   5.672182e-03
  3.000694e+00    4.451242e-01   5.631411e-03
  3.002905e+00    4.563580e-01   5.699082e-03
  3.005115e+00    4.651106e-01   5.750461e-03
  3.007326e+00    4.629089e-01   5.733657e-03
  3.009536e+00    4.462526e-01   5.626319e-03
  3.011747e+00    4.499944e-01   5.646965e-03
  3.013957e+00    4.447473e-01   5.610783e-03
  3.016168e+00    4.499060e-01   5.639976e-03
  3.018378e+00    4.565050e-01   5.678152e-03
  3.020589e+00    4.548341e-01   5.664510e-03
  3.022799e+00    4.644351e-01   5.720797e-03
  3.025010e+00    4.564758e-01   5.668295e-03
  3.027220e+00    4.661900e-01   5.725147e-03
  3.029430e+00    4.537086e-01   5.644745e-03
  3.031641e+00    4.525926e-01   5.634632e-03
  3.033851e+00    4.580282e-01   5.664849e-03
  3.036062e+00    4.495476e-01   5.609373e-03
  3.038272e+00    4.520927e-01   5.621658e-03
  3.040483e+00    4.630057e-01   5.685823e-03
  3.042693e+00    4.696587e-01   5.723221e-03
  3.044904e+00    4.564674e-01   5.638234e-03
  3.047114e+00    4.551032e-01   5.624951e-03
  3.049325e+00    4.518400e-01   5.600373e-03
  3.051535e+00    4.480325e-01   5.572323e-03
  3.053745e+00    4.522711e-01   5.593873e-03
  3.055956e+00    4.502198e-01   5.576596e-03
  3.058166e+00    4.444352e-01   5.536428e-03
  3.060377e+00    4.454662e-01   5.538092e-03
  3.062587e+00    4.578812e-01   5.610071e-03
  3.064798e+00    4.505270e-01   5.560589e-03
  3.067008e+00    4.398145e-01   5.489389e-03
  3.069219e+00    4.478556e-01   5.534849e-03
  3.071429e+00    4.533855e-01   5.565376e-03
  3.073640e+00    4.510772e-01   5.547874e-03
  3.075850e+00    4.471585e-01   5.520124e-03
  3.078060e+00    4.572454e-01   5.578921e-03
  3.080271e+00    4.541180e-01   5.556310e-03
  3.082481e+00    4.571105e-01   5.571116e-03
  3.084692e+00    4.463040e-01   5.501488e-03
  3.086902e+00    4.509189e-01   5.526613e-03
  3.089113e+00    4.459598e-01   5.492574e-03
  3.091323e+00    4.551429e-01   5.545425e-03
  3.093534e+00    4.535872e-01   5.532563e-03
  3.095744e+00    4.426624e-01   5.462157e-03
  3.097955e+00    4.537437e-01   5.526539e-03
  3.100165e+00    4.576829e-01   5.547100e-03
  3.102375e+00    4.555554e-01   5.530757e-03
  3.104586e+00    4.430632e-01   5.450899e-03
  3.106796e+00    4.519078e-01   5.501503e-03
  3.109007e+00    4.377421e-01   5.411417e-03
  3.111217e+00    4.432522e-01   5.441660e-03
  3.113428e+00    4.608060e-01   5.544907e-03
  3.115638e+00    4.491906e-01   5.471336e-03
  3.117849e+00    4.500334e-01   5.472720e-03
  3.120059e+00    4.603094e-01   5.531314e-03
  3.122270e+00    4.541515e-01   5.490916e-03
  3.124480e+00    4.469054e-01   5.443237e-03
  3.126691e+00    4.478115e-01   5.445174e-03
  3.128901e+00    4.552223e-01   5.486882e-03
  3.131111e+00    4.551888e-01   5.482804e-03
  3.133322e+00    4.365076e-01   5.365706e-03
  3.135532e+00    4.401940e-01   5.384916e-03
  3.137743e+00    4.493902e-01   5.437374e-03
  3.139953e+00    4.413787e-01   5.385017e-03
  3.142164e+00    4.410725e-01   5.395139e-03
  3.144374e+00    4.435014e-01   5.438408e-03
  3.146585e+00    4.327323e-01   5.386405e-03
  3.148795e+00    4.385036e-01   5.432889e-03
  3.151006e+00    4.465527e-01   5.491155e-03
  3.153216e+00    4.390828e-01   5.452122e-03
  3.155426e+00    4.511030e-01   5.532643e-03
  3.157637e+00    4.443194e-01   5.496427e-03
  3.159847e+00    4.418247e-01   5.485864e-03
  3.162058e+00    4.402049e-01   5.480232e-03
  3.164268e+00    4.260006e-01   5.395080e-03
  3.166479e+00    4.372304e-01   5.469361e-03
  3.168689e+00    4.446492e-01   5.518966e-03
  3.170900e+00    4.450637e-01   5.524728e-03
  3.173110e+00    4.347066e-01   5.462918e-03
  3.175321e+00    4.404736e-01   5.501553e-03
  3.177531e+00    4.376833e-01   5.486822e-03
  3.179741e+00    4.437235e-01   5.526642e-03
  3.181952e+00    4.445089e-01   5.533658e-03
  3.184162e+00    4.300481e-01   5.445095e-03
  3.186373e+00    4.420467e-01   5.522104e-03
  3.188583e+00    4.454445e-01   5.545105e-03
  3.190794e+00    4.423800e-01   5.527785e-03
  3.193004e+00    4.384495e-01   5.504398e-03
  3.195215e+00    4.366458e-01   5.494584e-03
  3.197425e+00    4.367962e-01   5.496728e-03
  3.199636e+00    4.272217e-01   5.435405e-03
  3.201846e+00    4.301537e-01   5.453403e-03
  3.204056e+00    4.273084e-01   5.436225e-03
  3.206267e+00    4.365674e-01   5.495664e-03
  3.208477e+00    4.353929e-01   5.489183e-03
  3.210688e+00    4.445927e-01   5.547728e-03
  3.212898e+00    4.405299e-01   5.522911e-03
  3.215109e+00    4.277501e-01   5.442954e-03
  3.217319e+00    4.471433e-01   5.565609e-03
  3.219530e+00    4.307721e-01   5.463193e-03
  3.221740e+00    4.354679e-01   5.493435e-03
  3.223951e+00    4.288619e-01   5.452081e-03
  3.226161e+00    4.260783e-01   5.434549e-03
  3.228372e+00    4.354768e-01   5.494677e-03
  3.230582e+00    4.291929e-01   5.455039e-03
  3.232792e+00    4.321938e-01   5.474307e-03
  3.235003e+00    4.281118e-01   5.448637e-03
  3.237213e+00    4.285819e-01   5.451727e-03
  3.239424e+00    4.333982e-01   5.482264e-03
  3.241634e+00    4.317268e-01   5.471823e-03
  3.243845e+00    4.326740e-01   5.477885e-03
  3.246055e+00    4.342372e-01   5.487487e-03
  3.248266e+00    4.357942e-01   5.497550e-03
  3.250476e+00    4.258818e-01   5.434336e-03
  3.252687e+00    4.234014e-01   5.418424e-03
  3.254897e+00    4.118327e-01   5.343766e-03
  3.257107e+00    4.337375e-01   5.483708e-03
  3.259318e+00    4.303793e-01   5.462226e-03
  3.261528e+00    4.212482e-01   5.403822e-03
  3.263739e+00    4.316424e-01   5.469518e-03
  3.265949e+00    4.252375e-01   5.428683e-03
  3.268160e+00    4.283391e-01   5.447999e-03
  3.270370e+00    4.139410e-01   5.355178e-03
  3.272581e+00    4.199112e-01   5.393364e-03
  3.274791e+00    4.080144e-01   5.315899e-03
  3.277002e+00    4.249471e-01   5.424512e-03
  3.279212e+00    4.253072e-01   5.426453e-03
  3.281422e+00    4.386179e-01   5.510086e-03
  3.283633e+00    4.376472e-01   5.503342e-03
  3.285843e+00    4.207852e-01   5.395925e-03
  3.288054e+00    4.298716e-01   5.452934e-03
  3.290264e+00    4.269753e-01   5.434215e-03
  3.292475e+00    4.299305e-01   5.452151e-03
  3.294685e+00    4.159951e-01   5.362445e-03
  3.296896e+00    4.113781e-01   5.331845e-03
  3.299106e+00    4.222190e-01   5.401087e-03
  3.301317e+00    4.102412e-01   5.322920e-03
  3.303527e+00    4.103431e-01   5.323110e-03
  3.305737e+00    4.230187e-01   5.403645e-03
  3.307948e+00    4.380981e-01   5.498461e-03
  3.310158e+00    4.281995e-01   5.435112e-03
  3.312369e+00    4.258972e-01   5.419610e-03
  3.314579e+00    4.299018e-01   5.444111e-03
  3.316790e+00    4.195094e-01   5.377194e-03
  3.319000e+00    4.203670e-01   5.381522e-03
  3.321211e+00    4.091145e-01   5.308396e-03
  3.323421e+00    4.332051e-01   5.461221e-03
  3.325632e+00    4.131443e-01   5.332419e-03
  3.327842e+00    4.301991e-01   5.440427e-03
  3.330052e+00    4.239150e-01   5.399471e-03
  3.332263e+00    4.297549e-01   5.435533e-03
  3.334473e+00    4.232472e-01   5.393284e-03
  3.336684e+00    4.287267e-01   5.426833e-03
  3.338894e+00    4.130689e-01   5.325950e-03
  3.341105e+00    4.171833e-01   5.351219e-03
  3.343315e+00    4.322437e-01   5.445789e-03
  3.345526e+00    4.266135e-01   5.409319e-03
  3.347736e+00    4.306705e-01   5.433535e-03
  3.349947e+00    4.431101e-01   5.510494e-03
  3.352157e+00    4.212321e-01   5.371571e-03
  3.354368e+00    4.453947e-01   5.522136e-03
  3.356578e+00    4.423572e-01   5.502232e-03
  3.358788e+00    4.341691e-01   5.449736e-03
  3.360999e+00    4.263175e-01   5.398946e-03
  3.363209e+00    4.274546e-01   5.405126e-03
  3.365420e+00    4.258448e-01   5.393419e-03
  3.367630e+00    4.124878e-01   5.307144e-03
  3.369841e+00    4.222035e-01   5.367827e-03
  3.372051e+00    4.299583e-01   5.414915e-03
  3.374262e+00    4.400273e-01   5.475422e-03
  3.376472e+00    4.443804e-01   5.499943e-03
  3.378683e+00    4.319665e-01   5.420017e-03
  3.380893e+00    4.409119e-01   5.473428e-03
  3.383103e+00    4.370803e-01   5.446842e-03
  3.385314e+00    4.247162e-01   5.366988e-03
  3.387524e+00    4.329738e-01   5.416097e-03
  3.389735e+00    4.244829e-01   5.360107e-03
  3.391945e+00    4.033001e-01   5.221001e-03
  3.394156e+00    4.221162e-01   5.337113e-03
  3.396366e+00    4.307518e-01   5.387989e-03
  3.398577e+00    4.106034e-01   5.257398e-03
  3.400787e+00    4.055696e-01   5.236930e-03
  3.402998e+00    4.120988e-01   5.317046e-03
  3.405208e+00    4.109184e-01   5.330239e-03
  3.407418e+00    4.187834e-01   5.397141e-03
  3.409629e+00    4.081322e-01   5.342146e-03
  3.411839e+00    3.982112e-01   5.288573e-03
  3.414050e+00    3.976835e-01   5.296084e-03
  3.416260e+00    3.875954e-01   5.238038e-03
  3.418471e+00    4.051022e-01   5.364541e-03
  3.420681e+00    3.968997e-01   5.318538e-03
  3.422892e+00    3.950415e-01   5.314096e-03
  3.425102e+00    3.916787e-01   5.299278e-03
  3.427313e+00    3.787042e-01   5.217867e-03
  3.429523e+00    3.800431e-01   5.234065e-03
  3.431733e+00    3.771847e-01   5.220946e-03
  3.433944e+00    3.802567e-01   5.248597e-03
  3.436154e+00    3.954805e-01   5.358971e-03
  3.438365e+00    3.902280e-01   5.329284e-03
  3.440575e+00    3.764204e-01   5.240044e-03
  3.442786e+00    3.807971e-01   5.276026e-03
  3.444996e+00    3.818664e-01   5.288969e-03
  3.447207e+00    3.724497e-01   5.228630e-03
  3.449417e+00    3.730132e-01   5.273476e-03
  3.451628e+00    3.746025e-01   5.314345e-03
  3.453838e+00    3.792826e-01   5.368959e-03
  3.456049e+00    3.611852e-01   5.263037e-03
  3.458259e+00    3.457335e-01   5.170495e-03
  3.460469e+00    3.607047e-01   5.300903e-03
  3.462680e+00    3.655824e-01   5.355652e-03
  3.464890e+00    3.712640e-01   5.415035e-03
  3.467101e+00    3.661770e-01   5.395253e-03
  3.469311e+00    3.766948e-01   5.488854e-03
  3.471522e+00    3.749762e-01   5.492750e-03
  3.473732e+00    3.875896e-01   5.600473e-03
  3.475943e+00    4.007126e-01   5.710560e-03
  3.478153e+00    4.017229e-01   5.733497e-03
  3.480364e+00    4.130050e-01   5.828946e-03
  3.482574e+00    4.277145e-01   5.947633e-03
  3.484784e+00    4.192983e-01   5.903875e-03
  3.486995e+00    4.414263e-01   6.073184e-03
  3.489205e+00    4.369028e-01   6.056909e-03
  3.491416e+00    4.435866e-01   6.118248e-03
  3.493626e+00    4.476456e-01   6.160985e-03
  3.495837e+00    4.541667e-01   6.220703e-03
  3.498047e+00    4.473295e-01   6.188205e-03
  3.500258e+00    4.646949e-01   6.321968e-03
  3.502468e+00    4.611151e-01   6.312110e-03
  3.504679e+00    4.922500e-01   6.536672e-03
  3.506889e+00    4.863725e-01   6.512335e-03
  3.509099e+00    4.764471e-01   6.459940e-03
  3.511310e+00    4.817018e-01   6.510038e-03
  3.513520e+00    4.955324e-01   6.617440e-03
  3.515731e+00    4.961058e-01   6.635797e-03
  3.517941e+00    4.932928e-01   6.631382e-03
  3.520152e+00    5.007322e-01   6.695585e-03
  3.522362e+00    5.056731e-01   6.743093e-03
  3.524573e+00    5.280966e-01   6.905548e-03
  3.526783e+00    5.333002e-01   6.953173e-03
  3.528994e+00    5.283864e-01   6.933412e-03
  3.531204e+00    5.362270e-01   6.997312e-03
  3.533414e+00    5.313761e-01   6.977739e-03
  3.535625e+00    5.424467e-01   7.062571e-03
  3.537835e+00    5.432060e-01   7.079757e-03
  3.540046e+00    5.540699e-01   7.159295e-03
  3.542256e+00    5.315126e-01   7.019543e-03
  3.544467e+00    5.446333e-01   7.113358e-03
  3.546677e+00    5.273908e-01   7.007341e-03
  3.548888e+00    5.485583e-01   7.154162e-03
  3.551098e+00    5.519868e-01   7.183898e-03
  3.553309e+00    5.609869e-01   7.250586e-03
  3.555519e+00    5.479346e-01   7.177153e-03
  3.557729e+00    5.307227e-01   7.075193e-03
  3.559940e+00    5.323107e-01   7.097286e-03
  3.562150e+00    5.353422e-01   7.129157e-03
  3.564361e+00    5.427272e-01   7.191561e-03
  3.566571e+00    5.402542e-01   7.189061e-03
  3.568782e+00    5.419942e-01   7.214813e-03
  3.570992e+00    5.473289e-01   7.264112e-03
  3.573203e+00    5.623208e-01   7.377461e-03
  3.575413e+00    5.345356e-01   7.206629e-03
  3.577624e+00    5.418532e-01   7.269959e-03
  3.579834e+00    5.474821e-01   7.321665e-03
  3.582045e+00    5.400510e-01   7.285913e-03
  3.584255e+00    5.425062e-01   7.316564e-03
  3.586465e+00    5.519311e-01   7.394005e-03
  3.588676e+00    5.598460e-01   7.461339e-03
  3.590886e+00    5.375750e-01   7.325154e-03
  3.593097e+00    5.404437e-01   7.359205e-03
  3.595307e+00    5.573186e-01   7.487456e-03
  3.597518e+00    5.346105e-01   7.347516e-03
  3.599728e+00    5.463507e-01   7.442017e-03
  3.601939e+00    5.318576e-01   7.356638e-03
  3.604149e+00    5.409101e-01   7.433461e-03
  3.606360e+00    5.339895e-01   7.399896e-03
  3.608570e+00    5.473543e-01   7.506227e-03
  3.610780e+00    5.404462e-01   7.469829e-03
  3.612991e+00    5.451899e-01   7.512647e-03
  3.615201e+00    5.517575e-01   7.567720e-03
  3.617412e+00    5.571830e-01   7.612266e-03
  3.619622e+00    5.407351e-01   7.505046e-03
  3.621833e+00    5.406979e-01   7.511545e-03
  3.624043e+00    5.477515e-01   7.570011e-03
  3.626254e+00    5.332655e-01   7.478924e-03
  3.628464e+00    5.443484e-01   7.567321e-03
  3.630675e+00    5.615443e-01   7.700391e-03
  3.632885e+00    5.426558e-01   7.584368e-03
  3.635095e+00    5.477380e-01   7.634356e-03
  3.637306e+00    5.426408e-01   7.613260e-03
  3.639516e+00    5.433564e-01   7.632924e-03
  3.641727e+00    5.348145e-01   7.587322e-03
  3.643937e+00    5.374743e-01   7.620720e-03
  3.646148e+00    5.564173e-01   7.768789e-03
  3.648358e+00    5.848192e-01   7.980148e-03
  3.650569e+00    5.516965e-01   7.765927e-03
  3.652779e+00    5.453945e-01   7.736331e-03
  3.654990e+00    5.393061e-01   7.708050e-03
  3.657200e+00    5.251387e-01   7.620920e-03
  3.659410e+00    5.212293e-01   7.607252e-03
  3.661621e+00    5.382158e-01   7.745470e-03
  3.663831e+00    5.427951e-01   7.793595e-03
  3.666042e+00    5.394034e-01   7.784513e-03
  3.668252e+00    5.447893e-01   7.838678e-03
  3.670463e+00    5.539159e-01   7.919637e-03
  3.672673e+00    5.413485e-01   7.844858e-03
  3.674884e+00    5.155141e-01   7.670572e-03
  3.677094e+00    5.296773e-01   7.790694e-03
  3.679305e+00    5.435848e-01   7.908063e-03
  3.681515e+00    5.307036e-01   7.829465e-03
  3.683726e+00    5.323760e-01   7.857605e-03
  3.685936e+00    5.383635e-01   7.917539e-03
  3.688146e+00    5.212128e-01   7.806051e-03
  3.690357e+00    5.257738e-01   7.856062e-03
  3.692567e+00    5.233141e-01   7.853713e-03
  3.694778e+00    5.322641e-01   7.936719e-03
  3.696988e+00    5.415500e-01   8.021868e-03
  3.699199e+00    5.216584e-01   7.889385e-03
  3.701409e+00    5.321459e-01   7.984746e-03
  3.703620e+00    5.286444e-01   7.974816e-03
  3.705830e+00    5.194934e-01   7.921808e-03
  3.708041e+00    5.138154e-01   7.894836e-03
  3.710251e+00    5.273550e-01   8.014927e-03
  3.712461e+00    5.372738e-01   8.106927e-03
  3.714672e+00    5.421275e-01   8.160540e-03
  3.716882e+00    5.416335e-01   8.173861e-03
  3.719093e+00    5.261871e-01   8.073694e-03
  3.721303e+00    5.363092e-01   8.168206e-03
  3.723514e+00    5.049356e-01   7.942750e-03
  3.725724e+00    4.925792e-01   7.861624e-03
  3.727935e+00    5.032436e-01   7.963541e-03
  3.730145e+00    5.129504e-01   8.057176e-03
  3.732356e+00    5.399698e-01   8.284600e-03
  3.734566e+00    5.368322e-01   8.278411e-03
  3.736776e+00    5.398226e-01   8.319645e-03
  3.738987e+00    5.008582e-01   8.031295e-03
  3.741197e+00    5.119795e-01   8.137906e-03
  3.743408e+00    5.206694e-01   8.224838e-03
  3.745618e+00    5.148048e-01   8.196772e-03
  3.747829e+00    5.119246e-01   8.191917e-03
  3.750039e+00    5.264698e-01   8.326102e-03
  3.752250e+00    5.111337e-01   8.222386e-03
  3.754460e+00    5.244007e-01   8.347267e-03
  3.756671e+00    5.280972e-01   8.395755e-03
  3.758881e+00    5.159574e-01   8.317453e-03
  3.761091e+00    5.086510e-01   8.277531e-03
  3.763302e+00    5.049257e-01   8.266115e-03
  3.765512e+00    5.289090e-01   8.479862e-03
  3.767723e+00    5.321153e-01   8.525331e-03
  3.769933e+00    5.091077e-01   8.358376e-03
  3.772144e+00    5.187985e-01   8.457363e-03
  3.774354e+00    5.216055e-01   8.500369e-03
  3.776565e+00    5.189847e-01   8.499132e-03
  3.778775e+00    5.058057e-01   8.410478e-03
  3.780986e+00    5.151905e-01   8.508678e-03
  3.783196e+00    5.069943e-01   8.461058e-03
  3.785407e+00    5.106072e-01   8.511689e-03
  3.787617e+00    5.295024e-01   8.689081e-03
  3.789827e+00    5.125198e-01   8.569345e-03
  3.792038e+00    5.170292e-01   8.628071e-03
  3.794248e+00    5.132387e-01   8.617867e-03
  3.796459e+00    5.191291e-01   8.688850e-03
  3.798669e+00    4.899731e-01   8.462482e-03
  3.800880e+00    5.142944e-01   8.691754e-03
  3.803090e+00    5.182328e-01   8.747052e-03
  3.805301e+00    5.370577e-01   8.927529e-03
  3.807511e+00    4.981548e-01   8.620056e-03
  3.809722e+00    5.160429e-01   8.796024e-03
  3.811932e+00    4.858211e-01   8.556486e-03
  3.814142e+00    5.176491e-01   8.855615e-03
  3.816353e+00    5.032097e-01   8.754157e-03
  3.818563e+00    5.059854e-01   8.801575e-03
  3.820774e+00    5.049088e-01   8.815481e-03
  3.822984e+00    5.053649e-01   8.843057e-03
  3.825195e+00    5.113884e-01   8.919562e-03
  3.827405e+00    5.121335e-01   8.950394e-03
  3.829616e+00    5.046031e-01   8.908509e-03
  3.831826e+00    5.005971e-01   8.897350e-03
  3.834037e+00    4.935552e-01   8.858941e-03
  3.836247e+00    5.133175e-01   9.059697e-03
  3.838457e+00    5.047621e-01   9.009108e-03
  3.840668e+00    4.936411e-01   8.934427e-03
  3.842878e+00    4.905611e-01   8.931874e-03
  3.845089e+00    4.827816e-01   8.886036e-03
  3.847299e+00    4.858795e-01   8.939975e-03
  3.849510e+00    5.090868e-01   9.177249e-03
  3.851720e+00    5.145320e-01   9.248011e-03
  3.853931e+00    5.230890e-01   9.344176e-03
  3.856141e+00    5.004312e-01   9.158658e-03
  3.858352e+00    4.932355e-01   9.111781e-03
  3.860562e+00    5.183331e-01   9.360493e-03
  3.862772e+00    5.154075e-01   9.354074e-03
  3.864983e+00    4.765933e-01   9.014329e-03
  3.867193e+00    5.018167e-01   9.269596e-03
  3.869404e+00    5.293659e-01   9.541279e-03
  3.871614e+00    5.130150e-01   9.413113e-03
  3.873825e+00    5.134923e-01   9.438259e-03
  3.876035e+00    5.183316e-01   9.503660e-03
  3.878246e+00    5.148904e-01   9.498463e-03
  3.880456e+00    5.054313e-01   9.440145e-03
  3.882667e+00    5.006748e-01   9.425269e-03
  3.884877e+00    5.142317e-01   9.582368e-03
  3.887087e+00    4.720143e-01   9.209983e-03
  3.889298e+00    5.065912e-01   9.572146e-03
  3.891508e+00    4.891665e-01   9.436592e-03
  3.893719e+00    4.909858e-01   9.485125e-03
  3.895929e+00    5.049769e-01   9.651165e-03
  3.898140e+00    5.007933e-01   9.643177e-03
  3.900350e+00    5.059853e-01   9.725644e-03
  3.902561e+00    5.032145e-01   9.731782e-03
  3.904771e+00    4.759451e-01   9.496795e-03
  3.906982e+00    4.955151e-01   9.723377e-03
  3.909192e+00    5.058748e-01   9.858540e-03
  3.911403e+00    5.062225e-01   9.896587e-03
  3.913613e+00    5.156360e-01   1.002334e-02
  3.915823e+00    5.037608e-01   9.942667e-03
  3.918034e+00    4.579051e-01   9.513441e-03
  3.920244e+00    4.768750e-01   9.743821e-03
  3.922455e+00    4.919587e-01   9.932910e-03
  3.924665e+00    4.907189e-01   9.956942e-03
  3.926876e+00    4.733375e-01   9.815571e-03
  3.929086e+00    4.806119e-01   9.927774e-03
  3.931297e+00    5.088407e-01   1.025069e-02
  3.933507e+00    5.162105e-01   1.035452e-02
  3.935718e+00    5.041413e-01   1.026199e-02
  3.937928e+00    5.046305e-01   1.029685e-02
  3.940138e+00    5.142915e-01   1.042518e-02
  3.942349e+00    4.807374e-01   1.010898e-02
  3.944559e+00    4.817572e-01   1.014956e-02
  3.946770e+00    4.510195e-01   9.849404e-03
  3.948980e+00    4.844067e-01   1.023817e-02
  3.951191e+00    4.935260e-01   1.036513e-02
  3.953401e+00    5.134088e-01   1.060408e-02
  3.955612e+00    4.686937e-01   1.016294e-02
  3.957822e+00    4.520316e-01   1.001106e-02
  3.960033e+00    4.733594e-01   1.027679e-02
  3.962243e+00    4.836827e-01   1.042104e-02
  3.964453e+00    4.905454e-01   1.052789e-02
  3.966664e+00    5.453030e-01   1.113536e-02
  3.968874e+00    5.123955e-01   1.082345e-02
  3.971085e+00    4.910696e-01   1.061774e-02
  3.973295e+00    4.879945e-01   1.060601e-02
  3.975506e+00    4.797126e-01   1.053708e-02
  3.977716e+00    5.279792e-01   1.107736e-02
  3.979927e+00    4.961383e-01   1.076071e-02
  3.982137e+00    4.905534e-01   1.072220e-02
  3.984348e+00    4.797232e-01   1.062569e-02
  3.986558e+00    4.881322e-01   1.074080e-02
  3.988768e+00    4.653479e-01   1.050965e-02
  3.990979e+00    4.573929e-01   1.044154e-02
  3.993189e+00    4.931741e-01   1.086547e-02
  3.995400e+00    4.876184e-01   1.082765e-02
  3.997610e+00    5.171820e-01   1.118195e-02
  3.999821e+00    4.932062e-01   1.095755e-02
  4.002031e+00    4.769544e-01   1.081357e-02
  4.004242e+00    4.751956e-01   1.083166e-02
  4.006452e+00    4.934010e-01   1.107694e-02
  4.008663e+00    4.915608e-01   1.109652e-02
  4.010873e+00    4.938683e-01   1.116295e-02
  4.013084e+00    5.063431e-01   1.134485e-02
  4.015294e+00    5.225137e-01   1.156718e-02
  4.017504e+00    4.879541e-01   1.122022e-02
  4.019715e+00    4.724725e-01   1.108272e-02
  4.021925e+00    4.533852e-01   1.089800e-02
  4.024136e+00    4.949149e-01   1.143046e-02
  4.026346e+00    4.834761e-01   1.134178e-02
  4.028557e+00    5.024551e-01   1.160726e-02
  4.030767e+00    4.740586e-01   1.131984e-02
  4.032978e+00    4.916444e-01   1.157449e-02
  4.035188e+00    4.872087e-01   1.156848e-02
  4.037399e+00    5.044459e-01   1.182000e-02
  4.039609e+00    4.702454e-01   1.145929e-02
  4.041819e+00    4.809414e-01   1.163754e-02
  4.044030e+00    5.248334e-01   1.220896e-02
  4.046240e+00    5.050280e-01   1.202748e-02
  4.048451e+00    4.951131e-01   1.196037e-02
  4.050661e+00    4.889195e-01   1.193705e-02
  4.052872e+00    5.023660e-01   1.215380e-02
  4.055082e+00    5.063070e-01   1.225639e-02
  4.057293e+00    4.788647e-01   1.197301e-02
  4.059503e+00    4.994377e-01   1.228313e-02
  4.061714e+00    4.615976e-01   1.186399e-02
  4.063924e+00    4.790616e-01   1.214275e-02
  4.066134e+00    4.990568e-01   1.245207e-02
  4.068345e+00    4.753952e-01   1.221180e-02
  4.070555e+00    5.170144e-01   1.279651e-02
  4.072766e+00    4.943951e-01   1.257526e-02
  4.074976e+00    4.720061e-01   1.234825e-02
  4.077187e+00    4.754407e-01   1.245484e-02
  4.079397e+00    5.136791e-01   1.301209e-02
  4.081608e+00    4.951232e-01   1.284148e-02
  4.083818e+00    4.722663e-01   1.260662e-02
  4.086029e+00    4.851632e-01   1.284507e-02
  4.088239e+00    4.794405e-01   1.283788e-02
  4.090449e+00    4.867980e-01   1.300601e-02
  4.092660e+00    5.029317e-01   1.329268e-02
  4.094870e+00    4.898253e-01   1.319112e-02
  4.097081e+00    5.149350e-01   1.359913e-02
  4.099291e+00    4.817659e-01   1.320838e-02
  4.101502e+00    5.016237e-01   1.352807e-02
  4.103712e+00    4.930131e-01   1.346144e-02
  4.105923e+00    5.094510e-01   1.373693e-02
  4.108133e+00    5.078936e-01   1.376883e-02
  4.110344e+00    5.330249e-01   1.415936e-02
  4.112554e+00    4.717338e-01   1.337307e-02
  4.114764e+00    4.937780e-01   1.373686e-02
  4.116975e+00    4.952154e-01   1.381120e-02
  4.119185e+00    4.984526e-01   1.391240e-02
  4.121396e+00    5.054855e-01   1.406814e-02
  4.123606e+00    5.293918e-01   1.445603e-02
  4.125817e+00    4.960082e-01   1.405151e-02
  4.128027e+00    4.887902e-01   1.400753e-02
  4.130238e+00    5.124712e-01   1.440447e-02
  4.132448e+00    4.760294e-01   1.394302e-02
  4.134659e+00    4.757326e-01   1.399870e-02
  4.136869e+00    5.187320e-01   1.468275e-02
  4.139080e+00    5.001668e-01   1.448275e-02
  4.141290e+00    5.007724e-01   1.455536e-02
  4.143500e+00    5.021828e-01   1.464356e-02
  4.145711e+00    4.748859e-01   1.430613e-02
  4.147921e+00    5.164970e-01   1.498837e-02
  4.150132e+00    4.988391e-01   1.480015e-02
  4.152342e+00    4.830539e-01   1.463480e-02
  4.154553e+00    5.063015e-01   1.505392e-02
  4.156763e+00    5.188549e-01   1.531492e-02
  4.158974e+00    5.282252e-01   1.553024e-02
  4.161184e+00    5.121724e-01   1.536835e-02
  4.163395e+00    4.993978e-01   1.525280e-02
  4.165605e+00    5.175532e-01   1.560851e-02
  4.167815e+00    5.178676e-01   1.569473e-02
  4.170026e+00    4.883071e-01   1.532037e-02
  4.172236e+00    4.588535e-01   1.493154e-02
  4.174447e+00    4.534290e-01   1.492358e-02
  4.176657e+00    5.071726e-01   1.586971e-02
  4.178868e+00    4.757042e-01   1.545636e-02
  4.181078e+00    4.982916e-01   1.590849e-02
  4.183289e+00    4.640793e-01   1.544013e-02
  4.185499e+00    4.813885e-01   1.581837e-02
  4.187710e+00    4.802260e-01   1.589174e-02
  4.189920e+00    5.164066e-01   1.657885e-02
  4.192130e+00    5.030490e-01   1.646299e-02
  4.194341e+00    4.996485e-01   1.650790e-02
  4.196551e+00    5.281988e-01   1.708045e-02
  4.198762e+00    4.965832e-01   1.666664e-02
  4.200972e+00    4.645645e-01   1.622459e-02
  4.203183e+00    4.556202e-01   1.617361e-02
  4.205393e+00    4.388032e-01   1.597766e-02
  4.207604e+00    4.851011e-01   1.691435e-02
  4.209814e+00    4.936904e-01   1.718048e-02
  4.212025e+00    4.432771e-01   1.639503e-02
  4.214235e+00    4.365437e-01   1.638543e-02
  4.216445e+00    4.835783e-01   1.737010e-02
  4.218656e+00    4.530473e-01   1.693868e-02
  4.220866e+00    5.575104e-01   1.892972e-02
  4.223077e+00    4.951585e-01   1.797733e-02
  4.225287e+00    4.822838e-01   1.788118e-02
  4.227498e+00    5.393790e-01   1.905835e-02
  4.229708e+00    4.484322e-01   1.751918e-02
  4.231919e+00    4.747305e-01   1.817403e-02
  4.234129e+00    4.823523e-01   1.847330e-02
  4.236340e+00    4.657280e-01   1.830764e-02
  4.238550e+00    4.808803e-01   1.876705e-02
  4.240761e+00    5.521750e-01   2.028787e-02
  4.242971e+00    5.110610e-01   1.969704e-02
  4.245181e+00    5.284948e-01   2.021793e-02
  4.247392e+00    5.208412e-01   2.025878e-02
  4.249602e+00    5.576127e-01   2.116993e-02
  4.251813e+00    5.353673e-01   2.094799e-02
  4.254023e+00    4.483139e-01   1.936216e-02
  4.256234e+00    5.476318e-01   2.162868e-02
  4.258444e+00    4.860340e-01   2.058893e-02
  4.260655e+00    4.922890e-01   2.094915e-02
  4.262865e+00    5.100417e-01   2.156519e-02
  4.265076e+00    4.596195e-01   2.070433e-02
  4.267286e+00    5.178745e-01   2.223785e-02
  4.269496e+00    4.702018e-01   2.144862e-02
  4.271707e+00    4.902755e-01   2.217112e-02
  4.273917e+00    5.987906e-01   2.482018e-02
  4.276128e+00    4.801615e-01   2.252113e-02
  4.278338e+00    4.847939e-01   2.293132e-02
  4.280549e+00    4.260755e-01   2.180655e-02
  4.282759e+00    4.643140e-01   2.309074e-02
  4.284970e+00    4.069301e-01   2.193693e-02
  4.287180e+00    4.328181e-01   2.289490e-02
  4.289391e+00    4.884873e-01   2.450553e-02
  4.291601e+00    4.219973e-01   2.295856e-02
  4.293811e+00    4.975463e-01   2.512388e-02
  4.296022e+00    5.395809e-01   2.637397e-02
  4.298232e+00    4.673449e-01   2.475131e-02
  4.300443e+00    4.478313e-01   2.442829e-02
  4.302653e+00    4.342261e-01   2.426290e-02
  4.304864e+00    5.324604e-01   2.709981e-02
  4.307074e+00    4.897207e-01   2.622397e-02
  4.309285e+00    4.033033e-01   2.401339e-02
  4.311495e+00    4.258333e-01   2.490639e-02
  4.313706e+00    4.547884e-01   2.598053e-02
  4.315916e+00    4.618237e-01   2.643872e-02
  4.318126e+00    4.252545e-01   2.562100e-02
  4.320337e+00    5.635315e-01   2.979224e-02
  4.322547e+00    4.279467e-01   2.623756e-02
  4.324758e+00    4.872848e-01   2.828912e-02
  4.326968e+00    4.365852e-01   2.707760e-02
  4.329179e+00    5.315579e-01   3.020784e-02
  4.331389e+00    5.229766e-01   3.030819e-02
  4.333600e+00    4.955174e-01   2.985442e-02
  4.335810e+00    4.241335e-01   2.794926e-02
  4.338021e+00    4.304446e-01   2.851622e-02
  4.340231e+00    4.315359e-01   2.891136e-02
  4.342442e+00    3.786808e-01   2.744553e-02
  4.344652e+00    3.988782e-01   2.855125e-02
  4.346862e+00    3.722887e-01   2.796819e-02
  4.349073e+00    5.083233e-01   3.315815e-02
  4.351283e+00    3.959790e-01   2.970163e-02
  4.353494e+00    5.386799e-01   3.517872e-02
  4.355704e+00    4.867144e-01   3.397749e-02
  4.357915e+00    4.453346e-01   3.304140e-02
  4.360125e+00    5.442237e-01   3.714975e-02
  4.362336e+00    4.550517e-01   3.458993e-02
  4.364546e+00    3.460020e-01   3.071017e-02
  4.366757e+00    3.549647e-01   3.172507e-02
  4.368967e+00    3.807886e-01   3.351207e-02
  4.371177e+00    4.709011e-01   3.806104e-02
  4.373388e+00    6.165845e-01   4.452582e-02
  4.375598e+00    3.765315e-01   3.559063e-02
  4.377809e+00    4.546784e-01   4.009726e-02
  4.380019e+00    3.546834e-01   3.630584e-02
  4.382230e+00    3.266290e-01   3.581328e-02
  4.384440e+00    2.713510e-01   3.357991e-02
  4.386651e+00    5.425909e-01   4.894955e-02
  4.388861e+00    4.158666e-01   4.429324e-02
  4.391072e+00    6.308426e-01   5.646715e-02
  4.393282e+00    7.104261e-01   6.224113e-02
  4.395492e+00    4.807418e-01   5.333267e-02
  4.397703e+00    2.096623e-01   3.682723e-02
  4.399913e+00    3.590515e-01   5.063596e-02
  4.402124e+00    3.259875e-01   5.097942e-02
  4.404334e+00    3.361767e-01   5.503227e-02
  4.406545e+00    7.054829e-02   2.710149e-02
  4.408755e+00    1.683328e-01   4.536645e-02
  4.410966e+00    4.730007e-01   8.418797e-02
  4.413176e+00    2.001708e-01   6.199377e-02
  4.415387e+00   -7.249573e-01            nan
  4.417597e+00   -1.995053e+00            nan
  4.419807e+00    7.946631e-01   3.202241e-01
