# == pyFAI calibration ==
# Distance Sample to Detector: 0.216 m
# PONI: 1.166e-01, 1.308e-01 m
# Rotations: 0.000000 0.000000 0.000000 rad
# 
# == Fit2d calibration ==
# Distance Sample-beamCenter: 216.000 mm
# Center: x=1744.293, y=1555.000 pix
# Tilt: 0.000 deg  TiltPlanRot: 0.000 deg
# 
# Detector Eiger 9M	 PixelSize= 7.500e-05, 7.500e-05 m
#    Detector has a mask: True 
#    Detector has a dark current: False 
#    detector has a flat field: False 
# 
# Wavelength: 9.8e-11 m
# Mask applied: from detector
# Dark current applied: False
# Flat field applied: False
# Polarization factor: None
# Normalization factor: 1.0
# 
# Headers of the input frame:
# {
# "_array_data.header_convention": "SLS_1.0",
# "_array_data.header_contents": "# Detector: Dectris Eiger 9M, S/N E-18-0102\r\n# Pixel_size 75e-6 m x 75e-6 m\r\n# Silicon sensor, thickness 0.000450 m\r\n# Exposure_time 0.024997 s\r\n# Exposure_period 0.025000 s\r\n# Count_cutoff 62318 counts\r\n# Wavelength 0.980106 A\r\n# Detector_distance 0.215992 m\r\n# Beam_xy (1555, 1744) pixels\r\n# Start_angle 0.000000 deg.\r\n# Angle_increment 0.000000 deg.",
# "Content-Type": "application/octet-stream;",
# "conversions": "x-CBF_BYTE_OFFSET",
# "Content-Transfer-Encoding": "BINARY",
# "X-Binary-Size": "10166614",
# "X-Binary-ID": "1",
# "X-Binary-Element-Type": "signed 32-bit integer",
# "X-Binary-Element-Byte-Order": "LITTLE_ENDIAN",
# "Content-MD5": "8iYG88ic9/StEaCZSvnZqw==",
# "X-Binary-Number-of-Elements": "10166590",
# "X-Binary-Size-Fastest-Dimension": "3110",
# "X-Binary-Size-Second-Dimension": "3269",
# "X-Binary-Size-Padding": "4095"
# }
# --> H:/Proxima2a_2019-04-05/RAW_DATA/C5_gel17_position5/C5_mesh_1_data.cbf/C5_mesh_1_data.cbf000132.dat
#        q_A^-1              I           sigma 
  1.105228e-03    7.182983e-01   4.586056e-01
  3.315685e-03    1.376265e+00   3.859192e-01
  5.526141e-03    1.364913e+00   2.971835e-01
  7.736597e-03    1.582990e+00   2.703705e-01
  9.947054e-03    1.396046e+00   2.238342e-01
  1.215751e-02    1.403488e+00   2.029425e-01
  1.436797e-02    1.395693e+00   1.861533e-01
  1.657842e-02    1.417358e+00   1.746161e-01
  1.878888e-02    1.396397e+00   1.628051e-01
  2.099934e-02    1.580820e+00   1.638865e-01
  2.320979e-02    1.585188e+00   1.560894e-01
  2.542025e-02    1.363832e+00   1.383534e-01
  2.763070e-02    1.452951e+00   1.369670e-01
  2.984116e-02    1.495545e+00   1.337138e-01
  3.205162e-02    1.395594e+00   1.246424e-01
  3.426207e-02    1.397861e+00   1.206443e-01
  3.647253e-02    1.386629e+00   1.164582e-01
  3.868299e-02    1.257618e+00   1.077011e-01
  4.089344e-02    1.488369e+00   1.139557e-01
  4.310390e-02    1.624209e+00   1.159431e-01
  4.531436e-02    1.415853e+00   1.055783e-01
  4.752481e-02    1.381725e+00   1.018427e-01
  4.973527e-02    1.452118e+00   1.020593e-01
  5.194572e-02    1.519274e+00   1.021459e-01
  5.415618e-02    1.535591e+00   1.005719e-01
  5.636664e-02    1.516788e+00   9.797779e-02
  5.857709e-02    1.354587e+00   9.082764e-02
  6.078755e-02    1.405833e+00   9.082893e-02
  6.299801e-02    1.438400e+00   9.024773e-02
  6.520846e-02    1.462348e+00   8.944090e-02
  6.741892e-02    1.516150e+00   8.956140e-02
  6.962938e-02    1.509301e+00   8.793350e-02
  7.183983e-02    1.458212e+00   8.509076e-02
  7.405029e-02    1.438060e+00   8.322806e-02
  7.626074e-02    1.496226e+00   8.365442e-02
  7.847120e-02    1.588518e+00   8.497088e-02
  8.068166e-02    1.418872e+00   7.919721e-02
  8.289211e-02    1.444708e+00   7.884184e-02
  8.510257e-02    1.466708e+00   7.840092e-02
  8.731303e-02    1.527617e+00   7.898995e-02
  8.952348e-02    1.587250e+00   7.951889e-02
  9.173394e-02    1.404652e+00   7.389554e-02
  9.394439e-02    1.498369e+00   7.541516e-02
  9.615485e-02    1.448950e+00   7.330211e-02
  9.836531e-02    1.487241e+00   7.342315e-02
  1.005758e-01    1.587267e+00   7.501437e-02
  1.027862e-01    1.573963e+00   7.388990e-02
  1.049967e-01    1.549393e+00   7.253385e-02
  1.072071e-01    1.517880e+00   7.104762e-02
  1.094176e-01    1.505471e+00   7.003718e-02
  1.116280e-01    1.506919e+00   6.937207e-02
  1.138385e-01    1.652932e+00   7.194502e-02
  1.160490e-01    1.668503e+00   7.159053e-02
  1.182594e-01    1.572009e+00   6.883556e-02
  1.204699e-01    1.517599e+00   6.700993e-02
  1.226803e-01    1.524235e+00   6.654576e-02
  1.248908e-01    1.548550e+00   6.647742e-02
  1.271012e-01    1.625541e+00   6.751375e-02
  1.293117e-01    1.623379e+00   6.688886e-02
  1.315222e-01    1.637503e+00   6.661074e-02
  1.337326e-01    1.635351e+00   6.601325e-02
  1.359431e-01    1.595595e+00   6.524409e-02
  1.381535e-01    1.495604e+00   6.401458e-02
  1.403640e-01    1.560367e+00   6.566818e-02
  1.425744e-01    1.540437e+00   6.535171e-02
  1.447849e-01    1.582403e+00   6.625114e-02
  1.469953e-01    1.646923e+00   6.754598e-02
  1.492058e-01    1.591654e+00   6.632578e-02
  1.514163e-01    1.553491e+00   6.541698e-02
  1.536267e-01    1.631863e+00   6.691587e-02
  1.558372e-01    1.634821e+00   6.682862e-02
  1.580476e-01    1.677241e+00   6.752585e-02
  1.602581e-01    1.678120e+00   6.737202e-02
  1.624685e-01    1.748182e+00   6.857575e-02
  1.646790e-01    1.765683e+00   6.872027e-02
  1.668895e-01    1.781810e+00   6.883403e-02
  1.690999e-01    1.754026e+00   6.809014e-02
  1.713104e-01    1.698056e+00   6.678708e-02
  1.735208e-01    1.745403e+00   6.750120e-02
  1.757313e-01    1.882923e+00   6.989028e-02
  1.779417e-01    1.889161e+00   6.977765e-02
  1.801522e-01    1.904325e+00   6.983399e-02
  1.823626e-01    1.964982e+00   7.070133e-02
  1.845731e-01    1.935396e+00   6.993975e-02
  1.867836e-01    1.938818e+00   6.976531e-02
  1.889940e-01    1.949468e+00   6.972806e-02
  1.912045e-01    1.921906e+00   6.900221e-02
  1.934149e-01    1.844940e+00   6.738017e-02
  1.956254e-01    1.905307e+00   6.824777e-02
  1.978358e-01    2.004786e+00   6.976688e-02
  2.000463e-01    1.983389e+00   6.916361e-02
  2.022568e-01    2.037538e+00   6.987130e-02
  2.044672e-01    1.979536e+00   6.863370e-02
  2.066777e-01    1.974013e+00   6.831039e-02
  2.088881e-01    1.951087e+00   6.769037e-02
  2.110986e-01    2.053745e+00   6.921016e-02
  2.133090e-01    2.091474e+00   6.961595e-02
  2.155195e-01    2.076134e+00   6.913012e-02
  2.177300e-01    1.963277e+00   6.669679e-02
  2.199404e-01    1.975190e+00   6.513610e-02
  2.221509e-01    1.897569e+00   6.279504e-02
  2.243613e-01    1.973416e+00   6.322591e-02
  2.265718e-01    1.984025e+00   6.269688e-02
  2.287822e-01    2.049853e+00   6.309772e-02
  2.309927e-01    2.041063e+00   6.238874e-02
  2.332031e-01    2.066537e+00   6.223955e-02
  2.354136e-01    2.085388e+00   6.201604e-02
  2.376241e-01    2.177779e+00   6.288302e-02
  2.398345e-01    2.173304e+00   6.235349e-02
  2.420450e-01    2.118616e+00   6.112396e-02
  2.442554e-01    2.103262e+00   6.048255e-02
  2.464659e-01    2.091769e+00   5.991209e-02
  2.486763e-01    2.113467e+00   5.982618e-02
  2.508868e-01    2.117303e+00   5.950269e-02
  2.530973e-01    2.132607e+00   5.934713e-02
  2.553077e-01    2.085443e+00   5.833122e-02
  2.575182e-01    2.108954e+00   5.831205e-02
  2.597286e-01    2.106777e+00   5.794315e-02
  2.619391e-01    2.022781e+00   5.644945e-02
  2.641495e-01    2.006409e+00   5.590937e-02
  2.663600e-01    2.064904e+00   5.640661e-02
  2.685704e-01    2.093215e+00   5.648412e-02
  2.707809e-01    2.081496e+00   5.602682e-02
  2.729914e-01    2.021673e+00   5.492807e-02
  2.752018e-01    2.089550e+00   5.555189e-02
  2.774123e-01    2.066263e+00   5.495932e-02
  2.796227e-01    2.035765e+00   5.428236e-02
  2.818332e-01    1.998048e+00   5.350889e-02
  2.840436e-01    2.002226e+00   5.330516e-02
  2.862541e-01    1.957258e+00   5.244982e-02
  2.884646e-01    1.965375e+00   5.230902e-02
  2.906750e-01    2.060336e+00   5.330389e-02
  2.928855e-01    1.986126e+00   5.209263e-02
  2.950959e-01    1.926416e+00   5.106795e-02
  2.973064e-01    1.941519e+00   5.103731e-02
  2.995168e-01    1.942518e+00   5.081923e-02
  3.017273e-01    1.971875e+00   5.097606e-02
  3.039377e-01    1.958180e+00   5.057630e-02
  3.061482e-01    1.926713e+00   4.995127e-02
  3.083587e-01    1.934260e+00   4.983239e-02
  3.105691e-01    1.876714e+00   4.887582e-02
  3.127796e-01    1.913071e+00   4.913952e-02
  3.149900e-01    1.968018e+00   4.963255e-02
  3.172005e-01    1.995170e+00   4.976942e-02
  3.194109e-01    1.917662e+00   4.859171e-02
  3.216214e-01    1.903020e+00   4.820832e-02
  3.238319e-01    1.987106e+00   4.906669e-02
  3.260423e-01    1.946949e+00   4.837492e-02
  3.282528e-01    1.861756e+00   4.711640e-02
  3.304632e-01    1.884212e+00   4.721606e-02
  3.326737e-01    1.899213e+00   4.721868e-02
  3.348841e-01    1.896508e+00   4.700208e-02
  3.370946e-01    1.871780e+00   4.651896e-02
  3.393050e-01    1.879289e+00   4.643561e-02
  3.415155e-01    1.818110e+00   4.550181e-02
  3.437260e-01    1.800190e+00   4.510917e-02
  3.459364e-01    1.908583e+00   4.627556e-02
  3.481469e-01    1.882764e+00   4.579374e-02
  3.503573e-01    1.871246e+00   4.548711e-02
  3.525678e-01    1.876554e+00   4.538928e-02
  3.547782e-01    1.814191e+00   4.446738e-02
  3.569887e-01    1.852615e+00   4.477660e-02
  3.591992e-01    1.768750e+00   4.359659e-02
  3.614096e-01    1.788688e+00   4.368960e-02
  3.636201e-01    1.764571e+00   4.324157e-02
  3.658305e-01    1.783038e+00   4.331897e-02
  3.680410e-01    1.849975e+00   4.397284e-02
  3.702514e-01    1.835474e+00   4.365287e-02
  3.724619e-01    1.837566e+00   4.352899e-02
  3.746724e-01    1.843798e+00   4.345727e-02
  3.768828e-01    1.786131e+00   4.262837e-02
  3.790933e-01    1.770899e+00   4.230786e-02
  3.813037e-01    1.818335e+00   4.273052e-02
  3.835142e-01    1.814252e+00   4.254233e-02
  3.857246e-01    1.842201e+00   4.273002e-02
  3.879351e-01    1.802875e+00   4.213468e-02
  3.901455e-01    1.823707e+00   4.224247e-02
  3.923560e-01    1.815136e+00   4.200915e-02
  3.945665e-01    1.835445e+00   4.210956e-02
  3.967769e-01    1.796041e+00   4.152465e-02
  3.989874e-01    1.799196e+00   4.143132e-02
  4.011978e-01    1.832017e+00   4.167892e-02
  4.034083e-01    1.826094e+00   4.148378e-02
  4.056187e-01    1.810073e+00   4.117414e-02
  4.078292e-01    1.883834e+00   4.187760e-02
  4.100397e-01    1.872635e+00   4.162546e-02
  4.122501e-01    1.825853e+00   4.097926e-02
  4.144606e-01    1.847823e+00   4.110281e-02
  4.166710e-01    1.769003e+00   4.009705e-02
  4.188815e-01    1.781033e+00   4.011430e-02
  4.210919e-01    1.799246e+00   4.020072e-02
  4.233024e-01    1.835742e+00   4.048697e-02
  4.255128e-01    1.813311e+00   4.012254e-02
  4.277233e-01    1.803664e+00   3.990068e-02
  4.299338e-01    1.820340e+00   3.996939e-02
  4.321442e-01    1.809703e+00   3.973838e-02
  4.343547e-01    1.819929e+00   3.973782e-02
  4.365651e-01    1.809502e+00   3.951125e-02
  4.387756e-01    1.764102e+00   3.890320e-02
  4.409860e-01    1.763574e+00   3.878961e-02
  4.431965e-01    1.735856e+00   3.837717e-02
  4.454070e-01    1.727268e+00   3.817559e-02
  4.476174e-01    1.752289e+00   3.834554e-02
  4.498279e-01    1.747656e+00   3.819062e-02
  4.520383e-01    1.760614e+00   3.822674e-02
  4.542488e-01    1.763496e+00   3.815486e-02
  4.564592e-01    1.769500e+00   3.811722e-02
  4.586697e-01    1.727192e+00   3.755883e-02
  4.608801e-01    1.756713e+00   3.777698e-02
  4.630906e-01    1.677890e+00   3.682199e-02
  4.653011e-01    1.710555e+00   3.708089e-02
  4.675115e-01    1.748111e+00   3.738704e-02
  4.697220e-01    1.768490e+00   3.750589e-02
  4.719324e-01    1.736512e+00   3.706909e-02
  4.741429e-01    1.702281e+00   3.660738e-02
  4.763533e-01    1.692168e+00   3.640487e-02
  4.785638e-01    1.725168e+00   3.666318e-02
  4.807743e-01    1.704768e+00   3.635309e-02
  4.829847e-01    1.721826e+00   3.644221e-02
  4.851952e-01    1.762298e+00   3.677474e-02
  4.874056e-01    1.717172e+00   3.620932e-02
  4.896161e-01    1.694085e+00   3.587588e-02
  4.918265e-01    1.714304e+00   3.599972e-02
  4.940370e-01    1.707714e+00   3.584174e-02
  4.962475e-01    1.705789e+00   3.573307e-02
  4.984579e-01    1.760117e+00   3.620819e-02
  5.006684e-01    1.723341e+00   3.574058e-02
  5.028788e-01    1.666871e+00   3.506498e-02
  5.050893e-01    1.641113e+00   3.470834e-02
  5.072997e-01    1.683736e+00   3.507126e-02
  5.095102e-01    1.751213e+00   3.568146e-02
  5.117206e-01    1.737114e+00   3.545305e-02
  5.139311e-01    1.719685e+00   3.519124e-02
  5.161416e-01    1.728608e+00   3.519906e-02
  5.183520e-01    1.745816e+00   3.528975e-02
  5.205625e-01    1.725598e+00   3.500264e-02
  5.227729e-01    1.706723e+00   3.472948e-02
  5.249834e-01    1.721394e+00   3.479745e-02
  5.271938e-01    1.751939e+00   3.502292e-02
  5.294043e-01    1.767928e+00   3.510118e-02
  5.316148e-01    1.768507e+00   3.502652e-02
  5.338252e-01    1.805910e+00   3.531407e-02
  5.360357e-01    1.801051e+00   3.518628e-02
  5.382461e-01    1.764501e+00   3.474867e-02
  5.404566e-01    1.819844e+00   3.520909e-02
  5.426670e-01    1.814296e+00   3.507619e-02
  5.448775e-01    1.796378e+00   3.482457e-02
  5.470879e-01    1.766667e+00   3.445836e-02
  5.492984e-01    1.805706e+00   3.475953e-02
  5.515089e-01    1.803406e+00   3.466036e-02
  5.537193e-01    1.742294e+00   3.399297e-02
  5.559298e-01    1.788340e+00   3.436368e-02
  5.581402e-01    1.814840e+00   3.454169e-02
  5.603507e-01    1.844362e+00   3.474575e-02
  5.625611e-01    1.845435e+00   3.468042e-02
  5.647716e-01    1.785664e+00   3.404013e-02
  5.669821e-01    1.748605e+00   3.361240e-02
  5.691925e-01    1.764320e+00   3.369065e-02
  5.714030e-01    1.726520e+00   3.325672e-02
  5.736134e-01    1.725940e+00   3.318040e-02
  5.758239e-01    1.743325e+00   3.327592e-02
  5.780343e-01    1.709947e+00   3.288613e-02
  5.802448e-01    1.705208e+00   3.277176e-02
  5.824552e-01    1.732339e+00   3.296215e-02
  5.846657e-01    1.661048e+00   3.220950e-02
  5.868762e-01    1.659091e+00   3.212350e-02
  5.890866e-01    1.633538e+00   3.180902e-02
  5.912971e-01    1.672993e+00   3.212421e-02
  5.935075e-01    1.689135e+00   3.221212e-02
  5.957180e-01    1.674019e+00   3.200187e-02
  5.979284e-01    1.683200e+00   3.202400e-02
  6.001389e-01    1.650642e+00   3.164820e-02
  6.023494e-01    1.673382e+00   3.180073e-02
  6.045598e-01    1.657014e+00   3.158041e-02
  6.067703e-01    1.641331e+00   3.136740e-02
  6.089807e-01    1.664124e+00   3.152094e-02
  6.111912e-01    1.662609e+00   3.144368e-02
  6.134016e-01    1.704442e+00   3.177330e-02
  6.156121e-01    1.691850e+00   3.159280e-02
  6.178226e-01    1.666958e+00   3.129744e-02
  6.200330e-01    1.692658e+00   3.147555e-02
  6.222435e-01    1.741428e+00   3.186254e-02
  6.244539e-01    1.729256e+00   3.168884e-02
  6.266644e-01    1.707707e+00   3.142934e-02
  6.288748e-01    1.750546e+00   3.175917e-02
  6.310853e-01    1.734604e+00   3.155285e-02
  6.332957e-01    1.728601e+00   3.143739e-02
  6.355062e-01    1.705289e+00   3.116403e-02
  6.377167e-01    1.756704e+00   3.156964e-02
  6.399271e-01    1.774885e+00   3.167180e-02
  6.421376e-01    1.754473e+00   3.142904e-02
  6.443480e-01    1.754620e+00   3.137057e-02
  6.465585e-01    1.700055e+00   3.082044e-02
  6.487689e-01    1.706998e+00   3.082499e-02
  6.509794e-01    1.685831e+00   3.057550e-02
  6.531899e-01    1.651315e+00   3.020398e-02
  6.554003e-01    1.657270e+00   3.020150e-02
  6.576108e-01    1.619611e+00   2.980080e-02
  6.598212e-01    1.647473e+00   3.000018e-02
  6.620317e-01    1.640020e+00   2.987676e-02
  6.642421e-01    1.661970e+00   3.002039e-02
  6.664526e-01    1.604550e+00   2.944291e-02
  6.686630e-01    1.605967e+00   2.940144e-02
  6.708735e-01    1.624631e+00   2.951753e-02
  6.730840e-01    1.610915e+00   2.933910e-02
  6.752944e-01    1.605246e+00   2.923416e-02
  6.775049e-01    1.608359e+00   2.920935e-02
  6.797153e-01    1.622048e+00   2.928028e-02
  6.819258e-01    1.636621e+00   2.935849e-02
  6.841362e-01    1.614908e+00   2.911063e-02
  6.863467e-01    1.633943e+00   2.922925e-02
  6.885572e-01    1.606234e+00   2.892842e-02
  6.907676e-01    1.631642e+00   2.910407e-02
  6.929781e-01    1.597213e+00   2.874421e-02
  6.951885e-01    1.644444e+00   2.911443e-02
  6.973990e-01    1.608297e+00   2.874178e-02
  6.996094e-01    1.623682e+00   2.882810e-02
  7.018199e-01    1.624396e+00   2.878384e-02
  7.040303e-01    1.613120e+00   2.863337e-02
  7.062408e-01    1.614170e+00   2.859252e-02
  7.084513e-01    1.619432e+00   2.858926e-02
  7.106617e-01    1.598820e+00   2.835739e-02
  7.128722e-01    1.602569e+00   2.834150e-02
  7.150826e-01    1.606942e+00   2.833122e-02
  7.172931e-01    1.608002e+00   2.829171e-02
  7.195035e-01    1.614265e+00   2.829801e-02
  7.217140e-01    1.560781e+00   2.787454e-02
  7.239245e-01    1.572786e+00   2.820809e-02
  7.261349e-01    1.607063e+00   2.862358e-02
  7.283454e-01    1.567059e+00   2.833728e-02
  7.305558e-01    1.602950e+00   2.871443e-02
  7.327663e-01    1.574847e+00   2.850412e-02
  7.349767e-01    1.595554e+00   2.870738e-02
  7.371872e-01    1.581004e+00   2.856498e-02
  7.393976e-01    1.586795e+00   2.860293e-02
  7.416081e-01    1.560356e+00   2.834754e-02
  7.438186e-01    1.608645e+00   2.863697e-02
  7.460290e-01    1.560462e+00   2.791194e-02
  7.482395e-01    1.573529e+00   2.785743e-02
  7.504499e-01    1.571935e+00   2.770718e-02
  7.526604e-01    1.524254e+00   2.716904e-02
  7.548708e-01    1.584834e+00   2.761398e-02
  7.570813e-01    1.544618e+00   2.721089e-02
  7.592918e-01    1.581157e+00   2.749560e-02
  7.615022e-01    1.554439e+00   2.722873e-02
  7.637127e-01    1.558553e+00   2.723211e-02
  7.659231e-01    1.568819e+00   2.728972e-02
  7.681336e-01    1.555309e+00   2.714054e-02
  7.703440e-01    1.581596e+00   2.733767e-02
  7.725545e-01    1.568283e+00   2.719153e-02
  7.747650e-01    1.596687e+00   2.739821e-02
  7.769754e-01    1.578582e+00   2.718968e-02
  7.791859e-01    1.593157e+00   2.726113e-02
  7.813963e-01    1.573717e+00   2.704179e-02
  7.836068e-01    1.566368e+00   2.692686e-02
  7.858172e-01    1.610866e+00   2.725560e-02
  7.880277e-01    1.617091e+00   2.725628e-02
  7.902381e-01    1.626080e+00   2.728227e-02
  7.924486e-01    1.615051e+00   2.713923e-02
  7.946591e-01    1.618566e+00   2.712017e-02
  7.968695e-01    1.650759e+00   2.733956e-02
  7.990800e-01    1.613465e+00   2.698065e-02
  8.012904e-01    1.656563e+00   2.729133e-02
  8.035009e-01    1.622150e+00   2.695833e-02
  8.057113e-01    1.624169e+00   2.692844e-02
  8.079218e-01    1.617384e+00   2.682576e-02
  8.101323e-01    1.649140e+00   2.704183e-02
  8.123427e-01    1.648572e+00   2.699111e-02
  8.145532e-01    1.669980e+00   2.711929e-02
  8.167636e-01    1.687784e+00   2.721763e-02
  8.189741e-01    1.644879e+00   2.682467e-02
  8.211845e-01    1.653792e+00   2.685216e-02
  8.233950e-01    1.677675e+00   2.700137e-02
  8.256054e-01    1.686559e+00   2.702790e-02
  8.278159e-01    1.649016e+00   2.668130e-02
  8.300264e-01    1.643447e+00   2.659302e-02
  8.322368e-01    1.651768e+00   2.661697e-02
  8.344473e-01    1.653251e+00   2.658535e-02
  8.366577e-01    1.647601e+00   2.649720e-02
  8.388682e-01    1.604659e+00   2.610781e-02
  8.410786e-01    1.657955e+00   2.649552e-02
  8.432891e-01    1.664241e+00   2.650355e-02
  8.454996e-01    1.639670e+00   2.626555e-02
  8.477100e-01    1.634016e+00   2.617859e-02
  8.499205e-01    1.659075e+00   2.633715e-02
  8.521309e-01    1.623361e+00   2.601151e-02
  8.543414e-01    1.668166e+00   2.632687e-02
  8.565518e-01    1.676542e+00   2.635182e-02
  8.587623e-01    1.649835e+00   2.610037e-02
  8.609727e-01    1.654752e+00   2.609872e-02
  8.631832e-01    1.625565e+00   2.582763e-02
  8.653937e-01    1.622878e+00   2.576662e-02
  8.676041e-01    1.621422e+00   2.571620e-02
  8.698146e-01    1.606379e+00   2.555750e-02
  8.720250e-01    1.614807e+00   2.558539e-02
  8.742355e-01    1.630593e+00   2.567103e-02
  8.764459e-01    1.596173e+00   2.535990e-02
  8.786564e-01    1.578128e+00   2.517853e-02
  8.808669e-01    1.636350e+00   2.559991e-02
  8.830773e-01    1.613435e+00   2.538178e-02
  8.852878e-01    1.606806e+00   2.529160e-02
  8.874982e-01    1.625984e+00   2.540515e-02
  8.897087e-01    1.647222e+00   2.553233e-02
  8.919191e-01    1.618200e+00   2.526843e-02
  8.941296e-01    1.638316e+00   2.538728e-02
  8.963401e-01    1.620021e+00   2.520849e-02
  8.985505e-01    1.592115e+00   2.495356e-02
  9.007610e-01    1.577270e+00   2.480045e-02
  9.029714e-01    1.647400e+00   2.530944e-02
  9.051819e-01    1.636558e+00   2.518840e-02
  9.073923e-01    1.627065e+00   2.507834e-02
  9.096028e-01    1.636635e+00   2.511667e-02
  9.118132e-01    1.637329e+00   2.508536e-02
  9.140237e-01    1.604521e+00   2.479610e-02
  9.162342e-01    1.579165e+00   2.456504e-02
  9.184446e-01    1.589467e+00   2.460941e-02
  9.206551e-01    1.579371e+00   2.449577e-02
  9.228655e-01    1.599374e+00   2.461516e-02
  9.250760e-01    1.647227e+00   2.494483e-02
  9.272864e-01    1.642987e+00   2.487803e-02
  9.294969e-01    1.623181e+00   2.469159e-02
  9.317074e-01    1.602403e+00   2.449838e-02
  9.339178e-01    1.603389e+00   2.447242e-02
  9.361283e-01    1.626502e+00   2.461187e-02
  9.383387e-01    1.609748e+00   2.445146e-02
  9.405492e-01    1.615079e+00   2.445772e-02
  9.427596e-01    1.627764e+00   2.451823e-02
  9.449701e-01    1.651459e+00   2.466248e-02
  9.471805e-01    1.657444e+00   2.467213e-02
  9.493910e-01    1.693947e+00   2.490810e-02
  9.516015e-01    1.713301e+00   2.501503e-02
  9.538119e-01    1.731381e+00   2.511220e-02
  9.560224e-01    1.738110e+00   2.512556e-02
  9.582328e-01    1.745375e+00   2.514421e-02
  9.604433e-01    1.788315e+00   2.541561e-02
  9.626537e-01    1.798110e+00   2.545084e-02
  9.648642e-01    1.803398e+00   2.545333e-02
  9.670747e-01    1.802703e+00   2.541333e-02
  9.692851e-01    1.855125e+00   2.574590e-02
  9.714956e-01    1.921556e+00   2.616589e-02
  9.737060e-01    1.940131e+00   2.625753e-02
  9.759165e-01    1.931904e+00   2.616484e-02
  9.781269e-01    1.976650e+00   2.643149e-02
  9.803374e-01    1.955676e+00   2.625455e-02
  9.825478e-01    1.894594e+00   2.580720e-02
  9.847583e-01    1.839524e+00   2.539482e-02
  9.869688e-01    1.804976e+00   2.512156e-02
  9.891792e-01    1.767240e+00   2.482453e-02
  9.913897e-01    1.739028e+00   2.459234e-02
  9.936001e-01    1.749311e+00   2.463265e-02
  9.958106e-01    1.718883e+00   2.438430e-02
  9.980210e-01    1.708178e+00   2.427670e-02
  1.000231e+00    1.679076e+00   2.420088e-02
  1.002442e+00    1.650583e+00   2.412213e-02
  1.004652e+00    1.681516e+00   2.441504e-02
  1.006863e+00    1.626743e+00   2.406395e-02
  1.009073e+00    1.609874e+00   2.397547e-02
  1.011284e+00    1.617681e+00   2.406568e-02
  1.013494e+00    1.592647e+00   2.390243e-02
  1.015705e+00    1.592695e+00   2.392537e-02
  1.017915e+00    1.590601e+00   2.392611e-02
  1.020126e+00    1.629280e+00   2.423162e-02
  1.022336e+00    1.702396e+00   2.478157e-02
  1.024547e+00    1.780443e+00   2.535531e-02
  1.026757e+00    1.720496e+00   2.493363e-02
  1.028967e+00    1.732427e+00   2.502806e-02
  1.031178e+00    1.707103e+00   2.485098e-02
  1.033388e+00    1.596711e+00   2.403923e-02
  1.035599e+00    1.559169e+00   2.375834e-02
  1.037809e+00    1.624625e+00   2.425528e-02
  1.040020e+00    1.665891e+00   2.456273e-02
  1.042230e+00    1.782594e+00   2.541060e-02
  1.044441e+00    2.010687e+00   2.698713e-02
  1.046651e+00    2.290399e+00   2.880339e-02
  1.048862e+00    2.294477e+00   2.882812e-02
  1.051072e+00    1.953342e+00   2.659629e-02
  1.053282e+00    1.630543e+00   2.429849e-02
  1.055493e+00    1.554600e+00   2.372145e-02
  1.057703e+00    1.576346e+00   2.388521e-02
  1.059914e+00    1.615162e+00   2.417306e-02
  1.062124e+00    1.638194e+00   2.434058e-02
  1.064335e+00    1.606133e+00   2.409763e-02
  1.066545e+00    1.612814e+00   2.414143e-02
  1.068756e+00    1.625369e+00   2.423132e-02
  1.070966e+00    1.549577e+00   2.365294e-02
  1.073177e+00    1.485617e+00   2.315355e-02
  1.075387e+00    1.444968e+00   2.282941e-02
  1.077597e+00    1.444560e+00   2.281898e-02
  1.079808e+00    1.447361e+00   2.270912e-02
  1.082018e+00    1.417249e+00   2.228555e-02
  1.084229e+00    1.449809e+00   2.243044e-02
  1.086439e+00    1.456115e+00   2.239172e-02
  1.088650e+00    1.451679e+00   2.228198e-02
  1.090860e+00    1.441339e+00   2.213516e-02
  1.093071e+00    1.437338e+00   2.204251e-02
  1.095281e+00    1.469724e+00   2.223174e-02
  1.097492e+00    1.425676e+00   2.184154e-02
  1.099702e+00    1.421508e+00   2.175852e-02
  1.101912e+00    1.424125e+00   2.172996e-02
  1.104123e+00    1.441726e+00   2.181550e-02
  1.106333e+00    1.416752e+00   2.158157e-02
  1.108544e+00    1.418801e+00   2.155307e-02
  1.110754e+00    1.409899e+00   2.144260e-02
  1.112965e+00    1.419836e+00   2.147750e-02
  1.115175e+00    1.419883e+00   2.143670e-02
  1.117386e+00    1.402124e+00   2.126312e-02
  1.119596e+00    1.394337e+00   2.116637e-02
  1.121807e+00    1.382829e+00   2.104040e-02
  1.124017e+00    1.398400e+00   2.112199e-02
  1.126228e+00    1.381362e+00   2.095746e-02
  1.128438e+00    1.384914e+00   2.094785e-02
  1.130648e+00    1.366071e+00   2.077093e-02
  1.132859e+00    1.379338e+00   2.083740e-02
  1.135069e+00    1.398187e+00   2.094448e-02
  1.137280e+00    1.410857e+00   2.100593e-02
  1.139490e+00    1.413285e+00   2.099064e-02
  1.141701e+00    1.370060e+00   2.063420e-02
  1.143911e+00    1.376576e+00   2.065142e-02
  1.146122e+00    1.401520e+00   2.080544e-02
  1.148332e+00    1.381330e+00   2.062313e-02
  1.150543e+00    1.393703e+00   2.068428e-02
  1.152753e+00    1.400505e+00   2.070357e-02
  1.154963e+00    1.390753e+00   2.060014e-02
  1.157174e+00    1.354522e+00   2.030008e-02
  1.159384e+00    1.357334e+00   2.029145e-02
  1.161595e+00    1.387037e+00   2.048223e-02
  1.163805e+00    1.390954e+00   2.048166e-02
  1.166016e+00    1.339928e+00   2.007334e-02
  1.168226e+00    1.398817e+00   2.048038e-02
  1.170437e+00    1.405146e+00   2.049765e-02
  1.172647e+00    1.358606e+00   2.012653e-02
  1.174858e+00    1.358933e+00   2.010088e-02
  1.177068e+00    1.360380e+00   2.008336e-02
  1.179278e+00    1.390792e+00   2.027773e-02
  1.181489e+00    1.347445e+00   1.993236e-02
  1.183699e+00    1.332150e+00   1.979158e-02
  1.185910e+00    1.343234e+00   1.984613e-02
  1.188120e+00    1.335770e+00   1.976445e-02
  1.190331e+00    1.340368e+00   1.977181e-02
  1.192541e+00    1.351544e+00   1.982671e-02
  1.194752e+00    1.379285e+00   2.000183e-02
  1.196962e+00    1.377405e+00   1.996225e-02
  1.199173e+00    1.349120e+00   1.972971e-02
  1.201383e+00    1.366779e+00   1.983108e-02
  1.203593e+00    1.353594e+00   1.971036e-02
  1.205804e+00    1.335153e+00   1.954985e-02
  1.208014e+00    1.343671e+00   1.958532e-02
  1.210225e+00    1.329721e+00   1.945826e-02
  1.212435e+00    1.346462e+00   1.955559e-02
  1.214646e+00    1.349571e+00   1.955208e-02
  1.216856e+00    1.341863e+00   1.947075e-02
  1.219067e+00    1.331324e+00   1.936986e-02
  1.221277e+00    1.292278e+00   1.905918e-02
  1.223488e+00    1.360438e+00   1.952950e-02
  1.225698e+00    1.371658e+00   1.958278e-02
  1.227909e+00    1.344914e+00   1.936082e-02
  1.230119e+00    1.340730e+00   1.929892e-02
  1.232329e+00    1.341543e+00   1.927416e-02
  1.234540e+00    1.366602e+00   1.942286e-02
  1.236750e+00    1.328073e+00   1.911709e-02
  1.238961e+00    1.349963e+00   1.924703e-02
  1.241171e+00    1.341629e+00   1.916341e-02
  1.243382e+00    1.355500e+00   1.923867e-02
  1.245592e+00    1.322882e+00   1.898194e-02
  1.247803e+00    1.319732e+00   1.893593e-02
  1.250013e+00    1.321620e+00   1.892618e-02
  1.252224e+00    1.327905e+00   1.894806e-02
  1.254434e+00    1.347439e+00   1.906320e-02
  1.256644e+00    1.351513e+00   1.906878e-02
  1.258855e+00    1.354505e+00   1.906656e-02
  1.261065e+00    1.352891e+00   1.903181e-02
  1.263276e+00    1.367732e+00   1.911282e-02
  1.265486e+00    1.365550e+00   1.907456e-02
  1.267697e+00    1.374223e+00   1.911182e-02
  1.269907e+00    1.346916e+00   1.889831e-02
  1.272118e+00    1.351464e+00   1.890761e-02
  1.274328e+00    1.339408e+00   1.880043e-02
  1.276539e+00    1.343785e+00   1.880839e-02
  1.278749e+00    1.351206e+00   1.883797e-02
  1.280959e+00    1.328839e+00   1.865903e-02
  1.283170e+00    1.353416e+00   1.880834e-02
  1.285380e+00    1.366005e+00   1.887302e-02
  1.287591e+00    1.347940e+00   1.872581e-02
  1.289801e+00    1.336219e+00   1.862309e-02
  1.292012e+00    1.346641e+00   1.867850e-02
  1.294222e+00    1.366057e+00   1.879635e-02
  1.296433e+00    1.340057e+00   1.860106e-02
  1.298643e+00    1.376499e+00   1.883565e-02
  1.300854e+00    1.345289e+00   1.860454e-02
  1.303064e+00    1.341957e+00   1.856228e-02
  1.305274e+00    1.337801e+00   1.851220e-02
  1.307485e+00    1.331070e+00   1.844415e-02
  1.309695e+00    1.335771e+00   1.845458e-02
  1.311906e+00    1.360013e+00   1.859950e-02
  1.314116e+00    1.375652e+00   1.868513e-02
  1.316327e+00    1.392698e+00   1.877853e-02
  1.318537e+00    1.396884e+00   1.878446e-02
  1.320748e+00    1.378690e+00   1.863996e-02
  1.322958e+00    1.384434e+00   1.865795e-02
  1.325169e+00    1.393452e+00   1.869728e-02
  1.327379e+00    1.372624e+00   1.853503e-02
  1.329589e+00    1.359720e+00   1.842656e-02
  1.331800e+00    1.346494e+00   1.831605e-02
  1.334010e+00    1.366431e+00   1.843036e-02
  1.336221e+00    1.375195e+00   1.846742e-02
  1.338431e+00    1.377684e+00   1.846305e-02
  1.340642e+00    1.371444e+00   1.848586e-02
  1.342852e+00    1.370941e+00   1.858392e-02
  1.345063e+00    1.364600e+00   1.859065e-02
  1.347273e+00    1.334095e+00   1.841671e-02
  1.349484e+00    1.340092e+00   1.848563e-02
  1.351694e+00    1.343211e+00   1.852978e-02
  1.353905e+00    1.363429e+00   1.868680e-02
  1.356115e+00    1.342124e+00   1.855524e-02
  1.358325e+00    1.321770e+00   1.842716e-02
  1.360536e+00    1.352943e+00   1.865483e-02
  1.362746e+00    1.319597e+00   1.843298e-02
  1.364957e+00    1.322174e+00   1.845854e-02
  1.367167e+00    1.334593e+00   1.855215e-02
  1.369378e+00    1.322620e+00   1.847470e-02
  1.371588e+00    1.304268e+00   1.835116e-02
  1.373799e+00    1.311222e+00   1.840363e-02
  1.376009e+00    1.345663e+00   1.864716e-02
  1.378220e+00    1.341331e+00   1.861967e-02
  1.380430e+00    1.320187e+00   1.847502e-02
  1.382640e+00    1.304875e+00   1.836848e-02
  1.384851e+00    1.301679e+00   1.834682e-02
  1.387061e+00    1.324976e+00   1.851058e-02
  1.389272e+00    1.296965e+00   1.831407e-02
  1.391482e+00    1.305315e+00   1.837226e-02
  1.393693e+00    1.305716e+00   1.837419e-02
  1.395903e+00    1.313168e+00   1.842507e-02
  1.398114e+00    1.295596e+00   1.829997e-02
  1.400324e+00    1.286809e+00   1.823568e-02
  1.402535e+00    1.288594e+00   1.824598e-02
  1.404745e+00    1.301631e+00   1.833566e-02
  1.406955e+00    1.291904e+00   1.826433e-02
  1.409166e+00    1.259449e+00   1.803015e-02
  1.411376e+00    1.259512e+00   1.802751e-02
  1.413587e+00    1.253481e+00   1.798048e-02
  1.415797e+00    1.274533e+00   1.812732e-02
  1.418008e+00    1.252802e+00   1.793053e-02
  1.420218e+00    1.249795e+00   1.776046e-02
  1.422429e+00    1.261109e+00   1.775566e-02
  1.424639e+00    1.255383e+00   1.765099e-02
  1.426850e+00    1.262766e+00   1.764827e-02
  1.429060e+00    1.273294e+00   1.767262e-02
  1.431270e+00    1.313484e+00   1.790431e-02
  1.433481e+00    1.291938e+00   1.771557e-02
  1.435691e+00    1.275785e+00   1.756593e-02
  1.437902e+00    1.300226e+00   1.769649e-02
  1.440112e+00    1.289350e+00   1.758674e-02
  1.442323e+00    1.273038e+00   1.744203e-02
  1.444533e+00    1.299166e+00   1.758718e-02
  1.446744e+00    1.300346e+00   1.756371e-02
  1.448954e+00    1.276902e+00   1.737435e-02
  1.451165e+00    1.255904e+00   1.720134e-02
  1.453375e+00    1.258088e+00   1.718834e-02
  1.455586e+00    1.306954e+00   1.749041e-02
  1.457796e+00    1.292986e+00   1.736895e-02
  1.460006e+00    1.283360e+00   1.727678e-02
  1.462217e+00    1.290092e+00   1.729560e-02
  1.464427e+00    1.277154e+00   1.718298e-02
  1.466638e+00    1.287550e+00   1.722724e-02
  1.468848e+00    1.307675e+00   1.733567e-02
  1.471059e+00    1.254475e+00   1.695444e-02
  1.473269e+00    1.262062e+00   1.698130e-02
  1.475480e+00    1.250511e+00   1.687982e-02
  1.477690e+00    1.254158e+00   1.688071e-02
  1.479901e+00    1.251130e+00   1.683664e-02
  1.482111e+00    1.267248e+00   1.692142e-02
  1.484321e+00    1.269948e+00   1.691630e-02
  1.486532e+00    1.250142e+00   1.676168e-02
  1.488742e+00    1.246732e+00   1.671632e-02
  1.490953e+00    1.242054e+00   1.666252e-02
  1.493163e+00    1.259586e+00   1.675746e-02
  1.495374e+00    1.233438e+00   1.656139e-02
  1.497584e+00    1.243470e+00   1.660708e-02
  1.499795e+00    1.271794e+00   1.677342e-02
  1.502005e+00    1.270277e+00   1.674166e-02
  1.504216e+00    1.241044e+00   1.652700e-02
  1.506426e+00    1.255859e+00   1.660454e-02
  1.508636e+00    1.248919e+00   1.653824e-02
  1.510847e+00    1.262962e+00   1.660907e-02
  1.513057e+00    1.268701e+00   1.662157e-02
  1.515268e+00    1.275045e+00   1.663714e-02
  1.517478e+00    1.253463e+00   1.647060e-02
  1.519689e+00    1.272433e+00   1.656961e-02
  1.521899e+00    1.236757e+00   1.631274e-02
  1.524110e+00    1.249088e+00   1.637354e-02
  1.526320e+00    1.255416e+00   1.639536e-02
  1.528531e+00    1.260650e+00   1.640966e-02
  1.530741e+00    1.246067e+00   1.629535e-02
  1.532951e+00    1.262010e+00   1.637958e-02
  1.535162e+00    1.242477e+00   1.633869e-02
  1.537372e+00    1.242027e+00   1.640245e-02
  1.539583e+00    1.230236e+00   1.635839e-02
  1.541793e+00    1.204642e+00   1.619415e-02
  1.544004e+00    1.206329e+00   1.620575e-02
  1.546214e+00    1.234747e+00   1.639400e-02
  1.548425e+00    1.224466e+00   1.632590e-02
  1.550635e+00    1.231792e+00   1.638426e-02
  1.552846e+00    1.230334e+00   1.638419e-02
  1.555056e+00    1.217286e+00   1.625604e-02
  1.557266e+00    1.253513e+00   1.638531e-02
  1.559477e+00    1.229695e+00   1.617014e-02
  1.561687e+00    1.255861e+00   1.631044e-02
  1.563898e+00    1.267920e+00   1.637126e-02
  1.566108e+00    1.262181e+00   1.631809e-02
  1.568319e+00    1.278085e+00   1.640474e-02
  1.570529e+00    1.267336e+00   1.631027e-02
  1.572740e+00    1.248849e+00   1.616320e-02
  1.574950e+00    1.238623e+00   1.607063e-02
  1.577161e+00    1.251616e+00   1.612915e-02
  1.579371e+00    1.265310e+00   1.619329e-02
  1.581582e+00    1.232396e+00   1.596161e-02
  1.583792e+00    1.253796e+00   1.608151e-02
  1.586002e+00    1.245340e+00   1.600957e-02
  1.588213e+00    1.249364e+00   1.601811e-02
  1.590423e+00    1.250705e+00   1.600661e-02
  1.592634e+00    1.229829e+00   1.585095e-02
  1.594844e+00    1.224842e+00   1.579754e-02
  1.597055e+00    1.213461e+00   1.570372e-02
  1.599265e+00    1.231788e+00   1.580122e-02
  1.601476e+00    1.254706e+00   1.592712e-02
  1.603686e+00    1.233213e+00   1.577043e-02
  1.605897e+00    1.196029e+00   1.551103e-02
  1.608107e+00    1.221724e+00   1.565732e-02
  1.610317e+00    1.239028e+00   1.574849e-02
  1.612528e+00    1.216498e+00   1.558563e-02
  1.614738e+00    1.232258e+00   1.566729e-02
  1.616949e+00    1.217995e+00   1.555746e-02
  1.619159e+00    1.220600e+00   1.555537e-02
  1.621370e+00    1.228618e+00   1.558785e-02
  1.623580e+00    1.219420e+00   1.551103e-02
  1.625791e+00    1.213488e+00   1.545495e-02
  1.628001e+00    1.199000e+00   1.534420e-02
  1.630212e+00    1.162995e+00   1.509451e-02
  1.632422e+00    1.163896e+00   1.508263e-02
  1.634632e+00    1.170853e+00   1.511042e-02
  1.636843e+00    1.157284e+00   1.500521e-02
  1.639053e+00    1.168683e+00   1.506168e-02
  1.641264e+00    1.136778e+00   1.483781e-02
  1.643474e+00    1.149452e+00   1.490300e-02
  1.645685e+00    1.129607e+00   1.475734e-02
  1.647895e+00    1.135702e+00   1.478064e-02
  1.650106e+00    1.169407e+00   1.498121e-02
  1.652316e+00    1.148551e+00   1.483058e-02
  1.654527e+00    1.133943e+00   1.471933e-02
  1.656737e+00    1.121866e+00   1.462428e-02
  1.658947e+00    1.139570e+00   1.472288e-02
  1.661158e+00    1.160965e+00   1.484394e-02
  1.663368e+00    1.186070e+00   1.498711e-02
  1.665579e+00    1.157758e+00   1.479074e-02
  1.667789e+00    1.135058e+00   1.462866e-02
  1.670000e+00    1.081198e+00   1.426209e-02
  1.672210e+00    1.083611e+00   1.426230e-02
  1.674421e+00    1.077523e+00   1.420703e-02
  1.676631e+00    1.089532e+00   1.427021e-02
  1.678842e+00    1.067194e+00   1.410761e-02
  1.681052e+00    1.091898e+00   1.425459e-02
  1.683263e+00    1.073501e+00   1.411898e-02
  1.685473e+00    1.065832e+00   1.405344e-02
  1.687683e+00    1.066127e+00   1.404009e-02
  1.689894e+00    1.070897e+00   1.405575e-02
  1.692104e+00    1.068657e+00   1.402620e-02
  1.694315e+00    1.043116e+00   1.384326e-02
  1.696525e+00    1.064356e+00   1.396834e-02
  1.698736e+00    1.082781e+00   1.407383e-02
  1.700946e+00    1.052282e+00   1.385910e-02
  1.703157e+00    1.035310e+00   1.373241e-02
  1.705367e+00    1.018018e+00   1.360297e-02
  1.707578e+00    1.040191e+00   1.373580e-02
  1.709788e+00    1.025978e+00   1.362766e-02
  1.711998e+00    1.022260e+00   1.358809e-02
  1.714209e+00    1.011739e+00   1.350373e-02
  1.716419e+00    1.011697e+00   1.348933e-02
  1.718630e+00    1.033370e+00   1.361878e-02
  1.720840e+00    1.024567e+00   1.354649e-02
  1.723051e+00    1.005293e+00   1.340473e-02
  1.725261e+00    1.011484e+00   1.343134e-02
  1.727472e+00    9.986299e-01   1.333168e-02
  1.729682e+00    1.009316e+00   1.338941e-02
  1.731893e+00    9.976962e-01   1.329830e-02
  1.734103e+00    9.959924e-01   1.327324e-02
  1.736313e+00    1.006343e+00   1.332802e-02
  1.738524e+00    9.922879e-01   1.322085e-02
  1.740734e+00    1.008291e+00   1.331327e-02
  1.742945e+00    1.025721e+00   1.341421e-02
  1.745155e+00    9.901881e-01   1.316639e-02
  1.747366e+00    9.817823e-01   1.309662e-02
  1.749576e+00    9.688255e-01   1.299635e-02
  1.751787e+00    9.777997e-01   1.304310e-02
  1.753997e+00    9.628021e-01   1.292942e-02
  1.756208e+00    9.508618e-01   1.283596e-02
  1.758418e+00    9.632096e-01   1.290596e-02
  1.760628e+00    9.682748e-01   1.292653e-02
  1.762839e+00    9.551631e-01   1.282555e-02
  1.765049e+00    9.427159e-01   1.272873e-02
  1.767260e+00    9.495678e-01   1.276214e-02
  1.769470e+00    9.629907e-01   1.283901e-02
  1.771681e+00    9.365550e-01   1.264853e-02
  1.773891e+00    9.353927e-01   1.262771e-02
  1.776102e+00    9.349782e-01   1.261214e-02
  1.778312e+00    9.281765e-01   1.255355e-02
  1.780523e+00    9.316933e-01   1.256465e-02
  1.782733e+00    9.159202e-01   1.244532e-02
  1.784944e+00    9.022934e-01   1.233973e-02
  1.787154e+00    9.212276e-01   1.245607e-02
  1.789364e+00    9.160641e-01   1.240874e-02
  1.791575e+00    9.131396e-01   1.237647e-02
  1.793785e+00    9.139723e-01   1.236976e-02
  1.795996e+00    9.216940e-01   1.240938e-02
  1.798206e+00    9.113387e-01   1.232702e-02
  1.800417e+00    8.971627e-01   1.221821e-02
  1.802627e+00    9.194807e-01   1.235727e-02
  1.804838e+00    9.288487e-01   1.240786e-02
  1.807048e+00    9.091662e-01   1.226286e-02
  1.809259e+00    8.879353e-01   1.210536e-02
  1.811469e+00    9.161738e-01   1.228127e-02
  1.813679e+00    9.719796e-01   1.263423e-02
  1.815890e+00    1.007122e+00   1.284501e-02
  1.818100e+00    9.501099e-01   1.246062e-02
  1.820311e+00    8.916391e-01   1.205633e-02
  1.822521e+00    8.834155e-01   1.198581e-02
  1.824732e+00    8.816444e-01   1.195905e-02
  1.826942e+00    8.831178e-01   1.195672e-02
  1.829153e+00    8.844496e-01   1.195407e-02
  1.831363e+00    8.634871e-01   1.179965e-02
  1.833574e+00    8.567469e-01   1.174199e-02
  1.835784e+00    8.732730e-01   1.184331e-02
  1.837994e+00    8.751031e-01   1.184401e-02
  1.840205e+00    9.256297e-01   1.216963e-02
  1.842415e+00    9.509121e-01   1.232245e-02
  1.844626e+00    9.539772e-01   1.233019e-02
  1.846836e+00    9.220875e-01   1.211059e-02
  1.849047e+00    8.758442e-01   1.179132e-02
  1.851257e+00    8.992470e-01   1.193802e-02
  1.853468e+00    8.997348e-01   1.193231e-02
  1.855678e+00    8.616855e-01   1.166837e-02
  1.857889e+00    8.817885e-01   1.179507e-02
  1.860099e+00    8.782398e-01   1.176260e-02
  1.862309e+00    8.654233e-01   1.166789e-02
  1.864520e+00    8.664653e-01   1.166629e-02
  1.866730e+00    8.599678e-01   1.161305e-02
  1.868941e+00    8.450922e-01   1.150129e-02
  1.871151e+00    8.472326e-01   1.150446e-02
  1.873362e+00    8.576614e-01   1.156367e-02
  1.875572e+00    8.543409e-01   1.153030e-02
  1.877783e+00    8.338361e-01   1.137975e-02
  1.879993e+00    8.406095e-01   1.141476e-02
  1.882204e+00    8.324625e-01   1.134850e-02
  1.884414e+00    8.395047e-01   1.138533e-02
  1.886624e+00    8.512541e-01   1.145363e-02
  1.888835e+00    8.422402e-01   1.138184e-02
  1.891045e+00    8.652283e-01   1.152508e-02
  1.893256e+00    8.428316e-01   1.136382e-02
  1.895466e+00    8.519817e-01   1.141408e-02
  1.897677e+00    8.481736e-01   1.137752e-02
  1.899887e+00    8.374810e-01   1.129461e-02
  1.902098e+00    8.171576e-01   1.114595e-02
  1.904308e+00    8.315547e-01   1.123312e-02
  1.906519e+00    8.285052e-01   1.120168e-02
  1.908729e+00    8.263858e-01   1.117676e-02
  1.910940e+00    8.260378e-01   1.116327e-02
  1.913150e+00    8.267879e-01   1.115776e-02
  1.915360e+00    8.275872e-01   1.115250e-02
  1.917571e+00    8.202819e-01   1.109232e-02
  1.919781e+00    8.197909e-01   1.107832e-02
  1.921992e+00    8.102601e-01   1.100319e-02
  1.924202e+00    8.214411e-01   1.106803e-02
  1.926413e+00    8.241218e-01   1.107574e-02
  1.928623e+00    8.137321e-01   1.099518e-02
  1.930834e+00    8.103579e-01   1.096192e-02
  1.933044e+00    8.170653e-01   1.099651e-02
  1.935255e+00    8.085779e-01   1.092893e-02
  1.937465e+00    8.136694e-01   1.095284e-02
  1.939675e+00    8.041129e-01   1.087751e-02
  1.941886e+00    8.052680e-01   1.087504e-02
  1.944096e+00    7.954381e-01   1.079832e-02
  1.946307e+00    8.029854e-01   1.083907e-02
  1.948517e+00    7.985535e-01   1.079870e-02
  1.950728e+00    7.942586e-01   1.075940e-02
  1.952938e+00    7.908612e-01   1.072631e-02
  1.955149e+00    7.868063e-01   1.068862e-02
  1.957359e+00    7.913101e-01   1.070914e-02
  1.959570e+00    8.131806e-01   1.084512e-02
  1.961780e+00    7.910492e-01   1.068665e-02
  1.963990e+00    7.783250e-01   1.059030e-02
  1.966201e+00    7.930703e-01   1.068006e-02
  1.968411e+00    8.028951e-01   1.073579e-02
  1.970622e+00    8.024810e-01   1.072284e-02
  1.972832e+00    7.773798e-01   1.054390e-02
  1.975043e+00    7.930505e-01   1.063953e-02
  1.977253e+00    7.862326e-01   1.058377e-02
  1.979464e+00    7.894061e-01   1.059502e-02
  1.981674e+00    7.793374e-01   1.051700e-02
  1.983885e+00    7.687248e-01   1.043522e-02
  1.986095e+00    7.640233e-01   1.039364e-02
  1.988305e+00    7.727374e-01   1.044290e-02
  1.990516e+00    7.790411e-01   1.047549e-02
  1.992726e+00    7.696024e-01   1.040222e-02
  1.994937e+00    7.523112e-01   1.027473e-02
  1.997147e+00    7.737699e-01   1.041051e-02
  1.999358e+00    7.576901e-01   1.029205e-02
  2.001568e+00    7.729781e-01   1.038452e-02
  2.003779e+00    7.691196e-01   1.034671e-02
  2.005989e+00    7.642825e-01   1.030215e-02
  2.008200e+00    7.696227e-01   1.032656e-02
  2.010410e+00    7.655852e-01   1.028771e-02
  2.012621e+00    7.559285e-01   1.021103e-02
  2.014831e+00    7.535371e-01   1.018348e-02
  2.017041e+00    7.644580e-01   1.024665e-02
  2.019252e+00    7.703595e-01   1.027613e-02
  2.021462e+00    7.692987e-01   1.025953e-02
  2.023673e+00    7.651582e-01   1.022247e-02
  2.025883e+00    7.731176e-01   1.026594e-02
  2.028094e+00    7.589049e-01   1.016152e-02
  2.030304e+00    7.506470e-01   1.009662e-02
  2.032515e+00    7.483508e-01   1.007193e-02
  2.034725e+00    7.601689e-01   1.014170e-02
  2.036936e+00    7.502962e-01   1.006634e-02
  2.039146e+00    7.683667e-01   1.017719e-02
  2.041356e+00    7.477584e-01   1.003022e-02
  2.043567e+00    7.379393e-01   9.954927e-03
  2.045777e+00    7.631611e-01   1.011432e-02
  2.047988e+00    7.689932e-01   1.014346e-02
  2.050198e+00    7.557330e-01   1.004718e-02
  2.052409e+00    7.523844e-01   1.001721e-02
  2.054619e+00    7.771490e-01   1.017326e-02
  2.056830e+00    7.682908e-01   1.010787e-02
  2.059040e+00    7.568143e-01   1.002453e-02
  2.061251e+00    7.688103e-01   1.009634e-02
  2.063461e+00    7.423334e-01   9.913403e-03
  2.065671e+00    7.657859e-01   1.005994e-02
  2.067882e+00    7.673361e-01   1.006103e-02
  2.070092e+00    7.758921e-01   1.010758e-02
  2.072303e+00    7.803159e-01   1.012702e-02
  2.074513e+00    7.997890e-01   1.024293e-02
  2.076724e+00    7.848576e-01   1.013718e-02
  2.078934e+00    7.756290e-01   1.006819e-02
  2.081145e+00    7.671421e-01   1.000374e-02
  2.083355e+00    7.590677e-01   9.941662e-03
  2.085566e+00    7.674418e-01   9.987291e-03
  2.087776e+00    7.366386e-01   9.775325e-03
  2.089986e+00    7.481037e-01   9.842237e-03
  2.092197e+00    7.732631e-01   9.997201e-03
  2.094407e+00    7.644087e-01   9.930423e-03
  2.096618e+00    7.332108e-01   9.716772e-03
  2.098828e+00    7.335703e-01   9.709839e-03
  2.101039e+00    7.320608e-01   9.690871e-03
  2.103249e+00    7.444882e-01   9.764030e-03
  2.105460e+00    7.421794e-01   9.739796e-03
  2.107670e+00    7.310892e-01   9.658012e-03
  2.109881e+00    7.351623e-01   9.675636e-03
  2.112091e+00    7.456939e-01   9.735612e-03
  2.114301e+00    7.170470e-01   9.538042e-03
  2.116512e+00    7.179789e-01   9.535452e-03
  2.118722e+00    7.282124e-01   9.594328e-03
  2.120933e+00    7.074389e-01   9.447697e-03
  2.123143e+00    7.025282e-01   9.406054e-03
  2.125354e+00    6.991616e-01   9.375053e-03
  2.127564e+00    7.125582e-01   9.455748e-03
  2.129775e+00    7.008476e-01   9.369096e-03
  2.131985e+00    7.097655e-01   9.419464e-03
  2.134196e+00    7.078373e-01   9.398130e-03
  2.136406e+00    6.960437e-01   9.310859e-03
  2.138617e+00    6.987129e-01   9.320295e-03
  2.140827e+00    7.086610e-01   9.402474e-03
  2.143037e+00    7.055640e-01   9.427333e-03
  2.145248e+00    7.072958e-01   9.460933e-03
  2.147458e+00    7.053629e-01   9.463135e-03
  2.149669e+00    6.952981e-01   9.407161e-03
  2.151879e+00    7.053415e-01   9.484117e-03
  2.154090e+00    6.981461e-01   9.442895e-03
  2.156300e+00    7.112072e-01   9.537484e-03
  2.158511e+00    7.011991e-01   9.475445e-03
  2.160721e+00    7.013780e-01   9.481492e-03
  2.162932e+00    7.050425e-01   9.509983e-03
  2.165142e+00    6.933810e-01   9.434012e-03
  2.167352e+00    7.021681e-01   9.496540e-03
  2.169563e+00    6.991362e-01   9.477958e-03
  2.171773e+00    6.975920e-01   9.469953e-03
  2.173984e+00    7.008476e-01   9.493445e-03
  2.176194e+00    6.862434e-01   9.395204e-03
  2.178405e+00    6.885126e-01   9.411412e-03
  2.180615e+00    6.865240e-01   9.398505e-03
  2.182826e+00    6.844111e-01   9.384691e-03
  2.185036e+00    6.890079e-01   9.416210e-03
  2.187247e+00    6.955880e-01   9.461012e-03
  2.189457e+00    7.018929e-01   9.503389e-03
  2.191667e+00    6.956230e-01   9.460671e-03
  2.193878e+00    6.922403e-01   9.437071e-03
  2.196088e+00    6.931177e-01   9.442361e-03
  2.198299e+00    7.021613e-01   9.502654e-03
  2.200509e+00    6.972901e-01   9.468576e-03
  2.202720e+00    6.743370e-01   9.310298e-03
  2.204930e+00    6.808391e-01   9.353810e-03
  2.207141e+00    6.905937e-01   9.419455e-03
  2.209351e+00    6.989769e-01   9.474560e-03
  2.211562e+00    6.921126e-01   9.426294e-03
  2.213772e+00    6.756206e-01   9.257867e-03
  2.215982e+00    6.896386e-01   9.308749e-03
  2.218193e+00    6.843289e-01   9.243057e-03
  2.220403e+00    6.707623e-01   9.126429e-03
  2.222614e+00    6.864983e-01   9.211731e-03
  2.224824e+00    6.745612e-01   9.111902e-03
  2.227035e+00    6.631090e-01   9.016893e-03
  2.229245e+00    6.857417e-01   9.152326e-03
  2.231456e+00    6.903773e-01   9.167389e-03
  2.233666e+00    6.942998e-01   9.178037e-03
  2.235877e+00    6.975830e-01   9.185161e-03
  2.238087e+00    6.900607e-01   9.121827e-03
  2.240298e+00    6.802101e-01   9.042612e-03
  2.242508e+00    6.685094e-01   8.949362e-03
  2.244718e+00    6.575293e-01   8.859901e-03
  2.246929e+00    6.649301e-01   8.895221e-03
  2.249139e+00    6.612766e-01   8.858434e-03
  2.251350e+00    6.626104e-01   8.855693e-03
  2.253560e+00    6.657499e-01   8.865092e-03
  2.255771e+00    6.375046e-01   8.663838e-03
  2.257981e+00    6.584215e-01   8.793689e-03
  2.260192e+00    6.582370e-01   8.781397e-03
  2.262402e+00    6.642876e-01   8.810827e-03
  2.264613e+00    6.675112e-01   8.821302e-03
  2.266823e+00    6.713752e-01   8.836333e-03
  2.269033e+00    6.685933e-01   8.807603e-03
  2.271244e+00    6.522422e-01   8.688898e-03
  2.273454e+00    6.667834e-01   8.774941e-03
  2.275665e+00    6.708124e-01   8.791035e-03
  2.277875e+00    6.750073e-01   8.808443e-03
  2.280086e+00    6.751199e-01   8.799030e-03
  2.282296e+00    6.677249e-01   8.741240e-03
  2.284507e+00    6.431379e-01   8.568798e-03
  2.286717e+00    6.542056e-01   8.632748e-03
  2.288928e+00    6.590309e-01   8.654657e-03
  2.291138e+00    6.606466e-01   8.655811e-03
  2.293348e+00    6.543437e-01   8.604884e-03
  2.295559e+00    6.596211e-01   8.630167e-03
  2.297769e+00    6.736611e-01   8.712165e-03
  2.299980e+00    6.514302e-01   8.557884e-03
  2.302190e+00    6.467780e-01   8.518185e-03
  2.304401e+00    6.556543e-01   8.567091e-03
  2.306611e+00    6.580713e-01   8.573627e-03
  2.308822e+00    6.574732e-01   8.561308e-03
  2.311032e+00    6.449605e-01   8.473028e-03
  2.313243e+00    6.573882e-01   8.547947e-03
  2.315453e+00    6.531575e-01   8.512819e-03
  2.317663e+00    6.441624e-01   8.444896e-03
  2.319874e+00    6.246091e-01   8.307157e-03
  2.322084e+00    6.426029e-01   8.416992e-03
  2.324295e+00    6.640292e-01   8.547852e-03
  2.326505e+00    6.527662e-01   8.465932e-03
  2.328716e+00    6.502223e-01   8.440828e-03
  2.330926e+00    6.444575e-01   8.394517e-03
  2.333137e+00    6.383414e-01   8.346253e-03
  2.335347e+00    6.282359e-01   8.271134e-03
  2.337558e+00    6.455465e-01   8.376037e-03
  2.339768e+00    6.410854e-01   8.338486e-03
  2.341979e+00    6.437448e-01   8.347339e-03
  2.344189e+00    6.413592e-01   8.323466e-03
  2.346399e+00    6.191823e-01   8.169910e-03
  2.348610e+00    6.354022e-01   8.267757e-03
  2.350820e+00    6.311725e-01   8.232047e-03
  2.353031e+00    6.320928e-01   8.229765e-03
  2.355241e+00    6.337125e-01   8.232255e-03
  2.357452e+00    6.357471e-01   8.237007e-03
  2.359662e+00    6.220121e-01   8.139403e-03
  2.361873e+00    6.312347e-01   8.191257e-03
  2.364083e+00    6.384009e-01   8.229595e-03
  2.366294e+00    6.316519e-01   8.177845e-03
  2.368504e+00    6.183413e-01   8.083193e-03
  2.370714e+00    6.314709e-01   8.160455e-03
  2.372925e+00    6.388161e-01   8.199656e-03
  2.375135e+00    6.257402e-01   8.107230e-03
  2.377346e+00    6.231069e-01   8.082229e-03
  2.379556e+00    6.121950e-01   8.003301e-03
  2.381767e+00    6.163203e-01   8.022385e-03
  2.383977e+00    6.328449e-01   8.121211e-03
  2.386188e+00    6.284944e-01   8.085289e-03
  2.388398e+00    6.285733e-01   8.077757e-03
  2.390609e+00    6.302245e-01   8.080577e-03
  2.392819e+00    6.134765e-01   7.964718e-03
  2.395029e+00    6.351246e-01   8.096231e-03
  2.397240e+00    6.352717e-01   8.089189e-03
  2.399450e+00    6.296533e-01   8.045423e-03
  2.401661e+00    6.056619e-01   7.883028e-03
  2.403871e+00    6.023152e-01   7.853511e-03
  2.406082e+00    6.108201e-01   7.901306e-03
  2.408292e+00    6.162591e-01   7.928582e-03
  2.410503e+00    6.097853e-01   7.879346e-03
  2.412713e+00    5.965846e-01   7.785846e-03
  2.414924e+00    6.047084e-01   7.831206e-03
  2.417134e+00    6.100232e-01   7.857882e-03
  2.419344e+00    5.927340e-01   7.738376e-03
  2.421555e+00    5.965815e-01   7.755980e-03
  2.423765e+00    5.967600e-01   7.749754e-03
  2.425976e+00    5.866199e-01   7.675920e-03
  2.428186e+00    5.830150e-01   7.645161e-03
  2.430397e+00    6.010904e-01   7.755272e-03
  2.432607e+00    5.942773e-01   7.703926e-03
  2.434818e+00    5.912980e-01   7.677078e-03
  2.437028e+00    5.987650e-01   7.718213e-03
  2.439239e+00    6.091571e-01   7.777153e-03
  2.441449e+00    6.067320e-01   7.754382e-03
  2.443659e+00    5.767914e-01   7.553364e-03
  2.445870e+00    5.941771e-01   7.678654e-03
  2.448080e+00    5.717407e-01   7.566761e-03
  2.450291e+00    5.728853e-01   7.590864e-03
  2.452501e+00    5.698009e-01   7.581501e-03
  2.454712e+00    5.452098e-01   7.424333e-03
  2.456922e+00    5.466658e-01   7.440696e-03
  2.459133e+00    5.795711e-01   7.666855e-03
  2.461343e+00    5.501294e-01   7.473883e-03
  2.463554e+00    5.594245e-01   7.540198e-03
  2.465764e+00    5.650718e-01   7.581319e-03
  2.467975e+00    5.597484e-01   7.547784e-03
  2.470185e+00    5.783466e-01   7.674472e-03
  2.472395e+00    5.488271e-01   7.477261e-03
  2.474606e+00    5.519589e-01   7.500107e-03
  2.476816e+00    5.547087e-01   7.519518e-03
  2.479027e+00    5.363626e-01   7.394966e-03
  2.481237e+00    5.369560e-01   7.399314e-03
  2.483448e+00    5.450339e-01   7.455083e-03
  2.485658e+00    5.320673e-01   7.365714e-03
  2.487869e+00    5.374743e-01   7.403095e-03
  2.490079e+00    5.187078e-01   7.272191e-03
  2.492290e+00    5.331743e-01   7.372454e-03
  2.494500e+00    5.321796e-01   7.364870e-03
  2.496710e+00    5.274193e-01   7.331149e-03
  2.498921e+00    5.414857e-01   7.427284e-03
  2.501131e+00    5.429737e-01   7.436509e-03
  2.503342e+00    5.383326e-01   7.403414e-03
  2.505552e+00    5.147730e-01   7.238484e-03
  2.507763e+00    5.038782e-01   7.160079e-03
  2.509973e+00    5.200244e-01   7.272510e-03
  2.512184e+00    5.092698e-01   7.195342e-03
  2.514394e+00    5.113184e-01   7.200561e-03
  2.516605e+00    5.210124e-01   7.221687e-03
  2.518815e+00    5.245624e-01   7.217974e-03
  2.521025e+00    5.217758e-01   7.177862e-03
  2.523236e+00    5.340357e-01   7.243609e-03
  2.525446e+00    5.086882e-01   7.054231e-03
  2.527657e+00    5.310268e-01   7.192787e-03
  2.529867e+00    5.159916e-01   7.076174e-03
  2.532078e+00    5.180452e-01   7.075294e-03
  2.534288e+00    5.199468e-01   7.074458e-03
  2.536499e+00    5.183486e-01   7.051710e-03
  2.538709e+00    5.220353e-01   7.065748e-03
  2.540920e+00    5.378950e-01   7.161510e-03
  2.543130e+00    5.317888e-01   7.110314e-03
  2.545340e+00    5.255318e-01   7.058274e-03
  2.547551e+00    5.119299e-01   6.956499e-03
  2.549761e+00    5.209416e-01   7.007880e-03
  2.551972e+00    5.245981e-01   7.023055e-03
  2.554182e+00    5.291392e-01   7.044140e-03
  2.556393e+00    5.301799e-01   7.041901e-03
  2.558603e+00    5.224496e-01   6.981269e-03
  2.560814e+00    5.298984e-01   7.022080e-03
  2.563024e+00    5.273715e-01   6.996675e-03
  2.565235e+00    5.264359e-01   6.980891e-03
  2.567445e+00    5.287796e-01   6.986762e-03
  2.569656e+00    5.282856e-01   6.973671e-03
  2.571866e+00    5.188860e-01   6.901982e-03
  2.574076e+00    5.151534e-01   6.867856e-03
  2.576287e+00    5.222270e-01   6.906466e-03
  2.578497e+00    5.236552e-01   6.908011e-03
  2.580708e+00    5.141827e-01   6.837177e-03
  2.582918e+00    5.056446e-01   6.772464e-03
  2.585129e+00    5.074077e-01   6.776573e-03
  2.587339e+00    5.021408e-01   6.733716e-03
  2.589550e+00    5.087305e-01   6.770232e-03
  2.591760e+00    5.075823e-01   6.754897e-03
  2.593971e+00    5.028942e-01   6.716157e-03
  2.596181e+00    4.985142e-01   6.680713e-03
  2.598391e+00    4.928078e-01   6.637259e-03
  2.600602e+00    5.105994e-01   6.750092e-03
  2.602812e+00    5.038012e-01   6.697508e-03
  2.605023e+00    5.014901e-01   6.675018e-03
  2.607233e+00    4.992649e-01   6.653113e-03
  2.609444e+00    4.937367e-01   6.609038e-03
  2.611654e+00    5.125191e-01   6.726211e-03
  2.613865e+00    5.225592e-01   6.784623e-03
  2.616075e+00    5.120043e-01   6.708590e-03
  2.618286e+00    5.015302e-01   6.632641e-03
  2.620496e+00    4.984968e-01   6.605900e-03
  2.622706e+00    5.038984e-01   6.635854e-03
  2.624917e+00    5.086086e-01   6.660912e-03
  2.627127e+00    5.226155e-01   6.746171e-03
  2.629338e+00    5.136379e-01   6.681959e-03
  2.631548e+00    4.951525e-01   6.554485e-03
  2.633759e+00    4.978368e-01   6.565120e-03
  2.635969e+00    4.967056e-01   6.550991e-03
  2.638180e+00    5.004135e-01   6.568428e-03
  2.640390e+00    5.020602e-01   6.572614e-03
  2.642601e+00    4.990745e-01   6.546386e-03
  2.644811e+00    5.220613e-01   6.688225e-03
  2.647021e+00    4.955248e-01   6.509500e-03
  2.649232e+00    4.953574e-01   6.501701e-03
  2.651442e+00    4.896511e-01   6.457708e-03
  2.653653e+00    4.972726e-01   6.500975e-03
  2.655863e+00    5.058309e-01   6.549955e-03
  2.658074e+00    5.014936e-01   6.515197e-03
  2.660284e+00    4.961106e-01   6.473761e-03
  2.662495e+00    5.006613e-01   6.496632e-03
  2.664705e+00    4.844630e-01   6.384174e-03
  2.666916e+00    4.959379e-01   6.452873e-03
  2.669126e+00    5.015708e-01   6.482927e-03
  2.671337e+00    5.050051e-01   6.498437e-03
  2.673547e+00    5.009475e-01   6.465873e-03
  2.675757e+00    5.001014e-01   6.453911e-03
  2.677968e+00    5.052305e-01   6.480332e-03
  2.680178e+00    5.033993e-01   6.462117e-03
  2.682389e+00    5.044046e-01   6.462102e-03
  2.684599e+00    4.940272e-01   6.389085e-03
  2.686810e+00    5.092670e-01   6.480164e-03
  2.689020e+00    4.994142e-01   6.410830e-03
  2.691231e+00    4.861314e-01   6.318757e-03
  2.693441e+00    4.879599e-01   6.324476e-03
  2.695652e+00    4.955055e-01   6.366652e-03
  2.697862e+00    4.849340e-01   6.292059e-03
  2.700072e+00    4.775383e-01   6.237892e-03
  2.702283e+00    4.842384e-01   6.275310e-03
  2.704493e+00    4.887905e-01   6.298444e-03
  2.706704e+00    4.940891e-01   6.326057e-03
  2.708914e+00    4.886737e-01   6.285321e-03
  2.711125e+00    4.927821e-01   6.305408e-03
  2.713335e+00    4.892525e-01   6.276687e-03
  2.715546e+00    4.934694e-01   6.297169e-03
  2.717756e+00    4.866076e-01   6.247355e-03
  2.719967e+00    4.915182e-01   6.272553e-03
  2.722177e+00    4.917656e-01   6.267958e-03
  2.724387e+00    4.841553e-01   6.213187e-03
  2.726598e+00    4.997851e-01   6.306504e-03
  2.728808e+00    4.876742e-01   6.223498e-03
  2.731019e+00    4.782419e-01   6.156906e-03
  2.733229e+00    4.799844e-01   6.162345e-03
  2.735440e+00    4.890192e-01   6.213766e-03
  2.737650e+00    4.844603e-01   6.178710e-03
  2.739861e+00    4.863310e-01   6.184550e-03
  2.742071e+00    4.873057e-01   6.184968e-03
  2.744282e+00    4.841544e-01   6.158682e-03
  2.746492e+00    4.904971e-01   6.192793e-03
  2.748702e+00    4.849279e-01   6.151651e-03
  2.750913e+00    4.716281e-01   6.060936e-03
  2.753123e+00    4.867633e-01   6.151281e-03
  2.755334e+00    4.916750e-01   6.176095e-03
  2.757544e+00    4.891132e-01   6.154196e-03
  2.759755e+00    5.017863e-01   6.227402e-03
  2.761965e+00    4.916654e-01   6.158232e-03
  2.764176e+00    4.888090e-01   6.134266e-03
  2.766386e+00    4.946788e-01   6.165117e-03
  2.768597e+00    4.861372e-01   6.105758e-03
  2.770807e+00    4.658637e-01   5.971287e-03
  2.773017e+00    4.702863e-01   5.993648e-03
  2.775228e+00    4.864612e-01   6.090009e-03
  2.777438e+00    4.828012e-01   6.061244e-03
  2.779649e+00    4.721229e-01   5.987975e-03
  2.781859e+00    4.748060e-01   5.999204e-03
  2.784070e+00    4.725069e-01   5.978854e-03
  2.786280e+00    4.688048e-01   5.949664e-03
  2.788491e+00    4.628589e-01   5.906056e-03
  2.790701e+00    4.728596e-01   5.963909e-03
  2.792912e+00    4.568089e-01   5.855952e-03
  2.795122e+00    4.744065e-01   5.961972e-03
  2.797333e+00    4.628194e-01   5.883229e-03
  2.799543e+00    4.734424e-01   5.944503e-03
  2.801753e+00    4.774801e-01   5.963940e-03
  2.803964e+00    4.803959e-01   5.976421e-03
  2.806174e+00    4.722124e-01   5.919188e-03
  2.808385e+00    4.712351e-01   5.906276e-03
  2.810595e+00    4.737631e-01   5.915234e-03
  2.812806e+00    4.816511e-01   5.957626e-03
  2.815016e+00    4.784585e-01   5.933080e-03
  2.817227e+00    4.724752e-01   5.921748e-03
  2.819437e+00    4.722993e-01   5.931708e-03
  2.821648e+00    4.705846e-01   5.923223e-03
  2.823858e+00    4.719235e-01   5.936959e-03
  2.826068e+00    4.661362e-01   5.905402e-03
  2.828279e+00    4.580192e-01   5.857724e-03
  2.830489e+00    4.646704e-01   5.903413e-03
  2.832700e+00    4.653217e-01   5.910107e-03
  2.834910e+00    4.518293e-01   5.825784e-03
  2.837121e+00    4.762939e-01   5.983151e-03
  2.839331e+00    4.692434e-01   5.939956e-03
  2.841542e+00    4.530167e-01   5.837331e-03
  2.843752e+00    4.645188e-01   5.911739e-03
  2.845963e+00    4.629450e-01   5.902124e-03
  2.848173e+00    4.674829e-01   5.931054e-03
  2.850383e+00    4.634666e-01   5.905827e-03
  2.852594e+00    4.724836e-01   5.962908e-03
  2.854804e+00    4.699744e-01   5.946555e-03
  2.857015e+00    4.666179e-01   5.924861e-03
  2.859225e+00    4.626412e-01   5.899299e-03
  2.861436e+00    4.640724e-01   5.907759e-03
  2.863646e+00    4.696343e-01   5.943097e-03
  2.865857e+00    4.725879e-01   5.962095e-03
  2.868067e+00    4.816576e-01   6.019274e-03
  2.870278e+00    4.643734e-01   5.909935e-03
  2.872488e+00    4.609327e-01   5.886831e-03
  2.874698e+00    4.690160e-01   5.937182e-03
  2.876909e+00    4.683883e-01   5.931864e-03
  2.879119e+00    4.605964e-01   5.880710e-03
  2.881330e+00    4.553737e-01   5.845803e-03
  2.883540e+00    4.553807e-01   5.844478e-03
  2.885751e+00    4.609874e-01   5.878697e-03
  2.887961e+00    4.700409e-01   5.934243e-03
  2.890172e+00    4.657994e-01   5.905805e-03
  2.892382e+00    4.808542e-01   5.998631e-03
  2.894593e+00    4.651687e-01   5.898178e-03
  2.896803e+00    4.578842e-01   5.849826e-03
  2.899014e+00    4.639924e-01   5.886795e-03
  2.901224e+00    4.619347e-01   5.871735e-03
  2.903434e+00    4.626023e-01   5.874014e-03
  2.905645e+00    4.673496e-01   5.901853e-03
  2.907855e+00    4.609011e-01   5.858880e-03
  2.910066e+00    4.576952e-01   5.836403e-03
  2.912276e+00    4.563946e-01   5.825980e-03
  2.914487e+00    4.571056e-01   5.828068e-03
  2.916697e+00    4.597114e-01   5.842426e-03
  2.918908e+00    4.708231e-01   5.910573e-03
  2.921118e+00    4.707654e-01   5.907501e-03
  2.923329e+00    4.656639e-01   5.873055e-03
  2.925539e+00    4.629570e-01   5.853674e-03
  2.927749e+00    4.649322e-01   5.863806e-03
  2.929960e+00    4.776197e-01   5.940444e-03
  2.932170e+00    4.627458e-01   5.844880e-03
  2.934381e+00    4.674046e-01   5.871753e-03
  2.936591e+00    4.509705e-01   5.765047e-03
  2.938802e+00    4.478731e-01   5.742522e-03
  2.941012e+00    4.590367e-01   5.811298e-03
  2.943223e+00    4.555501e-01   5.786506e-03
  2.945433e+00    4.516318e-01   5.757835e-03
  2.947644e+00    4.505278e-01   5.746694e-03
  2.949854e+00    4.517967e-01   5.750505e-03
  2.952064e+00    4.499837e-01   5.734792e-03
  2.954275e+00    4.502616e-01   5.732147e-03
  2.956485e+00    4.474339e-01   5.709984e-03
  2.958696e+00    4.510903e-01   5.728891e-03
  2.960906e+00    4.676023e-01   5.828577e-03
  2.963117e+00    4.536026e-01   5.736184e-03
  2.965327e+00    4.473515e-01   5.692651e-03
  2.967538e+00    4.450158e-01   5.674876e-03
  2.969748e+00    4.617956e-01   5.778040e-03
  2.971959e+00    4.650362e-01   5.795106e-03
  2.974169e+00    4.629852e-01   5.779708e-03
  2.976379e+00    4.676589e-01   5.805837e-03
  2.978590e+00    4.513412e-01   5.700551e-03
  2.980800e+00    4.496261e-01   5.686884e-03
  2.983011e+00    4.628767e-01   5.767270e-03
  2.985221e+00    4.568148e-01   5.726218e-03
  2.987432e+00    4.552729e-01   5.713431e-03
  2.989642e+00    4.565558e-01   5.718837e-03
  2.991853e+00    4.621252e-01   5.750304e-03
  2.994063e+00    4.616624e-01   5.744498e-03
  2.996274e+00    4.603813e-01   5.733310e-03
  2.998484e+00    4.556313e-01   5.700954e-03
  3.000694e+00    4.452539e-01   5.632248e-03
  3.002905e+00    4.444834e-01   5.624453e-03
  3.005115e+00    4.446412e-01   5.622502e-03
  3.007326e+00    4.540372e-01   5.678432e-03
  3.009536e+00    4.551726e-01   5.682281e-03
  3.011747e+00    4.557078e-01   5.682674e-03
  3.013957e+00    4.566428e-01   5.685338e-03
  3.016168e+00    4.484923e-01   5.631115e-03
  3.018378e+00    4.566368e-01   5.678949e-03
  3.020589e+00    4.628256e-01   5.714078e-03
  3.022799e+00    4.583149e-01   5.682968e-03
  3.025010e+00    4.591814e-01   5.685085e-03
  3.027220e+00    4.551256e-01   5.656803e-03
  3.029430e+00    4.365656e-01   5.537070e-03
  3.031641e+00    4.448513e-01   5.586245e-03
  3.033851e+00    4.386089e-01   5.543446e-03
  3.036062e+00    4.513779e-01   5.620789e-03
  3.038272e+00    4.526944e-01   5.625390e-03
  3.040483e+00    4.550482e-01   5.636781e-03
  3.042693e+00    4.412403e-01   5.547357e-03
  3.044904e+00    4.446324e-01   5.564648e-03
  3.047114e+00    4.379788e-01   5.518127e-03
  3.049325e+00    4.437295e-01   5.549849e-03
  3.051535e+00    4.588266e-01   5.639049e-03
  3.053745e+00    4.672370e-01   5.685675e-03
  3.055956e+00    4.428768e-01   5.530947e-03
  3.058166e+00    4.425313e-01   5.524545e-03
  3.060377e+00    4.548912e-01   5.596373e-03
  3.062587e+00    4.524111e-01   5.576465e-03
  3.064798e+00    4.583329e-01   5.608537e-03
  3.067008e+00    4.590968e-01   5.608442e-03
  3.069219e+00    4.387919e-01   5.478569e-03
  3.071429e+00    4.455514e-01   5.517077e-03
  3.073640e+00    4.485725e-01   5.532445e-03
  3.075850e+00    4.504214e-01   5.540238e-03
  3.078060e+00    4.393410e-01   5.468604e-03
  3.080271e+00    4.415315e-01   5.478767e-03
  3.082481e+00    4.440705e-01   5.491058e-03
  3.084692e+00    4.504074e-01   5.526728e-03
  3.086902e+00    4.507508e-01   5.525576e-03
  3.089113e+00    4.447651e-01   5.485210e-03
  3.091323e+00    4.568520e-01   5.555832e-03
  3.093534e+00    4.502312e-01   5.512056e-03
  3.095744e+00    4.586809e-01   5.560126e-03
  3.097955e+00    4.344858e-01   5.407983e-03
  3.100165e+00    4.416023e-01   5.448772e-03
  3.102375e+00    4.562214e-01   5.534795e-03
  3.104586e+00    4.397301e-01   5.430369e-03
  3.106796e+00    4.536050e-01   5.511811e-03
  3.109007e+00    4.461526e-01   5.463154e-03
  3.111217e+00    4.422510e-01   5.435521e-03
  3.113428e+00    4.580149e-01   5.528091e-03
  3.115638e+00    4.431612e-01   5.434487e-03
  3.117849e+00    4.513601e-01   5.480782e-03
  3.120059e+00    4.486848e-01   5.461033e-03
  3.122270e+00    4.330154e-01   5.361623e-03
  3.124480e+00    4.444745e-01   5.428395e-03
  3.126691e+00    4.504574e-01   5.461241e-03
  3.128901e+00    4.424080e-01   5.409120e-03
  3.131111e+00    4.387339e-01   5.382787e-03
  3.133322e+00    4.407058e-01   5.391421e-03
  3.135532e+00    4.505619e-01   5.447967e-03
  3.137743e+00    4.469350e-01   5.422510e-03
  3.139953e+00    4.442575e-01   5.402548e-03
  3.142164e+00    4.516427e-01   5.459403e-03
  3.144374e+00    4.363058e-01   5.394126e-03
  3.146585e+00    4.433774e-01   5.452219e-03
  3.148795e+00    4.346150e-01   5.408783e-03
  3.151006e+00    4.411256e-01   5.457659e-03
  3.153216e+00    4.447491e-01   5.487205e-03
  3.155426e+00    4.368027e-01   5.444244e-03
  3.157637e+00    4.406359e-01   5.473599e-03
  3.159847e+00    4.236510e-01   5.371853e-03
  3.162058e+00    4.400510e-01   5.479263e-03
  3.164268e+00    4.274576e-01   5.404303e-03
  3.166479e+00    4.373834e-01   5.470322e-03
  3.168689e+00    4.328935e-01   5.445527e-03
  3.170900e+00    4.319678e-01   5.442824e-03
  3.173110e+00    4.355698e-01   5.468357e-03
  3.175321e+00    4.291445e-01   5.430321e-03
  3.177531e+00    4.376319e-01   5.486511e-03
  3.179741e+00    4.265363e-01   5.418560e-03
  3.181952e+00    4.280321e-01   5.430119e-03
  3.184162e+00    4.337269e-01   5.468321e-03
  3.186373e+00    4.404542e-01   5.512156e-03
  3.188583e+00    4.450374e-01   5.542587e-03
  3.190794e+00    4.439950e-01   5.537845e-03
  3.193004e+00    4.480760e-01   5.564511e-03
  3.195215e+00    4.528233e-01   5.595421e-03
  3.197425e+00    4.480361e-01   5.567017e-03
  3.199636e+00    4.344863e-01   5.481419e-03
  3.201846e+00    4.413403e-01   5.523874e-03
  3.204056e+00    4.304768e-01   5.456335e-03
  3.206267e+00    4.428691e-01   5.535178e-03
  3.208477e+00    4.311045e-01   5.462094e-03
  3.210688e+00    4.309891e-01   5.462199e-03
  3.212898e+00    4.229251e-01   5.411432e-03
  3.215109e+00    4.284896e-01   5.447642e-03
  3.217319e+00    4.448380e-01   5.551259e-03
  3.219530e+00    4.237750e-01   5.418630e-03
  3.221740e+00    4.299588e-01   5.458569e-03
  3.223951e+00    4.323433e-01   5.474176e-03
  3.226161e+00    4.367692e-01   5.502284e-03
  3.228372e+00    4.383410e-01   5.512736e-03
  3.230582e+00    4.232635e-01   5.417241e-03
  3.232792e+00    4.285387e-01   5.451114e-03
  3.235003e+00    4.237482e-01   5.420775e-03
  3.237213e+00    4.254923e-01   5.432056e-03
  3.239424e+00    4.071542e-01   5.313687e-03
  3.241634e+00    4.222886e-01   5.411673e-03
  3.243845e+00    4.319991e-01   5.473601e-03
  3.246055e+00    4.351720e-01   5.493402e-03
  3.248266e+00    4.228599e-01   5.415346e-03
  3.250476e+00    4.330229e-01   5.479708e-03
  3.252687e+00    4.267724e-01   5.439945e-03
  3.254897e+00    4.353004e-01   5.493910e-03
  3.257107e+00    4.328544e-01   5.478136e-03
  3.259318e+00    4.349893e-01   5.491390e-03
  3.261528e+00    4.227190e-01   5.413259e-03
  3.263739e+00    4.286174e-01   5.450323e-03
  3.265949e+00    4.173968e-01   5.378385e-03
  3.268160e+00    4.264573e-01   5.436026e-03
  3.270370e+00    4.294229e-01   5.454380e-03
  3.272581e+00    4.382777e-01   5.510069e-03
  3.274791e+00    4.173754e-01   5.376544e-03
  3.277002e+00    4.222463e-01   5.407254e-03
  3.279212e+00    4.203189e-01   5.394518e-03
  3.281422e+00    4.203987e-01   5.394463e-03
  3.283633e+00    4.226153e-01   5.407974e-03
  3.285843e+00    4.282289e-01   5.443450e-03
  3.288054e+00    4.177519e-01   5.375524e-03
  3.290264e+00    4.211816e-01   5.397215e-03
  3.292475e+00    4.225043e-01   5.404857e-03
  3.294685e+00    4.284828e-01   5.442321e-03
  3.296896e+00    4.245813e-01   5.416735e-03
  3.299106e+00    4.107156e-01   5.327007e-03
  3.301317e+00    4.312160e-01   5.457285e-03
  3.303527e+00    4.277181e-01   5.434643e-03
  3.305737e+00    4.296420e-01   5.445815e-03
  3.307948e+00    4.266962e-01   5.426413e-03
  3.310158e+00    4.317874e-01   5.457852e-03
  3.312369e+00    4.279363e-01   5.432568e-03
  3.314579e+00    4.118787e-01   5.328779e-03
  3.316790e+00    4.137797e-01   5.340335e-03
  3.319000e+00    4.281524e-01   5.431117e-03
  3.321211e+00    4.122458e-01   5.328685e-03
  3.323421e+00    4.027076e-01   5.265499e-03
  3.325632e+00    4.227974e-01   5.394324e-03
  3.327842e+00    4.372977e-01   5.485131e-03
  3.330052e+00    4.250217e-01   5.406524e-03
  3.332263e+00    4.221571e-01   5.387273e-03
  3.334473e+00    4.254717e-01   5.407430e-03
  3.336684e+00    4.265909e-01   5.413291e-03
  3.338894e+00    4.178029e-01   5.356413e-03
  3.341105e+00    4.102615e-01   5.306631e-03
  3.343315e+00    4.240406e-01   5.393868e-03
  3.345526e+00    4.252567e-01   5.400693e-03
  3.347736e+00    4.228074e-01   5.383720e-03
  3.349947e+00    4.238836e-01   5.389619e-03
  3.352157e+00    4.230410e-01   5.383077e-03
  3.354368e+00    4.295771e-01   5.423199e-03
  3.356578e+00    4.193183e-01   5.357032e-03
  3.358788e+00    4.290587e-01   5.417557e-03
  3.360999e+00    4.221427e-01   5.372456e-03
  3.363209e+00    4.309329e-01   5.427082e-03
  3.365420e+00    4.176233e-01   5.341083e-03
  3.367630e+00    4.162122e-01   5.331055e-03
  3.369841e+00    4.142548e-01   5.317068e-03
  3.372051e+00    4.196428e-01   5.349548e-03
  3.374262e+00    4.138677e-01   5.310205e-03
  3.376472e+00    4.219505e-01   5.359323e-03
  3.378683e+00    4.151237e-01   5.313296e-03
  3.380893e+00    4.050764e-01   5.246311e-03
  3.383103e+00    4.049353e-01   5.242705e-03
  3.385314e+00    4.227485e-01   5.354520e-03
  3.387524e+00    4.235892e-01   5.357103e-03
  3.389735e+00    4.081697e-01   5.256097e-03
  3.391945e+00    4.076564e-01   5.249112e-03
  3.394156e+00    4.109059e-01   5.265784e-03
  3.396366e+00    4.270381e-01   5.364689e-03
  3.398577e+00    4.191058e-01   5.311569e-03
  3.400787e+00    4.122643e-01   5.279958e-03
  3.402998e+00    4.104563e-01   5.306464e-03
  3.405208e+00    3.954341e-01   5.228850e-03
  3.407418e+00    3.971192e-01   5.255672e-03
  3.409629e+00    4.095502e-01   5.351425e-03
  3.411839e+00    4.011828e-01   5.308277e-03
  3.414050e+00    3.930338e-01   5.265021e-03
  3.416260e+00    3.882250e-01   5.242282e-03
  3.418471e+00    3.904679e-01   5.266775e-03
  3.420681e+00    3.995902e-01   5.336514e-03
  3.422892e+00    3.763382e-01   5.186795e-03
  3.425102e+00    3.851244e-01   5.254738e-03
  3.427313e+00    3.840603e-01   5.254634e-03
  3.429523e+00    3.636066e-01   5.119654e-03
  3.431733e+00    3.750713e-01   5.206266e-03
  3.433944e+00    3.752236e-01   5.213771e-03
  3.436154e+00    3.702982e-01   5.185560e-03
  3.438365e+00    3.738490e-01   5.216229e-03
  3.440575e+00    3.680594e-01   5.181519e-03
  3.442786e+00    3.677591e-01   5.184920e-03
  3.444996e+00    3.670381e-01   5.185269e-03
  3.447207e+00    3.485056e-01   5.057765e-03
  3.449417e+00    3.671127e-01   5.231572e-03
  3.451628e+00    3.772583e-01   5.333161e-03
  3.453838e+00    3.681632e-01   5.289671e-03
  3.456049e+00    3.801864e-01   5.399685e-03
  3.458259e+00    3.698445e-01   5.347770e-03
  3.460469e+00    3.583376e-01   5.283471e-03
  3.462680e+00    3.813154e-01   5.469672e-03
  3.464890e+00    3.834312e-01   5.503062e-03
  3.467101e+00    3.735059e-01   5.448988e-03
  3.469311e+00    3.868937e-01   5.562655e-03
  3.471522e+00    3.997265e-01   5.671127e-03
  3.473732e+00    3.909388e-01   5.624634e-03
  3.475943e+00    3.934850e-01   5.658821e-03
  3.478153e+00    4.153023e-01   5.829583e-03
  3.480364e+00    4.221717e-01   5.893289e-03
  3.482574e+00    4.165360e-01   5.869404e-03
  3.484784e+00    4.275347e-01   5.961564e-03
  3.486995e+00    4.349302e-01   6.028345e-03
  3.489205e+00    4.341424e-01   6.037735e-03
  3.491416e+00    4.320707e-01   6.038317e-03
  3.493626e+00    4.602172e-01   6.246892e-03
  3.495837e+00    4.594057e-01   6.256480e-03
  3.498047e+00    4.415272e-01   6.147946e-03
  3.500258e+00    4.491446e-01   6.215298e-03
  3.502468e+00    4.627811e-01   6.323480e-03
  3.504679e+00    4.733598e-01   6.410057e-03
  3.506889e+00    4.674438e-01   6.384328e-03
  3.509099e+00    4.719854e-01   6.429646e-03
  3.511310e+00    4.720496e-01   6.444477e-03
  3.513520e+00    4.912346e-01   6.588677e-03
  3.515731e+00    5.085146e-01   6.718255e-03
  3.517941e+00    5.089859e-01   6.736055e-03
  3.520152e+00    4.925145e-01   6.640414e-03
  3.522362e+00    5.029513e-01   6.724932e-03
  3.524573e+00    5.029314e-01   6.739020e-03
  3.526783e+00    5.176300e-01   6.850228e-03
  3.528994e+00    5.331233e-01   6.964428e-03
  3.531204e+00    5.321309e-01   6.970526e-03
  3.533414e+00    5.276464e-01   6.953226e-03
  3.535625e+00    5.424536e-01   7.062605e-03
  3.537835e+00    5.503566e-01   7.126197e-03
  3.540046e+00    5.391622e-01   7.062329e-03
  3.542256e+00    5.324883e-01   7.025993e-03
  3.544467e+00    5.562528e-01   7.188799e-03
  3.546677e+00    5.424828e-01   7.106928e-03
  3.548888e+00    5.315920e-01   7.042661e-03
  3.551098e+00    5.571813e-01   7.217614e-03
  3.553309e+00    5.338987e-01   7.073391e-03
  3.555519e+00    5.275860e-01   7.042602e-03
  3.557729e+00    5.402392e-01   7.138340e-03
  3.559940e+00    5.386586e-01   7.139487e-03
  3.562150e+00    5.103987e-01   6.961095e-03
  3.564361e+00    5.333042e-01   7.128851e-03
  3.566571e+00    5.466200e-01   7.231290e-03
  3.568782e+00    5.367957e-01   7.180125e-03
  3.570992e+00    5.335990e-01   7.172437e-03
  3.573203e+00    5.458163e-01   7.268391e-03
  3.575413e+00    5.217468e-01   7.119866e-03
  3.577624e+00    5.368033e-01   7.236030e-03
  3.579834e+00    5.283204e-01   7.192391e-03
  3.582045e+00    5.406914e-01   7.290223e-03
  3.584255e+00    5.263664e-01   7.206934e-03
  3.586465e+00    5.483795e-01   7.370157e-03
  3.588676e+00    5.468064e-01   7.373928e-03
  3.590886e+00    5.469357e-01   7.388640e-03
  3.593097e+00    5.538955e-01   7.450259e-03
  3.595307e+00    5.393583e-01   7.365831e-03
  3.597518e+00    5.134054e-01   7.200322e-03
  3.599728e+00    5.420605e-01   7.412690e-03
  3.601939e+00    5.671286e-01   7.596671e-03
  3.604149e+00    5.497953e-01   7.494262e-03
  3.606360e+00    5.449563e-01   7.475505e-03
  3.608570e+00    5.526391e-01   7.542363e-03
  3.610780e+00    5.669253e-01   7.650656e-03
  3.612991e+00    5.455261e-01   7.514971e-03
  3.615201e+00    5.388875e-01   7.478951e-03
  3.617412e+00    5.497016e-01   7.560958e-03
  3.619622e+00    5.615973e-01   7.648461e-03
  3.621833e+00    5.585646e-01   7.634649e-03
  3.624043e+00    5.323923e-01   7.463126e-03
  3.626254e+00    5.378638e-01   7.511090e-03
  3.628464e+00    5.430557e-01   7.558341e-03
  3.630675e+00    5.384818e-01   7.540609e-03
  3.632885e+00    5.299971e-01   7.495384e-03
  3.635095e+00    5.280218e-01   7.495719e-03
  3.637306e+00    5.381564e-01   7.581703e-03
  3.639516e+00    5.383226e-01   7.597512e-03
  3.641727e+00    5.068350e-01   7.386175e-03
  3.643937e+00    5.309245e-01   7.574128e-03
  3.646148e+00    5.334570e-01   7.606845e-03
  3.648358e+00    5.133697e-01   7.476816e-03
  3.650569e+00    5.269653e-01   7.589797e-03
  3.652779e+00    5.476052e-01   7.752014e-03
  3.654990e+00    5.219651e-01   7.583110e-03
  3.657200e+00    5.418907e-01   7.741477e-03
  3.659410e+00    5.425934e-01   7.761633e-03
  3.661621e+00    5.432275e-01   7.781446e-03
  3.663831e+00    5.205770e-01   7.632446e-03
  3.666042e+00    5.329555e-01   7.737826e-03
  3.668252e+00    5.459045e-01   7.846683e-03
  3.670463e+00    5.511676e-01   7.899997e-03
  3.672673e+00    5.284371e-01   7.750745e-03
  3.674884e+00    5.289011e-01   7.769475e-03
  3.677094e+00    5.463903e-01   7.912691e-03
  3.679305e+00    5.419111e-01   7.895901e-03
  3.681515e+00    5.333665e-01   7.849049e-03
  3.683726e+00    5.347199e-01   7.874898e-03
  3.685936e+00    5.300986e-01   7.856515e-03
  3.688146e+00    5.408442e-01   7.951710e-03
  3.690357e+00    5.416797e-01   7.973976e-03
  3.692567e+00    5.389569e-01   7.970260e-03
  3.694778e+00    5.431667e-01   8.017587e-03
  3.696988e+00    5.295121e-01   7.932239e-03
  3.699199e+00    5.216131e-01   7.888993e-03
  3.701409e+00    5.214633e-01   7.904259e-03
  3.703620e+00    5.118197e-01   7.846850e-03
  3.705830e+00    5.336951e-01   8.029334e-03
  3.708041e+00    5.305756e-01   8.022565e-03
  3.710251e+00    5.557732e-01   8.228034e-03
  3.712461e+00    5.395194e-01   8.123904e-03
  3.714672e+00    5.247152e-01   8.028408e-03
  3.716882e+00    5.300124e-01   8.085704e-03
  3.719093e+00    5.085617e-01   7.937318e-03
  3.721303e+00    5.129436e-01   7.988305e-03
  3.723514e+00    5.090863e-01   7.975262e-03
  3.725724e+00    5.221031e-01   8.093854e-03
  3.727935e+00    5.190152e-01   8.087320e-03
  3.730145e+00    5.155715e-01   8.077771e-03
  3.732356e+00    5.168591e-01   8.105395e-03
  3.734566e+00    5.201887e-01   8.149056e-03
  3.736776e+00    5.170735e-01   8.142477e-03
  3.738987e+00    5.128855e-01   8.127113e-03
  3.741197e+00    5.123086e-01   8.140497e-03
  3.743408e+00    5.120070e-01   8.156172e-03
  3.745618e+00    5.029790e-01   8.102090e-03
  3.747829e+00    5.017529e-01   8.110106e-03
  3.750039e+00    5.183639e-01   8.261755e-03
  3.752250e+00    4.985676e-01   8.120739e-03
  3.754460e+00    5.148737e-01   8.271019e-03
  3.756671e+00    5.163673e-01   8.302007e-03
  3.758881e+00    5.329524e-01   8.453305e-03
  3.761091e+00    5.228192e-01   8.392029e-03
  3.763302e+00    5.231015e-01   8.413604e-03
  3.765512e+00    5.072643e-01   8.304555e-03
  3.767723e+00    5.017238e-01   8.278257e-03
  3.769933e+00    5.151568e-01   8.407868e-03
  3.772144e+00    5.024697e-01   8.323243e-03
  3.774354e+00    5.064451e-01   8.375898e-03
  3.776565e+00    5.073274e-01   8.403150e-03
  3.778775e+00    5.249777e-01   8.568392e-03
  3.780986e+00    5.004384e-01   8.386004e-03
  3.783196e+00    4.827248e-01   8.256041e-03
  3.785407e+00    4.954228e-01   8.384162e-03
  3.787617e+00    5.412765e-01   8.785125e-03
  3.789827e+00    5.367410e-01   8.769536e-03
  3.792038e+00    5.002475e-01   8.486890e-03
  3.794248e+00    5.221444e-01   8.692262e-03
  3.796459e+00    5.271659e-01   8.755858e-03
  3.798669e+00    5.384082e-01   8.870915e-03
  3.800880e+00    5.095916e-01   8.651920e-03
  3.803090e+00    4.841743e-01   8.454842e-03
  3.805301e+00    4.950398e-01   8.571088e-03
  3.807511e+00    5.030476e-01   8.662265e-03
  3.809722e+00    5.180321e-01   8.812991e-03
  3.811932e+00    4.902056e-01   8.595001e-03
  3.814142e+00    5.164018e-01   8.844922e-03
  3.816353e+00    5.104582e-01   8.817030e-03
  3.818563e+00    4.978925e-01   8.730882e-03
  3.820774e+00    4.774047e-01   8.572026e-03
  3.822984e+00    5.008189e-01   8.803155e-03
  3.825195e+00    5.061017e-01   8.873384e-03
  3.827405e+00    5.058876e-01   8.895587e-03
  3.829616e+00    4.907297e-01   8.785261e-03
  3.831826e+00    4.931234e-01   8.830641e-03
  3.834037e+00    5.064158e-01   8.973622e-03
  3.836247e+00    4.973117e-01   8.917356e-03
  3.838457e+00    4.861765e-01   8.841674e-03
  3.840668e+00    5.157046e-01   9.131882e-03
  3.842878e+00    4.876893e-01   8.905709e-03
  3.845089e+00    4.892048e-01   8.944907e-03
  3.847299e+00    5.042653e-01   9.107589e-03
  3.849510e+00    4.848444e-01   8.956148e-03
  3.851720e+00    4.720555e-01   8.858043e-03
  3.853931e+00    4.879147e-01   9.024505e-03
  3.856141e+00    4.907582e-01   9.069706e-03
  3.858352e+00    4.903712e-01   9.085267e-03
  3.860562e+00    5.113312e-01   9.297082e-03
  3.862772e+00    5.305114e-01   9.490069e-03
  3.864983e+00    5.477405e-01   9.663736e-03
  3.867193e+00    5.027316e-01   9.278200e-03
  3.869404e+00    4.941285e-01   9.218186e-03
  3.871614e+00    5.143965e-01   9.425809e-03
  3.873825e+00    4.865212e-01   9.187016e-03
  3.876035e+00    4.968476e-01   9.304621e-03
  3.878246e+00    4.955093e-01   9.317984e-03
  3.880456e+00    4.784653e-01   9.184862e-03
  3.882667e+00    4.955909e-01   9.377233e-03
  3.884877e+00    5.009485e-01   9.457863e-03
  3.887087e+00    5.210019e-01   9.676011e-03
  3.889298e+00    4.936599e-01   9.449290e-03
  3.891508e+00    4.850497e-01   9.396752e-03
  3.893719e+00    5.269002e-01   9.825854e-03
  3.895929e+00    4.928803e-01   9.534992e-03
  3.898140e+00    4.818961e-01   9.459468e-03
  3.900350e+00    5.137182e-01   9.799631e-03
  3.902561e+00    5.127861e-01   9.823903e-03
  3.904771e+00    5.337681e-01   1.005711e-02
  3.906982e+00    4.897681e-01   9.666939e-03
  3.909192e+00    5.079681e-01   9.878878e-03
  3.911403e+00    5.160013e-01   9.991759e-03
  3.913613e+00    5.008349e-01   9.878404e-03
  3.915823e+00    5.105005e-01   1.000894e-02
  3.918034e+00    4.908415e-01   9.849640e-03
  3.920244e+00    4.978829e-01   9.956082e-03
  3.922455e+00    4.946553e-01   9.960192e-03
  3.924665e+00    4.684642e-01   9.728529e-03
  3.926876e+00    4.893970e-01   9.980632e-03
  3.929086e+00    4.782379e-01   9.903255e-03
  3.931297e+00    4.692692e-01   9.844085e-03
  3.933507e+00    4.756807e-01   9.939691e-03
  3.935718e+00    4.742901e-01   9.953514e-03
  3.937928e+00    4.944666e-01   1.019265e-02
  3.940138e+00    5.117982e-01   1.039977e-02
  3.942349e+00    5.261700e-01   1.057592e-02
  3.944559e+00    4.819394e-01   1.015153e-02
  3.946770e+00    4.713147e-01   1.006852e-02
  3.948980e+00    4.968868e-01   1.036921e-02
  3.951191e+00    4.888031e-01   1.031548e-02
  3.953401e+00    4.922551e-01   1.038326e-02
  3.955612e+00    5.216087e-01   1.072123e-02
  3.957822e+00    5.031670e-01   1.056221e-02
  3.960033e+00    4.989079e-01   1.055050e-02
  3.962243e+00    5.237380e-01   1.084393e-02
  3.964453e+00    4.919955e-01   1.054352e-02
  3.966664e+00    4.965847e-01   1.062635e-02
  3.968874e+00    4.824190e-01   1.050197e-02
  3.971085e+00    5.111020e-01   1.083214e-02
  3.973295e+00    4.989226e-01   1.072410e-02
  3.975506e+00    5.081483e-01   1.084493e-02
  3.977716e+00    5.108391e-01   1.089611e-02
  3.979927e+00    5.160481e-01   1.097441e-02
  3.982137e+00    4.720549e-01   1.051821e-02
  3.984348e+00    4.634154e-01   1.044347e-02
  3.986558e+00    4.632521e-01   1.046344e-02
  3.988768e+00    4.824163e-01   1.070064e-02
  3.990979e+00    5.262139e-01   1.119950e-02
  3.993189e+00    4.756766e-01   1.067106e-02
  3.995400e+00    5.225276e-01   1.120856e-02
  3.997610e+00    4.773446e-01   1.074272e-02
  3.999821e+00    4.984969e-01   1.101611e-02
  4.002031e+00    4.710318e-01   1.074621e-02
  4.004242e+00    5.098085e-01   1.121916e-02
  4.006452e+00    4.899100e-01   1.103777e-02
  4.008663e+00    4.742667e-01   1.089960e-02
  4.010873e+00    4.493357e-01   1.064780e-02
  4.013084e+00    4.731065e-01   1.096612e-02
  4.015294e+00    5.267258e-01   1.161377e-02
  4.017504e+00    4.963845e-01   1.131655e-02
  4.019715e+00    5.241321e-01   1.167296e-02
  4.021925e+00    5.241795e-01   1.171798e-02
  4.024136e+00    5.037570e-01   1.153226e-02
  4.026346e+00    4.879554e-01   1.139410e-02
  4.028557e+00    4.795117e-01   1.133925e-02
  4.030767e+00    4.704743e-01   1.127685e-02
  4.032978e+00    4.858780e-01   1.150648e-02
  4.035188e+00    4.789506e-01   1.147001e-02
  4.037399e+00    4.883778e-01   1.163014e-02
  4.039609e+00    4.734580e-01   1.149843e-02
  4.041819e+00    4.835502e-01   1.166903e-02
  4.044030e+00    4.815178e-01   1.169438e-02
  4.046240e+00    4.598977e-01   1.147745e-02
  4.048451e+00    4.878971e-01   1.187278e-02
  4.050661e+00    4.882563e-01   1.192895e-02
  4.052872e+00    5.196663e-01   1.236137e-02
  4.055082e+00    5.279331e-01   1.251527e-02
  4.057293e+00    4.781695e-01   1.196439e-02
  4.059503e+00    4.926470e-01   1.219933e-02
  4.061714e+00    4.549654e-01   1.177840e-02
  4.063924e+00    4.426972e-01   1.167287e-02
  4.066134e+00    4.930951e-01   1.237737e-02
  4.068345e+00    4.402901e-01   1.175246e-02
  4.070555e+00    4.878772e-01   1.243053e-02
  4.072766e+00    4.935615e-01   1.256467e-02
  4.074976e+00    4.800116e-01   1.245251e-02
  4.077187e+00    5.142645e-01   1.295349e-02
  4.079397e+00    4.582090e-01   1.228947e-02
  4.081608e+00    5.127091e-01   1.306741e-02
  4.083818e+00    4.998955e-01   1.297015e-02
  4.086029e+00    4.847184e-01   1.283926e-02
  4.088239e+00    4.613289e-01   1.259299e-02
  4.090449e+00    4.848063e-01   1.297944e-02
  4.092660e+00    4.587339e-01   1.269498e-02
  4.094870e+00    4.960867e-01   1.327534e-02
  4.097081e+00    4.494615e-01   1.270526e-02
  4.099291e+00    4.673142e-01   1.300866e-02
  4.101502e+00    4.964863e-01   1.345864e-02
  4.103712e+00    4.911350e-01   1.343566e-02
  4.105923e+00    5.314101e-01   1.403000e-02
  4.108133e+00    5.195324e-01   1.392556e-02
  4.110344e+00    5.309935e-01   1.413241e-02
  4.112554e+00    5.047296e-01   1.383281e-02
  4.114764e+00    5.206616e-01   1.410586e-02
  4.116975e+00    5.036341e-01   1.392810e-02
  4.119185e+00    4.685880e-01   1.348929e-02
  4.121396e+00    4.731793e-01   1.361115e-02
  4.123606e+00    4.696588e-01   1.361610e-02
  4.125817e+00    4.830438e-01   1.386641e-02
  4.128027e+00    5.456070e-01   1.479941e-02
  4.130238e+00    5.021252e-01   1.425829e-02
  4.132448e+00    4.675429e-01   1.381811e-02
  4.134659e+00    4.921699e-01   1.423832e-02
  4.136869e+00    4.954493e-01   1.434969e-02
  4.139080e+00    4.676640e-01   1.400407e-02
  4.141290e+00    5.039601e-01   1.460185e-02
  4.143500e+00    4.952335e-01   1.454168e-02
  4.145711e+00    4.597190e-01   1.407601e-02
  4.147921e+00    4.758695e-01   1.438667e-02
  4.150132e+00    5.448134e-01   1.546725e-02
  4.152342e+00    4.906584e-01   1.474936e-02
  4.154553e+00    5.018921e-01   1.498856e-02
  4.156763e+00    4.903957e-01   1.488882e-02
  4.158974e+00    5.342316e-01   1.561817e-02
  4.161184e+00    5.057538e-01   1.527181e-02
  4.163395e+00    5.258902e-01   1.565215e-02
  4.165605e+00    5.126054e-01   1.553365e-02
  4.167815e+00    5.011359e-01   1.543914e-02
  4.170026e+00    4.760422e-01   1.512675e-02
  4.172236e+00    4.723132e-01   1.514895e-02
  4.174447e+00    4.853834e-01   1.544060e-02
  4.176657e+00    4.564195e-01   1.505449e-02
  4.178868e+00    5.498617e-01   1.661755e-02
  4.181078e+00    5.002768e-01   1.593994e-02
  4.183289e+00    4.934116e-01   1.592079e-02
  4.185499e+00    4.149553e-01   1.468663e-02
  4.187710e+00    4.366226e-01   1.515308e-02
  4.189920e+00    4.331270e-01   1.518312e-02
  4.192130e+00    5.187864e-01   1.671847e-02
  4.194341e+00    5.182848e-01   1.681296e-02
  4.196551e+00    5.356911e-01   1.720110e-02
  4.198762e+00    4.376450e-01   1.564646e-02
  4.200972e+00    4.846476e-01   1.657167e-02
  4.203183e+00    4.624460e-01   1.629414e-02
  4.205393e+00    4.598551e-01   1.635672e-02
  4.207604e+00    4.942272e-01   1.707269e-02
  4.209814e+00    4.826784e-01   1.698782e-02
  4.212025e+00    4.890786e-01   1.722102e-02
  4.214235e+00    4.954900e-01   1.745664e-02
  4.216445e+00    4.871676e-01   1.743440e-02
  4.218656e+00    4.630145e-01   1.712426e-02
  4.220866e+00    5.298975e-01   1.845489e-02
  4.223077e+00    5.244918e-01   1.850176e-02
  4.225287e+00    4.981426e-01   1.817315e-02
  4.227498e+00    5.133423e-01   1.859234e-02
  4.229708e+00    5.283013e-01   1.901537e-02
  4.231919e+00    4.811644e-01   1.829687e-02
  4.234129e+00    5.682969e-01   2.005162e-02
  4.236340e+00    5.005112e-01   1.897921e-02
  4.238550e+00    4.754732e-01   1.866123e-02
  4.240761e+00    4.930360e-01   1.917060e-02
  4.242971e+00    4.478025e-01   1.843775e-02
  4.245181e+00    4.644132e-01   1.895265e-02
  4.247392e+00    4.212625e-01   1.821962e-02
  4.249602e+00    5.166851e-01   2.037824e-02
  4.251813e+00    4.304708e-01   1.878401e-02
  4.254023e+00    4.643537e-01   1.970559e-02
  4.256234e+00    4.938331e-01   2.053849e-02
  4.258444e+00    4.880575e-01   2.063182e-02
  4.260655e+00    5.188252e-01   2.150616e-02
  4.262865e+00    5.168525e-01   2.170850e-02
  4.265076e+00    3.989205e-01   1.928924e-02
  4.267286e+00    4.831271e-01   2.147850e-02
  4.269496e+00    5.111923e-01   2.236398e-02
  4.271707e+00    5.093248e-01   2.259820e-02
  4.273917e+00    4.174301e-01   2.072314e-02
  4.276128e+00    4.577228e-01   2.198859e-02
  4.278338e+00    3.825563e-01   2.037047e-02
  4.280549e+00    3.994884e-01   2.111507e-02
  4.282759e+00    4.105007e-01   2.171142e-02
  4.284970e+00    4.554164e-01   2.320693e-02
  4.287180e+00    5.370455e-01   2.550300e-02
  4.289391e+00    4.722259e-01   2.409395e-02
  4.291601e+00    4.395804e-01   2.343249e-02
  4.293811e+00    4.200299e-01   2.308372e-02
  4.296022e+00    5.199604e-01   2.588991e-02
  4.298232e+00    5.256589e-01   2.625016e-02
  4.300443e+00    4.964280e-01   2.571955e-02
  4.302653e+00    5.662379e-01   2.770691e-02
  4.304864e+00    4.867472e-01   2.591085e-02
  4.307074e+00    4.973936e-01   2.642793e-02
  4.309285e+00    4.238749e-01   2.461871e-02
  4.311495e+00    5.384805e-01   2.800716e-02
  4.313706e+00    4.171216e-01   2.488182e-02
  4.315916e+00    3.841901e-01   2.411440e-02
  4.318126e+00    3.797815e-01   2.421261e-02
  4.320337e+00    4.560308e-01   2.680028e-02
  4.322547e+00    4.358986e-01   2.647994e-02
  4.324758e+00    4.975559e-01   2.858535e-02
  4.326968e+00    5.660585e-01   3.083261e-02
  4.329179e+00    5.951831e-01   3.196530e-02
  4.331389e+00    4.816722e-01   2.908665e-02
  4.333600e+00    5.334705e-01   3.097704e-02
  4.335810e+00    3.604922e-01   2.576652e-02
  4.338021e+00    4.435742e-01   2.894815e-02
  4.340231e+00    4.482831e-01   2.946624e-02
  4.342442e+00    4.132364e-01   2.867105e-02
  4.344652e+00    3.553142e-01   2.694612e-02
  4.346862e+00    3.923678e-01   2.871407e-02
  4.349073e+00    4.749546e-01   3.205013e-02
  4.351283e+00    4.388078e-01   3.126786e-02
  4.353494e+00    3.526969e-01   2.846382e-02
  4.355704e+00    3.774398e-01   2.992216e-02
  4.357915e+00    4.513239e-01   3.326175e-02
  4.360125e+00    4.931864e-01   3.536474e-02
  4.362336e+00    5.255871e-01   3.717369e-02
  4.364546e+00    4.260531e-01   3.407863e-02
  4.366757e+00    4.493087e-01   3.569208e-02
  4.368967e+00    3.897872e-01   3.390811e-02
  4.371177e+00    4.312211e-01   3.642115e-02
  4.373388e+00    4.740610e-01   3.904243e-02
  4.375598e+00    4.601553e-01   3.934358e-02
  4.377809e+00    5.231676e-01   4.300977e-02
  4.380019e+00    4.575923e-01   4.124041e-02
  4.382230e+00    3.180600e-01   3.533889e-02
  4.384440e+00    4.460997e-01   4.305583e-02
  4.386651e+00    5.306764e-01   4.841119e-02
  4.388861e+00    3.427827e-01   4.021132e-02
  4.391072e+00    6.246008e-01   5.618918e-02
  4.393282e+00    4.475914e-01   4.940488e-02
  4.395492e+00    7.429095e-01   6.629371e-02
  4.397703e+00    5.866621e-01   6.160567e-02
  4.399913e+00    4.315920e-01   5.551432e-02
  4.402124e+00    3.439770e-01   5.237319e-02
  4.404334e+00    5.024909e-01   6.727844e-02
  4.406545e+00    3.721568e-01   6.220957e-02
  4.408755e+00    4.304981e-01   7.256684e-02
  4.410966e+00    6.658344e-01   9.988382e-02
  4.413176e+00    3.723869e-01   8.455355e-02
  4.415387e+00   -4.748849e-01            nan
  4.417597e+00   -1.967734e+00            nan
  4.419807e+00    1.431295e-01   1.358686e-01
