# == pyFAI calibration ==
# Distance Sample to Detector: 0.216 m
# PONI: 1.166e-01, 1.308e-01 m
# Rotations: 0.000000 0.000000 0.000000 rad
# 
# == Fit2d calibration ==
# Distance Sample-beamCenter: 216.000 mm
# Center: x=1744.293, y=1555.000 pix
# Tilt: 0.000 deg  TiltPlanRot: 0.000 deg
# 
# Detector Eiger 9M	 PixelSize= 7.500e-05, 7.500e-05 m
#    Detector has a mask: True 
#    Detector has a dark current: False 
#    detector has a flat field: False 
# 
# Wavelength: 9.8e-11 m
# Mask applied: from detector
# Dark current applied: False
# Flat field applied: False
# Polarization factor: None
# Normalization factor: 1.0
# 
# Headers of the input frame:
# {
# "_array_data.header_convention": "SLS_1.0",
# "_array_data.header_contents": "# Detector: Dectris Eiger 9M, S/N E-18-0102\r\n# Pixel_size 75e-6 m x 75e-6 m\r\n# Silicon sensor, thickness 0.000450 m\r\n# Exposure_time 0.024997 s\r\n# Exposure_period 0.025000 s\r\n# Count_cutoff 62318 counts\r\n# Wavelength 0.980106 A\r\n# Detector_distance 0.215992 m\r\n# Beam_xy (1555, 1744) pixels\r\n# Start_angle 0.000000 deg.\r\n# Angle_increment 0.000000 deg.",
# "Content-Type": "application/octet-stream;",
# "conversions": "x-CBF_BYTE_OFFSET",
# "Content-Transfer-Encoding": "BINARY",
# "X-Binary-Size": "10166624",
# "X-Binary-ID": "1",
# "X-Binary-Element-Type": "signed 32-bit integer",
# "X-Binary-Element-Byte-Order": "LITTLE_ENDIAN",
# "Content-MD5": "SeUeonBJrQxxhErmZt9zqg==",
# "X-Binary-Number-of-Elements": "10166590",
# "X-Binary-Size-Fastest-Dimension": "3110",
# "X-Binary-Size-Second-Dimension": "3269",
# "X-Binary-Size-Padding": "4095"
# }
# --> H:/Proxima2a_2019-04-05/RAW_DATA/C5_gel17_position5/C5_mesh_1_data.cbf/C5_mesh_1_data.cbf000108.dat
#        q_A^-1              I           sigma 
  1.105228e-03    8.644325e-01   5.030979e-01
  3.315685e-03    1.294069e+00   3.742175e-01
  5.526141e-03    1.712413e+00   3.328714e-01
  7.736597e-03    1.281668e+00   2.432809e-01
  9.947054e-03    1.178589e+00   2.056637e-01
  1.215751e-02    1.426895e+00   2.046278e-01
  1.436797e-02    1.529898e+00   1.948979e-01
  1.657842e-02    1.502077e+00   1.797589e-01
  1.878888e-02    1.438930e+00   1.652659e-01
  2.099934e-02    1.517173e+00   1.605534e-01
  2.320979e-02    1.469884e+00   1.503053e-01
  2.542025e-02    1.398215e+00   1.400865e-01
  2.763070e-02    1.423928e+00   1.355921e-01
  2.984116e-02    1.366654e+00   1.278221e-01
  3.205162e-02    1.301590e+00   1.203714e-01
  3.426207e-02    1.494988e+00   1.247653e-01
  3.647253e-02    1.542550e+00   1.228314e-01
  3.868299e-02    1.477298e+00   1.167292e-01
  4.089344e-02    1.243285e+00   1.041516e-01
  4.310390e-02    1.352977e+00   1.058203e-01
  4.531436e-02    1.377683e+00   1.041455e-01
  4.752481e-02    1.285859e+00   9.824618e-02
  4.973527e-02    1.358595e+00   9.871810e-02
  5.194572e-02    1.422724e+00   9.884696e-02
  5.415618e-02    1.320748e+00   9.327148e-02
  5.636664e-02    1.304226e+00   9.085349e-02
  5.857709e-02    1.394160e+00   9.214481e-02
  6.078755e-02    1.426236e+00   9.148567e-02
  6.299801e-02    1.439535e+00   9.028332e-02
  6.520846e-02    1.449528e+00   8.904795e-02
  6.741892e-02    1.469875e+00   8.818405e-02
  6.962938e-02    1.436890e+00   8.579820e-02
  7.183983e-02    1.503812e+00   8.641096e-02
  7.405029e-02    1.500930e+00   8.502791e-02
  7.626074e-02    1.594813e+00   8.636647e-02
  7.847120e-02    1.524287e+00   8.323526e-02
  8.068166e-02    1.465671e+00   8.049271e-02
  8.289211e-02    1.468852e+00   7.949790e-02
  8.510257e-02    1.562341e+00   8.091655e-02
  8.731303e-02    1.597312e+00   8.077177e-02
  8.952348e-02    1.479728e+00   7.677832e-02
  9.173394e-02    1.487275e+00   7.603779e-02
  9.394439e-02    1.491859e+00   7.525116e-02
  9.615485e-02    1.426477e+00   7.273144e-02
  9.836531e-02    1.413878e+00   7.158934e-02
  1.005758e-01    1.446590e+00   7.161304e-02
  1.027862e-01    1.534407e+00   7.295551e-02
  1.049967e-01    1.454452e+00   7.027643e-02
  1.072071e-01    1.561469e+00   7.206053e-02
  1.094176e-01    1.600781e+00   7.222013e-02
  1.116280e-01    1.571626e+00   7.084584e-02
  1.138385e-01    1.478190e+00   6.803595e-02
  1.160490e-01    1.476762e+00   6.735150e-02
  1.182594e-01    1.505221e+00   6.735743e-02
  1.204699e-01    1.506710e+00   6.676909e-02
  1.226803e-01    1.521305e+00   6.648178e-02
  1.248908e-01    1.462749e+00   6.460951e-02
  1.271012e-01    1.647249e+00   6.796305e-02
  1.293117e-01    1.634641e+00   6.712048e-02
  1.315222e-01    1.597142e+00   6.578472e-02
  1.337326e-01    1.556893e+00   6.441025e-02
  1.359431e-01    1.628614e+00   6.591571e-02
  1.381535e-01    1.566679e+00   6.551798e-02
  1.403640e-01    1.529256e+00   6.501025e-02
  1.425744e-01    1.525307e+00   6.502996e-02
  1.447849e-01    1.564839e+00   6.588244e-02
  1.469953e-01    1.635294e+00   6.730709e-02
  1.492058e-01    1.578863e+00   6.605871e-02
  1.514163e-01    1.567840e+00   6.571841e-02
  1.536267e-01    1.582620e+00   6.589850e-02
  1.558372e-01    1.623934e+00   6.660575e-02
  1.580476e-01    1.665214e+00   6.728332e-02
  1.602581e-01    1.611926e+00   6.602989e-02
  1.624685e-01    1.654034e+00   6.670362e-02
  1.646790e-01    1.702157e+00   6.747273e-02
  1.668895e-01    1.728372e+00   6.779394e-02
  1.690999e-01    1.842029e+00   6.977734e-02
  1.713104e-01    1.874190e+00   7.016545e-02
  1.735208e-01    1.767904e+00   6.793495e-02
  1.757313e-01    1.720986e+00   6.681734e-02
  1.779417e-01    1.764254e+00   6.743143e-02
  1.801522e-01    1.792996e+00   6.776197e-02
  1.823626e-01    1.900303e+00   6.952800e-02
  1.845731e-01    1.823263e+00   6.788344e-02
  1.867836e-01    1.881092e+00   6.871887e-02
  1.889940e-01    1.928519e+00   6.935242e-02
  1.912045e-01    1.790558e+00   6.660258e-02
  1.934149e-01    1.942418e+00   6.913726e-02
  1.956254e-01    1.974794e+00   6.948116e-02
  1.978358e-01    1.939367e+00   6.861915e-02
  2.000463e-01    1.993896e+00   6.934655e-02
  2.022568e-01    2.034866e+00   6.982546e-02
  2.044672e-01    1.957532e+00   6.825118e-02
  2.066777e-01    1.903720e+00   6.708314e-02
  2.088881e-01    1.863041e+00   6.614541e-02
  2.110986e-01    1.944493e+00   6.734413e-02
  2.133090e-01    1.959220e+00   6.737895e-02
  2.155195e-01    1.967151e+00   6.729123e-02
  2.177300e-01    1.841505e+00   6.459527e-02
  2.199404e-01    1.911986e+00   6.408545e-02
  2.221509e-01    1.986010e+00   6.424175e-02
  2.243613e-01    2.020447e+00   6.397487e-02
  2.265718e-01    2.034979e+00   6.349689e-02
  2.287822e-01    1.989188e+00   6.215703e-02
  2.309927e-01    2.026829e+00   6.217080e-02
  2.332031e-01    2.092295e+00   6.262624e-02
  2.354136e-01    2.063691e+00   6.169258e-02
  2.376241e-01    2.089566e+00   6.159629e-02
  2.398345e-01    2.127467e+00   6.169242e-02
  2.420450e-01    2.163186e+00   6.176358e-02
  2.442554e-01    2.170380e+00   6.143999e-02
  2.464659e-01    2.176301e+00   6.111069e-02
  2.486763e-01    2.100987e+00   5.964928e-02
  2.508868e-01    2.120290e+00   5.954466e-02
  2.530973e-01    2.084458e+00   5.867332e-02
  2.553077e-01    2.161768e+00   5.938906e-02
  2.575182e-01    2.075145e+00   5.784277e-02
  2.597286e-01    2.020287e+00   5.674129e-02
  2.619391e-01    2.065008e+00   5.703562e-02
  2.641495e-01    2.002334e+00   5.585257e-02
  2.663600e-01    2.037369e+00   5.602925e-02
  2.685704e-01    2.091980e+00   5.646746e-02
  2.707809e-01    2.040631e+00   5.547412e-02
  2.729914e-01    1.931201e+00   5.368496e-02
  2.752018e-01    1.961731e+00   5.382601e-02
  2.774123e-01    2.066710e+00   5.496525e-02
  2.796227e-01    2.018475e+00   5.405136e-02
  2.818332e-01    2.003633e+00   5.358361e-02
  2.840436e-01    1.952877e+00   5.264415e-02
  2.862541e-01    1.989413e+00   5.287890e-02
  2.884646e-01    2.016254e+00   5.298178e-02
  2.906750e-01    1.971700e+00   5.214472e-02
  2.928855e-01    1.941556e+00   5.150481e-02
  2.950959e-01    1.957558e+00   5.147906e-02
  2.973064e-01    1.894534e+00   5.041599e-02
  2.995168e-01    1.900572e+00   5.026755e-02
  3.017273e-01    1.950285e+00   5.069623e-02
  3.039377e-01    1.924026e+00   5.013330e-02
  3.061482e-01    1.880298e+00   4.934593e-02
  3.083587e-01    1.933938e+00   4.982822e-02
  3.105691e-01    1.902652e+00   4.921242e-02
  3.127796e-01    1.941340e+00   4.950125e-02
  3.149900e-01    1.942456e+00   4.930917e-02
  3.172005e-01    1.831782e+00   4.768804e-02
  3.194109e-01    1.892282e+00   4.826906e-02
  3.216214e-01    1.913663e+00   4.834294e-02
  3.238319e-01    1.895012e+00   4.791620e-02
  3.260423e-01    1.856149e+00   4.723341e-02
  3.282528e-01    1.834063e+00   4.676466e-02
  3.304632e-01    1.863277e+00   4.695302e-02
  3.326737e-01    1.841730e+00   4.649861e-02
  3.348841e-01    1.856282e+00   4.650094e-02
  3.370946e-01    1.846427e+00   4.620283e-02
  3.393050e-01    1.854903e+00   4.613336e-02
  3.415155e-01    1.804715e+00   4.533386e-02
  3.437260e-01    1.807455e+00   4.520011e-02
  3.459364e-01    1.814369e+00   4.511896e-02
  3.481469e-01    1.782083e+00   4.455249e-02
  3.503573e-01    1.755837e+00   4.406210e-02
  3.525678e-01    1.825202e+00   4.476391e-02
  3.547782e-01    1.857918e+00   4.500008e-02
  3.569887e-01    1.803796e+00   4.418271e-02
  3.591992e-01    1.839339e+00   4.445801e-02
  3.614096e-01    1.820043e+00   4.407087e-02
  3.636201e-01    1.839391e+00   4.414878e-02
  3.658305e-01    1.820506e+00   4.377178e-02
  3.680410e-01    1.779003e+00   4.312111e-02
  3.702514e-01    1.793228e+00   4.314759e-02
  3.724619e-01    1.802257e+00   4.310877e-02
  3.746724e-01    1.773881e+00   4.262537e-02
  3.768828e-01    1.758980e+00   4.230311e-02
  3.790933e-01    1.783650e+00   4.245993e-02
  3.813037e-01    1.788819e+00   4.238229e-02
  3.835142e-01    1.802408e+00   4.240324e-02
  3.857246e-01    1.759651e+00   4.176167e-02
  3.879351e-01    1.761025e+00   4.164276e-02
  3.901455e-01    1.755891e+00   4.144963e-02
  3.923560e-01    1.764685e+00   4.142122e-02
  3.945665e-01    1.765145e+00   4.129526e-02
  3.967769e-01    1.754998e+00   4.104743e-02
  3.989874e-01    1.790371e+00   4.132957e-02
  4.011978e-01    1.820061e+00   4.154272e-02
  4.034083e-01    1.784709e+00   4.101099e-02
  4.056187e-01    1.753470e+00   4.052527e-02
  4.078292e-01    1.767249e+00   4.056105e-02
  4.100397e-01    1.849127e+00   4.136335e-02
  4.122501e-01    1.757250e+00   4.020204e-02
  4.144606e-01    1.731779e+00   3.979125e-02
  4.166710e-01    1.792603e+00   4.036361e-02
  4.188815e-01    1.872340e+00   4.112970e-02
  4.210919e-01    1.843907e+00   4.069662e-02
  4.233024e-01    1.776484e+00   3.982814e-02
  4.255128e-01    1.781722e+00   3.977151e-02
  4.277233e-01    1.797499e+00   3.983244e-02
  4.299338e-01    1.789730e+00   3.963191e-02
  4.321442e-01    1.789375e+00   3.951456e-02
  4.343547e-01    1.804643e+00   3.957060e-02
  4.365651e-01    1.785923e+00   3.925298e-02
  4.387756e-01    1.760654e+00   3.886517e-02
  4.409860e-01    1.742733e+00   3.855973e-02
  4.431965e-01    1.727727e+00   3.828720e-02
  4.454070e-01    1.724952e+00   3.815001e-02
  4.476174e-01    1.715476e+00   3.794061e-02
  4.498279e-01    1.692504e+00   3.758320e-02
  4.520383e-01    1.690676e+00   3.745979e-02
  4.542488e-01    1.673582e+00   3.716945e-02
  4.564592e-01    1.693697e+00   3.729184e-02
  4.586697e-01    1.711406e+00   3.738680e-02
  4.608801e-01    1.758621e+00   3.779748e-02
  4.630906e-01    1.736856e+00   3.746342e-02
  4.653011e-01    1.701088e+00   3.697816e-02
  4.675115e-01    1.726195e+00   3.715193e-02
  4.697220e-01    1.733772e+00   3.713590e-02
  4.719324e-01    1.736584e+00   3.706987e-02
  4.741429e-01    1.744080e+00   3.705406e-02
  4.763533e-01    1.715622e+00   3.665632e-02
  4.785638e-01    1.679743e+00   3.617729e-02
  4.807743e-01    1.743455e+00   3.676324e-02
  4.829847e-01    1.714531e+00   3.636495e-02
  4.851952e-01    1.650444e+00   3.558854e-02
  4.874056e-01    1.704708e+00   3.607764e-02
  4.896161e-01    1.728407e+00   3.623749e-02
  4.918265e-01    1.684608e+00   3.568655e-02
  4.940370e-01    1.711341e+00   3.587978e-02
  4.962475e-01    1.749406e+00   3.618705e-02
  4.984579e-01    1.647162e+00   3.502712e-02
  5.006684e-01    1.664535e+00   3.512548e-02
  5.028788e-01    1.708063e+00   3.549557e-02
  5.050893e-01    1.715304e+00   3.548424e-02
  5.072997e-01    1.644190e+00   3.465698e-02
  5.095102e-01    1.649065e+00   3.462518e-02
  5.117206e-01    1.693147e+00   3.500149e-02
  5.139311e-01    1.721293e+00   3.520771e-02
  5.161416e-01    1.693107e+00   3.483575e-02
  5.183520e-01    1.680608e+00   3.462442e-02
  5.205625e-01    1.655366e+00   3.428293e-02
  5.227729e-01    1.632330e+00   3.396415e-02
  5.249834e-01    1.647179e+00   3.403906e-02
  5.271938e-01    1.695183e+00   3.445095e-02
  5.294043e-01    1.688904e+00   3.430773e-02
  5.316148e-01    1.709563e+00   3.443786e-02
  5.338252e-01    1.756194e+00   3.482461e-02
  5.360357e-01    1.726916e+00   3.445449e-02
  5.382461e-01    1.712650e+00   3.423431e-02
  5.404566e-01    1.745719e+00   3.448457e-02
  5.426670e-01    1.770076e+00   3.464608e-02
  5.448775e-01    1.758774e+00   3.445814e-02
  5.470879e-01    1.755172e+00   3.434608e-02
  5.492984e-01    1.772516e+00   3.443859e-02
  5.515089e-01    1.775511e+00   3.439125e-02
  5.537193e-01    1.751742e+00   3.408500e-02
  5.559298e-01    1.747914e+00   3.397307e-02
  5.581402e-01    1.739030e+00   3.381257e-02
  5.603507e-01    1.781393e+00   3.414745e-02
  5.625611e-01    1.781553e+00   3.407488e-02
  5.647716e-01    1.800641e+00   3.418256e-02
  5.669821e-01    1.791735e+00   3.402442e-02
  5.691925e-01    1.792043e+00   3.395430e-02
  5.714030e-01    1.771150e+00   3.368382e-02
  5.736134e-01    1.774805e+00   3.364683e-02
  5.758239e-01    1.757940e+00   3.341512e-02
  5.780343e-01    1.709347e+00   3.288036e-02
  5.802448e-01    1.691031e+00   3.263525e-02
  5.824552e-01    1.643775e+00   3.210852e-02
  5.846657e-01    1.608244e+00   3.169339e-02
  5.868762e-01    1.629705e+00   3.183774e-02
  5.890866e-01    1.633352e+00   3.180720e-02
  5.912971e-01    1.633909e+00   3.174677e-02
  5.935075e-01    1.623482e+00   3.157991e-02
  5.957180e-01    1.619306e+00   3.147454e-02
  5.979284e-01    1.672458e+00   3.192165e-02
  6.001389e-01    1.631036e+00   3.145967e-02
  6.023494e-01    1.634113e+00   3.142541e-02
  6.045598e-01    1.610792e+00   3.113682e-02
  6.067703e-01    1.636974e+00   3.132573e-02
  6.089807e-01    1.663035e+00   3.151062e-02
  6.111912e-01    1.643820e+00   3.126552e-02
  6.134016e-01    1.637206e+00   3.114029e-02
  6.156121e-01    1.698183e+00   3.165185e-02
  6.178226e-01    1.675219e+00   3.137489e-02
  6.200330e-01    1.695335e+00   3.150043e-02
  6.222435e-01    1.706766e+00   3.154385e-02
  6.244539e-01    1.698683e+00   3.140745e-02
  6.266644e-01    1.711080e+00   3.146036e-02
  6.288748e-01    1.725885e+00   3.153466e-02
  6.310853e-01    1.715666e+00   3.138014e-02
  6.332957e-01    1.706948e+00   3.123988e-02
  6.355062e-01    1.672046e+00   3.085878e-02
  6.377167e-01    1.657084e+00   3.066145e-02
  6.399271e-01    1.693440e+00   3.093658e-02
  6.421376e-01    1.710678e+00   3.103430e-02
  6.443480e-01    1.675279e+00   3.065310e-02
  6.465585e-01    1.677749e+00   3.061757e-02
  6.487689e-01    1.668322e+00   3.047379e-02
  6.509794e-01    1.653975e+00   3.028524e-02
  6.531899e-01    1.628660e+00   2.999608e-02
  6.554003e-01    1.608477e+00   2.975357e-02
  6.576108e-01    1.640608e+00   2.999334e-02
  6.598212e-01    1.605029e+00   2.961123e-02
  6.620317e-01    1.607909e+00   2.958283e-02
  6.642421e-01    1.630270e+00   2.973271e-02
  6.664526e-01    1.610647e+00   2.949878e-02
  6.686630e-01    1.601660e+00   2.936198e-02
  6.708735e-01    1.600792e+00   2.930018e-02
  6.730840e-01    1.603364e+00   2.927025e-02
  6.752944e-01    1.558346e+00   2.880394e-02
  6.775049e-01    1.589955e+00   2.904175e-02
  6.797153e-01    1.633598e+00   2.938435e-02
  6.819258e-01    1.581855e+00   2.886309e-02
  6.841362e-01    1.567342e+00   2.867872e-02
  6.863467e-01    1.573024e+00   2.867918e-02
  6.885572e-01    1.591185e+00   2.879259e-02
  6.907676e-01    1.589199e+00   2.872304e-02
  6.929781e-01    1.593811e+00   2.871357e-02
  6.951885e-01    1.620709e+00   2.890357e-02
  6.973990e-01    1.585485e+00   2.853721e-02
  6.996094e-01    1.564294e+00   2.829598e-02
  7.018199e-01    1.619498e+00   2.874041e-02
  7.040303e-01    1.569481e+00   2.824342e-02
  7.062408e-01    1.584414e+00   2.832775e-02
  7.084513e-01    1.592772e+00   2.835298e-02
  7.106617e-01    1.586171e+00   2.824499e-02
  7.128722e-01    1.581232e+00   2.815220e-02
  7.150826e-01    1.578700e+00   2.808113e-02
  7.172931e-01    1.646658e+00   2.862975e-02
  7.195035e-01    1.630196e+00   2.843731e-02
  7.217140e-01    1.593096e+00   2.816160e-02
  7.239245e-01    1.548496e+00   2.798945e-02
  7.261349e-01    1.543438e+00   2.805121e-02
  7.283454e-01    1.571060e+00   2.837346e-02
  7.305558e-01    1.543206e+00   2.817423e-02
  7.327663e-01    1.611545e+00   2.883430e-02
  7.349767e-01    1.576542e+00   2.853584e-02
  7.371872e-01    1.583989e+00   2.859192e-02
  7.393976e-01    1.612347e+00   2.883231e-02
  7.416081e-01    1.579249e+00   2.851866e-02
  7.438186e-01    1.584132e+00   2.841793e-02
  7.460290e-01    1.565541e+00   2.795731e-02
  7.482395e-01    1.565413e+00   2.778551e-02
  7.504499e-01    1.554147e+00   2.754995e-02
  7.526604e-01    1.573878e+00   2.760776e-02
  7.548708e-01    1.587920e+00   2.764086e-02
  7.570813e-01    1.570975e+00   2.744206e-02
  7.592918e-01    1.571740e+00   2.741360e-02
  7.615022e-01    1.582452e+00   2.747297e-02
  7.637127e-01    1.570057e+00   2.733244e-02
  7.659231e-01    1.551273e+00   2.713669e-02
  7.681336e-01    1.558788e+00   2.717089e-02
  7.703440e-01    1.573380e+00   2.726656e-02
  7.725545e-01    1.553513e+00   2.706318e-02
  7.747650e-01    1.571967e+00   2.718529e-02
  7.769754e-01    1.563305e+00   2.705779e-02
  7.791859e-01    1.546205e+00   2.685639e-02
  7.813963e-01    1.584689e+00   2.713588e-02
  7.836068e-01    1.617292e+00   2.736108e-02
  7.858172e-01    1.612502e+00   2.726945e-02
  7.880277e-01    1.616368e+00   2.725019e-02
  7.902381e-01    1.610458e+00   2.715089e-02
  7.924486e-01    1.662236e+00   2.753282e-02
  7.946591e-01    1.631732e+00   2.723026e-02
  7.968695e-01    1.598734e+00   2.690529e-02
  7.990800e-01    1.627710e+00   2.709948e-02
  8.012904e-01    1.640090e+00   2.715530e-02
  8.035009e-01    1.699289e+00   2.759185e-02
  8.057113e-01    1.724043e+00   2.774404e-02
  8.079218e-01    1.701385e+00   2.751358e-02
  8.101323e-01    1.640954e+00   2.697464e-02
  8.123427e-01    1.705852e+00   2.745596e-02
  8.145532e-01    1.732893e+00   2.762542e-02
  8.167636e-01    1.675179e+00   2.711581e-02
  8.189741e-01    1.664358e+00   2.698304e-02
  8.211845e-01    1.612915e+00   2.651823e-02
  8.233950e-01    1.650990e+00   2.678576e-02
  8.256054e-01    1.676113e+00   2.694408e-02
  8.278159e-01    1.664417e+00   2.680558e-02
  8.300264e-01    1.632591e+00   2.650506e-02
  8.322368e-01    1.636953e+00   2.649733e-02
  8.344473e-01    1.633371e+00   2.642502e-02
  8.366577e-01    1.648947e+00   2.650800e-02
  8.388682e-01    1.666079e+00   2.660277e-02
  8.410786e-01    1.652184e+00   2.644938e-02
  8.432891e-01    1.664492e+00   2.650554e-02
  8.454996e-01    1.633473e+00   2.621585e-02
  8.477100e-01    1.648342e+00   2.629311e-02
  8.499205e-01    1.614066e+00   2.597744e-02
  8.521309e-01    1.628651e+00   2.605384e-02
  8.543414e-01    1.600342e+00   2.578615e-02
  8.565518e-01    1.614142e+00   2.585675e-02
  8.587623e-01    1.625232e+00   2.590504e-02
  8.609727e-01    1.615124e+00   2.578430e-02
  8.631832e-01    1.645757e+00   2.598754e-02
  8.653937e-01    1.661241e+00   2.606940e-02
  8.676041e-01    1.601753e+00   2.555976e-02
  8.698146e-01    1.583757e+00   2.537689e-02
  8.720250e-01    1.647802e+00   2.584547e-02
  8.742355e-01    1.601484e+00   2.544086e-02
  8.764459e-01    1.574299e+00   2.518553e-02
  8.786564e-01    1.585338e+00   2.523598e-02
  8.808669e-01    1.607780e+00   2.537546e-02
  8.830773e-01    1.608234e+00   2.534083e-02
  8.852878e-01    1.577704e+00   2.506152e-02
  8.874982e-01    1.593706e+00   2.515172e-02
  8.897087e-01    1.618405e+00   2.530801e-02
  8.919191e-01    1.569558e+00   2.488578e-02
  8.941296e-01    1.554089e+00   2.472606e-02
  8.963401e-01    1.583455e+00   2.492237e-02
  8.985505e-01    1.561200e+00   2.471010e-02
  9.007610e-01    1.565160e+00   2.470507e-02
  9.029714e-01    1.582759e+00   2.480792e-02
  9.051819e-01    1.605146e+00   2.494549e-02
  9.073923e-01    1.552820e+00   2.449950e-02
  9.096028e-01    1.576403e+00   2.465016e-02
  9.118132e-01    1.581583e+00   2.465463e-02
  9.140237e-01    1.560838e+00   2.445622e-02
  9.162342e-01    1.592133e+00   2.466570e-02
  9.184446e-01    1.597125e+00   2.466861e-02
  9.206551e-01    1.618221e+00   2.479522e-02
  9.228655e-01    1.602657e+00   2.464041e-02
  9.250760e-01    1.624202e+00   2.476988e-02
  9.272864e-01    1.614347e+00   2.466025e-02
  9.294969e-01    1.591368e+00   2.444842e-02
  9.317074e-01    1.591294e+00   2.441330e-02
  9.339178e-01    1.596134e+00   2.441701e-02
  9.361283e-01    1.606192e+00   2.445772e-02
  9.383387e-01    1.613866e+00   2.448271e-02
  9.405492e-01    1.644468e+00   2.467924e-02
  9.427596e-01    1.619634e+00   2.445693e-02
  9.449701e-01    1.664600e+00   2.476040e-02
  9.471805e-01    1.661705e+00   2.470384e-02
  9.493910e-01    1.662645e+00   2.467689e-02
  9.516015e-01    1.692870e+00   2.486543e-02
  9.538119e-01    1.687416e+00   2.479132e-02
  9.560224e-01    1.724484e+00   2.502685e-02
  9.582328e-01    1.729598e+00   2.503034e-02
  9.604433e-01    1.695309e+00   2.474588e-02
  9.626537e-01    1.735402e+00   2.500310e-02
  9.648642e-01    1.767879e+00   2.520142e-02
  9.670747e-01    1.775325e+00   2.521962e-02
  9.692851e-01    1.768309e+00   2.513627e-02
  9.714956e-01    1.794773e+00   2.528796e-02
  9.737060e-01    1.797560e+00   2.527434e-02
  9.759165e-01    1.809866e+00   2.532495e-02
  9.781269e-01    1.808064e+00   2.527923e-02
  9.803374e-01    1.812325e+00   2.527399e-02
  9.825478e-01    1.821542e+00   2.530476e-02
  9.847583e-01    1.777242e+00   2.496122e-02
  9.869688e-01    1.801800e+00   2.509943e-02
  9.891792e-01    1.785493e+00   2.495241e-02
  9.913897e-01    1.753494e+00   2.469442e-02
  9.936001e-01    1.759796e+00   2.470636e-02
  9.958106e-01    1.806517e+00   2.499815e-02
  9.980210e-01    1.735474e+00   2.446994e-02
  1.000231e+00    1.647121e+00   2.396948e-02
  1.002442e+00    1.627849e+00   2.395545e-02
  1.004652e+00    1.596088e+00   2.378677e-02
  1.006863e+00    1.597186e+00   2.384433e-02
  1.009073e+00    1.575948e+00   2.372151e-02
  1.011284e+00    1.578816e+00   2.377483e-02
  1.013494e+00    1.549144e+00   2.357372e-02
  1.015705e+00    1.599767e+00   2.397842e-02
  1.017915e+00    1.574289e+00   2.380313e-02
  1.020126e+00    1.545542e+00   2.360074e-02
  1.022336e+00    1.531318e+00   2.350345e-02
  1.024547e+00    1.506433e+00   2.332276e-02
  1.026757e+00    1.515037e+00   2.339754e-02
  1.028967e+00    1.537670e+00   2.357932e-02
  1.031178e+00    1.492563e+00   2.323699e-02
  1.033388e+00    1.510006e+00   2.337738e-02
  1.035599e+00    1.550367e+00   2.369119e-02
  1.037809e+00    1.568272e+00   2.383093e-02
  1.040020e+00    1.578889e+00   2.391274e-02
  1.042230e+00    1.565774e+00   2.381521e-02
  1.044441e+00    1.535326e+00   2.358229e-02
  1.046651e+00    1.605372e+00   2.411436e-02
  1.048862e+00    1.652913e+00   2.446803e-02
  1.051072e+00    1.614812e+00   2.418195e-02
  1.053282e+00    1.592766e+00   2.401530e-02
  1.055493e+00    1.656805e+00   2.448877e-02
  1.057703e+00    1.853698e+00   2.590132e-02
  1.059914e+00    2.322331e+00   2.898570e-02
  1.062124e+00    2.428952e+00   2.963868e-02
  1.064335e+00    1.870010e+00   2.600209e-02
  1.066545e+00    1.528173e+00   2.349947e-02
  1.068756e+00    1.460218e+00   2.296730e-02
  1.070966e+00    1.481551e+00   2.312790e-02
  1.073177e+00    1.463289e+00   2.297890e-02
  1.075387e+00    1.469410e+00   2.302166e-02
  1.077597e+00    1.503113e+00   2.327684e-02
  1.079808e+00    1.603782e+00   2.390474e-02
  1.082018e+00    1.561410e+00   2.339157e-02
  1.084229e+00    1.508259e+00   2.287813e-02
  1.086439e+00    1.474765e+00   2.253466e-02
  1.088650e+00    1.466344e+00   2.239424e-02
  1.090860e+00    1.480860e+00   2.243657e-02
  1.093071e+00    1.484568e+00   2.240174e-02
  1.095281e+00    1.465553e+00   2.220018e-02
  1.097492e+00    1.423396e+00   2.182407e-02
  1.099702e+00    1.412363e+00   2.168841e-02
  1.101912e+00    1.430950e+00   2.178197e-02
  1.104123e+00    1.413587e+00   2.160157e-02
  1.106333e+00    1.390218e+00   2.137851e-02
  1.108544e+00    1.369983e+00   2.117904e-02
  1.110754e+00    1.380437e+00   2.121736e-02
  1.112965e+00    1.409494e+00   2.139914e-02
  1.115175e+00    1.408928e+00   2.135384e-02
  1.117386e+00    1.380152e+00   2.109588e-02
  1.119596e+00    1.384820e+00   2.109400e-02
  1.121807e+00    1.403804e+00   2.119936e-02
  1.124017e+00    1.439845e+00   2.143270e-02
  1.126228e+00    1.415766e+00   2.121685e-02
  1.128438e+00    1.409825e+00   2.113540e-02
  1.130648e+00    1.388449e+00   2.094037e-02
  1.132859e+00    1.386309e+00   2.088998e-02
  1.135069e+00    1.387948e+00   2.086766e-02
  1.137280e+00    1.386773e+00   2.082589e-02
  1.139490e+00    1.354739e+00   2.055126e-02
  1.141701e+00    1.359868e+00   2.055730e-02
  1.143911e+00    1.342392e+00   2.039339e-02
  1.146122e+00    1.383955e+00   2.067464e-02
  1.148332e+00    1.395351e+00   2.072754e-02
  1.150543e+00    1.346450e+00   2.033062e-02
  1.152753e+00    1.350726e+00   2.033231e-02
  1.154963e+00    1.348287e+00   2.028318e-02
  1.157174e+00    1.380069e+00   2.049061e-02
  1.159384e+00    1.371827e+00   2.039951e-02
  1.161595e+00    1.376650e+00   2.040538e-02
  1.163805e+00    1.450287e+00   2.091391e-02
  1.166016e+00    1.453666e+00   2.090794e-02
  1.168226e+00    1.429516e+00   2.070392e-02
  1.170437e+00    1.414583e+00   2.056636e-02
  1.172647e+00    1.438891e+00   2.071265e-02
  1.174858e+00    1.451753e+00   2.077603e-02
  1.177068e+00    1.523827e+00   2.125560e-02
  1.179278e+00    1.674823e+00   2.225214e-02
  1.181489e+00    1.762645e+00   2.279740e-02
  1.183699e+00    1.671947e+00   2.217258e-02
  1.185910e+00    1.523798e+00   2.113803e-02
  1.188120e+00    1.466184e+00   2.070679e-02
  1.190331e+00    1.447325e+00   2.054556e-02
  1.192541e+00    1.394612e+00   2.014014e-02
  1.194752e+00    1.392358e+00   2.009642e-02
  1.196962e+00    1.370143e+00   1.990955e-02
  1.199173e+00    1.340838e+00   1.966906e-02
  1.201383e+00    1.340307e+00   1.963809e-02
  1.203593e+00    1.356083e+00   1.972847e-02
  1.205804e+00    1.320092e+00   1.943927e-02
  1.208014e+00    1.360450e+00   1.970722e-02
  1.210225e+00    1.352953e+00   1.962751e-02
  1.212435e+00    1.330494e+00   1.943931e-02
  1.214646e+00    1.346938e+00   1.953297e-02
  1.216856e+00    1.353877e+00   1.955773e-02
  1.219067e+00    1.332942e+00   1.938162e-02
  1.221277e+00    1.336463e+00   1.938229e-02
  1.223488e+00    1.334086e+00   1.933946e-02
  1.225698e+00    1.347529e+00   1.940976e-02
  1.227909e+00    1.354330e+00   1.942848e-02
  1.230119e+00    1.368595e+00   1.949845e-02
  1.232329e+00    1.355995e+00   1.937770e-02
  1.234540e+00    1.388668e+00   1.957903e-02
  1.236750e+00    1.384319e+00   1.951773e-02
  1.238961e+00    1.378891e+00   1.945214e-02
  1.241171e+00    1.380625e+00   1.943994e-02
  1.243382e+00    1.355478e+00   1.923850e-02
  1.245592e+00    1.359735e+00   1.924452e-02
  1.247803e+00    1.360505e+00   1.922622e-02
  1.250013e+00    1.339817e+00   1.905604e-02
  1.252224e+00    1.311912e+00   1.883361e-02
  1.254434e+00    1.338408e+00   1.899921e-02
  1.256644e+00    1.334917e+00   1.895134e-02
  1.258855e+00    1.343640e+00   1.898995e-02
  1.261065e+00    1.319505e+00   1.879551e-02
  1.263276e+00    1.355012e+00   1.902372e-02
  1.265486e+00    1.347645e+00   1.894911e-02
  1.267697e+00    1.316823e+00   1.870842e-02
  1.269907e+00    1.310585e+00   1.864168e-02
  1.272118e+00    1.315766e+00   1.865623e-02
  1.274328e+00    1.308504e+00   1.858227e-02
  1.276539e+00    1.330436e+00   1.871473e-02
  1.278749e+00    1.340906e+00   1.876602e-02
  1.280959e+00    1.343502e+00   1.876169e-02
  1.283170e+00    1.355720e+00   1.882434e-02
  1.285380e+00    1.363397e+00   1.885500e-02
  1.287591e+00    1.328497e+00   1.859027e-02
  1.289801e+00    1.347390e+00   1.870077e-02
  1.292012e+00    1.367505e+00   1.882265e-02
  1.294222e+00    1.345118e+00   1.865173e-02
  1.296433e+00    1.362221e+00   1.875425e-02
  1.298643e+00    1.369250e+00   1.878600e-02
  1.300854e+00    1.369735e+00   1.877279e-02
  1.303064e+00    1.369058e+00   1.874879e-02
  1.305274e+00    1.367696e+00   1.871789e-02
  1.307485e+00    1.325595e+00   1.840619e-02
  1.309695e+00    1.327225e+00   1.839546e-02
  1.311906e+00    1.331921e+00   1.840639e-02
  1.314116e+00    1.366900e+00   1.862560e-02
  1.316327e+00    1.366732e+00   1.860266e-02
  1.318537e+00    1.329175e+00   1.832355e-02
  1.320748e+00    1.354347e+00   1.847465e-02
  1.322958e+00    1.351260e+00   1.843306e-02
  1.325169e+00    1.371427e+00   1.854890e-02
  1.327379e+00    1.380088e+00   1.858536e-02
  1.329589e+00    1.359180e+00   1.842288e-02
  1.331800e+00    1.382506e+00   1.855936e-02
  1.334010e+00    1.405202e+00   1.869000e-02
  1.336221e+00    1.385484e+00   1.853638e-02
  1.338431e+00    1.388324e+00   1.853420e-02
  1.340642e+00    1.369819e+00   1.847491e-02
  1.342852e+00    1.386050e+00   1.868603e-02
  1.345063e+00    1.394792e+00   1.879519e-02
  1.347273e+00    1.379735e+00   1.872907e-02
  1.349484e+00    1.411247e+00   1.897005e-02
  1.351694e+00    1.407340e+00   1.896696e-02
  1.353905e+00    1.396163e+00   1.890980e-02
  1.356115e+00    1.372737e+00   1.876566e-02
  1.358325e+00    1.343134e+00   1.857551e-02
  1.360536e+00    1.332990e+00   1.851675e-02
  1.362746e+00    1.323425e+00   1.845970e-02
  1.364957e+00    1.328466e+00   1.850239e-02
  1.367167e+00    1.344823e+00   1.862311e-02
  1.369378e+00    1.324315e+00   1.848655e-02
  1.371588e+00    1.330205e+00   1.853271e-02
  1.373799e+00    1.330733e+00   1.854006e-02
  1.376009e+00    1.295009e+00   1.829285e-02
  1.378220e+00    1.283698e+00   1.821525e-02
  1.380430e+00    1.299691e+00   1.833104e-02
  1.382640e+00    1.338275e+00   1.860205e-02
  1.384851e+00    1.310428e+00   1.840840e-02
  1.387061e+00    1.279816e+00   1.819239e-02
  1.389272e+00    1.289499e+00   1.826128e-02
  1.391482e+00    1.288574e+00   1.825407e-02
  1.393693e+00    1.304005e+00   1.836215e-02
  1.395903e+00    1.313686e+00   1.842869e-02
  1.398114e+00    1.262343e+00   1.806362e-02
  1.400324e+00    1.262938e+00   1.806573e-02
  1.402535e+00    1.261058e+00   1.804999e-02
  1.404745e+00    1.280101e+00   1.818338e-02
  1.406955e+00    1.287999e+00   1.823670e-02
  1.409166e+00    1.275062e+00   1.814157e-02
  1.411376e+00    1.298194e+00   1.830221e-02
  1.413587e+00    1.309149e+00   1.837544e-02
  1.415797e+00    1.308016e+00   1.836388e-02
  1.418008e+00    1.299593e+00   1.826231e-02
  1.420218e+00    1.292910e+00   1.806421e-02
  1.422429e+00    1.307001e+00   1.807583e-02
  1.424639e+00    1.302604e+00   1.797990e-02
  1.426850e+00    1.290873e+00   1.784360e-02
  1.429060e+00    1.281449e+00   1.772915e-02
  1.431270e+00    1.305353e+00   1.784879e-02
  1.433481e+00    1.317588e+00   1.789057e-02
  1.435691e+00    1.290155e+00   1.766459e-02
  1.437902e+00    1.294595e+00   1.765816e-02
  1.440112e+00    1.267987e+00   1.744042e-02
  1.442323e+00    1.269980e+00   1.742108e-02
  1.444533e+00    1.285842e+00   1.749677e-02
  1.446744e+00    1.268601e+00   1.734797e-02
  1.448954e+00    1.275832e+00   1.736708e-02
  1.451165e+00    1.248911e+00   1.715338e-02
  1.453375e+00    1.258367e+00   1.719025e-02
  1.455586e+00    1.287350e+00   1.735876e-02
  1.457796e+00    1.266389e+00   1.718938e-02
  1.460006e+00    1.271034e+00   1.719360e-02
  1.462217e+00    1.272721e+00   1.717877e-02
  1.464427e+00    1.257707e+00   1.705164e-02
  1.466638e+00    1.265245e+00   1.707739e-02
  1.468848e+00    1.276320e+00   1.712657e-02
  1.471059e+00    1.249303e+00   1.691944e-02
  1.473269e+00    1.260051e+00   1.696776e-02
  1.475480e+00    1.253813e+00   1.690210e-02
  1.477690e+00    1.254933e+00   1.688593e-02
  1.479901e+00    1.247951e+00   1.681524e-02
  1.482111e+00    1.255956e+00   1.684587e-02
  1.484321e+00    1.243597e+00   1.673988e-02
  1.486532e+00    1.243447e+00   1.671674e-02
  1.488742e+00    1.252690e+00   1.675620e-02
  1.490953e+00    1.256714e+00   1.676057e-02
  1.493163e+00    1.232635e+00   1.657723e-02
  1.495374e+00    1.256488e+00   1.671540e-02
  1.497584e+00    1.254205e+00   1.667862e-02
  1.499795e+00    1.257837e+00   1.668114e-02
  1.502005e+00    1.266935e+00   1.671960e-02
  1.504216e+00    1.278628e+00   1.677539e-02
  1.506426e+00    1.248010e+00   1.655259e-02
  1.508636e+00    1.268575e+00   1.666786e-02
  1.510847e+00    1.272146e+00   1.666938e-02
  1.513057e+00    1.234456e+00   1.639570e-02
  1.515268e+00    1.243880e+00   1.643257e-02
  1.517478e+00    1.240959e+00   1.638822e-02
  1.519689e+00    1.252800e+00   1.644129e-02
  1.521899e+00    1.254315e+00   1.642811e-02
  1.524110e+00    1.228693e+00   1.623933e-02
  1.526320e+00    1.224953e+00   1.619521e-02
  1.528531e+00    1.251104e+00   1.634740e-02
  1.530741e+00    1.256277e+00   1.636199e-02
  1.532951e+00    1.238199e+00   1.622433e-02
  1.535162e+00    1.236957e+00   1.630235e-02
  1.537372e+00    1.221960e+00   1.626940e-02
  1.539583e+00    1.227266e+00   1.633862e-02
  1.541793e+00    1.254193e+00   1.652385e-02
  1.544004e+00    1.251108e+00   1.650379e-02
  1.546214e+00    1.264956e+00   1.659335e-02
  1.548425e+00    1.264591e+00   1.659122e-02
  1.550635e+00    1.272027e+00   1.664972e-02
  1.552846e+00    1.253664e+00   1.653879e-02
  1.555056e+00    1.263309e+00   1.656050e-02
  1.557266e+00    1.255525e+00   1.639847e-02
  1.559477e+00    1.233074e+00   1.619233e-02
  1.561687e+00    1.254727e+00   1.630308e-02
  1.563898e+00    1.259697e+00   1.631809e-02
  1.566108e+00    1.241901e+00   1.618647e-02
  1.568319e+00    1.244083e+00   1.618507e-02
  1.570529e+00    1.243838e+00   1.615834e-02
  1.572740e+00    1.228942e+00   1.603384e-02
  1.574950e+00    1.259010e+00   1.620236e-02
  1.577161e+00    1.240009e+00   1.605417e-02
  1.579371e+00    1.280995e+00   1.629335e-02
  1.581582e+00    1.260935e+00   1.614537e-02
  1.583792e+00    1.245381e+00   1.602746e-02
  1.586002e+00    1.245861e+00   1.601290e-02
  1.588213e+00    1.254161e+00   1.604885e-02
  1.590423e+00    1.232632e+00   1.589053e-02
  1.592634e+00    1.225741e+00   1.582458e-02
  1.594844e+00    1.235573e+00   1.586657e-02
  1.597055e+00    1.259160e+00   1.599671e-02
  1.599265e+00    1.235830e+00   1.582713e-02
  1.601476e+00    1.235337e+00   1.580370e-02
  1.603686e+00    1.253080e+00   1.589694e-02
  1.605897e+00    1.242686e+00   1.581066e-02
  1.608107e+00    1.235914e+00   1.574799e-02
  1.610317e+00    1.210672e+00   1.556725e-02
  1.612528e+00    1.198659e+00   1.547092e-02
  1.614738e+00    1.200857e+00   1.546639e-02
  1.616949e+00    1.207342e+00   1.548927e-02
  1.619159e+00    1.188927e+00   1.535224e-02
  1.621370e+00    1.162784e+00   1.516448e-02
  1.623580e+00    1.155998e+00   1.510227e-02
  1.625791e+00    1.183651e+00   1.526376e-02
  1.628001e+00    1.177709e+00   1.520734e-02
  1.630212e+00    1.167186e+00   1.512168e-02
  1.632422e+00    1.173928e+00   1.514749e-02
  1.634632e+00    1.155658e+00   1.501206e-02
  1.636843e+00    1.142047e+00   1.490609e-02
  1.639053e+00    1.159895e+00   1.500494e-02
  1.641264e+00    1.153169e+00   1.494440e-02
  1.643474e+00    1.137087e+00   1.482264e-02
  1.645685e+00    1.110395e+00   1.463130e-02
  1.647895e+00    1.129905e+00   1.474286e-02
  1.650106e+00    1.140857e+00   1.479723e-02
  1.652316e+00    1.114761e+00   1.461078e-02
  1.654527e+00    1.129335e+00   1.468939e-02
  1.656737e+00    1.109269e+00   1.454196e-02
  1.658947e+00    1.104506e+00   1.449461e-02
  1.661158e+00    1.098190e+00   1.443706e-02
  1.663368e+00    1.103353e+00   1.445506e-02
  1.665579e+00    1.093003e+00   1.437115e-02
  1.667789e+00    1.074375e+00   1.423224e-02
  1.670000e+00    1.075824e+00   1.422658e-02
  1.672210e+00    1.094542e+00   1.433404e-02
  1.674421e+00    1.083827e+00   1.424856e-02
  1.676631e+00    1.061659e+00   1.408648e-02
  1.678842e+00    1.096885e+00   1.430251e-02
  1.681052e+00    1.085003e+00   1.420952e-02
  1.683263e+00    1.140358e+00   1.455195e-02
  1.685473e+00    1.142076e+00   1.454744e-02
  1.687683e+00    1.079706e+00   1.412923e-02
  1.689894e+00    1.054922e+00   1.395053e-02
  1.692104e+00    1.056243e+00   1.394449e-02
  1.694315e+00    1.037464e+00   1.380570e-02
  1.696525e+00    1.049911e+00   1.387326e-02
  1.698736e+00    1.058962e+00   1.391815e-02
  1.700946e+00    1.046247e+00   1.381931e-02
  1.703157e+00    1.060268e+00   1.389693e-02
  1.705367e+00    1.039074e+00   1.374294e-02
  1.707578e+00    1.031960e+00   1.368135e-02
  1.709788e+00    1.033352e+00   1.367655e-02
  1.711998e+00    1.013661e+00   1.353082e-02
  1.714209e+00    1.008740e+00   1.348369e-02
  1.716419e+00    1.021158e+00   1.355227e-02
  1.718630e+00    1.006416e+00   1.344001e-02
  1.720840e+00    1.030336e+00   1.358456e-02
  1.723051e+00    1.029281e+00   1.356374e-02
  1.725261e+00    1.030036e+00   1.355394e-02
  1.727472e+00    1.061279e+00   1.374350e-02
  1.729682e+00    1.050986e+00   1.366302e-02
  1.731893e+00    1.016205e+00   1.342108e-02
  1.734103e+00    1.021518e+00   1.344225e-02
  1.736313e+00    1.036797e+00   1.352817e-02
  1.738524e+00    1.031955e+00   1.348253e-02
  1.740734e+00    9.884470e-01   1.318163e-02
  1.742945e+00    9.659088e-01   1.301723e-02
  1.745155e+00    9.816210e-01   1.310929e-02
  1.747366e+00    9.867668e-01   1.312981e-02
  1.749576e+00    9.787752e-01   1.306292e-02
  1.751787e+00    9.829537e-01   1.307742e-02
  1.753997e+00    1.001429e+00   1.318623e-02
  1.756208e+00    9.895150e-01   1.309426e-02
  1.758418e+00    9.729992e-01   1.297140e-02
  1.760628e+00    9.589770e-01   1.286431e-02
  1.762839e+00    9.502041e-01   1.279221e-02
  1.765049e+00    9.315518e-01   1.265313e-02
  1.767260e+00    9.357602e-01   1.266903e-02
  1.769470e+00    9.448487e-01   1.271748e-02
  1.771681e+00    9.427375e-01   1.269021e-02
  1.773891e+00    9.246750e-01   1.255518e-02
  1.776102e+00    9.242597e-01   1.253963e-02
  1.778312e+00    9.492477e-01   1.269523e-02
  1.780523e+00    9.880202e-01   1.293887e-02
  1.782733e+00    1.034576e+00   1.322688e-02
  1.784944e+00    1.029130e+00   1.317855e-02
  1.787154e+00    9.588284e-01   1.270774e-02
  1.789364e+00    9.250858e-01   1.246971e-02
  1.791575e+00    8.797647e-01   1.214819e-02
  1.793785e+00    8.827081e-01   1.215634e-02
  1.795996e+00    8.951636e-01   1.222949e-02
  1.798206e+00    8.806862e-01   1.211792e-02
  1.800417e+00    9.064211e-01   1.228109e-02
  1.802627e+00    9.073332e-01   1.227538e-02
  1.804838e+00    9.101886e-01   1.228260e-02
  1.807048e+00    9.017220e-01   1.221253e-02
  1.809259e+00    9.231098e-01   1.234279e-02
  1.811469e+00    9.483799e-01   1.249528e-02
  1.813679e+00    9.421653e-01   1.243898e-02
  1.815890e+00    9.185254e-01   1.226701e-02
  1.818100e+00    9.098475e-01   1.219372e-02
  1.820311e+00    8.630667e-01   1.186159e-02
  1.822521e+00    8.727363e-01   1.191314e-02
  1.824732e+00    8.768930e-01   1.192677e-02
  1.826942e+00    8.832081e-01   1.195734e-02
  1.829153e+00    8.742540e-01   1.188495e-02
  1.831363e+00    8.786006e-01   1.190247e-02
  1.833574e+00    8.779048e-01   1.188609e-02
  1.835784e+00    8.841989e-01   1.191718e-02
  1.837994e+00    8.774433e-01   1.185985e-02
  1.840205e+00    8.782350e-01   1.185399e-02
  1.842415e+00    8.818531e-01   1.186657e-02
  1.844626e+00    8.621963e-01   1.172206e-02
  1.846836e+00    8.553445e-01   1.166404e-02
  1.849047e+00    8.543702e-01   1.164588e-02
  1.851257e+00    8.239316e-01   1.142719e-02
  1.853468e+00    8.278491e-01   1.144569e-02
  1.855678e+00    8.381389e-01   1.150784e-02
  1.857889e+00    8.462703e-01   1.155510e-02
  1.860099e+00    8.389921e-01   1.149676e-02
  1.862309e+00    8.415095e-01   1.150556e-02
  1.864520e+00    8.408159e-01   1.149231e-02
  1.866730e+00    8.485107e-01   1.153543e-02
  1.868941e+00    8.677530e-01   1.165445e-02
  1.871151e+00    8.564677e-01   1.156700e-02
  1.873362e+00    8.643222e-01   1.160849e-02
  1.875572e+00    8.440745e-01   1.146081e-02
  1.877783e+00    8.521511e-01   1.150403e-02
  1.879993e+00    8.662745e-01   1.158771e-02
  1.882204e+00    8.532955e-01   1.148962e-02
  1.884414e+00    8.316287e-01   1.133183e-02
  1.886624e+00    8.244488e-01   1.127186e-02
  1.888835e+00    8.206195e-01   1.123481e-02
  1.891045e+00    8.310201e-01   1.129495e-02
  1.893256e+00    8.382110e-01   1.133263e-02
  1.895466e+00    8.354232e-01   1.130261e-02
  1.897677e+00    8.222454e-01   1.120228e-02
  1.899887e+00    8.400086e-01   1.131160e-02
  1.902098e+00    8.473142e-01   1.134976e-02
  1.904308e+00    8.482566e-01   1.134537e-02
  1.906519e+00    8.738772e-01   1.150429e-02
  1.908729e+00    9.066656e-01   1.170706e-02
  1.910940e+00    8.838213e-01   1.154714e-02
  1.913150e+00    9.420933e-01   1.191035e-02
  1.915360e+00    1.052514e+00   1.257704e-02
  1.917571e+00    1.007685e+00   1.229434e-02
  1.919781e+00    8.691779e-01   1.140718e-02
  1.921992e+00    8.290467e-01   1.113002e-02
  1.924202e+00    8.017812e-01   1.093481e-02
  1.926413e+00    8.018875e-01   1.092532e-02
  1.928623e+00    7.900736e-01   1.083415e-02
  1.930834e+00    8.110302e-01   1.096648e-02
  1.933044e+00    8.043238e-01   1.091043e-02
  1.935255e+00    7.936057e-01   1.082726e-02
  1.937465e+00    8.081014e-01   1.091530e-02
  1.939675e+00    7.941471e-01   1.080989e-02
  1.941886e+00    7.968184e-01   1.081782e-02
  1.944096e+00    8.093294e-01   1.089221e-02
  1.946307e+00    7.943394e-01   1.078056e-02
  1.948517e+00    8.103811e-01   1.087837e-02
  1.950728e+00    7.746022e-01   1.062545e-02
  1.952938e+00    7.598280e-01   1.051377e-02
  1.955149e+00    7.773003e-01   1.062382e-02
  1.957359e+00    8.052318e-01   1.080294e-02
  1.959570e+00    7.950776e-01   1.072374e-02
  1.961780e+00    7.824112e-01   1.062813e-02
  1.963990e+00    7.713146e-01   1.054250e-02
  1.966201e+00    7.800735e-01   1.059220e-02
  1.968411e+00    7.792070e-01   1.057624e-02
  1.970622e+00    7.812095e-01   1.057976e-02
  1.972832e+00    8.012758e-01   1.070471e-02
  1.975043e+00    7.929281e-01   1.063873e-02
  1.977253e+00    8.036824e-01   1.070056e-02
  1.979464e+00    7.805016e-01   1.053511e-02
  1.981674e+00    7.731022e-01   1.047483e-02
  1.983885e+00    7.871085e-01   1.055925e-02
  1.986095e+00    7.570360e-01   1.034602e-02
  1.988305e+00    7.721204e-01   1.043873e-02
  1.990516e+00    7.806236e-01   1.048612e-02
  1.992726e+00    7.692255e-01   1.039968e-02
  1.994937e+00    7.740048e-01   1.042182e-02
  1.997147e+00    7.735758e-01   1.040921e-02
  1.999358e+00    7.653612e-01   1.034401e-02
  2.001568e+00    7.688020e-01   1.035644e-02
  2.003779e+00    7.736126e-01   1.037688e-02
  2.005989e+00    7.773295e-01   1.038970e-02
  2.008200e+00    7.785498e-01   1.038629e-02
  2.010410e+00    7.766285e-01   1.036164e-02
  2.012621e+00    7.600023e-01   1.023850e-02
  2.014831e+00    7.698604e-01   1.029318e-02
  2.017041e+00    7.741907e-01   1.031168e-02
  2.019252e+00    7.740697e-01   1.030084e-02
  2.021462e+00    7.672861e-01   1.024611e-02
  2.023673e+00    7.543314e-01   1.014989e-02
  2.025883e+00    7.724695e-01   1.026162e-02
  2.028094e+00    7.655317e-01   1.020580e-02
  2.030304e+00    7.621249e-01   1.017350e-02
  2.032515e+00    7.592682e-01   1.014514e-02
  2.034725e+00    7.920061e-01   1.035187e-02
  2.036936e+00    8.372790e-01   1.063384e-02
  2.039146e+00    8.112977e-01   1.045767e-02
  2.041356e+00    7.596921e-01   1.010994e-02
  2.043567e+00    7.542421e-01   1.006430e-02
  2.045777e+00    7.471737e-01   1.000783e-02
  2.047988e+00    7.378606e-01   9.936003e-03
  2.050198e+00    7.411776e-01   9.949945e-03
  2.052409e+00    7.540259e-01   1.002814e-02
  2.054619e+00    7.570211e-01   1.004067e-02
  2.056830e+00    7.266222e-01   9.829946e-03
  2.059040e+00    7.173314e-01   9.759545e-03
  2.061251e+00    7.328390e-01   9.857300e-03
  2.063461e+00    7.393991e-01   9.893790e-03
  2.065671e+00    7.266411e-01   9.799466e-03
  2.067882e+00    7.369823e-01   9.860019e-03
  2.070092e+00    7.218225e-01   9.749047e-03
  2.072303e+00    7.287720e-01   9.786823e-03
  2.074513e+00    7.357368e-01   9.824232e-03
  2.076724e+00    7.317237e-01   9.788011e-03
  2.078934e+00    7.388029e-01   9.826281e-03
  2.081145e+00    7.340958e-01   9.785890e-03
  2.083355e+00    7.181365e-01   9.669916e-03
  2.085566e+00    7.275642e-01   9.724337e-03
  2.087776e+00    7.312649e-01   9.739597e-03
  2.089986e+00    7.258065e-01   9.694471e-03
  2.092197e+00    7.218374e-01   9.659063e-03
  2.094407e+00    7.179863e-01   9.624153e-03
  2.096618e+00    7.161419e-01   9.602991e-03
  2.098828e+00    7.178064e-01   9.604951e-03
  2.101039e+00    7.160305e-01   9.584183e-03
  2.103249e+00    7.039108e-01   9.494227e-03
  2.105460e+00    7.145916e-01   9.557044e-03
  2.107670e+00    7.142829e-01   9.546346e-03
  2.109881e+00    7.177910e-01   9.560653e-03
  2.112091e+00    7.287046e-01   9.624059e-03
  2.114301e+00    7.249995e-01   9.590786e-03
  2.116512e+00    7.109720e-01   9.488820e-03
  2.118722e+00    7.039672e-01   9.433253e-03
  2.120933e+00    7.132062e-01   9.486118e-03
  2.123143e+00    7.363979e-01   9.630112e-03
  2.125354e+00    7.214572e-01   9.523384e-03
  2.127564e+00    7.196238e-01   9.502490e-03
  2.129775e+00    7.336580e-01   9.585907e-03
  2.131985e+00    7.036320e-01   9.378690e-03
  2.134196e+00    7.013428e-01   9.354903e-03
  2.136406e+00    7.085156e-01   9.393903e-03
  2.138617e+00    7.098831e-01   9.394509e-03
  2.140827e+00    7.108912e-01   9.417257e-03
  2.143037e+00    7.061891e-01   9.431518e-03
  2.145248e+00    6.971570e-01   9.392864e-03
  2.147458e+00    7.111177e-01   9.501658e-03
  2.149669e+00    7.070298e-01   9.486203e-03
  2.151879e+00    6.930649e-01   9.401209e-03
  2.154090e+00    6.968103e-01   9.433867e-03
  2.156300e+00    7.046690e-01   9.493546e-03
  2.158511e+00    6.863397e-01   9.374519e-03
  2.160721e+00    7.025854e-01   9.489636e-03
  2.162932e+00    7.041082e-01   9.503677e-03
  2.165142e+00    7.013817e-01   9.488293e-03
  2.167352e+00    7.052063e-01   9.517057e-03
  2.169563e+00    6.896005e-01   9.413113e-03
  2.171773e+00    6.987752e-01   9.477978e-03
  2.173984e+00    6.883347e-01   9.408314e-03
  2.176194e+00    6.889614e-01   9.413792e-03
  2.178405e+00    6.833804e-01   9.376272e-03
  2.180615e+00    6.898910e-01   9.421519e-03
  2.182826e+00    6.776470e-01   9.338217e-03
  2.185036e+00    6.699741e-01   9.285231e-03
  2.187247e+00    6.895596e-01   9.419929e-03
  2.189457e+00    6.917513e-01   9.434482e-03
  2.191667e+00    6.723611e-01   9.301141e-03
  2.193878e+00    6.842282e-01   9.382301e-03
  2.196088e+00    6.778472e-01   9.337761e-03
  2.198299e+00    6.924199e-01   9.436514e-03
  2.200509e+00    6.802498e-01   9.352163e-03
  2.202720e+00    6.770318e-01   9.328865e-03
  2.204930e+00    6.947583e-01   9.448933e-03
  2.207141e+00    7.235227e-01   9.641413e-03
  2.209351e+00    7.060027e-01   9.522072e-03
  2.211562e+00    7.025591e-01   9.497157e-03
  2.213772e+00    6.861713e-01   9.329881e-03
  2.215982e+00    6.716914e-01   9.186845e-03
  2.218193e+00    6.718171e-01   9.158154e-03
  2.220403e+00    6.534256e-01   9.007731e-03
  2.222614e+00    6.578055e-01   9.017167e-03
  2.224824e+00    6.613082e-01   9.021937e-03
  2.227035e+00    6.478850e-01   8.912800e-03
  2.229245e+00    6.560209e-01   8.951786e-03
  2.231456e+00    6.614987e-01   8.973612e-03
  2.233666e+00    6.596273e-01   8.945927e-03
  2.235877e+00    6.764491e-01   9.044935e-03
  2.238087e+00    6.975111e-01   9.170942e-03
  2.240298e+00    6.822815e-01   9.056360e-03
  2.242508e+00    6.961128e-01   9.132248e-03
  2.244718e+00    6.883715e-01   9.065318e-03
  2.246929e+00    6.774090e-01   8.978306e-03
  2.249139e+00    6.759109e-01   8.955915e-03
  2.251350e+00    6.933122e-01   9.058517e-03
  2.253560e+00    7.000195e-01   9.090394e-03
  2.255771e+00    7.013521e-01   9.087337e-03
  2.257981e+00    6.877331e-01   8.987298e-03
  2.260192e+00    6.947539e-01   9.021688e-03
  2.262402e+00    7.017339e-01   9.055764e-03
  2.264613e+00    6.814261e-01   8.912780e-03
  2.266823e+00    6.807759e-01   8.897981e-03
  2.269033e+00    6.986147e-01   9.003131e-03
  2.271244e+00    7.464890e-01   9.295475e-03
  2.273454e+00    7.986216e-01   9.603321e-03
  2.275665e+00    7.949524e-01   9.569972e-03
  2.277875e+00    7.561836e-01   9.323093e-03
  2.280086e+00    6.973535e-01   8.942773e-03
  2.282296e+00    6.616085e-01   8.701115e-03
  2.284507e+00    6.643957e-01   8.709251e-03
  2.286717e+00    6.656649e-01   8.708035e-03
  2.288928e+00    6.717841e-01   8.737992e-03
  2.291138e+00    6.638001e-01   8.676448e-03
  2.293348e+00    6.493126e-01   8.571752e-03
  2.295559e+00    6.459582e-01   8.540326e-03
  2.297769e+00    6.521996e-01   8.572255e-03
  2.299980e+00    6.360534e-01   8.456287e-03
  2.302190e+00    6.420809e-01   8.487189e-03
  2.304401e+00    6.347944e-01   8.429717e-03
  2.306611e+00    6.325588e-01   8.405789e-03
  2.308822e+00    6.577671e-01   8.563207e-03
  2.311032e+00    6.570899e-01   8.552327e-03
  2.313243e+00    6.617650e-01   8.576374e-03
  2.315453e+00    6.414832e-01   8.436395e-03
  2.317663e+00    6.608391e-01   8.553494e-03
  2.319874e+00    6.602060e-01   8.540595e-03
  2.322084e+00    6.407011e-01   8.404559e-03
  2.324295e+00    6.537371e-01   8.481339e-03
  2.326505e+00    6.301898e-01   8.318244e-03
  2.328716e+00    6.459934e-01   8.413327e-03
  2.330926e+00    6.489211e-01   8.423544e-03
  2.333137e+00    6.403615e-01   8.359435e-03
  2.335347e+00    6.553667e-01   8.447836e-03
  2.337558e+00    6.332741e-01   8.296061e-03
  2.339768e+00    6.417668e-01   8.342900e-03
  2.341979e+00    6.422640e-01   8.337746e-03
  2.344189e+00    6.405001e-01   8.317880e-03
  2.346399e+00    6.456058e-01   8.342405e-03
  2.348610e+00    6.233782e-01   8.189176e-03
  2.350820e+00    6.265381e-01   8.201758e-03
  2.353031e+00    6.254672e-01   8.186528e-03
  2.355241e+00    6.196628e-01   8.140485e-03
  2.357452e+00    6.363083e-01   8.240638e-03
  2.359662e+00    6.295977e-01   8.188874e-03
  2.361873e+00    6.341658e-01   8.210270e-03
  2.364083e+00    6.435010e-01   8.262382e-03
  2.366294e+00    6.447220e-01   8.262015e-03
  2.368504e+00    6.260873e-01   8.133678e-03
  2.370714e+00    6.174687e-01   8.069485e-03
  2.372925e+00    6.146574e-01   8.043112e-03
  2.375135e+00    6.202533e-01   8.071604e-03
  2.377346e+00    6.310153e-01   8.133335e-03
  2.379556e+00    6.203950e-01   8.056745e-03
  2.381767e+00    6.118430e-01   7.993185e-03
  2.383977e+00    6.332462e-01   8.123792e-03
  2.386188e+00    6.305832e-01   8.098708e-03
  2.388398e+00    6.075103e-01   7.941294e-03
  2.390609e+00    5.998309e-01   7.883292e-03
  2.392819e+00    6.060761e-01   7.916536e-03
  2.395029e+00    6.158089e-01   7.972180e-03
  2.397240e+00    6.103156e-01   7.928701e-03
  2.399450e+00    6.126717e-01   7.936190e-03
  2.401661e+00    6.006626e-01   7.850422e-03
  2.403871e+00    6.000358e-01   7.838630e-03
  2.406082e+00    6.058991e-01   7.869420e-03
  2.408292e+00    5.933816e-01   7.780046e-03
  2.410503e+00    5.845088e-01   7.714286e-03
  2.412713e+00    6.015080e-01   7.817912e-03
  2.414924e+00    6.039215e-01   7.826112e-03
  2.417134e+00    6.008350e-01   7.798468e-03
  2.419344e+00    5.964116e-01   7.762357e-03
  2.421555e+00    5.959703e-01   7.751998e-03
  2.423765e+00    6.049643e-01   7.802843e-03
  2.425976e+00    6.077047e-01   7.812638e-03
  2.428186e+00    6.019809e-01   7.768536e-03
  2.430397e+00    5.960893e-01   7.722936e-03
  2.432607e+00    6.068838e-01   7.785206e-03
  2.434818e+00    5.957226e-01   7.705751e-03
  2.437028e+00    6.031637e-01   7.746514e-03
  2.439239e+00    5.953277e-01   7.688370e-03
  2.441449e+00    5.862405e-01   7.622309e-03
  2.443659e+00    5.789961e-01   7.567789e-03
  2.445870e+00    5.786377e-01   7.577567e-03
  2.448080e+00    5.677481e-01   7.540302e-03
  2.450291e+00    5.654699e-01   7.541570e-03
  2.452501e+00    5.658820e-01   7.555385e-03
  2.454712e+00    5.802204e-01   7.658986e-03
  2.456922e+00    5.743047e-01   7.626479e-03
  2.459133e+00    5.631175e-01   7.557264e-03
  2.461343e+00    5.594024e-01   7.536592e-03
  2.463554e+00    5.594562e-01   7.540430e-03
  2.465764e+00    5.525389e-01   7.496751e-03
  2.467975e+00    5.669181e-01   7.596000e-03
  2.470185e+00    5.514947e-01   7.494178e-03
  2.472395e+00    5.608781e-01   7.558893e-03
  2.474606e+00    5.531538e-01   7.508245e-03
  2.476816e+00    5.448964e-01   7.452703e-03
  2.479027e+00    5.527263e-01   7.506916e-03
  2.481237e+00    5.363321e-01   7.395032e-03
  2.483448e+00    5.197203e-01   7.279899e-03
  2.485658e+00    5.318763e-01   7.364383e-03
  2.487869e+00    5.418518e-01   7.433183e-03
  2.490079e+00    5.325969e-01   7.368901e-03
  2.492290e+00    5.460206e-01   7.460740e-03
  2.494500e+00    5.413190e-01   7.427849e-03
  2.496710e+00    5.409870e-01   7.424841e-03
  2.498921e+00    5.497533e-01   7.483772e-03
  2.501131e+00    5.328090e-01   7.366593e-03
  2.503342e+00    5.328386e-01   7.365523e-03
  2.505552e+00    5.296431e-01   7.342277e-03
  2.507763e+00    5.328379e-01   7.362961e-03
  2.509973e+00    5.295655e-01   7.338933e-03
  2.512184e+00    5.282599e-01   7.328255e-03
  2.514394e+00    5.219390e-01   7.274968e-03
  2.516605e+00    5.340104e-01   7.311206e-03
  2.518815e+00    5.670931e-01   7.504851e-03
  2.521025e+00    5.601868e-01   7.437424e-03
  2.523236e+00    5.294421e-01   7.212367e-03
  2.525446e+00    5.374453e-01   7.250899e-03
  2.527657e+00    5.203241e-01   7.119939e-03
  2.529867e+00    5.141985e-01   7.063867e-03
  2.532078e+00    5.154952e-01   7.057859e-03
  2.534288e+00    5.294185e-01   7.138592e-03
  2.536499e+00    5.332074e-01   7.152065e-03
  2.538709e+00    5.230317e-01   7.072509e-03
  2.540920e+00    5.196727e-01   7.039161e-03
  2.543130e+00    5.196751e-01   7.028859e-03
  2.545340e+00    5.127345e-01   6.971806e-03
  2.547551e+00    5.138440e-01   6.969481e-03
  2.549761e+00    5.176806e-01   6.985917e-03
  2.551972e+00    5.190879e-01   6.986083e-03
  2.554182e+00    4.957784e-01   6.818481e-03
  2.556393e+00    5.148393e-01   6.939243e-03
  2.558603e+00    5.276376e-01   7.015872e-03
  2.560814e+00    5.081025e-01   6.876138e-03
  2.563024e+00    5.226716e-01   6.965426e-03
  2.565235e+00    5.135348e-01   6.894828e-03
  2.567445e+00    5.127484e-01   6.880033e-03
  2.569656e+00    5.221332e-01   6.932942e-03
  2.571866e+00    5.205320e-01   6.912914e-03
  2.574076e+00    5.120810e-01   6.847347e-03
  2.576287e+00    5.230252e-01   6.911741e-03
  2.578497e+00    5.292511e-01   6.944817e-03
  2.580708e+00    5.093248e-01   6.804807e-03
  2.582918e+00    5.078883e-01   6.787469e-03
  2.585129e+00    5.208239e-01   6.865580e-03
  2.587339e+00    5.103403e-01   6.788473e-03
  2.589550e+00    5.197923e-01   6.843440e-03
  2.591760e+00    5.152949e-01   6.806022e-03
  2.593971e+00    5.279382e-01   6.881354e-03
  2.596181e+00    5.136968e-01   6.781680e-03
  2.598391e+00    5.088577e-01   6.744487e-03
  2.600602e+00    5.090830e-01   6.740050e-03
  2.602812e+00    5.273655e-01   6.852352e-03
  2.605023e+00    5.132808e-01   6.753030e-03
  2.607233e+00    5.091854e-01   6.718883e-03
  2.609444e+00    5.041800e-01   6.678581e-03
  2.611654e+00    5.073075e-01   6.691919e-03
  2.613865e+00    5.107703e-01   6.707677e-03
  2.616075e+00    5.054683e-01   6.665611e-03
  2.618286e+00    5.089869e-01   6.681773e-03
  2.620496e+00    5.068887e-01   6.661269e-03
  2.622706e+00    5.061587e-01   6.650721e-03
  2.624917e+00    5.018916e-01   6.616789e-03
  2.627127e+00    5.158433e-01   6.702325e-03
  2.629338e+00    5.040900e-01   6.619553e-03
  2.631548e+00    5.108160e-01   6.657345e-03
  2.633759e+00    5.019729e-01   6.592342e-03
  2.635969e+00    4.933363e-01   6.528735e-03
  2.638180e+00    5.058137e-01   6.603770e-03
  2.640390e+00    4.945574e-01   6.523327e-03
  2.642601e+00    4.915856e-01   6.497082e-03
  2.644811e+00    5.080495e-01   6.597862e-03
  2.647021e+00    4.949224e-01   6.505542e-03
  2.649232e+00    4.954059e-01   6.502013e-03
  2.651442e+00    5.131896e-01   6.611088e-03
  2.653653e+00    5.166736e-01   6.626601e-03
  2.655863e+00    5.116905e-01   6.587784e-03
  2.658074e+00    5.170749e-01   6.615614e-03
  2.660284e+00    5.103197e-01   6.565833e-03
  2.662495e+00    5.077032e-01   6.542147e-03
  2.664705e+00    5.088560e-01   6.542935e-03
  2.666916e+00    4.971245e-01   6.460599e-03
  2.669126e+00    4.830377e-01   6.362035e-03
  2.671337e+00    4.902234e-01   6.402628e-03
  2.673547e+00    4.943764e-01   6.423306e-03
  2.675757e+00    4.924430e-01   6.404318e-03
  2.677968e+00    5.042167e-01   6.473819e-03
  2.680178e+00    5.060138e-01   6.478881e-03
  2.682389e+00    4.925526e-01   6.385732e-03
  2.684599e+00    4.936067e-01   6.386367e-03
  2.686810e+00    4.920814e-01   6.369884e-03
  2.689020e+00    4.940018e-01   6.376001e-03
  2.691231e+00    4.839389e-01   6.304487e-03
  2.693441e+00    4.866091e-01   6.315721e-03
  2.695652e+00    4.789697e-01   6.259512e-03
  2.697862e+00    4.875267e-01   6.308862e-03
  2.700072e+00    4.816262e-01   6.264525e-03
  2.702283e+00    4.905329e-01   6.315959e-03
  2.704493e+00    4.884347e-01   6.296165e-03
  2.706704e+00    4.773506e-01   6.217977e-03
  2.708914e+00    4.885934e-01   6.284801e-03
  2.711125e+00    4.787573e-01   6.215047e-03
  2.713335e+00    4.855056e-01   6.252587e-03
  2.715546e+00    4.874786e-01   6.258842e-03
  2.717756e+00    4.867525e-01   6.248279e-03
  2.719967e+00    4.921420e-01   6.276523e-03
  2.722177e+00    4.943626e-01   6.284492e-03
  2.724387e+00    4.815789e-01   6.196626e-03
  2.726598e+00    4.855752e-01   6.216214e-03
  2.728808e+00    4.841558e-01   6.200999e-03
  2.731019e+00    4.877407e-01   6.217748e-03
  2.733229e+00    4.814026e-01   6.171444e-03
  2.735440e+00    4.745661e-01   6.121258e-03
  2.737650e+00    4.768032e-01   6.129682e-03
  2.739861e+00    4.875786e-01   6.192469e-03
  2.742071e+00    5.016989e-01   6.275647e-03
  2.744282e+00    4.855744e-01   6.167707e-03
  2.746492e+00    4.829747e-01   6.145142e-03
  2.748702e+00    4.756177e-01   6.092297e-03
  2.750913e+00    4.727797e-01   6.068332e-03
  2.753123e+00    4.880298e-01   6.159271e-03
  2.755334e+00    4.884874e-01   6.156047e-03
  2.757544e+00    4.758955e-01   6.070479e-03
  2.759755e+00    4.902110e-01   6.155144e-03
  2.761965e+00    4.842756e-01   6.111781e-03
  2.764176e+00    4.764282e-01   6.056090e-03
  2.766386e+00    4.818635e-01   6.084723e-03
  2.768597e+00    4.722120e-01   6.017675e-03
  2.770807e+00    4.744734e-01   6.026203e-03
  2.773017e+00    4.933250e-01   6.138710e-03
  2.775228e+00    4.796595e-01   6.047294e-03
  2.777438e+00    4.650512e-01   5.948784e-03
  2.779649e+00    4.587680e-01   5.902668e-03
  2.781859e+00    4.729033e-01   5.987182e-03
  2.784070e+00    4.725131e-01   5.978889e-03
  2.786280e+00    4.738630e-01   5.981669e-03
  2.788491e+00    4.762493e-01   5.990870e-03
  2.790701e+00    4.828594e-01   6.026632e-03
  2.792912e+00    4.840592e-01   6.028099e-03
  2.795122e+00    4.817122e-01   6.007708e-03
  2.797333e+00    4.738013e-01   5.952617e-03
  2.799543e+00    4.632038e-01   5.879881e-03
  2.801753e+00    4.822853e-01   5.993864e-03
  2.803964e+00    4.871240e-01   6.018134e-03
  2.806174e+00    4.695086e-01   5.902217e-03
  2.808385e+00    4.660301e-01   5.873575e-03
  2.810595e+00    4.754094e-01   5.925502e-03
  2.812806e+00    4.740668e-01   5.910529e-03
  2.815016e+00    4.623959e-01   5.832647e-03
  2.817227e+00    4.617228e-01   5.853978e-03
  2.819437e+00    4.761890e-01   5.956086e-03
  2.821648e+00    4.634211e-01   5.877957e-03
  2.823858e+00    4.669268e-01   5.905451e-03
  2.826068e+00    4.776287e-01   5.977738e-03
  2.828279e+00    4.719915e-01   5.946423e-03
  2.830489e+00    4.505974e-01   5.813334e-03
  2.832700e+00    4.647906e-01   5.906707e-03
  2.834910e+00    4.686753e-01   5.933411e-03
  2.837121e+00    4.587221e-01   5.871758e-03
  2.839331e+00    4.763671e-01   5.984848e-03
  2.841542e+00    4.830455e-01   6.027696e-03
  2.843752e+00    4.798181e-01   6.008314e-03
  2.845963e+00    4.649545e-01   5.914924e-03
  2.848173e+00    4.698181e-01   5.945849e-03
  2.850383e+00    4.623235e-01   5.898545e-03
  2.852594e+00    4.649317e-01   5.915064e-03
  2.854804e+00    4.524532e-01   5.834661e-03
  2.857015e+00    4.684159e-01   5.936251e-03
  2.859225e+00    4.644029e-01   5.910524e-03
  2.861436e+00    4.617463e-01   5.892932e-03
  2.863646e+00    4.683211e-01   5.934793e-03
  2.865857e+00    4.630419e-01   5.901571e-03
  2.868067e+00    4.614697e-01   5.891778e-03
  2.870278e+00    4.499673e-01   5.817538e-03
  2.872488e+00    4.627951e-01   5.898711e-03
  2.874698e+00    4.564827e-01   5.857307e-03
  2.876909e+00    4.698121e-01   5.940880e-03
  2.879119e+00    4.533989e-01   5.834582e-03
  2.881330e+00    4.502090e-01   5.812564e-03
  2.883540e+00    4.549551e-01   5.841744e-03
  2.885751e+00    4.515933e-01   5.818496e-03
  2.887961e+00    4.527812e-01   5.824275e-03
  2.890172e+00    4.523563e-01   5.819952e-03
  2.892382e+00    4.756679e-01   5.966189e-03
  2.894593e+00    4.693047e-01   5.924335e-03
  2.896803e+00    4.682281e-01   5.915536e-03
  2.899014e+00    4.594966e-01   5.858221e-03
  2.901224e+00    4.455153e-01   5.766431e-03
  2.903434e+00    4.565070e-01   5.835182e-03
  2.905645e+00    4.694943e-01   5.915383e-03
  2.907855e+00    4.548864e-01   5.820521e-03
  2.910066e+00    4.658281e-01   5.888020e-03
  2.912276e+00    4.596967e-01   5.847022e-03
  2.914487e+00    4.521278e-01   5.796258e-03
  2.916697e+00    4.492449e-01   5.775532e-03
  2.918908e+00    4.547344e-01   5.808713e-03
  2.921118e+00    4.558347e-01   5.813060e-03
  2.923329e+00    4.499733e-01   5.773270e-03
  2.925539e+00    4.468486e-01   5.750928e-03
  2.927749e+00    4.528400e-01   5.787056e-03
  2.929960e+00    4.316038e-01   5.647041e-03
  2.932170e+00    4.541607e-01   5.790389e-03
  2.934381e+00    4.658409e-01   5.861922e-03
  2.936591e+00    4.568509e-01   5.802500e-03
  2.938802e+00    4.536286e-01   5.779305e-03
  2.941012e+00    4.518435e-01   5.765595e-03
  2.943223e+00    4.554026e-01   5.785556e-03
  2.945433e+00    4.532085e-01   5.767894e-03
  2.947644e+00    4.525861e-01   5.759789e-03
  2.949854e+00    4.579134e-01   5.789327e-03
  2.952064e+00    4.500680e-01   5.735295e-03
  2.954275e+00    4.584976e-01   5.784353e-03
  2.956485e+00    4.610955e-01   5.796482e-03
  2.958696e+00    4.481797e-01   5.710402e-03
  2.960906e+00    4.592238e-01   5.776111e-03
  2.963117e+00    4.527848e-01   5.731007e-03
  2.965327e+00    4.579833e-01   5.759896e-03
  2.967538e+00    4.664152e-01   5.809716e-03
  2.969748e+00    4.629946e-01   5.785540e-03
  2.971959e+00    4.674015e-01   5.809833e-03
  2.974169e+00    4.604477e-01   5.763848e-03
  2.976379e+00    4.401206e-01   5.632318e-03
  2.978590e+00    4.575205e-01   5.739420e-03
  2.980800e+00    4.602853e-01   5.753899e-03
  2.983011e+00    4.617333e-01   5.760153e-03
  2.985221e+00    4.559278e-01   5.720652e-03
  2.987432e+00    4.606160e-01   5.746859e-03
  2.989642e+00    4.432839e-01   5.635120e-03
  2.991853e+00    4.286176e-01   5.537914e-03
  2.994063e+00    4.419837e-01   5.620716e-03
  2.996274e+00    4.548908e-01   5.699021e-03
  2.998484e+00    4.622236e-01   5.742046e-03
  3.000694e+00    4.533945e-01   5.683492e-03
  3.002905e+00    4.562903e-01   5.698663e-03
  3.005115e+00    4.622833e-01   5.732956e-03
  3.007326e+00    4.584155e-01   5.705754e-03
  3.009536e+00    4.576871e-01   5.697950e-03
  3.011747e+00    4.562638e-01   5.686151e-03
  3.013957e+00    4.676921e-01   5.753695e-03
  3.016168e+00    4.590214e-01   5.696834e-03
  3.018378e+00    4.732983e-01   5.781637e-03
  3.020589e+00    4.564905e-01   5.674840e-03
  3.022799e+00    4.535815e-01   5.653540e-03
  3.025010e+00    4.617743e-01   5.701109e-03
  3.027220e+00    4.590622e-01   5.681201e-03
  3.029430e+00    4.521068e-01   5.634783e-03
  3.031641e+00    4.489760e-01   5.612064e-03
  3.033851e+00    4.617231e-01   5.687656e-03
  3.036062e+00    4.417586e-01   5.560571e-03
  3.038272e+00    4.440046e-01   5.571149e-03
  3.040483e+00    4.427489e-01   5.560062e-03
  3.042693e+00    4.449815e-01   5.570828e-03
  3.044904e+00    4.464276e-01   5.575866e-03
  3.047114e+00    4.477735e-01   5.579486e-03
  3.049325e+00    4.481759e-01   5.577595e-03
  3.051535e+00    4.509104e-01   5.590213e-03
  3.053745e+00    4.398650e-01   5.516607e-03
  3.055956e+00    4.510099e-01   5.581494e-03
  3.058166e+00    4.493376e-01   5.566864e-03
  3.060377e+00    4.516161e-01   5.576211e-03
  3.062587e+00    4.377371e-01   5.485274e-03
  3.064798e+00    4.350941e-01   5.464521e-03
  3.067008e+00    4.409992e-01   5.496756e-03
  3.069219e+00    4.629257e-01   5.627208e-03
  3.071429e+00    4.479583e-01   5.531983e-03
  3.073640e+00    4.395329e-01   5.476408e-03
  3.075850e+00    4.405979e-01   5.479487e-03
  3.078060e+00    4.446512e-01   5.501553e-03
  3.080271e+00    4.508319e-01   5.536167e-03
  3.082481e+00    4.375718e-01   5.450754e-03
  3.084692e+00    4.282509e-01   5.389068e-03
  3.086902e+00    4.408709e-01   5.464676e-03
  3.089113e+00    4.468483e-01   5.498051e-03
  3.091323e+00    4.437014e-01   5.475285e-03
  3.093534e+00    4.508653e-01   5.515929e-03
  3.095744e+00    4.473128e-01   5.490775e-03
  3.097955e+00    4.567296e-01   5.544696e-03
  3.100165e+00    4.457123e-01   5.474086e-03
  3.102375e+00    4.501393e-01   5.497769e-03
  3.104586e+00    4.424968e-01   5.447424e-03
  3.106796e+00    4.444493e-01   5.455915e-03
  3.109007e+00    4.389365e-01   5.418784e-03
  3.111217e+00    4.424485e-01   5.436732e-03
  3.113428e+00    4.585299e-01   5.531195e-03
  3.115638e+00    4.475288e-01   5.461215e-03
  3.117849e+00    4.448186e-01   5.440908e-03
  3.120059e+00    4.499132e-01   5.468505e-03
  3.122270e+00    4.437052e-01   5.427398e-03
  3.124480e+00    4.385137e-01   5.391885e-03
  3.126691e+00    4.549688e-01   5.488513e-03
  3.128901e+00    4.385439e-01   5.385441e-03
  3.131111e+00    4.466411e-01   5.431068e-03
  3.133322e+00    4.499120e-01   5.447464e-03
  3.135532e+00    4.490555e-01   5.438846e-03
  3.137743e+00    4.500894e-01   5.441613e-03
  3.139953e+00    4.400679e-01   5.377005e-03
  3.142164e+00    4.488991e-01   5.442808e-03
  3.144374e+00    4.326912e-01   5.371727e-03
  3.146585e+00    4.343853e-01   5.396658e-03
  3.148795e+00    4.335154e-01   5.401926e-03
  3.151006e+00    4.435392e-01   5.472565e-03
  3.153216e+00    4.549871e-01   5.550011e-03
  3.155426e+00    4.466994e-01   5.505572e-03
  3.157637e+00    4.437062e-01   5.492627e-03
  3.159847e+00    4.373631e-01   5.458098e-03
  3.162058e+00    4.362954e-01   5.455839e-03
  3.164268e+00    4.431629e-01   5.502676e-03
  3.166479e+00    4.451850e-01   5.518899e-03
  3.168689e+00    4.326254e-01   5.443852e-03
  3.170900e+00    4.166252e-01   5.345293e-03
  3.173110e+00    4.427876e-01   5.513458e-03
  3.175321e+00    4.401949e-01   5.499808e-03
  3.177531e+00    4.388021e-01   5.493835e-03
  3.179741e+00    4.358141e-01   5.477161e-03
  3.181952e+00    4.418283e-01   5.516948e-03
  3.184162e+00    4.327121e-01   5.461933e-03
  3.186373e+00    4.282362e-01   5.435170e-03
  3.188583e+00    4.324027e-01   5.463323e-03
  3.190794e+00    4.383780e-01   5.502729e-03
  3.193004e+00    4.220473e-01   5.400452e-03
  3.195215e+00    4.375585e-01   5.500313e-03
  3.197425e+00    4.312944e-01   5.462015e-03
  3.199636e+00    4.308106e-01   5.458170e-03
  3.201846e+00    4.300456e-01   5.452724e-03
  3.204056e+00    4.411377e-01   5.523494e-03
  3.206267e+00    4.303765e-01   5.456568e-03
  3.208477e+00    4.327231e-01   5.472322e-03
  3.210688e+00    4.368799e-01   5.499389e-03
  3.212898e+00    4.499272e-01   5.581500e-03
  3.215109e+00    4.317169e-01   5.468141e-03
  3.217319e+00    4.369905e-01   5.502076e-03
  3.219530e+00    4.243761e-01   5.422470e-03
  3.221740e+00    4.309016e-01   5.464552e-03
  3.223951e+00    4.309618e-01   5.465406e-03
  3.226161e+00    4.367776e-01   5.502355e-03
  3.228372e+00    4.296230e-01   5.457644e-03
  3.230582e+00    4.238960e-01   5.421266e-03
  3.232792e+00    4.256045e-01   5.432419e-03
  3.235003e+00    4.327688e-01   5.478183e-03
  3.237213e+00    4.312735e-01   5.468818e-03
  3.239424e+00    4.267101e-01   5.439820e-03
  3.241634e+00    4.233447e-01   5.418424e-03
  3.243845e+00    4.294692e-01   5.457569e-03
  3.246055e+00    4.269417e-01   5.441206e-03
  3.248266e+00    4.192245e-01   5.392014e-03
  3.250476e+00    4.243809e-01   5.424749e-03
  3.252687e+00    4.423481e-01   5.538322e-03
  3.254897e+00    4.191413e-01   5.390978e-03
  3.257107e+00    4.337664e-01   5.483913e-03
  3.259318e+00    4.302848e-01   5.461606e-03
  3.261528e+00    4.318479e-01   5.471383e-03
  3.263739e+00    4.310417e-01   5.465722e-03
  3.265949e+00    4.302406e-01   5.460511e-03
  3.268160e+00    4.376420e-01   5.506854e-03
  3.270370e+00    4.321028e-01   5.471401e-03
  3.272581e+00    4.170850e-01   5.375177e-03
  3.274791e+00    4.201421e-01   5.394332e-03
  3.277002e+00    4.362448e-01   5.496159e-03
  3.279212e+00    4.250548e-01   5.424823e-03
  3.281422e+00    4.252153e-01   5.425280e-03
  3.283633e+00    4.148467e-01   5.358050e-03
  3.285843e+00    4.292947e-01   5.450212e-03
  3.288054e+00    4.329542e-01   5.472444e-03
  3.290264e+00    4.270303e-01   5.434571e-03
  3.292475e+00    4.162835e-01   5.364924e-03
  3.294685e+00    4.326031e-01   5.468409e-03
  3.296896e+00    4.298646e-01   5.450340e-03
  3.299106e+00    4.348638e-01   5.481361e-03
  3.301317e+00    4.368849e-01   5.493037e-03
  3.303527e+00    4.382336e-01   5.501067e-03
  3.305737e+00    4.379480e-01   5.498177e-03
  3.307948e+00    4.392976e-01   5.505991e-03
  3.310158e+00    4.176819e-01   5.367961e-03
  3.312369e+00    4.278618e-01   5.432086e-03
  3.314579e+00    4.254992e-01   5.416163e-03
  3.316790e+00    4.245979e-01   5.409712e-03
  3.319000e+00    4.302504e-01   5.444407e-03
  3.321211e+00    4.150474e-01   5.346750e-03
  3.323421e+00    4.110968e-01   5.320065e-03
  3.325632e+00    4.038724e-01   5.272219e-03
  3.327842e+00    4.182137e-01   5.364107e-03
  3.330052e+00    4.249482e-01   5.406059e-03
  3.332263e+00    4.192115e-01   5.368433e-03
  3.334473e+00    4.148313e-01   5.339392e-03
  3.336684e+00    4.318663e-01   5.446642e-03
  3.338894e+00    4.385293e-01   5.487648e-03
  3.341105e+00    4.301445e-01   5.433725e-03
  3.343315e+00    4.127074e-01   5.321305e-03
  3.345526e+00    4.142601e-01   5.330423e-03
  3.347736e+00    4.181751e-01   5.354132e-03
  3.349947e+00    4.183695e-01   5.354460e-03
  3.352157e+00    4.237278e-01   5.387441e-03
  3.354368e+00    4.287031e-01   5.417685e-03
  3.356578e+00    4.200778e-01   5.361886e-03
  3.358788e+00    4.150497e-01   5.328380e-03
  3.360999e+00    4.232732e-01   5.379633e-03
  3.363209e+00    4.227058e-01   5.375024e-03
  3.365420e+00    4.163348e-01   5.332846e-03
  3.367630e+00    4.233755e-01   5.376711e-03
  3.369841e+00    4.211698e-01   5.361278e-03
  3.372051e+00    4.232115e-01   5.372261e-03
  3.374262e+00    4.180888e-01   5.337190e-03
  3.376472e+00    4.171720e-01   5.328911e-03
  3.378683e+00    4.012137e-01   5.223516e-03
  3.380893e+00    4.074646e-01   5.261731e-03
  3.383103e+00    4.215617e-01   5.349254e-03
  3.385314e+00    4.222425e-01   5.351340e-03
  3.387524e+00    4.210205e-01   5.340835e-03
  3.389735e+00    4.098269e-01   5.266735e-03
  3.391945e+00    4.197220e-01   5.326225e-03
  3.394156e+00    4.169390e-01   5.304308e-03
  3.396366e+00    4.063129e-01   5.232906e-03
  3.398577e+00    4.043217e-01   5.217019e-03
  3.400787e+00    4.144507e-01   5.293947e-03
  3.402998e+00    3.974651e-01   5.221814e-03
  3.405208e+00    3.990714e-01   5.252842e-03
  3.407418e+00    3.970135e-01   5.254973e-03
  3.409629e+00    4.005912e-01   5.292564e-03
  3.411839e+00    3.873661e-01   5.216067e-03
  3.414050e+00    4.016545e-01   5.322452e-03
  3.416260e+00    3.919584e-01   5.267424e-03
  3.418471e+00    4.030698e-01   5.351078e-03
  3.420681e+00    3.903260e-01   5.274306e-03
  3.422892e+00    3.824355e-01   5.228643e-03
  3.425102e+00    3.740085e-01   5.178344e-03
  3.427313e+00    3.728350e-01   5.177280e-03
  3.429523e+00    3.684129e-01   5.153364e-03
  3.431733e+00    3.768033e-01   5.218302e-03
  3.433944e+00    3.771633e-01   5.227195e-03
  3.436154e+00    3.685967e-01   5.173664e-03
  3.438365e+00    3.800148e-01   5.259035e-03
  3.440575e+00    3.856710e-01   5.304041e-03
  3.442786e+00    3.827065e-01   5.289239e-03
  3.444996e+00    3.885475e-01   5.335030e-03
  3.447207e+00    3.799082e-01   5.280735e-03
  3.449417e+00    3.654711e-01   5.219877e-03
  3.451628e+00    3.700427e-01   5.281925e-03
  3.453838e+00    3.712755e-01   5.311960e-03
  3.456049e+00    3.789341e-01   5.390793e-03
  3.458259e+00    3.666866e-01   5.324880e-03
  3.460469e+00    3.568977e-01   5.272847e-03
  3.462680e+00    3.671394e-01   5.367058e-03
  3.464890e+00    3.627542e-01   5.352613e-03
  3.467101e+00    3.747790e-01   5.458232e-03
  3.469311e+00    3.993845e-01   5.651761e-03
  3.471522e+00    3.954931e-01   5.641016e-03
  3.473732e+00    3.883758e-01   5.606161e-03
  3.475943e+00    3.962139e-01   5.678421e-03
  3.478153e+00    4.133051e-01   5.815540e-03
  3.480364e+00    4.102019e-01   5.809152e-03
  3.482574e+00    4.033169e-01   5.775523e-03
  3.484784e+00    4.102398e-01   5.839745e-03
  3.486995e+00    4.216312e-01   5.935437e-03
  3.489205e+00    4.325852e-01   6.026918e-03
  3.491416e+00    4.335126e-01   6.048381e-03
  3.493626e+00    4.337497e-01   6.064599e-03
  3.495837e+00    4.523377e-01   6.208139e-03
  3.498047e+00    4.617128e-01   6.286917e-03
  3.500258e+00    4.681832e-01   6.345658e-03
  3.502468e+00    4.694569e-01   6.368953e-03
  3.504679e+00    4.708007e-01   6.392684e-03
  3.506889e+00    4.692452e-01   6.396641e-03
  3.509099e+00    4.508848e-01   6.284290e-03
  3.511310e+00    4.637152e-01   6.387314e-03
  3.513520e+00    4.875618e-01   6.563983e-03
  3.515731e+00    5.096564e-01   6.725816e-03
  3.517941e+00    5.084443e-01   6.732458e-03
  3.520152e+00    5.037820e-01   6.715945e-03
  3.522362e+00    5.122556e-01   6.786848e-03
  3.524573e+00    4.959826e-01   6.692326e-03
  3.526783e+00    5.134987e-01   6.822811e-03
  3.528994e+00    5.332965e-01   6.965563e-03
  3.531204e+00    5.238969e-01   6.916403e-03
  3.533414e+00    5.386102e-01   7.025060e-03
  3.535625e+00    5.261413e-01   6.955642e-03
  3.537835e+00    5.402540e-01   7.060482e-03
  3.540046e+00    5.409302e-01   7.073894e-03
  3.542256e+00    5.489141e-01   7.133523e-03
  3.544467e+00    5.449287e-01   7.115270e-03
  3.546677e+00    5.408760e-01   7.096384e-03
  3.548888e+00    5.284265e-01   7.021683e-03
  3.551098e+00    5.300643e-01   7.039776e-03
  3.553309e+00    5.230321e-01   7.001026e-03
  3.555519e+00    5.328912e-01   7.077928e-03
  3.557729e+00    5.407831e-01   7.141926e-03
  3.559940e+00    5.534755e-01   7.236996e-03
  3.562150e+00    5.516030e-01   7.236644e-03
  3.564361e+00    5.314628e-01   7.116538e-03
  3.566571e+00    5.526705e-01   7.271179e-03
  3.568782e+00    5.446832e-01   7.232706e-03
  3.570992e+00    5.497015e-01   7.279863e-03
  3.573203e+00    5.459226e-01   7.269067e-03
  3.575413e+00    5.351356e-01   7.210661e-03
  3.577624e+00    5.372981e-01   7.239353e-03
  3.579834e+00    5.457039e-01   7.309798e-03
  3.582045e+00    5.249856e-01   7.183543e-03
  3.584255e+00    5.363939e-01   7.275239e-03
  3.586465e+00    5.366482e-01   7.290922e-03
  3.588676e+00    5.280687e-01   7.246489e-03
  3.590886e+00    5.250857e-01   7.239544e-03
  3.593097e+00    5.319362e-01   7.301084e-03
  3.595307e+00    5.379908e-01   7.356449e-03
  3.597518e+00    5.238296e-01   7.273080e-03
  3.599728e+00    5.333251e-01   7.352752e-03
  3.601939e+00    5.285352e-01   7.333627e-03
  3.604149e+00    5.446258e-01   7.458945e-03
  3.606360e+00    5.404647e-01   7.444634e-03
  3.608570e+00    5.260049e-01   7.358381e-03
  3.610780e+00    5.397938e-01   7.465314e-03
  3.612991e+00    5.305427e-01   7.411069e-03
  3.615201e+00    5.247138e-01   7.379910e-03
  3.617412e+00    5.344315e-01   7.455215e-03
  3.619622e+00    5.423177e-01   7.516038e-03
  3.621833e+00    5.399629e-01   7.506439e-03
  3.624043e+00    5.335200e-01   7.471013e-03
  3.626254e+00    5.193433e-01   7.380675e-03
  3.628464e+00    5.299990e-01   7.466891e-03
  3.630675e+00    5.414732e-01   7.561557e-03
  3.632885e+00    5.120757e-01   7.367544e-03
  3.635095e+00    5.319831e-01   7.523767e-03
  3.637306e+00    5.305187e-01   7.527746e-03
  3.639516e+00    5.336408e-01   7.564376e-03
  3.641727e+00    5.301920e-01   7.554435e-03
  3.643937e+00    5.356045e-01   7.607453e-03
  3.646148e+00    5.412127e-01   7.661951e-03
  3.648358e+00    5.458784e-01   7.709864e-03
  3.650569e+00    5.576001e-01   7.807342e-03
  3.652779e+00    5.400996e-01   7.698705e-03
  3.654990e+00    5.148227e-01   7.531055e-03
  3.657200e+00    5.353884e-01   7.694892e-03
  3.659410e+00    5.216358e-01   7.610266e-03
  3.661621e+00    5.295993e-01   7.683202e-03
  3.663831e+00    5.150296e-01   7.591665e-03
  3.666042e+00    5.377513e-01   7.772548e-03
  3.668252e+00    5.487111e-01   7.866869e-03
  3.670463e+00    5.376262e-01   7.802307e-03
  3.672673e+00    5.384684e-01   7.823943e-03
  3.674884e+00    5.388585e-01   7.842329e-03
  3.677094e+00    5.162037e-01   7.690990e-03
  3.679305e+00    5.450239e-01   7.918520e-03
  3.681515e+00    5.353633e-01   7.863768e-03
  3.683726e+00    5.280110e-01   7.825321e-03
  3.685936e+00    5.496262e-01   7.999874e-03
  3.688146e+00    5.426959e-01   7.965344e-03
  3.690357e+00    5.432811e-01   7.985770e-03
  3.692567e+00    5.202655e-01   7.830822e-03
  3.694778e+00    5.170568e-01   7.822537e-03
  3.696988e+00    5.164904e-01   7.834093e-03
  3.699199e+00    5.128770e-01   7.822656e-03
  3.701409e+00    5.193136e-01   7.887916e-03
  3.703620e+00    5.160658e-01   7.879345e-03
  3.705830e+00    5.347564e-01   8.037330e-03
  3.708041e+00    5.188792e-01   7.933640e-03
  3.710251e+00    5.019464e-01   7.819504e-03
  3.712461e+00    5.130963e-01   7.922393e-03
  3.714672e+00    5.045623e-01   7.872740e-03
  3.716882e+00    5.066754e-01   7.905697e-03
  3.719093e+00    5.073753e-01   7.928028e-03
  3.721303e+00    5.122279e-01   7.982729e-03
  3.723514e+00    5.260164e-01   8.106829e-03
  3.725724e+00    5.008803e-01   7.927610e-03
  3.727935e+00    4.981935e-01   7.923458e-03
  3.730145e+00    4.974534e-01   7.934561e-03
  3.732356e+00    5.060139e-01   8.019894e-03
  3.734566e+00    5.232327e-01   8.172878e-03
  3.736776e+00    5.261931e-01   8.213929e-03
  3.738987e+00    5.177941e-01   8.165915e-03
  3.741197e+00    5.212529e-01   8.211276e-03
  3.743408e+00    5.123566e-01   8.158981e-03
  3.745618e+00    5.082145e-01   8.144112e-03
  3.747829e+00    4.789000e-01   7.923288e-03
  3.750039e+00    4.940003e-01   8.065274e-03
  3.752250e+00    4.925853e-01   8.071821e-03
  3.754460e+00    4.888530e-01   8.059372e-03
  3.756671e+00    4.960726e-01   8.137202e-03
  3.758881e+00    5.091407e-01   8.262313e-03
  3.761091e+00    5.184949e-01   8.357216e-03
  3.763302e+00    5.053282e-01   8.269463e-03
  3.765512e+00    4.915656e-01   8.175026e-03
  3.767723e+00    5.108706e-01   8.353394e-03
  3.769933e+00    5.159488e-01   8.414331e-03
  3.772144e+00    5.145029e-01   8.422280e-03
  3.774354e+00    5.094662e-01   8.400901e-03
  3.776565e+00    4.882671e-01   8.243751e-03
  3.778775e+00    4.966294e-01   8.333821e-03
  3.780986e+00    5.051008e-01   8.424966e-03
  3.783196e+00    5.181190e-01   8.553357e-03
  3.785407e+00    5.046251e-01   8.461698e-03
  3.787617e+00    5.248941e-01   8.651184e-03
  3.789827e+00    5.051337e-01   8.507362e-03
  3.792038e+00    4.984506e-01   8.471692e-03
  3.794248e+00    5.067526e-01   8.563174e-03
  3.796459e+00    4.887036e-01   8.430403e-03
  3.798669e+00    5.048656e-01   8.590150e-03
  3.800880e+00    5.096925e-01   8.652731e-03
  3.803090e+00    4.867727e-01   8.477480e-03
  3.805301e+00    5.046339e-01   8.653810e-03
  3.807511e+00    4.940236e-01   8.584205e-03
  3.809722e+00    5.007800e-01   8.664984e-03
  3.811932e+00    4.663011e-01   8.382839e-03
  3.814142e+00    4.932321e-01   8.644210e-03
  3.816353e+00    5.031404e-01   8.753579e-03
  3.818563e+00    4.909013e-01   8.669375e-03
  3.820774e+00    5.024139e-01   8.793673e-03
  3.822984e+00    4.922926e-01   8.727917e-03
  3.825195e+00    4.900464e-01   8.731483e-03
  3.827405e+00    5.237386e-01   9.051172e-03
  3.829616e+00    4.983881e-01   8.853550e-03
  3.831826e+00    5.020573e-01   8.910281e-03
  3.834037e+00    5.115220e-01   9.018785e-03
  3.836247e+00    4.935761e-01   8.883744e-03
  3.838457e+00    4.891674e-01   8.868855e-03
  3.840668e+00    4.793910e-01   8.804501e-03
  3.842878e+00    5.034271e-01   9.048223e-03
  3.845089e+00    4.966146e-01   9.012456e-03
  3.847299e+00    4.842773e-01   8.925284e-03
  3.849510e+00    4.948865e-01   9.048322e-03
  3.851720e+00    5.088755e-01   9.197029e-03
  3.853931e+00    4.977670e-01   9.115213e-03
  3.856141e+00    4.948639e-01   9.107536e-03
  3.858352e+00    5.020933e-01   9.193248e-03
  3.860562e+00    4.969641e-01   9.165549e-03
  3.862772e+00    4.985956e-01   9.200209e-03
  3.864983e+00    5.111192e-01   9.335059e-03
  3.867193e+00    5.246152e-01   9.477970e-03
  3.869404e+00    4.729427e-01   9.018441e-03
  3.871614e+00    5.007657e-01   9.300044e-03
  3.873825e+00    4.824571e-01   9.148549e-03
  3.876035e+00    5.013215e-01   9.346450e-03
  3.878246e+00    4.922980e-01   9.287727e-03
  3.880456e+00    5.155051e-01   9.533736e-03
  3.882667e+00    4.837347e-01   9.264458e-03
  3.884877e+00    4.788919e-01   9.247270e-03
  3.887087e+00    5.105089e-01   9.578086e-03
  3.889298e+00    4.987444e-01   9.497808e-03
  3.891508e+00    4.919659e-01   9.463548e-03
  3.893719e+00    4.922644e-01   9.497395e-03
  3.895929e+00    5.184846e-01   9.779473e-03
  3.898140e+00    4.973302e-01   9.609709e-03
  3.900350e+00    5.178216e-01   9.838772e-03
  3.902561e+00    5.006105e-01   9.706596e-03
  3.904771e+00    4.906174e-01   9.642079e-03
  3.906982e+00    4.838381e-01   9.608109e-03
  3.909192e+00    5.034646e-01   9.835056e-03
  3.911403e+00    4.933075e-01   9.769529e-03
  3.913613e+00    5.161993e-01   1.002879e-02
  3.915823e+00    5.018923e-01   9.924182e-03
  3.918034e+00    4.728342e-01   9.667294e-03
  3.920244e+00    4.898236e-01   9.875221e-03
  3.922455e+00    4.850856e-01   9.863340e-03
  3.924665e+00    4.666871e-01   9.710028e-03
  3.926876e+00    4.623249e-01   9.700748e-03
  3.929086e+00    4.927837e-01   1.005266e-02
  3.931297e+00    4.982719e-01   1.014368e-02
  3.933507e+00    5.104752e-01   1.029680e-02
  3.935718e+00    4.791031e-01   1.000389e-02
  3.937928e+00    5.161822e-01   1.041409e-02
  3.940138e+00    4.862436e-01   1.013686e-02
  3.942349e+00    4.796048e-01   1.009710e-02
  3.944559e+00    4.865834e-01   1.020023e-02
  3.946770e+00    5.043662e-01   1.041562e-02
  3.948980e+00    4.884487e-01   1.028081e-02
  3.951191e+00    4.886514e-01   1.031380e-02
  3.953401e+00    5.059373e-01   1.052663e-02
  3.955612e+00    4.860142e-01   1.034905e-02
  3.957822e+00    4.444041e-01   9.926250e-03
  3.960033e+00    4.731348e-01   1.027432e-02
  3.962243e+00    5.141805e-01   1.074451e-02
  3.964453e+00    4.903168e-01   1.052552e-02
  3.966664e+00    4.992430e-01   1.065472e-02
  3.968874e+00    5.068580e-01   1.076473e-02
  3.971085e+00    4.773419e-01   1.046832e-02
  3.973295e+00    5.173607e-01   1.092040e-02
  3.975506e+00    5.285155e-01   1.106015e-02
  3.977716e+00    4.950193e-01   1.072604e-02
  3.979927e+00    5.127393e-01   1.093912e-02
  3.982137e+00    4.950280e-01   1.077114e-02
  3.984348e+00    4.723381e-01   1.054359e-02
  3.986558e+00    4.431595e-01   1.023396e-02
  3.988768e+00    4.972404e-01   1.086382e-02
  3.990979e+00    5.159944e-01   1.109025e-02
  3.993189e+00    5.277138e-01   1.123949e-02
  3.995400e+00    4.959975e-01   1.092040e-02
  3.997610e+00    4.790384e-01   1.076170e-02
  3.999821e+00    4.713742e-01   1.071223e-02
  4.002031e+00    4.772484e-01   1.081684e-02
  4.004242e+00    5.022846e-01   1.113616e-02
  4.006452e+00    4.933543e-01   1.107646e-02
  4.008663e+00    4.919660e-01   1.110110e-02
  4.010873e+00    4.867408e-01   1.108215e-02
  4.013084e+00    4.959796e-01   1.122812e-02
  4.015294e+00    4.999024e-01   1.131417e-02
  4.017504e+00    5.026472e-01   1.138780e-02
  4.019715e+00    4.976274e-01   1.137386e-02
  4.021925e+00    4.850451e-01   1.127225e-02
  4.024136e+00    4.696518e-01   1.113488e-02
  4.026346e+00    4.848000e-01   1.135721e-02
  4.028557e+00    5.137107e-01   1.173660e-02
  4.030767e+00    4.869840e-01   1.147312e-02
  4.032978e+00    4.698500e-01   1.131506e-02
  4.035188e+00    4.744898e-01   1.141649e-02
  4.037399e+00    4.460035e-01   1.111418e-02
  4.039609e+00    4.878378e-01   1.167167e-02
  4.041819e+00    4.760646e-01   1.157839e-02
  4.044030e+00    4.852757e-01   1.173986e-02
  4.046240e+00    4.703738e-01   1.160746e-02
  4.048451e+00    5.012974e-01   1.203480e-02
  4.050661e+00    4.858320e-01   1.189936e-02
  4.052872e+00    4.910223e-01   1.201583e-02
  4.055082e+00    4.912725e-01   1.207299e-02
  4.057293e+00    4.741956e-01   1.191453e-02
  4.059503e+00    4.907487e-01   1.217574e-02
  4.061714e+00    5.599198e-01   1.306652e-02
  4.063924e+00    4.878952e-01   1.225432e-02
  4.066134e+00    4.542188e-01   1.187950e-02
  4.068345e+00    4.570948e-01   1.197443e-02
  4.070555e+00    4.792532e-01   1.232032e-02
  4.072766e+00    4.630882e-01   1.217052e-02
  4.074976e+00    4.875039e-01   1.254941e-02
  4.077187e+00    5.225327e-01   1.305707e-02
  4.079397e+00    4.546404e-01   1.224163e-02
  4.081608e+00    4.390923e-01   1.209302e-02
  4.083818e+00    4.994948e-01   1.296487e-02
  4.086029e+00    5.197533e-01   1.329499e-02
  4.088239e+00    5.070407e-01   1.320225e-02
  4.090449e+00    4.902291e-01   1.305178e-02
  4.092660e+00    5.087650e-01   1.336950e-02
  4.094870e+00    5.056875e-01   1.340313e-02
  4.097081e+00    4.551512e-01   1.278537e-02
  4.099291e+00    5.109479e-01   1.360245e-02
  4.101502e+00    4.997579e-01   1.350285e-02
  4.103712e+00    5.174550e-01   1.379119e-02
  4.105923e+00    5.213490e-01   1.389636e-02
  4.108133e+00    5.205976e-01   1.394005e-02
  4.110344e+00    4.897338e-01   1.357225e-02
  4.112554e+00    4.799143e-01   1.348843e-02
  4.114764e+00    4.481167e-01   1.308636e-02
  4.116975e+00    5.013085e-01   1.389584e-02
  4.119185e+00    4.952201e-01   1.386729e-02
  4.121396e+00    4.554739e-01   1.335415e-02
  4.123606e+00    4.635800e-01   1.352753e-02
  4.125817e+00    4.837196e-01   1.387629e-02
  4.128027e+00    4.461709e-01   1.338294e-02
  4.130238e+00    4.715240e-01   1.381688e-02
  4.132448e+00    4.744071e-01   1.391918e-02
  4.134659e+00    4.559588e-01   1.370473e-02
  4.136869e+00    4.638986e-01   1.388501e-02
  4.139080e+00    4.965170e-01   1.442969e-02
  4.141290e+00    4.739265e-01   1.416019e-02
  4.143500e+00    4.545012e-01   1.393078e-02
  4.145711e+00    5.073937e-01   1.478766e-02
  4.147921e+00    4.506673e-01   1.400085e-02
  4.150132e+00    4.474965e-01   1.401793e-02
  4.152342e+00    4.462777e-01   1.406655e-02
  4.154553e+00    4.584308e-01   1.432468e-02
  4.156763e+00    4.562793e-01   1.436155e-02
  4.158974e+00    5.259529e-01   1.549674e-02
  4.161184e+00    5.126895e-01   1.537618e-02
  4.163395e+00    4.509651e-01   1.449434e-02
  4.165605e+00    4.731302e-01   1.492352e-02
  4.167815e+00    4.793693e-01   1.509994e-02
  4.170026e+00    4.952024e-01   1.542819e-02
  4.172236e+00    4.724020e-01   1.515037e-02
  4.174447e+00    4.968171e-01   1.562128e-02
  4.176657e+00    5.026284e-01   1.579850e-02
  4.178868e+00    4.994102e-01   1.583674e-02
  4.181078e+00    5.407249e-01   1.657170e-02
  4.183289e+00    5.342860e-01   1.656717e-02
  4.185499e+00    5.026308e-01   1.616377e-02
  4.187710e+00    5.046114e-01   1.629014e-02
  4.189920e+00    4.893876e-01   1.613938e-02
  4.192130e+00    4.908854e-01   1.626270e-02
  4.194341e+00    5.192741e-01   1.682902e-02
  4.196551e+00    4.879795e-01   1.641721e-02
  4.198762e+00    4.563346e-01   1.597694e-02
  4.200972e+00    4.485788e-01   1.594303e-02
  4.203183e+00    4.557568e-01   1.617592e-02
  4.205393e+00    4.931693e-01   1.693878e-02
  4.207604e+00    4.836516e-01   1.688915e-02
  4.209814e+00    4.611289e-01   1.660429e-02
  4.212025e+00    4.508082e-01   1.653341e-02
  4.214235e+00    5.437645e-01   1.828741e-02
  4.216445e+00    5.018208e-01   1.769466e-02
  4.218656e+00    4.516751e-01   1.691329e-02
  4.220866e+00    5.185945e-01   1.825706e-02
  4.223077e+00    5.087234e-01   1.822158e-02
  4.225287e+00    4.788854e-01   1.781815e-02
  4.227498e+00    5.243101e-01   1.879015e-02
  4.229708e+00    5.045922e-01   1.858366e-02
  4.231919e+00    4.690773e-01   1.806588e-02
  4.234129e+00    4.619572e-01   1.807868e-02
  4.236340e+00    4.898733e-01   1.877585e-02
  4.238550e+00    4.646620e-01   1.844802e-02
  4.240761e+00    5.153046e-01   1.959897e-02
  4.242971e+00    5.178639e-01   1.982734e-02
  4.245181e+00    4.645099e-01   1.895514e-02
  4.247392e+00    3.864999e-01   1.745151e-02
  4.249602e+00    4.428093e-01   1.886504e-02
  4.251813e+00    4.820637e-01   1.987786e-02
  4.254023e+00    3.579242e-01   1.730079e-02
  4.256234e+00    4.763002e-01   2.017061e-02
  4.258444e+00    4.731827e-01   2.031505e-02
  4.260655e+00    5.577472e-01   2.229820e-02
  4.262865e+00    5.074130e-01   2.150963e-02
  4.265076e+00    4.499493e-01   2.048541e-02
  4.267286e+00    5.245596e-01   2.238096e-02
  4.269496e+00    5.003273e-01   2.212450e-02
  4.271707e+00    5.597644e-01   2.369086e-02
  4.273917e+00    5.517720e-01   2.382575e-02
  4.276128e+00    4.687507e-01   2.225156e-02
  4.278338e+00    5.360987e-01   2.411435e-02
  4.280549e+00    4.440439e-01   2.226163e-02
  4.282759e+00    4.378433e-01   2.242284e-02
  4.284970e+00    4.453439e-01   2.294901e-02
  4.287180e+00    4.696538e-01   2.384921e-02
  4.289391e+00    5.094560e-01   2.502587e-02
  4.291601e+00    5.327745e-01   2.579665e-02
  4.293811e+00    5.293816e-01   2.591522e-02
  4.296022e+00    4.669756e-01   2.453574e-02
  4.298232e+00    4.726217e-01   2.489018e-02
  4.300443e+00    4.633037e-01   2.484734e-02
  4.302653e+00    4.405289e-01   2.443808e-02
  4.304864e+00    4.876415e-01   2.593480e-02
  4.307074e+00    4.951791e-01   2.636918e-02
  4.309285e+00    4.882024e-01   2.642065e-02
  4.311495e+00    4.577225e-01   2.582153e-02
  4.313706e+00    4.629154e-01   2.621160e-02
  4.315916e+00    5.265164e-01   2.822962e-02
  4.318126e+00    5.658975e-01   2.955650e-02
  4.320337e+00    4.445857e-01   2.646223e-02
  4.322547e+00    4.373195e-01   2.652362e-02
  4.324758e+00    4.895497e-01   2.835386e-02
  4.326968e+00    3.943802e-01   2.573676e-02
  4.329179e+00    4.848421e-01   2.884953e-02
  4.331389e+00    4.982552e-01   2.958337e-02
  4.333600e+00    4.918225e-01   2.974191e-02
  4.335810e+00    4.513375e-01   2.883181e-02
  4.338021e+00    5.414902e-01   3.198373e-02
  4.340231e+00    4.920103e-01   3.087053e-02
  4.342442e+00    4.594968e-01   3.023286e-02
  4.344652e+00    4.809177e-01   3.135008e-02
  4.346862e+00    4.307851e-01   3.008595e-02
  4.349073e+00    5.369733e-01   3.407888e-02
  4.351283e+00    4.037782e-01   2.999401e-02
  4.353494e+00    5.280066e-01   3.482750e-02
  4.355704e+00    4.968846e-01   3.433011e-02
  4.357915e+00    4.597359e-01   3.357185e-02
  4.360125e+00    4.584524e-01   3.409699e-02
  4.362336e+00    5.640150e-01   3.850877e-02
  4.364546e+00    4.042252e-01   3.319396e-02
  4.366757e+00    3.759755e-01   3.265002e-02
  4.368967e+00    3.889793e-01   3.387228e-02
  4.371177e+00    3.678351e-01   3.363873e-02
  4.373388e+00    4.921948e-01   3.978154e-02
  4.375598e+00    3.828239e-01   3.588695e-02
  4.377809e+00    4.475226e-01   3.978017e-02
  4.380019e+00    4.470841e-01   4.076068e-02
  4.382230e+00    3.206110e-01   3.548222e-02
  4.384440e+00    3.927569e-01   4.039938e-02
  4.386651e+00    5.133815e-01   4.761489e-02
  4.388861e+00    3.854487e-01   4.264287e-02
  4.391072e+00    4.754415e-01   4.902196e-02
  4.393282e+00    6.720521e-01   6.053622e-02
  4.395492e+00    5.937153e-01   5.926540e-02
  4.397703e+00    5.031704e-01   5.705161e-02
  4.399913e+00    4.246280e-01   5.506660e-02
  4.402124e+00    2.908256e-01   4.815222e-02
  4.404334e+00    4.763089e-01   6.550682e-02
  4.406545e+00    3.332714e-01   5.887013e-02
  4.408755e+00    1.795554e-01   4.686581e-02
  4.410966e+00    2.210747e-01   5.755822e-02
  4.413176e+00    2.065455e-01   6.297204e-02
  4.415387e+00   -7.112226e-01            nan
  4.417597e+00   -2.044852e+00            nan
  4.419807e+00   -3.766224e-01            nan
