# == pyFAI calibration ==
# Distance Sample to Detector: 0.216 m
# PONI: 1.166e-01, 1.308e-01 m
# Rotations: 0.000000 0.000000 0.000000 rad
# 
# == Fit2d calibration ==
# Distance Sample-beamCenter: 216.000 mm
# Center: x=1744.293, y=1555.000 pix
# Tilt: 0.000 deg  TiltPlanRot: 0.000 deg
# 
# Detector Eiger 9M	 PixelSize= 7.500e-05, 7.500e-05 m
#    Detector has a mask: True 
#    Detector has a dark current: False 
#    detector has a flat field: False 
# 
# Wavelength: 9.8e-11 m
# Mask applied: from detector
# Dark current applied: False
# Flat field applied: False
# Polarization factor: None
# Normalization factor: 1.0
# 
# Headers of the input frame:
# {
# "_array_data.header_convention": "SLS_1.0",
# "_array_data.header_contents": "# Detector: Dectris Eiger 9M, S/N E-18-0102\r\n# Pixel_size 75e-6 m x 75e-6 m\r\n# Silicon sensor, thickness 0.000450 m\r\n# Exposure_time 0.024997 s\r\n# Exposure_period 0.025000 s\r\n# Count_cutoff 62318 counts\r\n# Wavelength 0.980106 A\r\n# Detector_distance 0.215992 m\r\n# Beam_xy (1555, 1744) pixels\r\n# Start_angle 0.000000 deg.\r\n# Angle_increment 0.000000 deg.",
# "Content-Type": "application/octet-stream;",
# "conversions": "x-CBF_BYTE_OFFSET",
# "Content-Transfer-Encoding": "BINARY",
# "X-Binary-Size": "10166616",
# "X-Binary-ID": "1",
# "X-Binary-Element-Type": "signed 32-bit integer",
# "X-Binary-Element-Byte-Order": "LITTLE_ENDIAN",
# "Content-MD5": "ZkX7JWGLOws8iaz8gV3d6g==",
# "X-Binary-Number-of-Elements": "10166590",
# "X-Binary-Size-Fastest-Dimension": "3110",
# "X-Binary-Size-Second-Dimension": "3269",
# "X-Binary-Size-Padding": "4095"
# }
# --> H:/Proxima2a_2019-04-05/RAW_DATA/C5_gel17_position5/C5_mesh_1_data.cbf/C5_mesh_1_data.cbf000055.dat
#        q_A^-1              I           sigma 
  1.105228e-03    1.256730e+00   6.066079e-01
  3.315685e-03    1.396999e+00   3.888154e-01
  5.526141e-03    1.266785e+00   2.863015e-01
  7.736597e-03    1.435061e+00   2.574278e-01
  9.947054e-03    1.285335e+00   2.147755e-01
  1.215751e-02    1.192701e+00   1.870830e-01
  1.436797e-02    1.409473e+00   1.870700e-01
  1.657842e-02    1.434404e+00   1.756629e-01
  1.878888e-02    1.376877e+00   1.616632e-01
  2.099934e-02    1.395699e+00   1.539919e-01
  2.320979e-02    1.333698e+00   1.431731e-01
  2.542025e-02    1.338174e+00   1.370458e-01
  2.763070e-02    1.519653e+00   1.400756e-01
  2.984116e-02    1.333146e+00   1.262453e-01
  3.205162e-02    1.443534e+00   1.267651e-01
  3.426207e-02    1.433548e+00   1.221746e-01
  3.647253e-02    1.281279e+00   1.119468e-01
  3.868299e-02    1.467609e+00   1.163458e-01
  4.089344e-02    1.504458e+00   1.145700e-01
  4.310390e-02    1.338089e+00   1.052365e-01
  4.531436e-02    1.347437e+00   1.029959e-01
  4.752481e-02    1.371160e+00   1.014526e-01
  4.973527e-02    1.450580e+00   1.020053e-01
  5.194572e-02    1.518422e+00   1.021173e-01
  5.415618e-02    1.460393e+00   9.807845e-02
  5.636664e-02    1.475213e+00   9.662569e-02
  5.857709e-02    1.640358e+00   9.995025e-02
  6.078755e-02    1.552013e+00   9.543443e-02
  6.299801e-02    1.483071e+00   9.163839e-02
  6.520846e-02    1.364502e+00   8.639684e-02
  6.741892e-02    1.418379e+00   8.662554e-02
  6.962938e-02    1.483113e+00   8.716728e-02
  7.183983e-02    1.398668e+00   8.333538e-02
  7.405029e-02    1.412201e+00   8.247636e-02
  7.626074e-02    1.426731e+00   8.168858e-02
  7.847120e-02    1.485335e+00   8.216487e-02
  8.068166e-02    1.441290e+00   7.982042e-02
  8.289211e-02    1.543419e+00   8.149080e-02
  8.510257e-02    1.453129e+00   7.803718e-02
  8.731303e-02    1.420593e+00   7.617273e-02
  8.952348e-02    1.384856e+00   7.427624e-02
  9.173394e-02    1.475668e+00   7.574048e-02
  9.394439e-02    1.639718e+00   7.889218e-02
  9.615485e-02    1.504118e+00   7.468455e-02
  9.836531e-02    1.504218e+00   7.384104e-02
  1.005758e-01    1.469451e+00   7.217669e-02
  1.027862e-01    1.443603e+00   7.076390e-02
  1.049967e-01    1.442954e+00   6.999809e-02
  1.072071e-01    1.539639e+00   7.155505e-02
  1.094176e-01    1.469757e+00   6.920145e-02
  1.116280e-01    1.556981e+00   7.051495e-02
  1.138385e-01    1.529707e+00   6.921136e-02
  1.160490e-01    1.541519e+00   6.881236e-02
  1.182594e-01    1.497145e+00   6.717649e-02
  1.204699e-01    1.529337e+00   6.726856e-02
  1.226803e-01    1.616220e+00   6.852429e-02
  1.248908e-01    1.549221e+00   6.649182e-02
  1.271012e-01    1.532498e+00   6.555310e-02
  1.293117e-01    1.556233e+00   6.549091e-02
  1.315222e-01    1.552375e+00   6.485621e-02
  1.337326e-01    1.549845e+00   6.426429e-02
  1.359431e-01    1.635198e+00   6.604880e-02
  1.381535e-01    1.621302e+00   6.665036e-02
  1.403640e-01    1.520953e+00   6.483352e-02
  1.425744e-01    1.535719e+00   6.525154e-02
  1.447849e-01    1.630160e+00   6.724346e-02
  1.469953e-01    1.491655e+00   6.428315e-02
  1.492058e-01    1.515297e+00   6.471524e-02
  1.514163e-01    1.548124e+00   6.530388e-02
  1.536267e-01    1.598835e+00   6.623524e-02
  1.558372e-01    1.588908e+00   6.588354e-02
  1.580476e-01    1.580908e+00   6.555800e-02
  1.602581e-01    1.548655e+00   6.472101e-02
  1.624685e-01    1.658360e+00   6.679078e-02
  1.646790e-01    1.698259e+00   6.739543e-02
  1.668895e-01    1.718594e+00   6.760192e-02
  1.690999e-01    1.703561e+00   6.710349e-02
  1.713104e-01    1.730358e+00   6.741932e-02
  1.735208e-01    1.692059e+00   6.646172e-02
  1.757313e-01    1.775026e+00   6.785828e-02
  1.779417e-01    1.742836e+00   6.702089e-02
  1.801522e-01    1.832512e+00   6.850461e-02
  1.823626e-01    1.856351e+00   6.871923e-02
  1.845731e-01    1.857084e+00   6.851017e-02
  1.867836e-01    1.912329e+00   6.928708e-02
  1.889940e-01    1.995965e+00   7.055473e-02
  1.912045e-01    1.899119e+00   6.859193e-02
  1.934149e-01    1.939514e+00   6.908558e-02
  1.956254e-01    1.913874e+00   6.840105e-02
  1.978358e-01    2.010316e+00   6.986302e-02
  2.000463e-01    2.061713e+00   7.051603e-02
  2.022568e-01    2.024573e+00   6.964865e-02
  2.044672e-01    2.074510e+00   7.026085e-02
  2.066777e-01    2.037046e+00   6.939245e-02
  2.088881e-01    1.927432e+00   6.727879e-02
  2.110986e-01    1.929055e+00   6.707627e-02
  2.133090e-01    1.972891e+00   6.761359e-02
  2.155195e-01    1.924386e+00   6.655578e-02
  2.177300e-01    1.907322e+00   6.573947e-02
  2.199404e-01    1.940627e+00   6.456368e-02
  2.221509e-01    1.993726e+00   6.436642e-02
  2.243613e-01    1.964429e+00   6.308180e-02
  2.265718e-01    1.955740e+00   6.224836e-02
  2.287822e-01    2.056439e+00   6.319902e-02
  2.309927e-01    2.033207e+00   6.226855e-02
  2.332031e-01    2.109490e+00   6.288305e-02
  2.354136e-01    2.180640e+00   6.341654e-02
  2.376241e-01    2.160207e+00   6.262884e-02
  2.398345e-01    2.125935e+00   6.167021e-02
  2.420450e-01    2.129219e+00   6.127676e-02
  2.442554e-01    2.073041e+00   6.004644e-02
  2.464659e-01    2.131450e+00   6.047769e-02
  2.486763e-01    2.113869e+00   5.983187e-02
  2.508868e-01    2.158860e+00   6.008380e-02
  2.530973e-01    2.107978e+00   5.900344e-02
  2.553077e-01    2.100162e+00   5.853669e-02
  2.575182e-01    2.023024e+00   5.711173e-02
  2.597286e-01    1.997982e+00   5.642721e-02
  2.619391e-01    2.067580e+00   5.707112e-02
  2.641495e-01    2.054038e+00   5.656909e-02
  2.663600e-01    2.066720e+00   5.643139e-02
  2.685704e-01    2.110759e+00   5.672033e-02
  2.707809e-01    2.036042e+00   5.541171e-02
  2.729914e-01    2.040705e+00   5.518600e-02
  2.752018e-01    2.072604e+00   5.532619e-02
  2.774123e-01    2.025669e+00   5.441677e-02
  2.796227e-01    2.032756e+00   5.424222e-02
  2.818332e-01    2.029319e+00   5.392598e-02
  2.840436e-01    1.943717e+00   5.252055e-02
  2.862541e-01    1.976426e+00   5.270600e-02
  2.884646e-01    2.040450e+00   5.329875e-02
  2.906750e-01    2.000607e+00   5.252555e-02
  2.928855e-01    2.018897e+00   5.252063e-02
  2.950959e-01    1.990599e+00   5.191168e-02
  2.973064e-01    1.978725e+00   5.152402e-02
  2.995168e-01    1.944364e+00   5.084338e-02
  3.017273e-01    1.904430e+00   5.009669e-02
  3.039377e-01    1.913491e+00   4.999585e-02
  3.061482e-01    1.848809e+00   4.893100e-02
  3.083587e-01    1.904281e+00   4.944468e-02
  3.105691e-01    1.900622e+00   4.918617e-02
  3.127796e-01    1.904189e+00   4.902532e-02
  3.149900e-01    1.884388e+00   4.856655e-02
  3.172005e-01    1.921268e+00   4.883896e-02
  3.194109e-01    1.879232e+00   4.810236e-02
  3.216214e-01    1.930407e+00   4.855396e-02
  3.238319e-01    1.861343e+00   4.748861e-02
  3.260423e-01    1.847536e+00   4.712370e-02
  3.282528e-01    1.927515e+00   4.794125e-02
  3.304632e-01    1.922994e+00   4.769951e-02
  3.326737e-01    1.861164e+00   4.674331e-02
  3.348841e-01    1.814221e+00   4.597109e-02
  3.370946e-01    1.832484e+00   4.602807e-02
  3.393050e-01    1.861640e+00   4.621704e-02
  3.415155e-01    1.891444e+00   4.641039e-02
  3.437260e-01    1.819706e+00   4.535305e-02
  3.459364e-01    1.789107e+00   4.480373e-02
  3.481469e-01    1.822206e+00   4.505124e-02
  3.503573e-01    1.882225e+00   4.562038e-02
  3.525678e-01    1.813693e+00   4.462258e-02
  3.547782e-01    1.770980e+00   4.393461e-02
  3.569887e-01    1.814492e+00   4.431351e-02
  3.591992e-01    1.776400e+00   4.369076e-02
  3.614096e-01    1.767441e+00   4.342932e-02
  3.636201e-01    1.839497e+00   4.415006e-02
  3.658305e-01    1.817646e+00   4.373736e-02
  3.680410e-01    1.840876e+00   4.386460e-02
  3.702514e-01    1.820382e+00   4.347303e-02
  3.724619e-01    1.767935e+00   4.269632e-02
  3.746724e-01    1.764527e+00   4.251283e-02
  3.768828e-01    1.746210e+00   4.214927e-02
  3.790933e-01    1.778631e+00   4.240016e-02
  3.813037e-01    1.769216e+00   4.214942e-02
  3.835142e-01    1.730191e+00   4.154508e-02
  3.857246e-01    1.768703e+00   4.186894e-02
  3.879351e-01    1.753973e+00   4.155930e-02
  3.901455e-01    1.784589e+00   4.178698e-02
  3.923560e-01    1.755327e+00   4.131126e-02
  3.945665e-01    1.800142e+00   4.170261e-02
  3.967769e-01    1.826506e+00   4.187533e-02
  3.989874e-01    1.794345e+00   4.137544e-02
  4.011978e-01    1.781823e+00   4.110401e-02
  4.034083e-01    1.724656e+00   4.031512e-02
  4.056187e-01    1.741837e+00   4.039061e-02
  4.078292e-01    1.821169e+00   4.117517e-02
  4.100397e-01    1.830119e+00   4.115021e-02
  4.122501e-01    1.772910e+00   4.038076e-02
  4.144606e-01    1.780213e+00   4.034384e-02
  4.166710e-01    1.822479e+00   4.069858e-02
  4.188815e-01    1.810816e+00   4.044832e-02
  4.210919e-01    1.797877e+00   4.018545e-02
  4.233024e-01    1.790770e+00   3.998795e-02
  4.255128e-01    1.796202e+00   3.993281e-02
  4.277233e-01    1.801348e+00   3.987505e-02
  4.299338e-01    1.810817e+00   3.986470e-02
  4.321442e-01    1.796428e+00   3.959236e-02
  4.343547e-01    1.855519e+00   4.012449e-02
  4.365651e-01    1.788275e+00   3.927882e-02
  4.387756e-01    1.754161e+00   3.879343e-02
  4.409860e-01    1.735592e+00   3.848065e-02
  4.431965e-01    1.707915e+00   3.806704e-02
  4.454070e-01    1.760382e+00   3.853979e-02
  4.476174e-01    1.745871e+00   3.827527e-02
  4.498279e-01    1.696475e+00   3.762725e-02
  4.520383e-01    1.739964e+00   3.800190e-02
  4.542488e-01    1.752875e+00   3.803979e-02
  4.564592e-01    1.727454e+00   3.766163e-02
  4.586697e-01    1.696074e+00   3.721896e-02
  4.608801e-01    1.712830e+00   3.730215e-02
  4.630906e-01    1.684273e+00   3.689196e-02
  4.653011e-01    1.655445e+00   3.647869e-02
  4.675115e-01    1.668847e+00   3.652958e-02
  4.697220e-01    1.655000e+00   3.628249e-02
  4.719324e-01    1.673548e+00   3.639084e-02
  4.741429e-01    1.684872e+00   3.641968e-02
  4.763533e-01    1.751468e+00   3.703726e-02
  4.785638e-01    1.751436e+00   3.694125e-02
  4.807743e-01    1.771611e+00   3.705891e-02
  4.829847e-01    1.963539e+00   3.891610e-02
  4.851952e-01    2.103940e+00   4.018154e-02
  4.874056e-01    1.912988e+00   3.821816e-02
  4.896161e-01    1.816203e+00   3.714645e-02
  4.918265e-01    1.883241e+00   3.773182e-02
  4.940370e-01    2.084886e+00   3.960249e-02
  4.962475e-01    1.982006e+00   3.851776e-02
  4.984579e-01    1.822185e+00   3.684107e-02
  5.006684e-01    1.828780e+00   3.681771e-02
  5.028788e-01    1.779423e+00   3.622948e-02
  5.050893e-01    1.690852e+00   3.523041e-02
  5.072997e-01    1.719295e+00   3.543967e-02
  5.095102e-01    1.709626e+00   3.525525e-02
  5.117206e-01    1.718193e+00   3.525943e-02
  5.139311e-01    1.722587e+00   3.522094e-02
  5.161416e-01    1.643940e+00   3.432622e-02
  5.183520e-01    1.623295e+00   3.402891e-02
  5.205625e-01    1.630800e+00   3.402760e-02
  5.227729e-01    1.661403e+00   3.426528e-02
  5.249834e-01    1.648986e+00   3.405774e-02
  5.271938e-01    1.706304e+00   3.456377e-02
  5.294043e-01    1.705323e+00   3.447408e-02
  5.316148e-01    1.742604e+00   3.476905e-02
  5.338252e-01    1.747658e+00   3.473986e-02
  5.360357e-01    1.777206e+00   3.495258e-02
  5.382461e-01    1.716607e+00   3.427384e-02
  5.404566e-01    1.740174e+00   3.442977e-02
  5.426670e-01    1.733896e+00   3.429016e-02
  5.448775e-01    1.726615e+00   3.414165e-02
  5.470879e-01    1.767979e+00   3.447115e-02
  5.492984e-01    1.767176e+00   3.438667e-02
  5.515089e-01    1.772691e+00   3.436393e-02
  5.537193e-01    1.753651e+00   3.410357e-02
  5.559298e-01    1.777175e+00   3.425624e-02
  5.581402e-01    1.785490e+00   3.426127e-02
  5.603507e-01    1.766372e+00   3.400319e-02
  5.625611e-01    1.754708e+00   3.381718e-02
  5.647716e-01    1.784728e+00   3.403117e-02
  5.669821e-01    1.813823e+00   3.423349e-02
  5.691925e-01    1.800641e+00   3.403565e-02
  5.714030e-01    1.798812e+00   3.394585e-02
  5.736134e-01    1.718205e+00   3.310599e-02
  5.758239e-01    1.717982e+00   3.303316e-02
  5.780343e-01    1.713148e+00   3.291690e-02
  5.802448e-01    1.655430e+00   3.228990e-02
  5.824552e-01    1.617551e+00   3.185137e-02
  5.846657e-01    1.584445e+00   3.145801e-02
  5.868762e-01    1.648463e+00   3.202043e-02
  5.890866e-01    1.629085e+00   3.176565e-02
  5.912971e-01    1.630904e+00   3.171755e-02
  5.935075e-01    1.641498e+00   3.175466e-02
  5.957180e-01    1.608840e+00   3.137268e-02
  5.979284e-01    1.630088e+00   3.151468e-02
  6.001389e-01    1.639268e+00   3.153898e-02
  6.023494e-01    1.613402e+00   3.122560e-02
  6.045598e-01    1.642535e+00   3.144212e-02
  6.067703e-01    1.669197e+00   3.163255e-02
  6.089807e-01    1.654487e+00   3.142954e-02
  6.111912e-01    1.692713e+00   3.172706e-02
  6.134016e-01    1.705388e+00   3.178212e-02
  6.156121e-01    1.728000e+00   3.192852e-02
  6.178226e-01    1.730160e+00   3.188524e-02
  6.200330e-01    1.714170e+00   3.167494e-02
  6.222435e-01    1.716694e+00   3.163546e-02
  6.244539e-01    1.719633e+00   3.160053e-02
  6.266644e-01    1.709689e+00   3.144757e-02
  6.288748e-01    1.717417e+00   3.145721e-02
  6.310853e-01    1.723147e+00   3.144848e-02
  6.332957e-01    1.711645e+00   3.128282e-02
  6.355062e-01    1.710616e+00   3.121266e-02
  6.377167e-01    1.706643e+00   3.111657e-02
  6.399271e-01    1.746704e+00   3.141935e-02
  6.421376e-01    1.747137e+00   3.136326e-02
  6.443480e-01    1.671396e+00   3.061757e-02
  6.465585e-01    1.677318e+00   3.061362e-02
  6.487689e-01    1.718410e+00   3.092786e-02
  6.509794e-01    1.721828e+00   3.090021e-02
  6.531899e-01    1.677061e+00   3.043855e-02
  6.554003e-01    1.606985e+00   2.973978e-02
  6.576108e-01    1.587919e+00   2.950779e-02
  6.598212e-01    1.609717e+00   2.965441e-02
  6.620317e-01    1.613289e+00   2.963229e-02
  6.642421e-01    1.595818e+00   2.941687e-02
  6.664526e-01    1.596722e+00   2.937100e-02
  6.686630e-01    1.583197e+00   2.919225e-02
  6.708735e-01    1.625847e+00   2.952858e-02
  6.730840e-01    1.641269e+00   2.961422e-02
  6.752944e-01    1.611674e+00   2.929264e-02
  6.775049e-01    1.630410e+00   2.940892e-02
  6.797153e-01    1.578668e+00   2.888609e-02
  6.819258e-01    1.620070e+00   2.920964e-02
  6.841362e-01    1.605473e+00   2.902547e-02
  6.863467e-01    1.568337e+00   2.863644e-02
  6.885572e-01    1.592834e+00   2.880749e-02
  6.907676e-01    1.577795e+00   2.861981e-02
  6.929781e-01    1.576880e+00   2.856065e-02
  6.951885e-01    1.567301e+00   2.842333e-02
  6.973990e-01    1.624663e+00   2.888764e-02
  6.996094e-01    1.614502e+00   2.874650e-02
  7.018199e-01    1.582441e+00   2.840969e-02
  7.040303e-01    1.587505e+00   2.840513e-02
  7.062408e-01    1.587604e+00   2.835625e-02
  7.084513e-01    1.605151e+00   2.846293e-02
  7.106617e-01    1.588129e+00   2.826243e-02
  7.128722e-01    1.532933e+00   2.771889e-02
  7.150826e-01    1.564931e+00   2.795844e-02
  7.172931e-01    1.570046e+00   2.795581e-02
  7.195035e-01    1.528798e+00   2.753872e-02
  7.217140e-01    1.549529e+00   2.777385e-02
  7.239245e-01    1.541727e+00   2.792820e-02
  7.261349e-01    1.563324e+00   2.823136e-02
  7.283454e-01    1.514027e+00   2.785367e-02
  7.305558e-01    1.538810e+00   2.813407e-02
  7.327663e-01    1.578497e+00   2.853712e-02
  7.349767e-01    1.581175e+00   2.857774e-02
  7.371872e-01    1.559483e+00   2.836990e-02
  7.393976e-01    1.553595e+00   2.830213e-02
  7.416081e-01    1.547306e+00   2.822874e-02
  7.438186e-01    1.558247e+00   2.818481e-02
  7.460290e-01    1.552550e+00   2.784107e-02
  7.482395e-01    1.562673e+00   2.776118e-02
  7.504499e-01    1.544808e+00   2.746706e-02
  7.526604e-01    1.594542e+00   2.778841e-02
  7.548708e-01    1.564160e+00   2.743329e-02
  7.570813e-01    1.541913e+00   2.718706e-02
  7.592918e-01    1.554886e+00   2.726622e-02
  7.615022e-01    1.562910e+00   2.730281e-02
  7.637127e-01    1.568541e+00   2.731924e-02
  7.659231e-01    1.565820e+00   2.726362e-02
  7.681336e-01    1.570045e+00   2.726883e-02
  7.703440e-01    1.550808e+00   2.707027e-02
  7.725545e-01    1.569112e+00   2.719871e-02
  7.747650e-01    1.574454e+00   2.720680e-02
  7.769754e-01    1.548161e+00   2.692641e-02
  7.791859e-01    1.550315e+00   2.689208e-02
  7.813963e-01    1.544293e+00   2.678779e-02
  7.836068e-01    1.572913e+00   2.698306e-02
  7.858172e-01    1.586727e+00   2.705063e-02
  7.880277e-01    1.620703e+00   2.728669e-02
  7.902381e-01    1.601447e+00   2.707485e-02
  7.924486e-01    1.575047e+00   2.680100e-02
  7.946591e-01    1.613974e+00   2.708166e-02
  7.968695e-01    1.612133e+00   2.701782e-02
  7.990800e-01    1.591276e+00   2.679449e-02
  8.012904e-01    1.600985e+00   2.682961e-02
  8.035009e-01    1.642311e+00   2.712532e-02
  8.057113e-01    1.691512e+00   2.748103e-02
  8.079218e-01    1.699610e+00   2.749922e-02
  8.101323e-01    1.675625e+00   2.725811e-02
  8.123427e-01    1.694554e+00   2.736492e-02
  8.145532e-01    1.679836e+00   2.719921e-02
  8.167636e-01    1.653739e+00   2.694174e-02
  8.189741e-01    1.649281e+00   2.686052e-02
  8.211845e-01    1.723261e+00   2.741032e-02
  8.233950e-01    1.680979e+00   2.702798e-02
  8.256054e-01    1.617788e+00   2.647113e-02
  8.278159e-01    1.655964e+00   2.673742e-02
  8.300264e-01    1.648799e+00   2.663629e-02
  8.322368e-01    1.681332e+00   2.685411e-02
  8.344473e-01    1.696826e+00   2.693343e-02
  8.366577e-01    1.645933e+00   2.648379e-02
  8.388682e-01    1.639609e+00   2.639058e-02
  8.410786e-01    1.647516e+00   2.641200e-02
  8.432891e-01    1.669033e+00   2.654166e-02
  8.454996e-01    1.683343e+00   2.661304e-02
  8.477100e-01    1.621556e+00   2.607860e-02
  8.499205e-01    1.621682e+00   2.603864e-02
  8.521309e-01    1.631546e+00   2.607701e-02
  8.543414e-01    1.616289e+00   2.591428e-02
  8.565518e-01    1.598812e+00   2.573370e-02
  8.587623e-01    1.590127e+00   2.562371e-02
  8.609727e-01    1.622917e+00   2.584644e-02
  8.631832e-01    1.635863e+00   2.590930e-02
  8.653937e-01    1.620995e+00   2.575167e-02
  8.676041e-01    1.581090e+00   2.539435e-02
  8.698146e-01    1.613888e+00   2.561715e-02
  8.720250e-01    1.580371e+00   2.531115e-02
  8.742355e-01    1.564327e+00   2.514398e-02
  8.764459e-01    1.594478e+00   2.534641e-02
  8.786564e-01    1.589318e+00   2.526765e-02
  8.808669e-01    1.601577e+00   2.532645e-02
  8.830773e-01    1.602950e+00   2.529917e-02
  8.852878e-01    1.591246e+00   2.516885e-02
  8.874982e-01    1.592491e+00   2.514214e-02
  8.897087e-01    1.575165e+00   2.496764e-02
  8.919191e-01    1.544530e+00   2.468656e-02
  8.941296e-01    1.569434e+00   2.484784e-02
  8.963401e-01    1.577821e+00   2.487798e-02
  8.985505e-01    1.590399e+00   2.494010e-02
  9.007610e-01    1.572457e+00   2.476260e-02
  9.029714e-01    1.556240e+00   2.459923e-02
  9.051819e-01    1.580911e+00   2.475645e-02
  9.073923e-01    1.568321e+00   2.462147e-02
  9.096028e-01    1.550092e+00   2.444361e-02
  9.118132e-01    1.523459e+00   2.419735e-02
  9.140237e-01    1.567692e+00   2.450985e-02
  9.162342e-01    1.606386e+00   2.477587e-02
  9.184446e-01    1.612383e+00   2.478616e-02
  9.206551e-01    1.633705e+00   2.491356e-02
  9.228655e-01    1.642141e+00   2.494210e-02
  9.250760e-01    1.594539e+00   2.454267e-02
  9.272864e-01    1.616302e+00   2.467516e-02
  9.294969e-01    1.638460e+00   2.480752e-02
  9.317074e-01    1.599537e+00   2.447645e-02
  9.339178e-01    1.616029e+00   2.456871e-02
  9.361283e-01    1.606049e+00   2.445662e-02
  9.383387e-01    1.613202e+00   2.447768e-02
  9.405492e-01    1.638405e+00   2.463370e-02
  9.427596e-01    1.643053e+00   2.463310e-02
  9.449701e-01    1.674652e+00   2.483507e-02
  9.471805e-01    1.642314e+00   2.455928e-02
  9.493910e-01    1.679323e+00   2.480034e-02
  9.516015e-01    1.719369e+00   2.505928e-02
  9.538119e-01    1.715211e+00   2.499468e-02
  9.560224e-01    1.686197e+00   2.474748e-02
  9.582328e-01    1.730217e+00   2.503480e-02
  9.604433e-01    1.749304e+00   2.513686e-02
  9.626537e-01    1.783884e+00   2.534997e-02
  9.648642e-01    1.776023e+00   2.525941e-02
  9.670747e-01    1.790770e+00   2.532909e-02
  9.692851e-01    1.796934e+00   2.533891e-02
  9.714956e-01    1.762234e+00   2.505769e-02
  9.737060e-01    1.787168e+00   2.520117e-02
  9.759165e-01    1.778321e+00   2.510330e-02
  9.781269e-01    1.751508e+00   2.488071e-02
  9.803374e-01    1.787062e+00   2.509721e-02
  9.825478e-01    1.781800e+00   2.502719e-02
  9.847583e-01    1.771866e+00   2.492343e-02
  9.869688e-01    1.794607e+00   2.504928e-02
  9.891792e-01    1.780001e+00   2.491399e-02
  9.913897e-01    1.745080e+00   2.463512e-02
  9.936001e-01    1.682448e+00   2.415731e-02
  9.958106e-01    1.697210e+00   2.423008e-02
  9.980210e-01    1.683638e+00   2.410169e-02
  1.000231e+00    1.669661e+00   2.413292e-02
  1.002442e+00    1.609732e+00   2.382179e-02
  1.004652e+00    1.598694e+00   2.380617e-02
  1.006863e+00    1.589435e+00   2.378639e-02
  1.009073e+00    1.580202e+00   2.375351e-02
  1.011284e+00    1.556413e+00   2.360555e-02
  1.013494e+00    1.555506e+00   2.362207e-02
  1.015705e+00    1.530798e+00   2.345587e-02
  1.017915e+00    1.506704e+00   2.328659e-02
  1.020126e+00    1.513027e+00   2.335114e-02
  1.022336e+00    1.533967e+00   2.352377e-02
  1.024547e+00    1.505271e+00   2.331376e-02
  1.026757e+00    1.502160e+00   2.329790e-02
  1.028967e+00    1.513310e+00   2.339179e-02
  1.031178e+00    1.504936e+00   2.333312e-02
  1.033388e+00    1.497304e+00   2.327885e-02
  1.035599e+00    1.501161e+00   2.331222e-02
  1.037809e+00    1.496354e+00   2.327808e-02
  1.040020e+00    1.497749e+00   2.329020e-02
  1.042230e+00    1.458621e+00   2.298589e-02
  1.044441e+00    1.439991e+00   2.283836e-02
  1.046651e+00    1.489200e+00   2.322550e-02
  1.048862e+00    1.499582e+00   2.330553e-02
  1.051072e+00    1.496800e+00   2.328155e-02
  1.053282e+00    1.496658e+00   2.327950e-02
  1.055493e+00    1.477087e+00   2.312251e-02
  1.057703e+00    1.461001e+00   2.299477e-02
  1.059914e+00    1.456328e+00   2.295373e-02
  1.062124e+00    1.461841e+00   2.299314e-02
  1.064335e+00    1.429785e+00   2.273625e-02
  1.066545e+00    1.443524e+00   2.283931e-02
  1.068756e+00    1.435882e+00   2.277509e-02
  1.070966e+00    1.458167e+00   2.294466e-02
  1.073177e+00    1.447913e+00   2.285784e-02
  1.075387e+00    1.467659e+00   2.300794e-02
  1.077597e+00    1.470601e+00   2.302375e-02
  1.079808e+00    1.448704e+00   2.271966e-02
  1.082018e+00    1.408995e+00   2.222059e-02
  1.084229e+00    1.407013e+00   2.209689e-02
  1.086439e+00    1.437713e+00   2.224978e-02
  1.088650e+00    1.419259e+00   2.203177e-02
  1.090860e+00    1.405143e+00   2.185546e-02
  1.093071e+00    1.434199e+00   2.201842e-02
  1.095281e+00    1.448769e+00   2.207269e-02
  1.097492e+00    1.409994e+00   2.172108e-02
  1.099702e+00    1.404859e+00   2.163072e-02
  1.101912e+00    1.401394e+00   2.155584e-02
  1.104123e+00    1.405257e+00   2.153780e-02
  1.106333e+00    1.436330e+00   2.173017e-02
  1.108544e+00    1.417808e+00   2.154554e-02
  1.110754e+00    1.407007e+00   2.142057e-02
  1.112965e+00    1.396340e+00   2.129908e-02
  1.115175e+00    1.378282e+00   2.112031e-02
  1.117386e+00    1.402564e+00   2.126646e-02
  1.119596e+00    1.412107e+00   2.130082e-02
  1.121807e+00    1.404906e+00   2.120768e-02
  1.124017e+00    1.424433e+00   2.131768e-02
  1.126228e+00    1.433172e+00   2.134686e-02
  1.128438e+00    1.414899e+00   2.117340e-02
  1.130648e+00    1.430559e+00   2.125553e-02
  1.132859e+00    1.477563e+00   2.156656e-02
  1.135069e+00    1.508149e+00   2.175251e-02
  1.137280e+00    1.498476e+00   2.164840e-02
  1.139490e+00    1.483324e+00   2.150444e-02
  1.141701e+00    1.563972e+00   2.204611e-02
  1.143911e+00    1.559927e+00   2.198378e-02
  1.146122e+00    1.492514e+00   2.147024e-02
  1.148332e+00    1.434679e+00   2.101763e-02
  1.150543e+00    1.413228e+00   2.082866e-02
  1.152753e+00    1.398672e+00   2.069003e-02
  1.154963e+00    1.402798e+00   2.068915e-02
  1.157174e+00    1.379161e+00   2.048388e-02
  1.159384e+00    1.404887e+00   2.064383e-02
  1.161595e+00    1.426992e+00   2.077515e-02
  1.163805e+00    1.451761e+00   2.092453e-02
  1.166016e+00    1.443828e+00   2.083707e-02
  1.168226e+00    1.470033e+00   2.099526e-02
  1.170437e+00    1.558676e+00   2.158838e-02
  1.172647e+00    1.672832e+00   2.233304e-02
  1.174858e+00    1.647998e+00   2.213579e-02
  1.177068e+00    1.535687e+00   2.133825e-02
  1.179278e+00    1.429173e+00   2.055565e-02
  1.181489e+00    1.387117e+00   2.022364e-02
  1.183699e+00    1.360766e+00   2.000305e-02
  1.185910e+00    1.317778e+00   1.965718e-02
  1.188120e+00    1.351163e+00   1.987798e-02
  1.190331e+00    1.342291e+00   1.978599e-02
  1.192541e+00    1.351961e+00   1.982977e-02
  1.194752e+00    1.358821e+00   1.985292e-02
  1.196962e+00    1.345971e+00   1.973313e-02
  1.199173e+00    1.348224e+00   1.972316e-02
  1.201383e+00    1.355465e+00   1.974882e-02
  1.203593e+00    1.356984e+00   1.973502e-02
  1.205804e+00    1.332399e+00   1.952969e-02
  1.208014e+00    1.311337e+00   1.934824e-02
  1.210225e+00    1.331223e+00   1.946924e-02
  1.212435e+00    1.347712e+00   1.956468e-02
  1.214646e+00    1.329226e+00   1.940413e-02
  1.216856e+00    1.325951e+00   1.935497e-02
  1.219067e+00    1.322381e+00   1.930466e-02
  1.221277e+00    1.318489e+00   1.925152e-02
  1.223488e+00    1.329498e+00   1.930616e-02
  1.225698e+00    1.326755e+00   1.925958e-02
  1.227909e+00    1.318035e+00   1.916637e-02
  1.230119e+00    1.323697e+00   1.917595e-02
  1.232329e+00    1.321997e+00   1.913323e-02
  1.234540e+00    1.336915e+00   1.921074e-02
  1.236750e+00    1.331331e+00   1.914053e-02
  1.238961e+00    1.337199e+00   1.915583e-02
  1.241171e+00    1.310752e+00   1.894162e-02
  1.243382e+00    1.306983e+00   1.889123e-02
  1.245592e+00    1.347168e+00   1.915536e-02
  1.247803e+00    1.349853e+00   1.915080e-02
  1.250013e+00    1.344773e+00   1.909124e-02
  1.252224e+00    1.318263e+00   1.887916e-02
  1.254434e+00    1.321946e+00   1.888200e-02
  1.256644e+00    1.331869e+00   1.892968e-02
  1.258855e+00    1.318018e+00   1.880803e-02
  1.261065e+00    1.311211e+00   1.873634e-02
  1.263276e+00    1.339534e+00   1.891476e-02
  1.265486e+00    1.322868e+00   1.877410e-02
  1.267697e+00    1.331914e+00   1.881530e-02
  1.269907e+00    1.353626e+00   1.894532e-02
  1.272118e+00    1.343588e+00   1.885243e-02
  1.274328e+00    1.344297e+00   1.883471e-02
  1.276539e+00    1.333954e+00   1.873948e-02
  1.278749e+00    1.324113e+00   1.864813e-02
  1.280959e+00    1.308330e+00   1.851450e-02
  1.283170e+00    1.317607e+00   1.855784e-02
  1.285380e+00    1.327526e+00   1.860531e-02
  1.287591e+00    1.337521e+00   1.865328e-02
  1.289801e+00    1.345962e+00   1.869087e-02
  1.292012e+00    1.317248e+00   1.847354e-02
  1.294222e+00    1.332500e+00   1.856402e-02
  1.296433e+00    1.361272e+00   1.874772e-02
  1.298643e+00    1.359317e+00   1.871774e-02
  1.300854e+00    1.331613e+00   1.850971e-02
  1.303064e+00    1.335455e+00   1.851727e-02
  1.305274e+00    1.380857e+00   1.880771e-02
  1.307485e+00    1.402542e+00   1.893288e-02
  1.309695e+00    1.397311e+00   1.887491e-02
  1.311906e+00    1.364998e+00   1.863357e-02
  1.314116e+00    1.343230e+00   1.846363e-02
  1.316327e+00    1.375706e+00   1.866362e-02
  1.318537e+00    1.353250e+00   1.848875e-02
  1.320748e+00    1.368840e+00   1.857325e-02
  1.322958e+00    1.364695e+00   1.852448e-02
  1.325169e+00    1.351040e+00   1.841053e-02
  1.327379e+00    1.352355e+00   1.839766e-02
  1.329589e+00    1.353168e+00   1.838211e-02
  1.331800e+00    1.360753e+00   1.841276e-02
  1.334010e+00    1.363021e+00   1.840735e-02
  1.336221e+00    1.355059e+00   1.833173e-02
  1.338431e+00    1.341957e+00   1.822208e-02
  1.340642e+00    1.362880e+00   1.842803e-02
  1.342852e+00    1.356187e+00   1.848366e-02
  1.345063e+00    1.350670e+00   1.849551e-02
  1.347273e+00    1.342337e+00   1.847352e-02
  1.349484e+00    1.322656e+00   1.836499e-02
  1.351694e+00    1.334240e+00   1.846779e-02
  1.353905e+00    1.367130e+00   1.871215e-02
  1.356115e+00    1.334546e+00   1.850279e-02
  1.358325e+00    1.297229e+00   1.825530e-02
  1.360536e+00    1.312568e+00   1.837438e-02
  1.362746e+00    1.295291e+00   1.826242e-02
  1.364957e+00    1.317408e+00   1.842523e-02
  1.367167e+00    1.327660e+00   1.850390e-02
  1.369378e+00    1.323206e+00   1.847879e-02
  1.371588e+00    1.309723e+00   1.838950e-02
  1.373799e+00    1.291775e+00   1.826666e-02
  1.376009e+00    1.297940e+00   1.831353e-02
  1.378220e+00    1.283622e+00   1.821471e-02
  1.380430e+00    1.300409e+00   1.833610e-02
  1.382640e+00    1.305863e+00   1.837541e-02
  1.384851e+00    1.299227e+00   1.832954e-02
  1.387061e+00    1.292116e+00   1.827961e-02
  1.389272e+00    1.287742e+00   1.824883e-02
  1.391482e+00    1.310592e+00   1.840936e-02
  1.393693e+00    1.306783e+00   1.838171e-02
  1.395903e+00    1.297737e+00   1.831648e-02
  1.398114e+00    1.267715e+00   1.810201e-02
  1.400324e+00    1.252409e+00   1.799027e-02
  1.402535e+00    1.258025e+00   1.802828e-02
  1.404745e+00    1.252563e+00   1.798676e-02
  1.406955e+00    1.237992e+00   1.787917e-02
  1.409166e+00    1.258597e+00   1.802405e-02
  1.411376e+00    1.257542e+00   1.801340e-02
  1.413587e+00    1.267738e+00   1.808247e-02
  1.415797e+00    1.257094e+00   1.800286e-02
  1.418008e+00    1.254456e+00   1.794237e-02
  1.420218e+00    1.256595e+00   1.780871e-02
  1.422429e+00    1.257584e+00   1.773083e-02
  1.424639e+00    1.268713e+00   1.774444e-02
  1.426850e+00    1.280617e+00   1.777258e-02
  1.429060e+00    1.281788e+00   1.773148e-02
  1.431270e+00    1.282077e+00   1.768896e-02
  1.433481e+00    1.285771e+00   1.767322e-02
  1.435691e+00    1.268599e+00   1.751640e-02
  1.437902e+00    1.281363e+00   1.756767e-02
  1.440112e+00    1.298230e+00   1.764717e-02
  1.442323e+00    1.283759e+00   1.751534e-02
  1.444533e+00    1.299863e+00   1.759191e-02
  1.446744e+00    1.286091e+00   1.746716e-02
  1.448954e+00    1.256007e+00   1.723162e-02
  1.451165e+00    1.239972e+00   1.709188e-02
  1.453375e+00    1.250062e+00   1.713344e-02
  1.455586e+00    1.242675e+00   1.705490e-02
  1.457796e+00    1.230339e+00   1.694294e-02
  1.460006e+00    1.249024e+00   1.704409e-02
  1.462217e+00    1.244592e+00   1.698786e-02
  1.464427e+00    1.272386e+00   1.715087e-02
  1.466638e+00    1.249742e+00   1.697246e-02
  1.468848e+00    1.227034e+00   1.679262e-02
  1.471059e+00    1.276008e+00   1.709930e-02
  1.473269e+00    1.289893e+00   1.716752e-02
  1.475480e+00    1.284738e+00   1.710927e-02
  1.477690e+00    1.261031e+00   1.692692e-02
  1.479901e+00    1.237677e+00   1.674587e-02
  1.482111e+00    1.272155e+00   1.695414e-02
  1.484321e+00    1.252246e+00   1.679800e-02
  1.486532e+00    1.227943e+00   1.661219e-02
  1.488742e+00    1.237012e+00   1.665103e-02
  1.490953e+00    1.250171e+00   1.671688e-02
  1.493163e+00    1.234576e+00   1.659027e-02
  1.495374e+00    1.239401e+00   1.660136e-02
  1.497584e+00    1.235103e+00   1.655113e-02
  1.499795e+00    1.243249e+00   1.658412e-02
  1.502005e+00    1.233169e+00   1.649530e-02
  1.504216e+00    1.246631e+00   1.656415e-02
  1.506426e+00    1.257384e+00   1.661463e-02
  1.508636e+00    1.254200e+00   1.657317e-02
  1.510847e+00    1.248825e+00   1.651586e-02
  1.513057e+00    1.232402e+00   1.638206e-02
  1.515268e+00    1.237279e+00   1.638891e-02
  1.517478e+00    1.233236e+00   1.633715e-02
  1.519689e+00    1.274351e+00   1.658209e-02
  1.521899e+00    1.250309e+00   1.640188e-02
  1.524110e+00    1.229147e+00   1.624232e-02
  1.526320e+00    1.231918e+00   1.624119e-02
  1.528531e+00    1.237222e+00   1.625645e-02
  1.530741e+00    1.240014e+00   1.625573e-02
  1.532951e+00    1.224730e+00   1.613585e-02
  1.535162e+00    1.223567e+00   1.621387e-02
  1.537372e+00    1.204926e+00   1.615561e-02
  1.539583e+00    1.225893e+00   1.632947e-02
  1.541793e+00    1.228247e+00   1.635206e-02
  1.544004e+00    1.223951e+00   1.632367e-02
  1.546214e+00    1.216037e+00   1.626935e-02
  1.548425e+00    1.207152e+00   1.621004e-02
  1.550635e+00    1.218815e+00   1.629775e-02
  1.552846e+00    1.204041e+00   1.620816e-02
  1.555056e+00    1.241370e+00   1.641606e-02
  1.557266e+00    1.225334e+00   1.620012e-02
  1.559477e+00    1.197422e+00   1.595652e-02
  1.561687e+00    1.243324e+00   1.622883e-02
  1.563898e+00    1.233312e+00   1.614629e-02
  1.566108e+00    1.225752e+00   1.608089e-02
  1.568319e+00    1.223914e+00   1.605333e-02
  1.570529e+00    1.230831e+00   1.607363e-02
  1.572740e+00    1.241604e+00   1.611623e-02
  1.574950e+00    1.262148e+00   1.622253e-02
  1.577161e+00    1.264351e+00   1.621100e-02
  1.579371e+00    1.244644e+00   1.606051e-02
  1.581582e+00    1.253085e+00   1.609501e-02
  1.583792e+00    1.256061e+00   1.609604e-02
  1.586002e+00    1.225260e+00   1.587997e-02
  1.588213e+00    1.223703e+00   1.585277e-02
  1.590423e+00    1.237238e+00   1.592018e-02
  1.592634e+00    1.232512e+00   1.586824e-02
  1.594844e+00    1.225438e+00   1.580138e-02
  1.597055e+00    1.222872e+00   1.576449e-02
  1.599265e+00    1.217971e+00   1.571235e-02
  1.601476e+00    1.218122e+00   1.569321e-02
  1.603686e+00    1.212981e+00   1.564051e-02
  1.605897e+00    1.214240e+00   1.562866e-02
  1.608107e+00    1.205719e+00   1.555444e-02
  1.610317e+00    1.205745e+00   1.553552e-02
  1.612528e+00    1.209085e+00   1.553807e-02
  1.614738e+00    1.207343e+00   1.550810e-02
  1.616949e+00    1.200815e+00   1.544735e-02
  1.619159e+00    1.200861e+00   1.542909e-02
  1.621370e+00    1.180291e+00   1.527821e-02
  1.623580e+00    1.202105e+00   1.540050e-02
  1.625791e+00    1.176273e+00   1.521613e-02
  1.628001e+00    1.183502e+00   1.524470e-02
  1.630212e+00    1.156614e+00   1.505305e-02
  1.632422e+00    1.141961e+00   1.493983e-02
  1.634632e+00    1.156131e+00   1.501511e-02
  1.636843e+00    1.144015e+00   1.491895e-02
  1.639053e+00    1.129194e+00   1.480502e-02
  1.641264e+00    1.153270e+00   1.494505e-02
  1.643474e+00    1.141480e+00   1.485124e-02
  1.645685e+00    1.137359e+00   1.480789e-02
  1.647895e+00    1.135703e+00   1.478065e-02
  1.650106e+00    1.150269e+00   1.485814e-02
  1.652316e+00    1.132505e+00   1.472660e-02
  1.654527e+00    1.117970e+00   1.461530e-02
  1.656737e+00    1.086601e+00   1.439260e-02
  1.658947e+00    1.104483e+00   1.449444e-02
  1.661158e+00    1.089965e+00   1.438290e-02
  1.663368e+00    1.086100e+00   1.434160e-02
  1.665579e+00    1.097929e+00   1.440348e-02
  1.667789e+00    1.081155e+00   1.427709e-02
  1.670000e+00    1.073711e+00   1.421261e-02
  1.672210e+00    1.093691e+00   1.432848e-02
  1.674421e+00    1.068148e+00   1.414511e-02
  1.676631e+00    1.066099e+00   1.411592e-02
  1.678842e+00    1.052337e+00   1.400907e-02
  1.681052e+00    1.041094e+00   1.391904e-02
  1.683263e+00    1.032758e+00   1.384844e-02
  1.685473e+00    1.059634e+00   1.401252e-02
  1.687683e+00    1.051071e+00   1.394060e-02
  1.689894e+00    1.050427e+00   1.392078e-02
  1.692104e+00    1.051726e+00   1.391463e-02
  1.694315e+00    1.040897e+00   1.382854e-02
  1.696525e+00    1.026503e+00   1.371773e-02
  1.698736e+00    1.038463e+00   1.378278e-02
  1.700946e+00    1.027163e+00   1.369270e-02
  1.703157e+00    1.007204e+00   1.354472e-02
  1.705367e+00    1.021175e+00   1.362405e-02
  1.707578e+00    1.039485e+00   1.373113e-02
  1.709788e+00    1.022313e+00   1.360332e-02
  1.711998e+00    1.005530e+00   1.347642e-02
  1.714209e+00    1.027244e+00   1.360681e-02
  1.716419e+00    1.004030e+00   1.343814e-02
  1.718630e+00    1.003887e+00   1.342308e-02
  1.720840e+00    1.018209e+00   1.350439e-02
  1.723051e+00    1.027398e+00   1.355131e-02
  1.725261e+00    1.025383e+00   1.352331e-02
  1.727472e+00    1.003734e+00   1.336573e-02
  1.729682e+00    9.959592e-01   1.330051e-02
  1.731893e+00    1.009208e+00   1.337481e-02
  1.734103e+00    9.857896e-01   1.320509e-02
  1.736313e+00    9.825348e-01   1.316941e-02
  1.738524e+00    9.882202e-01   1.319372e-02
  1.740734e+00    1.002979e+00   1.327816e-02
  1.742945e+00    1.002592e+00   1.326210e-02
  1.745155e+00    1.003948e+00   1.325755e-02
  1.747366e+00    9.944927e-01   1.318110e-02
  1.749576e+00    1.003562e+00   1.322729e-02
  1.751787e+00    1.001642e+00   1.320116e-02
  1.753997e+00    9.836177e-01   1.306844e-02
  1.756208e+00    9.751471e-01   1.299884e-02
  1.758418e+00    9.656885e-01   1.292258e-02
  1.760628e+00    9.419380e-01   1.274952e-02
  1.762839e+00    9.299964e-01   1.265545e-02
  1.765049e+00    9.470899e-01   1.275821e-02
  1.767260e+00    9.522650e-01   1.278026e-02
  1.769470e+00    9.540014e-01   1.277894e-02
  1.771681e+00    9.500692e-01   1.273946e-02
  1.773891e+00    9.406720e-01   1.266330e-02
  1.776102e+00    9.486170e-01   1.270378e-02
  1.778312e+00    9.404587e-01   1.263637e-02
  1.780523e+00    8.875570e-01   1.226342e-02
  1.782733e+00    9.213789e-01   1.248233e-02
  1.784944e+00    9.228098e-01   1.247923e-02
  1.787154e+00    9.159338e-01   1.242023e-02
  1.789364e+00    9.108766e-01   1.237356e-02
  1.791575e+00    8.920583e-01   1.223277e-02
  1.793785e+00    9.048072e-01   1.230758e-02
  1.795996e+00    9.053150e-01   1.229863e-02
  1.798206e+00    9.108409e-01   1.232364e-02
  1.800417e+00    9.143951e-01   1.233499e-02
  1.802627e+00    9.771696e-01   1.273900e-02
  1.804838e+00    9.715855e-01   1.269013e-02
  1.807048e+00    9.021453e-01   1.221542e-02
  1.809259e+00    8.775790e-01   1.203457e-02
  1.811469e+00    8.951690e-01   1.213968e-02
  1.813679e+00    8.889988e-01   1.208291e-02
  1.815890e+00    8.592996e-01   1.186495e-02
  1.818100e+00    8.681819e-01   1.191123e-02
  1.820311e+00    8.693844e-01   1.190492e-02
  1.822521e+00    8.795328e-01   1.195944e-02
  1.824732e+00    8.631573e-01   1.183301e-02
  1.826942e+00    8.570191e-01   1.177873e-02
  1.829153e+00    8.554216e-01   1.175624e-02
  1.831363e+00    8.797678e-01   1.191036e-02
  1.833574e+00    9.013376e-01   1.204367e-02
  1.835784e+00    8.981232e-01   1.201064e-02
  1.837994e+00    8.814189e-01   1.188670e-02
  1.840205e+00    8.396304e-01   1.159054e-02
  1.842415e+00    8.495715e-01   1.164733e-02
  1.844626e+00    8.608212e-01   1.171270e-02
  1.846836e+00    8.497708e-01   1.162598e-02
  1.849047e+00    8.544196e-01   1.164621e-02
  1.851257e+00    8.459240e-01   1.157868e-02
  1.853468e+00    8.551278e-01   1.163274e-02
  1.855678e+00    8.505864e-01   1.159298e-02
  1.857889e+00    8.570527e-01   1.162846e-02
  1.860099e+00    8.504754e-01   1.157518e-02
  1.862309e+00    8.437126e-01   1.152061e-02
  1.864520e+00    8.494611e-01   1.155125e-02
  1.866730e+00    8.342474e-01   1.143808e-02
  1.868941e+00    8.285360e-01   1.138806e-02
  1.871151e+00    8.350049e-01   1.142115e-02
  1.873362e+00    8.235818e-01   1.133159e-02
  1.875572e+00    8.409600e-01   1.143963e-02
  1.877783e+00    8.480840e-01   1.147657e-02
  1.879993e+00    8.577864e-01   1.153079e-02
  1.882204e+00    8.732207e-01   1.162298e-02
  1.884414e+00    9.273854e-01   1.196642e-02
  1.886624e+00    9.345169e-01   1.200073e-02
  1.888835e+00    8.684928e-01   1.155789e-02
  1.891045e+00    8.465198e-01   1.139979e-02
  1.893256e+00    8.276686e-01   1.126115e-02
  1.895466e+00    8.281453e-01   1.125326e-02
  1.897677e+00    8.230080e-01   1.120748e-02
  1.899887e+00    8.278030e-01   1.122913e-02
  1.902098e+00    8.432646e-01   1.132259e-02
  1.904308e+00    8.759709e-01   1.152919e-02
  1.906519e+00    8.848281e-01   1.157619e-02
  1.908729e+00    8.455848e-01   1.130585e-02
  1.910940e+00    8.506676e-01   1.132848e-02
  1.913150e+00    8.309309e-01   1.118568e-02
  1.915360e+00    8.126288e-01   1.105127e-02
  1.917571e+00    8.068272e-01   1.100097e-02
  1.919781e+00    7.982454e-01   1.093177e-02
  1.921992e+00    8.146600e-01   1.103301e-02
  1.924202e+00    8.100730e-01   1.099120e-02
  1.926413e+00    8.012143e-01   1.092073e-02
  1.928623e+00    7.893144e-01   1.082895e-02
  1.930834e+00    7.949505e-01   1.085722e-02
  1.933044e+00    8.158758e-01   1.098849e-02
  1.935255e+00    8.056989e-01   1.090946e-02
  1.937465e+00    7.896106e-01   1.078972e-02
  1.939675e+00    7.654857e-01   1.061303e-02
  1.941886e+00    7.737610e-01   1.066015e-02
  1.944096e+00    7.922004e-01   1.077631e-02
  1.946307e+00    8.134612e-01   1.090956e-02
  1.948517e+00    7.846407e-01   1.070422e-02
  1.950728e+00    7.771680e-01   1.064300e-02
  1.952938e+00    8.012211e-01   1.079634e-02
  1.955149e+00    7.887204e-01   1.070160e-02
  1.957359e+00    7.861237e-01   1.067400e-02
  1.959570e+00    7.804728e-01   1.062479e-02
  1.961780e+00    7.898710e-01   1.067866e-02
  1.963990e+00    7.833773e-01   1.062463e-02
  1.966201e+00    8.307339e-01   1.093069e-02
  1.968411e+00    8.754313e-01   1.121028e-02
  1.970622e+00    8.010103e-01   1.071304e-02
  1.972832e+00    7.637928e-01   1.045133e-02
  1.975043e+00    8.026765e-01   1.070391e-02
  1.977253e+00    8.414648e-01   1.094918e-02
  1.979464e+00    8.187290e-01   1.079004e-02
  1.981674e+00    7.834545e-01   1.054474e-02
  1.983885e+00    7.884656e-01   1.056835e-02
  1.986095e+00    7.988673e-01   1.062800e-02
  1.988305e+00    7.809815e-01   1.049848e-02
  1.990516e+00    7.579817e-01   1.033293e-02
  1.992726e+00    7.695280e-01   1.040170e-02
  1.994937e+00    7.663165e-01   1.036994e-02
  1.997147e+00    7.668131e-01   1.036361e-02
  1.999358e+00    7.699701e-01   1.037511e-02
  2.001568e+00    7.593763e-01   1.029277e-02
  2.003779e+00    7.653217e-01   1.032111e-02
  2.005989e+00    7.864608e-01   1.045056e-02
  2.008200e+00    7.655227e-01   1.029902e-02
  2.010410e+00    7.749437e-01   1.035040e-02
  2.012621e+00    7.718157e-01   1.031776e-02
  2.014831e+00    7.595129e-01   1.022380e-02
  2.017041e+00    7.415485e-01   1.009195e-02
  2.019252e+00    7.597103e-01   1.020485e-02
  2.021462e+00    7.555057e-01   1.016715e-02
  2.023673e+00    7.509136e-01   1.012687e-02
  2.025883e+00    7.533863e-01   1.013409e-02
  2.028094e+00    7.584924e-01   1.015875e-02
  2.030304e+00    7.502900e-01   1.009421e-02
  2.032515e+00    7.641942e-01   1.017800e-02
  2.034725e+00    7.561049e-01   1.011455e-02
  2.036936e+00    7.568723e-01   1.011036e-02
  2.039146e+00    7.579215e-01   1.010779e-02
  2.041356e+00    7.567872e-01   1.009058e-02
  2.043567e+00    7.463863e-01   1.001175e-02
  2.045777e+00    7.406491e-01   9.964040e-03
  2.047988e+00    7.271368e-01   9.863541e-03
  2.050198e+00    7.365907e-01   9.919101e-03
  2.052409e+00    7.516442e-01   1.001230e-02
  2.054619e+00    7.470805e-01   9.974522e-03
  2.056830e+00    7.558853e-01   1.002592e-02
  2.059040e+00    7.543857e-01   1.000844e-02
  2.061251e+00    7.516899e-01   9.983289e-03
  2.063461e+00    7.374641e-01   9.880823e-03
  2.065671e+00    7.591097e-01   1.001601e-02
  2.067882e+00    7.245644e-01   9.776608e-03
  2.070092e+00    7.214841e-01   9.746762e-03
  2.072303e+00    7.394562e-01   9.858288e-03
  2.074513e+00    7.484481e-01   9.908745e-03
  2.076724e+00    7.274072e-01   9.759108e-03
  2.078934e+00    7.225556e-01   9.717629e-03
  2.081145e+00    7.258355e-01   9.730669e-03
  2.083355e+00    7.287962e-01   9.741424e-03
  2.085566e+00    7.266739e-01   9.718386e-03
  2.087776e+00    7.408123e-01   9.802965e-03
  2.089986e+00    7.221028e-01   9.669716e-03
  2.092197e+00    7.078702e-01   9.565157e-03
  2.094407e+00    7.233306e-01   9.659887e-03
  2.096618e+00    7.382278e-01   9.749947e-03
  2.098828e+00    7.338428e-01   9.711660e-03
  2.101039e+00    7.109725e-01   9.550272e-03
  2.103249e+00    7.209766e-01   9.608617e-03
  2.105460e+00    7.205134e-01   9.596577e-03
  2.107670e+00    7.245573e-01   9.614757e-03
  2.109881e+00    7.215649e-01   9.585753e-03
  2.112091e+00    7.052571e-01   9.467969e-03
  2.114301e+00    7.087950e-01   9.482986e-03
  2.116512e+00    6.966079e-01   9.392489e-03
  2.118722e+00    6.779644e-01   9.257395e-03
  2.120933e+00    6.946878e-01   9.362149e-03
  2.123143e+00    7.030550e-01   9.409571e-03
  2.125354e+00    6.922860e-01   9.328859e-03
  2.127564e+00    7.052011e-01   9.406790e-03
  2.129775e+00    6.945467e-01   9.326890e-03
  2.131985e+00    6.837441e-01   9.245199e-03
  2.134196e+00    6.967673e-01   9.324331e-03
  2.136406e+00    7.067235e-01   9.382013e-03
  2.138617e+00    6.979344e-01   9.315113e-03
  2.140827e+00    6.875722e-01   9.261517e-03
  2.143037e+00    7.013909e-01   9.399409e-03
  2.145248e+00    7.074869e-01   9.462197e-03
  2.147458e+00    7.016825e-01   9.438427e-03
  2.149669e+00    6.956654e-01   9.409644e-03
  2.151879e+00    6.803632e-01   9.314677e-03
  2.154090e+00    6.880737e-01   9.374537e-03
  2.156300e+00    6.994168e-01   9.458095e-03
  2.158511e+00    6.815352e-01   9.341647e-03
  2.160721e+00    6.830561e-01   9.356827e-03
  2.162932e+00    6.914074e-01   9.417569e-03
  2.165142e+00    6.840485e-01   9.370323e-03
  2.167352e+00    6.824846e-01   9.362471e-03
  2.169563e+00    6.932420e-01   9.437934e-03
  2.171773e+00    6.754057e-01   9.318142e-03
  2.173984e+00    6.816651e-01   9.362615e-03
  2.176194e+00    6.827724e-01   9.371412e-03
  2.178405e+00    6.939151e-01   9.448259e-03
  2.180615e+00    6.937884e-01   9.448096e-03
  2.182826e+00    6.821458e-01   9.369157e-03
  2.185036e+00    6.733773e-01   9.308787e-03
  2.187247e+00    6.773259e-01   9.336007e-03
  2.189457e+00    6.638783e-01   9.242444e-03
  2.191667e+00    6.812666e-01   9.362529e-03
  2.193878e+00    6.795779e-01   9.350372e-03
  2.196088e+00    6.705340e-01   9.287260e-03
  2.198299e+00    6.821017e-01   9.365926e-03
  2.200509e+00    6.701598e-01   9.282557e-03
  2.202720e+00    6.770080e-01   9.328684e-03
  2.204930e+00    6.839135e-01   9.374926e-03
  2.207141e+00    6.747949e-01   9.311094e-03
  2.209351e+00    6.780646e-01   9.331751e-03
  2.211562e+00    6.778219e-01   9.328456e-03
  2.213772e+00    6.672350e-01   9.200244e-03
  2.215982e+00    6.747522e-01   9.207734e-03
  2.218193e+00    6.678274e-01   9.130932e-03
  2.220403e+00    6.446148e-01   8.946794e-03
  2.222614e+00    6.458744e-01   8.935015e-03
  2.224824e+00    6.656584e-01   9.051547e-03
  2.227035e+00    6.804630e-01   9.134126e-03
  2.229245e+00    6.658022e-01   9.018303e-03
  2.231456e+00    6.687474e-01   9.022630e-03
  2.233666e+00    6.583780e-01   8.937464e-03
  2.235877e+00    6.555653e-01   8.904236e-03
  2.238087e+00    6.759531e-01   9.028089e-03
  2.240298e+00    6.577219e-01   8.891879e-03
  2.242508e+00    6.562433e-01   8.866880e-03
  2.244718e+00    6.625138e-01   8.893403e-03
  2.246929e+00    6.635011e-01   8.885671e-03
  2.249139e+00    6.709292e-01   8.922847e-03
  2.251350e+00    6.767203e-01   8.949479e-03
  2.253560e+00    6.808881e-01   8.965321e-03
  2.255771e+00    6.648453e-01   8.847660e-03
  2.257981e+00    6.631128e-01   8.824973e-03
  2.260192e+00    6.667516e-01   8.838015e-03
  2.262402e+00    6.638375e-01   8.807838e-03
  2.264613e+00    6.542830e-01   8.733452e-03
  2.266823e+00    6.617138e-01   8.772539e-03
  2.269033e+00    6.605660e-01   8.754552e-03
  2.271244e+00    6.530306e-01   8.694162e-03
  2.273454e+00    6.595489e-01   8.727197e-03
  2.275665e+00    6.539974e-01   8.680169e-03
  2.277875e+00    6.431662e-01   8.598177e-03
  2.280086e+00    6.562654e-01   8.675292e-03
  2.282296e+00    6.498933e-01   8.623726e-03
  2.284507e+00    6.479802e-01   8.600988e-03
  2.286717e+00    6.548631e-01   8.637086e-03
  2.288928e+00    6.567507e-01   8.639673e-03
  2.291138e+00    6.705576e-01   8.720484e-03
  2.293348e+00    6.654313e-01   8.677497e-03
  2.295559e+00    6.359382e-01   8.473844e-03
  2.297769e+00    6.345856e-01   8.455703e-03
  2.299980e+00    6.492877e-01   8.543796e-03
  2.302190e+00    6.467655e-01   8.518093e-03
  2.304401e+00    6.610945e-01   8.602566e-03
  2.306611e+00    6.451380e-01   8.488964e-03
  2.308822e+00    6.509675e-01   8.518837e-03
  2.311032e+00    6.419921e-01   8.453515e-03
  2.313243e+00    6.399058e-01   8.433523e-03
  2.315453e+00    6.441187e-01   8.453702e-03
  2.317663e+00    6.474499e-01   8.466413e-03
  2.319874e+00    6.367972e-01   8.387818e-03
  2.322084e+00    6.363131e-01   8.375720e-03
  2.324295e+00    6.347581e-01   8.357335e-03
  2.326505e+00    6.170461e-01   8.231026e-03
  2.328716e+00    6.391214e-01   8.368466e-03
  2.330926e+00    6.124277e-01   8.183264e-03
  2.333137e+00    6.241089e-01   8.252664e-03
  2.335347e+00    6.270016e-01   8.263001e-03
  2.337558e+00    6.397763e-01   8.338533e-03
  2.339768e+00    6.313111e-01   8.274666e-03
  2.341979e+00    6.317414e-01   8.269158e-03
  2.344189e+00    6.436135e-01   8.338082e-03
  2.346399e+00    6.271377e-01   8.222209e-03
  2.348610e+00    6.455973e-01   8.333829e-03
  2.350820e+00    6.342368e-01   8.251999e-03
  2.353031e+00    6.340543e-01   8.242544e-03
  2.355241e+00    6.184629e-01   8.132588e-03
  2.357452e+00    6.205308e-01   8.137848e-03
  2.359662e+00    6.238066e-01   8.151118e-03
  2.361873e+00    6.216979e-01   8.129157e-03
  2.364083e+00    6.211199e-01   8.117446e-03
  2.366294e+00    6.078936e-01   8.022565e-03
  2.368504e+00    6.240003e-01   8.120093e-03
  2.370714e+00    6.336793e-01   8.174721e-03
  2.372925e+00    6.154342e-01   8.048205e-03
  2.375135e+00    6.079778e-01   7.991333e-03
  2.377346e+00    5.917632e-01   7.876321e-03
  2.379556e+00    6.113180e-01   7.997550e-03
  2.381767e+00    6.198651e-01   8.045436e-03
  2.383977e+00    6.162064e-01   8.013755e-03
  2.386188e+00    5.976196e-01   7.884182e-03
  2.388398e+00    6.121023e-01   7.971228e-03
  2.390609e+00    6.099771e-01   7.949702e-03
  2.392819e+00    6.039113e-01   7.902387e-03
  2.395029e+00    6.187332e-01   7.991072e-03
  2.397240e+00    6.101522e-01   7.927647e-03
  2.399450e+00    6.041492e-01   7.880803e-03
  2.401661e+00    5.906264e-01   7.784554e-03
  2.403871e+00    6.114835e-01   7.913057e-03
  2.406082e+00    6.031866e-01   7.851786e-03
  2.408292e+00    5.994483e-01   7.819703e-03
  2.410503e+00    5.933904e-01   7.772688e-03
  2.412713e+00    5.953456e-01   7.777759e-03
  2.414924e+00    6.061243e-01   7.840361e-03
  2.417134e+00    6.001939e-01   7.794320e-03
  2.419344e+00    6.037268e-01   7.809799e-03
  2.421555e+00    6.004284e-01   7.780960e-03
  2.423765e+00    5.863687e-01   7.681981e-03
  2.425976e+00    5.833097e-01   7.654229e-03
  2.428186e+00    5.831362e-01   7.645965e-03
  2.430397e+00    5.698591e-01   7.551111e-03
  2.432607e+00    5.702658e-01   7.546693e-03
  2.434818e+00    5.693733e-01   7.533390e-03
  2.437028e+00    5.946035e-01   7.691345e-03
  2.439239e+00    5.997465e-01   7.716846e-03
  2.441449e+00    5.945505e-01   7.676143e-03
  2.443659e+00    5.936037e-01   7.662654e-03
  2.445870e+00    5.825127e-01   7.602913e-03
  2.448080e+00    5.712111e-01   7.563250e-03
  2.450291e+00    5.584385e-01   7.494543e-03
  2.452501e+00    5.714416e-01   7.592399e-03
  2.454712e+00    5.807010e-01   7.662162e-03
  2.456922e+00    5.581485e-01   7.518451e-03
  2.459133e+00    5.577945e-01   7.521449e-03
  2.461343e+00    5.451411e-01   7.439917e-03
  2.463554e+00    5.563200e-01   7.519243e-03
  2.465764e+00    5.621015e-01   7.561361e-03
  2.467975e+00    5.578926e-01   7.535288e-03
  2.470185e+00    5.373248e-01   7.397288e-03
  2.472395e+00    5.282713e-01   7.335895e-03
  2.474606e+00    5.331911e-01   7.371495e-03
  2.476816e+00    5.497007e-01   7.485500e-03
  2.479027e+00    5.302049e-01   7.352383e-03
  2.481237e+00    5.375480e-01   7.403397e-03
  2.483448e+00    5.370154e-01   7.400041e-03
  2.485658e+00    5.229833e-01   7.302575e-03
  2.487869e+00    5.308039e-01   7.356989e-03
  2.490079e+00    5.449009e-01   7.453531e-03
  2.492290e+00    5.469808e-01   7.467324e-03
  2.494500e+00    5.298643e-01   7.348822e-03
  2.496710e+00    5.330741e-01   7.370359e-03
  2.498921e+00    5.276787e-01   7.331981e-03
  2.501131e+00    5.168427e-01   7.255373e-03
  2.503342e+00    5.206673e-01   7.280910e-03
  2.505552e+00    5.261766e-01   7.318208e-03
  2.507763e+00    5.122558e-01   7.219374e-03
  2.509973e+00    5.179101e-01   7.257698e-03
  2.512184e+00    5.231931e-01   7.293031e-03
  2.514394e+00    5.234274e-01   7.285342e-03
  2.516605e+00    5.155513e-01   7.183742e-03
  2.518815e+00    5.105416e-01   7.120854e-03
  2.521025e+00    5.189271e-01   7.158243e-03
  2.523236e+00    5.219931e-01   7.161472e-03
  2.525446e+00    5.065906e-01   7.039681e-03
  2.527657e+00    5.098560e-01   7.047947e-03
  2.529867e+00    5.049971e-01   7.000384e-03
  2.532078e+00    5.150552e-01   7.054829e-03
  2.534288e+00    5.334224e-01   7.165546e-03
  2.536499e+00    5.226002e-01   7.080577e-03
  2.538709e+00    5.192423e-01   7.046830e-03
  2.540920e+00    5.233859e-01   7.064274e-03
  2.543130e+00    5.177171e-01   7.015597e-03
  2.545340e+00    5.163683e-01   6.996476e-03
  2.547551e+00    5.110281e-01   6.950354e-03
  2.549761e+00    5.209970e-01   7.008253e-03
  2.551972e+00    5.217454e-01   7.003944e-03
  2.554182e+00    5.096723e-01   6.913357e-03
  2.556393e+00    5.146622e-01   6.938071e-03
  2.558603e+00    5.048478e-01   6.862673e-03
  2.560814e+00    5.137020e-01   6.913934e-03
  2.563024e+00    4.992774e-01   6.807764e-03
  2.565235e+00    5.042253e-01   6.832032e-03
  2.567445e+00    5.167192e-01   6.906635e-03
  2.569656e+00    5.002266e-01   6.785937e-03
  2.571866e+00    5.099307e-01   6.842158e-03
  2.574076e+00    5.105234e-01   6.836927e-03
  2.576287e+00    5.096567e-01   6.822839e-03
  2.578497e+00    5.253191e-01   6.918960e-03
  2.580708e+00    5.315646e-01   6.951773e-03
  2.582918e+00    5.287060e-01   6.925195e-03
  2.585129e+00    5.257696e-01   6.898088e-03
  2.587339e+00    5.133263e-01   6.808308e-03
  2.589550e+00    5.153099e-01   6.813881e-03
  2.591760e+00    4.972852e-01   6.686029e-03
  2.593971e+00    5.006744e-01   6.701314e-03
  2.596181e+00    4.962029e-01   6.665204e-03
  2.598391e+00    5.058593e-01   6.724574e-03
  2.600602e+00    5.031418e-01   6.700621e-03
  2.602812e+00    5.062145e-01   6.713527e-03
  2.605023e+00    5.023227e-01   6.680552e-03
  2.607233e+00    5.023178e-01   6.673424e-03
  2.609444e+00    5.136700e-01   6.741125e-03
  2.611654e+00    5.200941e-01   6.775736e-03
  2.613865e+00    5.074787e-01   6.686026e-03
  2.616075e+00    4.953650e-01   6.598681e-03
  2.618286e+00    4.863698e-01   6.531620e-03
  2.620496e+00    4.890538e-01   6.543027e-03
  2.622706e+00    5.020799e-01   6.623861e-03
  2.624917e+00    4.936363e-01   6.562153e-03
  2.627127e+00    5.010266e-01   6.605362e-03
  2.629338e+00    4.983470e-01   6.581739e-03
  2.631548e+00    5.004126e-01   6.589209e-03
  2.633759e+00    4.876226e-01   6.497417e-03
  2.635969e+00    4.970839e-01   6.553488e-03
  2.638180e+00    5.011377e-01   6.573170e-03
  2.640390e+00    5.087313e-01   6.616140e-03
  2.642601e+00    4.937054e-01   6.511098e-03
  2.644811e+00    4.785617e-01   6.403520e-03
  2.647021e+00    4.888145e-01   6.465262e-03
  2.649232e+00    5.078325e-01   6.583055e-03
  2.651442e+00    5.014294e-01   6.534917e-03
  2.653653e+00    4.984439e-01   6.508639e-03
  2.655863e+00    5.009945e-01   6.518567e-03
  2.658074e+00    4.998855e-01   6.504731e-03
  2.660284e+00    4.971280e-01   6.480402e-03
  2.662495e+00    4.912174e-01   6.435062e-03
  2.664705e+00    4.965752e-01   6.463487e-03
  2.666916e+00    5.040251e-01   6.505280e-03
  2.669126e+00    4.887307e-01   6.399417e-03
  2.671337e+00    4.784498e-01   6.325284e-03
  2.673547e+00    4.804056e-01   6.331899e-03
  2.675757e+00    5.012970e-01   6.461619e-03
  2.677968e+00    5.028058e-01   6.464769e-03
  2.680178e+00    4.961431e-01   6.415376e-03
  2.682389e+00    4.903110e-01   6.371185e-03
  2.684599e+00    5.017707e-01   6.438959e-03
  2.686810e+00    4.910246e-01   6.363043e-03
  2.689020e+00    4.850080e-01   6.317696e-03
  2.691231e+00    4.959563e-01   6.382269e-03
  2.693441e+00    4.788052e-01   6.264883e-03
  2.695652e+00    4.848618e-01   6.297900e-03
  2.697862e+00    4.913108e-01   6.333292e-03
  2.700072e+00    4.801616e-01   6.254995e-03
  2.702283e+00    4.780193e-01   6.234890e-03
  2.704493e+00    4.794350e-01   6.237876e-03
  2.706704e+00    4.868746e-01   6.279703e-03
  2.708914e+00    4.912752e-01   6.302024e-03
  2.711125e+00    4.803298e-01   6.225243e-03
  2.713335e+00    4.857799e-01   6.254365e-03
  2.715546e+00    4.827710e-01   6.228546e-03
  2.717756e+00    4.843382e-01   6.232761e-03
  2.719967e+00    4.705739e-01   6.137462e-03
  2.722177e+00    4.762230e-01   6.168109e-03
  2.724387e+00    4.768080e-01   6.165850e-03
  2.726598e+00    4.718826e-01   6.127961e-03
  2.728808e+00    4.778082e-01   6.160185e-03
  2.731019e+00    4.856787e-01   6.204616e-03
  2.733229e+00    4.776292e-01   6.147201e-03
  2.735440e+00    4.751374e-01   6.124945e-03
  2.737650e+00    4.700460e-01   6.086098e-03
  2.739861e+00    4.656255e-01   6.051457e-03
  2.742071e+00    4.822098e-01   6.152546e-03
  2.744282e+00    4.734748e-01   6.090371e-03
  2.746492e+00    4.754252e-01   6.096929e-03
  2.748702e+00    4.755139e-01   6.091614e-03
  2.750913e+00    4.666545e-01   6.028919e-03
  2.753123e+00    4.552041e-01   5.948532e-03
  2.755334e+00    4.711217e-01   6.045625e-03
  2.757544e+00    4.720482e-01   6.045880e-03
  2.759755e+00    4.692069e-01   6.021854e-03
  2.761965e+00    4.834859e-01   6.106775e-03
  2.764176e+00    4.819090e-01   6.090827e-03
  2.766386e+00    4.621695e-01   5.959092e-03
  2.768597e+00    4.741298e-01   6.029871e-03
  2.770807e+00    4.811627e-01   6.068542e-03
  2.773017e+00    4.760298e-01   6.030145e-03
  2.775228e+00    4.739183e-01   6.010984e-03
  2.777438e+00    4.767005e-01   6.022824e-03
  2.779649e+00    4.810050e-01   6.044033e-03
  2.781859e+00    4.725434e-01   5.984908e-03
  2.784070e+00    4.833560e-01   6.047083e-03
  2.786280e+00    4.774972e-01   6.004578e-03
  2.788491e+00    4.671363e-01   5.933281e-03
  2.790701e+00    4.758789e-01   5.982910e-03
  2.792912e+00    4.815358e-01   6.012367e-03
  2.795122e+00    4.656015e-01   5.906389e-03
  2.797333e+00    4.724361e-01   5.944032e-03
  2.799543e+00    4.698655e-01   5.922017e-03
  2.801753e+00    4.612957e-01   5.861999e-03
  2.803964e+00    4.664869e-01   5.889266e-03
  2.806174e+00    4.784583e-01   5.958182e-03
  2.808385e+00    4.812560e-01   5.968755e-03
  2.810595e+00    4.647760e-01   5.858869e-03
  2.812806e+00    4.690439e-01   5.879130e-03
  2.815016e+00    4.771121e-01   5.924724e-03
  2.817227e+00    4.875143e-01   6.015249e-03
  2.819437e+00    5.074192e-01   6.148300e-03
  2.821648e+00    4.776655e-01   5.967622e-03
  2.823858e+00    4.710738e-01   5.931624e-03
  2.826068e+00    4.730747e-01   5.949172e-03
  2.828279e+00    4.833035e-01   6.017246e-03
  2.830489e+00    4.765883e-01   5.978643e-03
  2.832700e+00    4.697082e-01   5.937897e-03
  2.834910e+00    4.549488e-01   5.845866e-03
  2.837121e+00    4.664890e-01   5.921256e-03
  2.839331e+00    4.639851e-01   5.906572e-03
  2.841542e+00    4.526294e-01   5.834831e-03
  2.843752e+00    4.528696e-01   5.837149e-03
  2.845963e+00    4.689667e-01   5.940372e-03
  2.848173e+00    4.607730e-01   5.888349e-03
  2.850383e+00    4.647439e-01   5.913953e-03
  2.852594e+00    4.642961e-01   5.911022e-03
  2.854804e+00    4.618568e-01   5.894982e-03
  2.857015e+00    4.584660e-01   5.872863e-03
  2.859225e+00    4.686641e-01   5.937573e-03
  2.861436e+00    4.673155e-01   5.928378e-03
  2.863646e+00    4.607816e-01   5.886827e-03
  2.865857e+00    4.597001e-01   5.880235e-03
  2.868067e+00    4.672134e-01   5.928316e-03
  2.870278e+00    4.651970e-01   5.915181e-03
  2.872488e+00    4.555291e-01   5.852225e-03
  2.874698e+00    4.503352e-01   5.817744e-03
  2.876909e+00    4.522620e-01   5.828854e-03
  2.879119e+00    4.577590e-01   5.862562e-03
  2.881330e+00    4.443395e-01   5.774552e-03
  2.883540e+00    4.525329e-01   5.826174e-03
  2.885751e+00    4.552067e-01   5.841713e-03
  2.887961e+00    4.587387e-01   5.862476e-03
  2.890172e+00    4.639235e-01   5.893888e-03
  2.892382e+00    4.597026e-01   5.865228e-03
  2.894593e+00    4.746954e-01   5.958247e-03
  2.896803e+00    4.643774e-01   5.891168e-03
  2.899014e+00    4.476006e-01   5.781880e-03
  2.901224e+00    4.504508e-01   5.798276e-03
  2.903434e+00    4.621343e-01   5.871061e-03
  2.905645e+00    4.559717e-01   5.829553e-03
  2.907855e+00    4.497901e-01   5.787831e-03
  2.910066e+00    4.592578e-01   5.846358e-03
  2.912276e+00    4.393009e-01   5.715843e-03
  2.914487e+00    4.521618e-01   5.796454e-03
  2.916697e+00    4.640598e-01   5.869997e-03
  2.918908e+00    4.571994e-01   5.824441e-03
  2.921118e+00    4.554861e-01   5.810829e-03
  2.923329e+00    4.599497e-01   5.836919e-03
  2.925539e+00    4.504039e-01   5.773762e-03
  2.927749e+00    4.557746e-01   5.805778e-03
  2.929960e+00    4.490014e-01   5.759723e-03
  2.932170e+00    4.427833e-01   5.717416e-03
  2.934381e+00    4.538138e-01   5.785754e-03
  2.936591e+00    4.446068e-01   5.724214e-03
  2.938802e+00    4.472274e-01   5.738385e-03
  2.941012e+00    4.469270e-01   5.734138e-03
  2.943223e+00    4.505092e-01   5.754381e-03
  2.945433e+00    4.514519e-01   5.756703e-03
  2.947644e+00    4.687559e-01   5.861773e-03
  2.949854e+00    4.597194e-01   5.800736e-03
  2.952064e+00    4.566691e-01   5.777214e-03
  2.954275e+00    4.546829e-01   5.760239e-03
  2.956485e+00    4.455279e-01   5.697799e-03
  2.958696e+00    4.447179e-01   5.688297e-03
  2.960906e+00    4.545625e-01   5.746714e-03
  2.963117e+00    4.549408e-01   5.744646e-03
  2.965327e+00    4.525809e-01   5.725822e-03
  2.967538e+00    4.394551e-01   5.639323e-03
  2.969748e+00    4.423667e-01   5.655176e-03
  2.971959e+00    4.595438e-01   5.760783e-03
  2.974169e+00    4.498577e-01   5.697178e-03
  2.976379e+00    4.637105e-01   5.781276e-03
  2.978590e+00    4.523385e-01   5.706830e-03
  2.980800e+00    4.613688e-01   5.760689e-03
  2.983011e+00    4.518407e-01   5.698099e-03
  2.985221e+00    4.501701e-01   5.684413e-03
  2.987432e+00    4.491866e-01   5.675121e-03
  2.989642e+00    4.366052e-01   5.592494e-03
  2.991853e+00    4.447374e-01   5.641100e-03
  2.994063e+00    4.390154e-01   5.601812e-03
  2.996274e+00    4.456897e-01   5.641085e-03
  2.998484e+00    4.545890e-01   5.694433e-03
  3.000694e+00    4.511222e-01   5.669232e-03
  3.002905e+00    4.517111e-01   5.669990e-03
  3.005115e+00    4.654373e-01   5.752487e-03
  3.007326e+00    4.564129e-01   5.693272e-03
  3.009536e+00    4.536322e-01   5.672655e-03
  3.011747e+00    4.486327e-01   5.638408e-03
  3.013957e+00    4.473346e-01   5.627082e-03
  3.016168e+00    4.431484e-01   5.597471e-03
  3.018378e+00    4.447860e-01   5.604779e-03
  3.020589e+00    4.409060e-01   5.577120e-03
  3.022799e+00    4.539208e-01   5.655663e-03
  3.025010e+00    4.415734e-01   5.575017e-03
  3.027220e+00    4.529553e-01   5.643279e-03
  3.029430e+00    4.498099e-01   5.620449e-03
  3.031641e+00    4.464870e-01   5.596494e-03
  3.033851e+00    4.449455e-01   5.583359e-03
  3.036062e+00    4.491231e-01   5.606727e-03
  3.038272e+00    4.416678e-01   5.556470e-03
  3.040483e+00    4.473104e-01   5.588629e-03
  3.042693e+00    4.403298e-01   5.541642e-03
  3.044904e+00    4.428164e-01   5.553262e-03
  3.047114e+00    4.514096e-01   5.602080e-03
  3.049325e+00    4.419848e-01   5.538962e-03
  3.051535e+00    4.517341e-01   5.595274e-03
  3.053745e+00    4.604101e-01   5.644000e-03
  3.055956e+00    4.486904e-01   5.567114e-03
  3.058166e+00    4.490357e-01   5.565009e-03
  3.060377e+00    4.556831e-01   5.601242e-03
  3.062587e+00    4.451621e-01   5.531613e-03
  3.064798e+00    4.394662e-01   5.491900e-03
  3.067008e+00    4.349377e-01   5.458867e-03
  3.069219e+00    4.520421e-01   5.560659e-03
  3.071429e+00    4.414982e-01   5.491941e-03
  3.073640e+00    4.426163e-01   5.495585e-03
  3.075850e+00    4.613536e-01   5.607062e-03
  3.078060e+00    4.621319e-01   5.608656e-03
  3.080271e+00    4.407900e-01   5.474168e-03
  3.082481e+00    4.489219e-01   5.520986e-03
  3.084692e+00    4.372145e-01   5.445180e-03
  3.086902e+00    4.549036e-01   5.550967e-03
  3.089113e+00    4.515412e-01   5.526839e-03
  3.091323e+00    4.498653e-01   5.513199e-03
  3.093534e+00    4.434655e-01   5.470468e-03
  3.095744e+00    4.472290e-01   5.490269e-03
  3.097955e+00    4.446599e-01   5.470936e-03
  3.100165e+00    4.561450e-01   5.537778e-03
  3.102375e+00    4.489544e-01   5.490533e-03
  3.104586e+00    4.564574e-01   5.532686e-03
  3.106796e+00    4.331995e-01   5.386424e-03
  3.109007e+00    4.369929e-01   5.406770e-03
  3.111217e+00    4.403489e-01   5.423826e-03
  3.113428e+00    4.367323e-01   5.398130e-03
  3.115638e+00    4.335904e-01   5.375481e-03
  3.117849e+00    4.327414e-01   5.366544e-03
  3.120059e+00    4.313001e-01   5.354193e-03
  3.122270e+00    4.280970e-01   5.331075e-03
  3.124480e+00    4.389614e-01   5.394637e-03
  3.126691e+00    4.420501e-01   5.410028e-03
  3.128901e+00    4.467120e-01   5.435368e-03
  3.131111e+00    4.264096e-01   5.306648e-03
  3.133322e+00    4.439012e-01   5.410931e-03
  3.135532e+00    4.482680e-01   5.434090e-03
  3.137743e+00    4.465557e-01   5.420198e-03
  3.139953e+00    4.373635e-01   5.360465e-03
  3.142164e+00    4.377675e-01   5.374896e-03
  3.144374e+00    4.297879e-01   5.353665e-03
  3.146585e+00    4.352285e-01   5.401905e-03
  3.148795e+00    4.255001e-01   5.351753e-03
  3.151006e+00    4.408469e-01   5.455941e-03
  3.153216e+00    4.381683e-01   5.446458e-03
  3.155426e+00    4.346175e-01   5.430595e-03
  3.157637e+00    4.361397e-01   5.445605e-03
  3.159847e+00    4.412344e-01   5.482182e-03
  3.162058e+00    4.464971e-01   5.519264e-03
  3.164268e+00    4.257815e-01   5.393704e-03
  3.166479e+00    4.265497e-01   5.402154e-03
  3.168689e+00    4.227656e-01   5.381436e-03
  3.170900e+00    4.294821e-01   5.427146e-03
  3.173110e+00    4.426638e-01   5.512700e-03
  3.175321e+00    4.477002e-01   5.546486e-03
  3.177531e+00    4.353782e-01   5.472358e-03
  3.179741e+00    4.353720e-01   5.474396e-03
  3.181952e+00    4.260824e-01   5.417745e-03
  3.184162e+00    4.417944e-01   5.518940e-03
  3.186373e+00    4.349209e-01   5.477436e-03
  3.188583e+00    4.245796e-01   5.413691e-03
  3.190794e+00    4.342255e-01   5.476572e-03
  3.193004e+00    4.450736e-01   5.545827e-03
  3.195215e+00    4.431875e-01   5.535589e-03
  3.197425e+00    4.274535e-01   5.437638e-03
  3.199636e+00    4.310835e-01   5.459901e-03
  3.201846e+00    4.239551e-01   5.413974e-03
  3.204056e+00    4.422963e-01   5.530750e-03
  3.206267e+00    4.190971e-01   5.384572e-03
  3.208477e+00    4.294323e-01   5.451476e-03
  3.210688e+00    4.280865e-01   5.443781e-03
  3.212898e+00    4.142126e-01   5.355391e-03
  3.215109e+00    4.321108e-01   5.470631e-03
  3.217319e+00    4.257523e-01   5.430862e-03
  3.219530e+00    4.342364e-01   5.485093e-03
  3.221740e+00    4.319494e-01   5.471194e-03
  3.223951e+00    4.428537e-01   5.540311e-03
  3.226161e+00    4.262684e-01   5.435752e-03
  3.228372e+00    4.107877e-01   5.336683e-03
  3.230582e+00    4.120131e-01   5.344727e-03
  3.232792e+00    4.250229e-01   5.428709e-03
  3.235003e+00    4.119451e-01   5.344758e-03
  3.237213e+00    4.146084e-01   5.362115e-03
  3.239424e+00    4.360465e-01   5.498997e-03
  3.241634e+00    4.223448e-01   5.412045e-03
  3.243845e+00    4.169966e-01   5.377727e-03
  3.246055e+00    4.158568e-01   5.370100e-03
  3.248266e+00    4.187711e-01   5.389095e-03
  3.250476e+00    4.239712e-01   5.422130e-03
  3.252687e+00    4.288169e-01   5.452971e-03
  3.254897e+00    4.237141e-01   5.420287e-03
  3.257107e+00    4.273466e-01   5.443177e-03
  3.259318e+00    4.199493e-01   5.395635e-03
  3.261528e+00    4.177593e-01   5.381382e-03
  3.263739e+00    4.179766e-01   5.382268e-03
  3.265949e+00    4.103090e-01   5.332516e-03
  3.268160e+00    4.203076e-01   5.396691e-03
  3.270370e+00    4.160223e-01   5.368610e-03
  3.272581e+00    4.195831e-01   5.391257e-03
  3.274791e+00    4.220104e-01   5.406304e-03
  3.277002e+00    4.302499e-01   5.458253e-03
  3.279212e+00    4.272212e-01   5.438649e-03
  3.281422e+00    4.246470e-01   5.421633e-03
  3.283633e+00    4.300376e-01   5.455290e-03
  3.285843e+00    4.170629e-01   5.372009e-03
  3.288054e+00    4.117902e-01   5.337013e-03
  3.290264e+00    4.197976e-01   5.388349e-03
  3.292475e+00    4.197770e-01   5.387383e-03
  3.294685e+00    4.194827e-01   5.384859e-03
  3.296896e+00    4.234763e-01   5.409671e-03
  3.299106e+00    4.272167e-01   5.432964e-03
  3.301317e+00    4.247648e-01   5.416316e-03
  3.303527e+00    4.163730e-01   5.362091e-03
  3.305737e+00    4.234000e-01   5.406095e-03
  3.307948e+00    4.198160e-01   5.382501e-03
  3.310158e+00    4.156992e-01   5.355212e-03
  3.312369e+00    4.165772e-01   5.359975e-03
  3.314579e+00    4.097691e-01   5.315102e-03
  3.316790e+00    4.221210e-01   5.393896e-03
  3.319000e+00    4.235991e-01   5.402164e-03
  3.321211e+00    4.245206e-01   5.407415e-03
  3.323421e+00    4.329142e-01   5.459400e-03
  3.325632e+00    4.195915e-01   5.373859e-03
  3.327842e+00    4.321499e-01   5.452749e-03
  3.330052e+00    4.246364e-01   5.404079e-03
  3.332263e+00    4.161843e-01   5.349021e-03
  3.334473e+00    4.066508e-01   5.286489e-03
  3.336684e+00    4.222781e-01   5.385847e-03
  3.338894e+00    4.157580e-01   5.343270e-03
  3.341105e+00    4.080733e-01   5.292471e-03
  3.343315e+00    4.318582e-01   5.443358e-03
  3.345526e+00    4.288363e-01   5.423399e-03
  3.347736e+00    4.176805e-01   5.350958e-03
  3.349947e+00    4.122493e-01   5.315156e-03
  3.352157e+00    4.173139e-01   5.346512e-03
  3.354368e+00    4.138758e-01   5.323170e-03
  3.356578e+00    4.111339e-01   5.304498e-03
  3.358788e+00    4.149949e-01   5.328021e-03
  3.360999e+00    4.139476e-01   5.320047e-03
  3.363209e+00    4.292152e-01   5.416236e-03
  3.365420e+00    4.218455e-01   5.368033e-03
  3.367630e+00    4.110871e-01   5.298128e-03
  3.369841e+00    4.067023e-01   5.268383e-03
  3.372051e+00    4.171514e-01   5.333646e-03
  3.374262e+00    4.236287e-01   5.372453e-03
  3.376472e+00    4.186655e-01   5.338417e-03
  3.378683e+00    4.020554e-01   5.229016e-03
  3.380893e+00    4.058648e-01   5.251379e-03
  3.383103e+00    4.265872e-01   5.381051e-03
  3.385314e+00    4.198016e-01   5.335846e-03
  3.387524e+00    4.122654e-01   5.285008e-03
  3.389735e+00    4.102093e-01   5.269198e-03
  3.391945e+00    4.008663e-01   5.205228e-03
  3.394156e+00    4.003678e-01   5.197819e-03
  3.396366e+00    4.109262e-01   5.262508e-03
  3.398577e+00    4.198122e-01   5.316038e-03
  3.400787e+00    4.094078e-01   5.261636e-03
  3.402998e+00    4.073774e-01   5.286515e-03
  3.405208e+00    3.909663e-01   5.199237e-03
  3.407418e+00    3.951148e-01   5.242400e-03
  3.409629e+00    3.946269e-01   5.253012e-03
  3.411839e+00    3.947940e-01   5.265847e-03
  3.414050e+00    3.914452e-01   5.254353e-03
  3.416260e+00    4.014208e-01   5.330638e-03
  3.418471e+00    3.938771e-01   5.289716e-03
  3.420681e+00    3.902897e-01   5.274060e-03
  3.422892e+00    3.813454e-01   5.221172e-03
  3.425102e+00    3.820200e-01   5.233522e-03
  3.427313e+00    3.691598e-01   5.151701e-03
  3.429523e+00    3.792058e-01   5.228278e-03
  3.431733e+00    3.815787e-01   5.251278e-03
  3.433944e+00    3.715979e-01   5.188496e-03
  3.436154e+00    3.893064e-01   5.316986e-03
  3.438365e+00    3.866392e-01   5.304709e-03
  3.440575e+00    3.744280e-01   5.226158e-03
  3.442786e+00    3.719972e-01   5.214710e-03
  3.444996e+00    3.769983e-01   5.255134e-03
  3.447207e+00    3.782726e-01   5.269339e-03
  3.449417e+00    3.677595e-01   5.236215e-03
  3.451628e+00    3.575946e-01   5.192334e-03
  3.453838e+00    3.545325e-01   5.190812e-03
  3.456049e+00    3.534561e-01   5.206396e-03
  3.458259e+00    3.507789e-01   5.208112e-03
  3.460469e+00    3.399044e-01   5.145778e-03
  3.462680e+00    3.677920e-01   5.371802e-03
  3.464890e+00    3.720065e-01   5.420465e-03
  3.467101e+00    3.757053e-01   5.464981e-03
  3.469311e+00    3.811523e-01   5.521241e-03
  3.471522e+00    3.851722e-01   5.566916e-03
  3.473732e+00    3.810652e-01   5.553151e-03
  3.475943e+00    3.888861e-01   5.625675e-03
  3.478153e+00    3.978859e-01   5.706036e-03
  3.480364e+00    4.128430e-01   5.827815e-03
  3.482574e+00    4.058650e-01   5.793722e-03
  3.484784e+00    4.216343e-01   5.920296e-03
  3.486995e+00    4.139244e-01   5.880957e-03
  3.489205e+00    4.316024e-01   6.020044e-03
  3.491416e+00    4.388371e-01   6.085417e-03
  3.493626e+00    4.371938e-01   6.088647e-03
  3.495837e+00    4.508806e-01   6.198124e-03
  3.498047e+00    4.524148e-01   6.223291e-03
  3.500258e+00    4.537329e-01   6.246971e-03
  3.502468e+00    4.518909e-01   6.248638e-03
  3.504679e+00    4.691648e-01   6.381586e-03
  3.506889e+00    4.712612e-01   6.410343e-03
  3.509099e+00    4.746402e-01   6.447716e-03
  3.511310e+00    4.861892e-01   6.540250e-03
  3.513520e+00    4.970129e-01   6.627333e-03
  3.515731e+00    4.969075e-01   6.641177e-03
  3.517941e+00    4.776179e-01   6.525156e-03
  3.520152e+00    4.803980e-01   6.558226e-03
  3.522362e+00    5.111339e-01   6.779390e-03
  3.524573e+00    5.016031e-01   6.730145e-03
  3.526783e+00    4.897905e-01   6.663482e-03
  3.528994e+00    5.083631e-01   6.800755e-03
  3.531204e+00    5.222116e-01   6.905286e-03
  3.533414e+00    5.091350e-01   6.830126e-03
  3.535625e+00    5.327456e-01   6.999144e-03
  3.537835e+00    5.321379e-01   7.007247e-03
  3.540046e+00    5.272410e-01   6.983830e-03
  3.542256e+00    5.189858e-01   6.936338e-03
  3.544467e+00    5.309165e-01   7.023182e-03
  3.546677e+00    5.209322e-01   6.964313e-03
  3.548888e+00    5.448190e-01   7.129725e-03
  3.551098e+00    5.555177e-01   7.206846e-03
  3.553309e+00    5.363821e-01   7.089819e-03
  3.555519e+00    5.369334e-01   7.104705e-03
  3.557729e+00    5.471863e-01   7.184099e-03
  3.559940e+00    5.432524e-01   7.169854e-03
  3.562150e+00    5.432582e-01   7.181683e-03
  3.564361e+00    5.279815e-01   7.093209e-03
  3.566571e+00    5.313300e-01   7.129418e-03
  3.568782e+00    5.224241e-01   7.083378e-03
  3.570992e+00    5.237637e-01   7.106022e-03
  3.573203e+00    5.354632e-01   7.199105e-03
  3.575413e+00    5.366986e-01   7.221194e-03
  3.577624e+00    5.326556e-01   7.208006e-03
  3.579834e+00    5.321435e-01   7.218371e-03
  3.582045e+00    5.210165e-01   7.156361e-03
  3.584255e+00    5.296293e-01   7.229225e-03
  3.586465e+00    5.225689e-01   7.194629e-03
  3.588676e+00    5.308430e-01   7.265504e-03
  3.590886e+00    5.436084e-01   7.366124e-03
  3.593097e+00    5.278212e-01   7.272782e-03
  3.595307e+00    5.291307e-01   7.295640e-03
  3.597518e+00    5.322112e-01   7.331017e-03
  3.599728e+00    5.345371e-01   7.361111e-03
  3.601939e+00    5.217545e-01   7.286436e-03
  3.604149e+00    5.368046e-01   7.405187e-03
  3.606360e+00    5.403060e-01   7.443530e-03
  3.608570e+00    5.322998e-01   7.402274e-03
  3.610780e+00    5.461308e-01   7.509034e-03
  3.612991e+00    5.206206e-01   7.341431e-03
  3.615201e+00    5.205176e-01   7.350349e-03
  3.617412e+00    5.471694e-01   7.543530e-03
  3.619622e+00    5.378510e-01   7.485019e-03
  3.621833e+00    5.481454e-01   7.563097e-03
  3.624043e+00    5.293778e-01   7.441986e-03
  3.626254e+00    5.235164e-01   7.410236e-03
  3.628464e+00    5.350279e-01   7.502252e-03
  3.630675e+00    5.392541e-01   7.546030e-03
  3.632885e+00    5.174645e-01   7.406203e-03
  3.635095e+00    5.387310e-01   7.571345e-03
  3.637306e+00    5.394213e-01   7.590625e-03
  3.639516e+00    5.369266e-01   7.587651e-03
  3.641727e+00    5.273454e-01   7.534125e-03
  3.643937e+00    5.257052e-01   7.536839e-03
  3.646148e+00    5.290799e-01   7.575551e-03
  3.648358e+00    5.208780e-01   7.531310e-03
  3.650569e+00    5.165791e-01   7.514638e-03
  3.652779e+00    5.254109e-01   7.593317e-03
  3.654990e+00    5.261614e-01   7.613481e-03
  3.657200e+00    5.286387e-01   7.646276e-03
  3.659410e+00    5.310908e-01   7.678904e-03
  3.661621e+00    5.331905e-01   7.709206e-03
  3.663831e+00    5.235853e-01   7.654476e-03
  3.666042e+00    5.113938e-01   7.579683e-03
  3.668252e+00    5.257519e-01   7.700508e-03
  3.670463e+00    5.557706e-01   7.932860e-03
  3.672673e+00    5.350331e-01   7.798982e-03
  3.674884e+00    5.264760e-01   7.751693e-03
  3.677094e+00    5.213335e-01   7.729119e-03
  3.679305e+00    4.949600e-01   7.546082e-03
  3.681515e+00    5.311524e-01   7.832741e-03
  3.683726e+00    5.389149e-01   7.905710e-03
  3.685936e+00    5.368050e-01   7.906067e-03
  3.688146e+00    5.225016e-01   7.815708e-03
  3.690357e+00    5.254324e-01   7.853474e-03
  3.692567e+00    5.349215e-01   7.940352e-03
  3.694778e+00    5.445771e-01   8.028013e-03
  3.696988e+00    5.347042e-01   7.971018e-03
  3.699199e+00    5.204564e-01   7.880304e-03
  3.701409e+00    5.046750e-01   7.775901e-03
  3.703620e+00    5.345997e-01   8.019592e-03
  3.705830e+00    5.169786e-01   7.902632e-03
  3.708041e+00    5.141953e-01   7.897719e-03
  3.710251e+00    5.151077e-01   7.921358e-03
  3.712461e+00    5.097206e-01   7.896311e-03
  3.714672e+00    5.357533e-01   8.112419e-03
  3.716882e+00    5.088612e-01   7.922712e-03
  3.719093e+00    5.023481e-01   7.888678e-03
  3.721303e+00    5.150297e-01   8.004513e-03
  3.723514e+00    5.006620e-01   7.909042e-03
  3.725724e+00    5.093428e-01   7.994311e-03
  3.727935e+00    5.021365e-01   7.954758e-03
  3.730145e+00    5.097399e-01   8.031940e-03
  3.732356e+00    5.262484e-01   8.178683e-03
  3.734566e+00    5.173119e-01   8.126504e-03
  3.736776e+00    5.175847e-01   8.146470e-03
  3.738987e+00    5.156488e-01   8.148959e-03
  3.741197e+00    5.113237e-01   8.132747e-03
  3.743408e+00    4.983942e-01   8.046998e-03
  3.745618e+00    4.941147e-01   8.030363e-03
  3.747829e+00    4.798914e-01   7.931485e-03
  3.750039e+00    4.755815e-01   7.913452e-03
  3.752250e+00    4.910391e-01   8.059162e-03
  3.754460e+00    5.121890e-01   8.249486e-03
  3.756671e+00    4.986948e-01   8.158678e-03
  3.758881e+00    4.985094e-01   8.175610e-03
  3.761091e+00    5.036055e-01   8.236336e-03
  3.763302e+00    4.900342e-01   8.143372e-03
  3.765512e+00    5.112687e-01   8.337225e-03
  3.767723e+00    4.853396e-01   8.142046e-03
  3.769933e+00    4.910535e-01   8.208788e-03
  3.772144e+00    4.816489e-01   8.148988e-03
  3.774354e+00    4.824688e-01   8.175211e-03
  3.776565e+00    5.105898e-01   8.430068e-03
  3.778775e+00    5.232894e-01   8.554619e-03
  3.780986e+00    5.065837e-01   8.437350e-03
  3.783196e+00    4.920931e-01   8.335743e-03
  3.785407e+00    5.197266e-01   8.587367e-03
  3.787617e+00    5.036275e-01   8.474158e-03
  3.789827e+00    4.901716e-01   8.380413e-03
  3.792038e+00    4.800252e-01   8.313606e-03
  3.794248e+00    4.919990e-01   8.437636e-03
  3.796459e+00    4.782795e-01   8.339982e-03
  3.798669e+00    5.287756e-01   8.791168e-03
  3.800880e+00    5.108444e-01   8.662513e-03
  3.803090e+00    5.136523e-01   8.708423e-03
  3.805301e+00    4.957848e-01   8.577605e-03
  3.807511e+00    4.810941e-01   8.471129e-03
  3.809722e+00    4.732937e-01   8.423846e-03
  3.811932e+00    4.920796e-01   8.611366e-03
  3.814142e+00    5.088459e-01   8.780011e-03
  3.816353e+00    5.080537e-01   8.796209e-03
  3.818563e+00    5.004703e-01   8.753456e-03
  3.820774e+00    5.002280e-01   8.774530e-03
  3.822984e+00    4.968022e-01   8.767816e-03
  3.825195e+00    4.846164e-01   8.682999e-03
  3.827405e+00    4.846559e-01   8.706883e-03
  3.829616e+00    4.940729e-01   8.815111e-03
  3.831826e+00    4.932012e-01   8.831369e-03
  3.834037e+00    4.947457e-01   8.869641e-03
  3.836247e+00    5.175871e-01   9.097249e-03
  3.838457e+00    4.801241e-01   8.786486e-03
  3.840668e+00    4.910324e-01   8.910814e-03
  3.842878e+00    5.006351e-01   9.023079e-03
  3.845089e+00    4.982482e-01   9.027253e-03
  3.847299e+00    4.959611e-01   9.032270e-03
  3.849510e+00    4.827926e-01   8.937143e-03
  3.851720e+00    4.992825e-01   9.109915e-03
  3.853931e+00    5.016400e-01   9.150552e-03
  3.856141e+00    5.016301e-01   9.169616e-03
  3.858352e+00    5.142829e-01   9.304196e-03
  3.860562e+00    4.777026e-01   8.986166e-03
  3.862772e+00    4.895143e-01   9.116031e-03
  3.864983e+00    5.017222e-01   9.248871e-03
  3.867193e+00    4.968565e-01   9.223773e-03
  3.869404e+00    4.925218e-01   9.203258e-03
  3.871614e+00    4.644439e-01   8.956434e-03
  3.873825e+00    4.795596e-01   9.120988e-03
  3.876035e+00    5.030454e-01   9.362494e-03
  3.878246e+00    4.916226e-01   9.281348e-03
  3.880456e+00    4.959103e-01   9.350837e-03
  3.882667e+00    4.831454e-01   9.258773e-03
  3.884877e+00    4.906779e-01   9.360377e-03
  3.887087e+00    4.797626e-01   9.285194e-03
  3.889298e+00    4.884418e-01   9.399189e-03
  3.891508e+00    4.804970e-01   9.352586e-03
  3.893719e+00    4.856735e-01   9.433638e-03
  3.895929e+00    4.930391e-01   9.536408e-03
  3.898140e+00    4.960442e-01   9.597362e-03
  3.900350e+00    5.051222e-01   9.717360e-03
  3.902561e+00    4.890580e-01   9.593896e-03
  3.904771e+00    5.082589e-01   9.813843e-03
  3.906982e+00    4.901790e-01   9.670944e-03
  3.909192e+00    4.819176e-01   9.622274e-03
  3.911403e+00    4.679637e-01   9.515316e-03
  3.913613e+00    4.537956e-01   9.403090e-03
  3.915823e+00    4.906945e-01   9.812756e-03
  3.918034e+00    4.929965e-01   9.871256e-03
  3.920244e+00    4.854566e-01   9.831132e-03
  3.922455e+00    4.534687e-01   9.536461e-03
  3.924665e+00    4.720121e-01   9.765297e-03
  3.926876e+00    4.880931e-01   9.967326e-03
  3.929086e+00    5.084388e-01   1.021112e-02
  3.931297e+00    4.700227e-01   9.852087e-03
  3.933507e+00    4.659576e-01   9.837513e-03
  3.935718e+00    4.747765e-01   9.958588e-03
  3.937928e+00    4.806929e-01   1.004972e-02
  3.940138e+00    5.030671e-01   1.031074e-02
  3.942349e+00    4.846551e-01   1.015009e-02
  3.944559e+00    4.909855e-01   1.024631e-02
  3.946770e+00    4.780574e-01   1.014035e-02
  3.948980e+00    4.867761e-01   1.026319e-02
  3.951191e+00    5.206880e-01   1.064653e-02
  3.953401e+00    4.922452e-01   1.038326e-02
  3.955612e+00    4.684015e-01   1.015967e-02
  3.957822e+00    4.612196e-01   1.011239e-02
  3.960033e+00    5.135312e-01   1.070387e-02
  3.962243e+00    5.200729e-01   1.080602e-02
  3.964453e+00    4.841859e-01   1.045947e-02
  3.966664e+00    4.808145e-01   1.045628e-02
  3.968874e+00    4.892453e-01   1.057602e-02
  3.971085e+00    4.874383e-01   1.057844e-02
  3.973295e+00    4.873897e-01   1.059947e-02
  3.975506e+00    4.857007e-01   1.060261e-02
  3.977716e+00    4.951848e-01   1.072793e-02
  3.979927e+00    4.783051e-01   1.056539e-02
  3.982137e+00    4.949601e-01   1.077025e-02
  3.984348e+00    4.947436e-01   1.079079e-02
  3.986558e+00    4.836555e-01   1.069140e-02
  3.988768e+00    4.925543e-01   1.081245e-02
  3.990979e+00    4.830846e-01   1.073083e-02
  3.993189e+00    4.991872e-01   1.093151e-02
  3.995400e+00    4.959344e-01   1.091970e-02
  3.997610e+00    4.759169e-01   1.072660e-02
  3.999821e+00    4.696725e-01   1.069287e-02
  4.002031e+00    4.743538e-01   1.078398e-02
  4.004242e+00    4.821289e-01   1.091043e-02
  4.006452e+00    5.066884e-01   1.122510e-02
  4.008663e+00    4.788795e-01   1.095250e-02
  4.010873e+00    4.783170e-01   1.098580e-02
  4.013084e+00    4.537762e-01   1.073987e-02
  4.015294e+00    4.459585e-01   1.068629e-02
  4.017504e+00    4.594248e-01   1.088716e-02
  4.019715e+00    5.083814e-01   1.149605e-02
  4.021925e+00    4.771112e-01   1.117962e-02
  4.024136e+00    4.878289e-01   1.134839e-02
  4.026346e+00    4.922232e-01   1.144382e-02
  4.028557e+00    4.829819e-01   1.138018e-02
  4.030767e+00    4.919917e-01   1.153195e-02
  4.032978e+00    5.092322e-01   1.177968e-02
  4.035188e+00    4.650109e-01   1.130195e-02
  4.037399e+00    4.784310e-01   1.151108e-02
  4.039609e+00    4.937249e-01   1.174194e-02
  4.041819e+00    4.767279e-01   1.158647e-02
  4.044030e+00    4.737148e-01   1.159919e-02
  4.046240e+00    4.931701e-01   1.188537e-02
  4.048451e+00    4.769814e-01   1.173926e-02
  4.050661e+00    4.993507e-01   1.206375e-02
  4.052872e+00    5.159560e-01   1.231722e-02
  4.055082e+00    4.416727e-01   1.144736e-02
  4.057293e+00    4.625702e-01   1.176747e-02
  4.059503e+00    4.766768e-01   1.200001e-02
  4.061714e+00    4.822617e-01   1.212646e-02
  4.063924e+00    5.066197e-01   1.248724e-02
  4.066134e+00    4.765187e-01   1.216761e-02
  4.068345e+00    4.844481e-01   1.232759e-02
  4.070555e+00    4.572005e-01   1.203359e-02
  4.072766e+00    4.674102e-01   1.222709e-02
  4.074976e+00    4.624030e-01   1.222217e-02
  4.077187e+00    4.626563e-01   1.228626e-02
  4.079397e+00    4.777474e-01   1.254870e-02
  4.081608e+00    4.696597e-01   1.250679e-02
  4.083818e+00    5.093230e-01   1.309196e-02
  4.086029e+00    4.871307e-01   1.287107e-02
  4.088239e+00    4.298919e-01   1.215648e-02
  4.090449e+00    4.556878e-01   1.258353e-02
  4.092660e+00    4.667971e-01   1.280619e-02
  4.094870e+00    4.259314e-01   1.230084e-02
  4.097081e+00    4.726821e-01   1.302927e-02
  4.099291e+00    4.502412e-01   1.276883e-02
  4.101502e+00    4.698591e-01   1.309271e-02
  4.103712e+00    5.085107e-01   1.367131e-02
  4.105923e+00    4.960569e-01   1.355525e-02
  4.108133e+00    5.054809e-01   1.373607e-02
  4.110344e+00    4.764124e-01   1.338637e-02
  4.112554e+00    4.924536e-01   1.366352e-02
  4.114764e+00    5.011742e-01   1.383940e-02
  4.116975e+00    4.511268e-01   1.318206e-02
  4.119185e+00    4.513581e-01   1.323893e-02
  4.121396e+00    4.568158e-01   1.337363e-02
  4.123606e+00    4.902672e-01   1.391162e-02
  4.125817e+00    4.799561e-01   1.382214e-02
  4.128027e+00    4.878743e-01   1.399451e-02
  4.130238e+00    4.735075e-01   1.384592e-02
  4.132448e+00    4.821968e-01   1.403308e-02
  4.134659e+00    4.962411e-01   1.429714e-02
  4.136869e+00    4.570680e-01   1.378264e-02
  4.139080e+00    4.820572e-01   1.421791e-02
  4.141290e+00    4.509861e-01   1.381321e-02
  4.143500e+00    4.366898e-01   1.365496e-02
  4.145711e+00    4.640834e-01   1.414273e-02
  4.147921e+00    4.640858e-01   1.420747e-02
  4.150132e+00    4.512158e-01   1.407615e-02
  4.152342e+00    4.747593e-01   1.450844e-02
  4.154553e+00    4.693858e-01   1.449483e-02
  4.156763e+00    5.128053e-01   1.522516e-02
  4.158974e+00    4.895160e-01   1.495041e-02
  4.161184e+00    4.728946e-01   1.476733e-02
  4.163395e+00    4.595817e-01   1.463226e-02
  4.165605e+00    4.851921e-01   1.511254e-02
  4.167815e+00    4.712836e-01   1.497192e-02
  4.170026e+00    4.929079e-01   1.539251e-02
  4.172236e+00    4.590996e-01   1.493543e-02
  4.174447e+00    4.920398e-01   1.554600e-02
  4.176657e+00    5.105902e-01   1.592314e-02
  4.178868e+00    4.813251e-01   1.554759e-02
  4.181078e+00    4.558387e-01   1.521527e-02
  4.183289e+00    5.209510e-01   1.635898e-02
  4.185499e+00    4.426288e-01   1.516850e-02
  4.187710e+00    4.888379e-01   1.603354e-02
  4.189920e+00    4.867295e-01   1.609535e-02
  4.192130e+00    5.099409e-01   1.657549e-02
  4.194341e+00    4.660996e-01   1.594411e-02
  4.196551e+00    4.680805e-01   1.607899e-02
  4.198762e+00    4.636659e-01   1.610458e-02
  4.200972e+00    5.013239e-01   1.685451e-02
  4.203183e+00    4.600705e-01   1.625227e-02
  4.205393e+00    4.592733e-01   1.634627e-02
  4.207604e+00    5.340722e-01   1.774766e-02
  4.209814e+00    5.133298e-01   1.751875e-02
  4.212025e+00    5.102544e-01   1.758998e-02
  4.214235e+00    4.958793e-01   1.746346e-02
  4.216445e+00    4.867249e-01   1.742670e-02
  4.218656e+00    4.677719e-01   1.721198e-02
  4.220866e+00    4.963174e-01   1.786040e-02
  4.223077e+00    5.240130e-01   1.849371e-02
  4.225287e+00    4.673165e-01   1.760139e-02
  4.227498e+00    5.084320e-01   1.850362e-02
  4.229708e+00    4.709432e-01   1.795314e-02
  4.231919e+00    5.062935e-01   1.876893e-02
  4.234129e+00    4.644249e-01   1.812681e-02
  4.236340e+00    4.532192e-01   1.805986e-02
  4.238550e+00    4.273553e-01   1.769200e-02
  4.240761e+00    5.124611e-01   1.954464e-02
  4.242971e+00    4.783320e-01   1.905572e-02
  4.245181e+00    4.458773e-01   1.857065e-02
  4.247392e+00    4.668103e-01   1.917936e-02
  4.249602e+00    4.425496e-01   1.885970e-02
  4.251813e+00    4.450687e-01   1.909956e-02
  4.254023e+00    4.787987e-01   2.000962e-02
  4.256234e+00    5.222678e-01   2.112211e-02
  4.258444e+00    4.378755e-01   1.954223e-02
  4.260655e+00    4.893845e-01   2.088728e-02
  4.262865e+00    4.451828e-01   2.014746e-02
  4.265076e+00    4.943536e-01   2.147220e-02
  4.267286e+00    5.429199e-01   2.276934e-02
  4.269496e+00    4.547088e-01   2.109215e-02
  4.271707e+00    4.849413e-01   2.205072e-02
  4.273917e+00    4.401438e-01   2.127938e-02
  4.276128e+00    4.303128e-01   2.131993e-02
  4.278338e+00    4.369437e-01   2.177052e-02
  4.280549e+00    4.189007e-01   2.162201e-02
  4.282759e+00    4.368529e-01   2.239754e-02
  4.284970e+00    3.955550e-01   2.162815e-02
  4.287180e+00    4.659063e-01   2.375342e-02
  4.289391e+00    5.766348e-01   2.662485e-02
  4.291601e+00    5.165353e-01   2.540062e-02
  4.293811e+00    4.395474e-01   2.361431e-02
  4.296022e+00    4.497083e-01   2.407813e-02
  4.298232e+00    4.705150e-01   2.483407e-02
  4.300443e+00    4.671172e-01   2.494902e-02
  4.302653e+00    4.613566e-01   2.500950e-02
  4.304864e+00    5.509180e-01   2.756575e-02
  4.307074e+00    5.302689e-01   2.728802e-02
  4.309285e+00    4.689053e-01   2.589303e-02
  4.311495e+00    4.290714e-01   2.500083e-02
  4.313706e+00    4.557588e-01   2.600824e-02
  4.315916e+00    4.552677e-01   2.625033e-02
  4.318126e+00    4.946468e-01   2.763257e-02
  4.320337e+00    4.943581e-01   2.790449e-02
  4.322547e+00    4.489058e-01   2.687219e-02
  4.324758e+00    4.548078e-01   2.732977e-02
  4.326968e+00    5.833769e-01   3.130073e-02
  4.329179e+00    5.328974e-01   3.024613e-02
  4.331389e+00    3.646953e-01   2.531021e-02
  4.333600e+00    4.216545e-01   2.753933e-02
  4.335810e+00    3.162104e-01   2.413238e-02
  4.338021e+00    4.276399e-01   2.842300e-02
  4.340231e+00    4.333621e-01   2.897307e-02
  4.342442e+00    5.411642e-01   3.280920e-02
  4.344652e+00    3.587983e-01   2.707938e-02
  4.346862e+00    3.227713e-01   2.604240e-02
  4.349073e+00    3.807952e-01   2.869810e-02
  4.351283e+00    4.531723e-01   3.177499e-02
  4.353494e+00    4.291254e-01   3.139764e-02
  4.355704e+00    5.211989e-01   3.516051e-02
  4.357915e+00    4.478795e-01   3.313510e-02
  4.360125e+00    4.026897e-01   3.195665e-02
  4.362336e+00    4.488536e-01   3.435233e-02
  4.364546e+00    3.864714e-01   3.245678e-02
  4.366757e+00    4.365301e-01   3.518162e-02
  4.368967e+00    3.307693e-01   3.123497e-02
  4.371177e+00    4.384141e-01   3.672488e-02
  4.373388e+00    3.330342e-01   3.272474e-02
  4.375598e+00    4.025217e-01   3.679558e-02
  4.377809e+00    4.401590e-01   3.945237e-02
  4.380019e+00    4.955005e-01   4.291148e-02
  4.382230e+00    4.471422e-01   4.190234e-02
  4.384440e+00    3.656412e-01   3.898069e-02
  4.386651e+00    4.676642e-01   4.544551e-02
  4.388861e+00    5.030213e-01   4.871335e-02
  4.391072e+00    4.213714e-01   4.614955e-02
  4.393282e+00    5.394178e-01   5.423780e-02
  4.395492e+00    3.885937e-01   4.794446e-02
  4.397703e+00    4.283496e-01   5.264305e-02
  4.399913e+00    2.882655e-01   4.536605e-02
  4.402124e+00    1.876031e-01   3.867599e-02
  4.404334e+00    2.995479e-01   5.194635e-02
  4.406545e+00    1.871004e-01   4.411429e-02
  4.408755e+00    3.582938e-01   6.619839e-02
  4.410966e+00    3.671956e-01   7.417431e-02
  4.413176e+00    3.133287e-01   7.757008e-02
  4.415387e+00   -6.420959e-01            nan
  4.417597e+00   -1.775404e+00            nan
  4.419807e+00    2.807437e-01   1.902519e-01
