# == pyFAI calibration ==
# Distance Sample to Detector: 0.216 m
# PONI: 1.166e-01, 1.308e-01 m
# Rotations: 0.000000 0.000000 0.000000 rad
# 
# == Fit2d calibration ==
# Distance Sample-beamCenter: 216.000 mm
# Center: x=1744.293, y=1555.000 pix
# Tilt: 0.000 deg  TiltPlanRot: 0.000 deg
# 
# Detector Eiger 9M	 PixelSize= 7.500e-05, 7.500e-05 m
#    Detector has a mask: True 
#    Detector has a dark current: False 
#    detector has a flat field: False 
# 
# Wavelength: 9.8e-11 m
# Mask applied: from detector
# Dark current applied: False
# Flat field applied: False
# Polarization factor: None
# Normalization factor: 1.0
# 
# Headers of the input frame:
# {
# "_array_data.header_convention": "SLS_1.0",
# "_array_data.header_contents": "# Detector: Dectris Eiger 9M, S/N E-18-0102\r\n# Pixel_size 75e-6 m x 75e-6 m\r\n# Silicon sensor, thickness 0.000450 m\r\n# Exposure_time 0.024997 s\r\n# Exposure_period 0.025000 s\r\n# Count_cutoff 62318 counts\r\n# Wavelength 0.980106 A\r\n# Detector_distance 0.215992 m\r\n# Beam_xy (1555, 1744) pixels\r\n# Start_angle 0.000000 deg.\r\n# Angle_increment 0.000000 deg.",
# "Content-Type": "application/octet-stream;",
# "conversions": "x-CBF_BYTE_OFFSET",
# "Content-Transfer-Encoding": "BINARY",
# "X-Binary-Size": "10166598",
# "X-Binary-ID": "1",
# "X-Binary-Element-Type": "signed 32-bit integer",
# "X-Binary-Element-Byte-Order": "LITTLE_ENDIAN",
# "Content-MD5": "gqQ+b87yXfHwWvS1HmTzMw==",
# "X-Binary-Number-of-Elements": "10166590",
# "X-Binary-Size-Fastest-Dimension": "3110",
# "X-Binary-Size-Second-Dimension": "3269",
# "X-Binary-Size-Padding": "4095"
# }
# --> H:/Proxima2a_2019-04-05/RAW_DATA/C5_gel17_position5/C5_mesh_1_data.cbf/C5_mesh_1_data.cbf000019.dat
#        q_A^-1              I           sigma 
  1.105228e-03    9.201699e-01   5.190641e-01
  3.315685e-03    1.343622e+00   3.813151e-01
  5.526141e-03    1.625811e+00   3.243449e-01
  7.736597e-03    1.578320e+00   2.699714e-01
  9.947054e-03    1.432494e+00   2.267373e-01
  1.215751e-02    1.354956e+00   1.994028e-01
  1.436797e-02    1.624397e+00   2.008269e-01
  1.657842e-02    1.535563e+00   1.817516e-01
  1.878888e-02    1.503282e+00   1.689210e-01
  2.099934e-02    1.448649e+00   1.568858e-01
  2.320979e-02    1.348754e+00   1.439790e-01
  2.542025e-02    1.324876e+00   1.363631e-01
  2.763070e-02    1.376824e+00   1.333305e-01
  2.984116e-02    1.482948e+00   1.331495e-01
  3.205162e-02    1.424864e+00   1.259427e-01
  3.426207e-02    1.490307e+00   1.245698e-01
  3.647253e-02    1.517282e+00   1.218212e-01
  3.868299e-02    1.544545e+00   1.193565e-01
  4.089344e-02    1.573116e+00   1.171551e-01
  4.310390e-02    1.413384e+00   1.081569e-01
  4.531436e-02    1.411575e+00   1.054187e-01
  4.752481e-02    1.420717e+00   1.032697e-01
  4.973527e-02    1.490441e+00   1.033973e-01
  5.194572e-02    1.501983e+00   1.015630e-01
  5.415618e-02    1.471374e+00   9.844651e-02
  5.636664e-02    1.423568e+00   9.491925e-02
  5.857709e-02    1.491582e+00   9.530991e-02
  6.078755e-02    1.470749e+00   9.290233e-02
  6.299801e-02    1.497064e+00   9.206967e-02
  6.520846e-02    1.392092e+00   8.726591e-02
  6.741892e-02    1.318724e+00   8.352699e-02
  6.962938e-02    1.418942e+00   8.526064e-02
  7.183983e-02    1.509922e+00   8.658632e-02
  7.405029e-02    1.499570e+00   8.498938e-02
  7.626074e-02    1.466931e+00   8.283143e-02
  7.847120e-02    1.478630e+00   8.197920e-02
  8.068166e-02    1.524498e+00   8.209217e-02
  8.289211e-02    1.509583e+00   8.059260e-02
  8.510257e-02    1.543447e+00   8.042578e-02
  8.731303e-02    1.494401e+00   7.812650e-02
  8.952348e-02    1.464614e+00   7.638520e-02
  9.173394e-02    1.463206e+00   7.542001e-02
  9.394439e-02    1.482791e+00   7.502211e-02
  9.615485e-02    1.515858e+00   7.497543e-02
  9.836531e-02    1.472641e+00   7.306188e-02
  1.005758e-01    1.472656e+00   7.225535e-02
  1.027862e-01    1.392349e+00   6.949636e-02
  1.049967e-01    1.515207e+00   7.172918e-02
  1.072071e-01    1.484173e+00   7.025433e-02
  1.094176e-01    1.532084e+00   7.065350e-02
  1.116280e-01    1.608702e+00   7.167661e-02
  1.138385e-01    1.574964e+00   7.022773e-02
  1.160490e-01    1.593379e+00   6.996028e-02
  1.182594e-01    1.558276e+00   6.853423e-02
  1.204699e-01    1.603785e+00   6.888643e-02
  1.226803e-01    1.632916e+00   6.887732e-02
  1.248908e-01    1.630493e+00   6.821362e-02
  1.271012e-01    1.582278e+00   6.660927e-02
  1.293117e-01    1.576452e+00   6.591500e-02
  1.315222e-01    1.605802e+00   6.596280e-02
  1.337326e-01    1.666032e+00   6.662961e-02
  1.359431e-01    1.613881e+00   6.561689e-02
  1.381535e-01    1.525394e+00   6.464897e-02
  1.403640e-01    1.558325e+00   6.562522e-02
  1.425744e-01    1.596955e+00   6.653976e-02
  1.447849e-01    1.580548e+00   6.621232e-02
  1.469953e-01    1.562213e+00   6.578591e-02
  1.492058e-01    1.547564e+00   6.540067e-02
  1.514163e-01    1.478535e+00   6.381930e-02
  1.536267e-01    1.503928e+00   6.423929e-02
  1.558372e-01    1.606767e+00   6.625275e-02
  1.580476e-01    1.622852e+00   6.642199e-02
  1.602581e-01    1.625164e+00   6.630046e-02
  1.624685e-01    1.688318e+00   6.739140e-02
  1.646790e-01    1.693390e+00   6.729874e-02
  1.668895e-01    1.700029e+00   6.723579e-02
  1.690999e-01    1.760929e+00   6.822400e-02
  1.713104e-01    1.817706e+00   6.910001e-02
  1.735208e-01    1.793175e+00   6.841878e-02
  1.757313e-01    1.736460e+00   6.711707e-02
  1.779417e-01    1.865952e+00   6.934769e-02
  1.801522e-01    1.798908e+00   6.787361e-02
  1.823626e-01    1.897748e+00   6.948122e-02
  1.845731e-01    1.942393e+00   7.006608e-02
  1.867836e-01    1.980305e+00   7.050776e-02
  1.889940e-01    2.011792e+00   7.083389e-02
  1.912045e-01    2.037021e+00   7.103866e-02
  1.934149e-01    1.923765e+00   6.880451e-02
  1.956254e-01    1.954250e+00   6.911882e-02
  1.978358e-01    1.931355e+00   6.847725e-02
  2.000463e-01    1.934961e+00   6.831405e-02
  2.022568e-01    1.907286e+00   6.760109e-02
  2.044672e-01    2.030749e+00   6.951581e-02
  2.066777e-01    2.090150e+00   7.029110e-02
  2.088881e-01    2.093965e+00   7.012507e-02
  2.110986e-01    2.032858e+00   6.885734e-02
  2.133090e-01    1.958984e+00   6.737487e-02
  2.155195e-01    1.920498e+00   6.648850e-02
  2.177300e-01    1.999834e+00   6.731489e-02
  2.199404e-01    1.986814e+00   6.532747e-02
  2.221509e-01    1.951320e+00   6.367822e-02
  2.243613e-01    1.934763e+00   6.260367e-02
  2.265718e-01    1.952380e+00   6.219485e-02
  2.287822e-01    2.039430e+00   6.293712e-02
  2.309927e-01    1.977508e+00   6.140970e-02
  2.332031e-01    2.144907e+00   6.340872e-02
  2.354136e-01    2.083424e+00   6.198685e-02
  2.376241e-01    2.145768e+00   6.241915e-02
  2.398345e-01    2.132013e+00   6.175832e-02
  2.420450e-01    2.134237e+00   6.134891e-02
  2.442554e-01    2.143125e+00   6.105300e-02
  2.464659e-01    2.192987e+00   6.134452e-02
  2.486763e-01    2.160387e+00   6.048661e-02
  2.508868e-01    2.132971e+00   5.972246e-02
  2.530973e-01    2.203305e+00   6.032281e-02
  2.553077e-01    2.133038e+00   5.899309e-02
  2.575182e-01    2.099376e+00   5.817949e-02
  2.597286e-01    2.143281e+00   5.844296e-02
  2.619391e-01    2.137199e+00   5.802401e-02
  2.641495e-01    2.082084e+00   5.695399e-02
  2.663600e-01    2.084380e+00   5.667197e-02
  2.685704e-01    2.113420e+00   5.675608e-02
  2.707809e-01    2.063477e+00   5.578378e-02
  2.729914e-01    2.026184e+00   5.498931e-02
  2.752018e-01    2.047220e+00   5.498634e-02
  2.774123e-01    2.083845e+00   5.519263e-02
  2.796227e-01    2.032970e+00   5.424510e-02
  2.818332e-01    1.961369e+00   5.301546e-02
  2.840436e-01    1.964782e+00   5.280436e-02
  2.862541e-01    2.030917e+00   5.342764e-02
  2.884646e-01    2.035475e+00   5.323373e-02
  2.906750e-01    2.030982e+00   5.292280e-02
  2.928855e-01    1.994468e+00   5.220191e-02
  2.950959e-01    1.986489e+00   5.185808e-02
  2.973064e-01    1.951293e+00   5.116561e-02
  2.995168e-01    1.933579e+00   5.070218e-02
  3.017273e-01    1.901259e+00   5.005498e-02
  3.039377e-01    1.919019e+00   5.006800e-02
  3.061482e-01    1.932748e+00   5.002945e-02
  3.083587e-01    1.910073e+00   4.951980e-02
  3.105691e-01    1.981165e+00   5.021755e-02
  3.127796e-01    1.919269e+00   4.921907e-02
  3.149900e-01    1.911122e+00   4.890984e-02
  3.172005e-01    1.875454e+00   4.825318e-02
  3.194109e-01    1.823164e+00   4.737933e-02
  3.216214e-01    1.865232e+00   4.772728e-02
  3.238319e-01    1.899912e+00   4.797811e-02
  3.260423e-01    1.852208e+00   4.718325e-02
  3.282528e-01    1.860170e+00   4.709632e-02
  3.304632e-01    1.879251e+00   4.715386e-02
  3.326737e-01    1.858045e+00   4.670413e-02
  3.348841e-01    1.809653e+00   4.591317e-02
  3.370946e-01    1.842768e+00   4.615706e-02
  3.393050e-01    1.809084e+00   4.555999e-02
  3.415155e-01    1.833606e+00   4.569529e-02
  3.437260e-01    1.848658e+00   4.571239e-02
  3.459364e-01    1.828384e+00   4.529288e-02
  3.481469e-01    1.886668e+00   4.584117e-02
  3.503573e-01    1.866217e+00   4.542599e-02
  3.525678e-01    1.770963e+00   4.409379e-02
  3.547782e-01    1.818295e+00   4.451765e-02
  3.569887e-01    1.817076e+00   4.434504e-02
  3.591992e-01    1.824693e+00   4.428066e-02
  3.614096e-01    1.775337e+00   4.352624e-02
  3.636201e-01    1.765092e+00   4.324796e-02
  3.658305e-01    1.783875e+00   4.332914e-02
  3.680410e-01    1.797644e+00   4.334644e-02
  3.702514e-01    1.780565e+00   4.299496e-02
  3.724619e-01    1.780733e+00   4.285057e-02
  3.746724e-01    1.815936e+00   4.312767e-02
  3.768828e-01    1.791862e+00   4.269669e-02
  3.790933e-01    1.798101e+00   4.263159e-02
  3.813037e-01    1.735486e+00   4.174570e-02
  3.835142e-01    1.745185e+00   4.172469e-02
  3.857246e-01    1.774701e+00   4.193988e-02
  3.879351e-01    1.767699e+00   4.172160e-02
  3.901455e-01    1.816514e+00   4.215906e-02
  3.923560e-01    1.879582e+00   4.274841e-02
  3.945665e-01    1.853262e+00   4.231345e-02
  3.967769e-01    1.840443e+00   4.203479e-02
  3.989874e-01    1.850124e+00   4.201362e-02
  4.011978e-01    1.803509e+00   4.135339e-02
  4.034083e-01    1.794279e+00   4.112080e-02
  4.056187e-01    1.820645e+00   4.129423e-02
  4.078292e-01    1.780983e+00   4.071837e-02
  4.100397e-01    1.797071e+00   4.077697e-02
  4.122501e-01    1.813010e+00   4.083486e-02
  4.144606e-01    1.830785e+00   4.091289e-02
  4.166710e-01    1.818927e+00   4.065891e-02
  4.188815e-01    1.826192e+00   4.061968e-02
  4.210919e-01    1.829530e+00   4.053764e-02
  4.233024e-01    1.823996e+00   4.035723e-02
  4.255128e-01    1.866378e+00   4.070539e-02
  4.277233e-01    1.862079e+00   4.054168e-02
  4.299338e-01    1.801762e+00   3.976491e-02
  4.321442e-01    1.771761e+00   3.931962e-02
  4.343547e-01    1.797693e+00   3.949431e-02
  4.365651e-01    1.764287e+00   3.901449e-02
  4.387756e-01    1.777927e+00   3.905533e-02
  4.409860e-01    1.747816e+00   3.861593e-02
  4.431965e-01    1.726083e+00   3.826897e-02
  4.454070e-01    1.758944e+00   3.852407e-02
  4.476174e-01    1.736251e+00   3.816965e-02
  4.498279e-01    1.719479e+00   3.788149e-02
  4.520383e-01    1.732616e+00   3.792159e-02
  4.542488e-01    1.741332e+00   3.791432e-02
  4.564592e-01    1.769583e+00   3.811812e-02
  4.586697e-01    1.716146e+00   3.743853e-02
  4.608801e-01    1.708412e+00   3.725402e-02
  4.630906e-01    1.695596e+00   3.701577e-02
  4.653011e-01    1.717287e+00   3.715379e-02
  4.675115e-01    1.758552e+00   3.749852e-02
  4.697220e-01    1.734721e+00   3.714608e-02
  4.719324e-01    1.678377e+00   3.644332e-02
  4.741429e-01    1.714044e+00   3.673360e-02
  4.763533e-01    1.731449e+00   3.682500e-02
  4.785638e-01    1.738136e+00   3.680073e-02
  4.807743e-01    1.687529e+00   3.616881e-02
  4.829847e-01    1.703379e+00   3.624646e-02
  4.851952e-01    1.675699e+00   3.585981e-02
  4.874056e-01    1.676394e+00   3.577677e-02
  4.896161e-01    1.707619e+00   3.601891e-02
  4.918265e-01    1.658775e+00   3.541189e-02
  4.940370e-01    1.613906e+00   3.484341e-02
  4.962475e-01    1.695860e+00   3.562892e-02
  4.984579e-01    1.677474e+00   3.534793e-02
  5.006684e-01    1.657330e+00   3.504939e-02
  5.028788e-01    1.663682e+00   3.503142e-02
  5.050893e-01    1.610369e+00   3.438170e-02
  5.072997e-01    1.663908e+00   3.486416e-02
  5.095102e-01    1.653517e+00   3.467190e-02
  5.117206e-01    1.664689e+00   3.470609e-02
  5.139311e-01    1.711842e+00   3.511091e-02
  5.161416e-01    1.735350e+00   3.526765e-02
  5.183520e-01    1.681698e+00   3.463564e-02
  5.205625e-01    1.688635e+00   3.462572e-02
  5.227729e-01    1.644717e+00   3.409277e-02
  5.249834e-01    1.729903e+00   3.488335e-02
  5.271938e-01    1.703167e+00   3.453197e-02
  5.294043e-01    1.766840e+00   3.509038e-02
  5.316148e-01    1.781676e+00   3.515670e-02
  5.338252e-01    1.754555e+00   3.480834e-02
  5.360357e-01    1.792567e+00   3.510328e-02
  5.382461e-01    1.777688e+00   3.487828e-02
  5.404566e-01    1.763759e+00   3.466230e-02
  5.426670e-01    1.748611e+00   3.443538e-02
  5.448775e-01    1.727727e+00   3.415266e-02
  5.470879e-01    1.762927e+00   3.442185e-02
  5.492984e-01    1.778874e+00   3.450031e-02
  5.515089e-01    1.794629e+00   3.457590e-02
  5.537193e-01    1.777280e+00   3.433257e-02
  5.559298e-01    1.750232e+00   3.399557e-02
  5.581402e-01    1.810463e+00   3.450003e-02
  5.603507e-01    1.865198e+00   3.494145e-02
  5.625611e-01    1.840723e+00   3.463611e-02
  5.647716e-01    1.813304e+00   3.430255e-02
  5.669821e-01    1.736351e+00   3.349444e-02
  5.691925e-01    1.737495e+00   3.343352e-02
  5.714030e-01    1.754323e+00   3.352343e-02
  5.736134e-01    1.725435e+00   3.317557e-02
  5.758239e-01    1.721505e+00   3.306701e-02
  5.780343e-01    1.749325e+00   3.326263e-02
  5.802448e-01    1.691563e+00   3.264039e-02
  5.824552e-01    1.635314e+00   3.202578e-02
  5.846657e-01    1.623775e+00   3.184605e-02
  5.868762e-01    1.626416e+00   3.180559e-02
  5.890866e-01    1.642449e+00   3.189567e-02
  5.912971e-01    1.647160e+00   3.187524e-02
  5.935075e-01    1.653978e+00   3.187512e-02
  5.957180e-01    1.713627e+00   3.237823e-02
  5.979284e-01    1.682781e+00   3.202002e-02
  6.001389e-01    1.652113e+00   3.166229e-02
  6.023494e-01    1.657136e+00   3.164599e-02
  6.045598e-01    1.691120e+00   3.190376e-02
  6.067703e-01    1.666913e+00   3.161089e-02
  6.089807e-01    1.685103e+00   3.171902e-02
  6.111912e-01    1.630578e+00   3.113932e-02
  6.134016e-01    1.665202e+00   3.140542e-02
  6.156121e-01    1.694276e+00   3.161543e-02
  6.178226e-01    1.701454e+00   3.161961e-02
  6.200330e-01    1.715033e+00   3.168292e-02
  6.222435e-01    1.694478e+00   3.143009e-02
  6.244539e-01    1.703035e+00   3.144767e-02
  6.266644e-01    1.694359e+00   3.130625e-02
  6.288748e-01    1.758128e+00   3.182787e-02
  6.310853e-01    1.716220e+00   3.138521e-02
  6.332957e-01    1.722526e+00   3.138209e-02
  6.355062e-01    1.702619e+00   3.113963e-02
  6.377167e-01    1.729735e+00   3.132637e-02
  6.399271e-01    1.718590e+00   3.116549e-02
  6.421376e-01    1.689855e+00   3.084483e-02
  6.443480e-01    1.748529e+00   3.131606e-02
  6.465585e-01    1.736829e+00   3.115200e-02
  6.487689e-01    1.694494e+00   3.071189e-02
  6.509794e-01    1.694916e+00   3.065776e-02
  6.531899e-01    1.656841e+00   3.025448e-02
  6.554003e-01    1.592331e+00   2.960388e-02
  6.576108e-01    1.614571e+00   2.975438e-02
  6.598212e-01    1.640735e+00   2.993877e-02
  6.620317e-01    1.609356e+00   2.959615e-02
  6.642421e-01    1.596553e+00   2.942364e-02
  6.664526e-01    1.602406e+00   2.942322e-02
  6.686630e-01    1.585109e+00   2.920988e-02
  6.708735e-01    1.621949e+00   2.949316e-02
  6.730840e-01    1.593889e+00   2.918364e-02
  6.752944e-01    1.580705e+00   2.900982e-02
  6.775049e-01    1.624360e+00   2.935429e-02
  6.797153e-01    1.605076e+00   2.912670e-02
  6.819258e-01    1.600930e+00   2.903659e-02
  6.841362e-01    1.600943e+00   2.898450e-02
  6.863467e-01    1.630113e+00   2.919497e-02
  6.885572e-01    1.610295e+00   2.896497e-02
  6.907676e-01    1.567034e+00   2.852205e-02
  6.929781e-01    1.583225e+00   2.861806e-02
  6.951885e-01    1.589190e+00   2.862113e-02
  6.973990e-01    1.604664e+00   2.870928e-02
  6.996094e-01    1.626967e+00   2.885725e-02
  7.018199e-01    1.596698e+00   2.853739e-02
  7.040303e-01    1.589333e+00   2.842147e-02
  7.062408e-01    1.628863e+00   2.872235e-02
  7.084513e-01    1.612392e+00   2.852707e-02
  7.106617e-01    1.608085e+00   2.843944e-02
  7.128722e-01    1.580034e+00   2.814152e-02
  7.150826e-01    1.569852e+00   2.800236e-02
  7.172931e-01    1.566613e+00   2.792522e-02
  7.195035e-01    1.596046e+00   2.813787e-02
  7.217140e-01    1.594204e+00   2.817138e-02
  7.239245e-01    1.583179e+00   2.830116e-02
  7.261349e-01    1.605399e+00   2.860872e-02
  7.283454e-01    1.604072e+00   2.867000e-02
  7.305558e-01    1.618866e+00   2.885664e-02
  7.327663e-01    1.566641e+00   2.842976e-02
  7.349767e-01    1.561638e+00   2.840064e-02
  7.371872e-01    1.543665e+00   2.822563e-02
  7.393976e-01    1.557409e+00   2.833685e-02
  7.416081e-01    1.569808e+00   2.843327e-02
  7.438186e-01    1.549686e+00   2.810728e-02
  7.460290e-01    1.556329e+00   2.787494e-02
  7.482395e-01    1.565595e+00   2.778711e-02
  7.504499e-01    1.590143e+00   2.786718e-02
  7.526604e-01    1.584016e+00   2.769654e-02
  7.548708e-01    1.581924e+00   2.758862e-02
  7.570813e-01    1.557484e+00   2.732399e-02
  7.592918e-01    1.562147e+00   2.732982e-02
  7.615022e-01    1.569021e+00   2.735614e-02
  7.637127e-01    1.570562e+00   2.733683e-02
  7.659231e-01    1.583789e+00   2.741961e-02
  7.681336e-01    1.587096e+00   2.741648e-02
  7.703440e-01    1.629801e+00   2.775114e-02
  7.725545e-01    1.571798e+00   2.722201e-02
  7.747650e-01    1.612275e+00   2.753162e-02
  7.769754e-01    1.592108e+00   2.730593e-02
  7.791859e-01    1.570615e+00   2.706757e-02
  7.813963e-01    1.582381e+00   2.711611e-02
  7.836068e-01    1.615153e+00   2.734298e-02
  7.858172e-01    1.601621e+00   2.717729e-02
  7.880277e-01    1.642478e+00   2.746939e-02
  7.902381e-01    1.611064e+00   2.715603e-02
  7.924486e-01    1.556515e+00   2.664288e-02
  7.946591e-01    1.576013e+00   2.676127e-02
  7.968695e-01    1.634544e+00   2.720495e-02
  7.990800e-01    1.596388e+00   2.683750e-02
  8.012904e-01    1.588117e+00   2.672156e-02
  8.035009e-01    1.597377e+00   2.675168e-02
  8.057113e-01    1.636590e+00   2.703121e-02
  8.079218e-01    1.627977e+00   2.691348e-02
  8.101323e-01    1.602366e+00   2.665560e-02
  8.123427e-01    1.631506e+00   2.685100e-02
  8.145532e-01    1.617916e+00   2.669322e-02
  8.167636e-01    1.593392e+00   2.644558e-02
  8.189741e-01    1.644017e+00   2.681763e-02
  8.211845e-01    1.632953e+00   2.668245e-02
  8.233950e-01    1.631507e+00   2.662726e-02
  8.256054e-01    1.613356e+00   2.643484e-02
  8.278159e-01    1.627564e+00   2.650715e-02
  8.300264e-01    1.658095e+00   2.671126e-02
  8.322368e-01    1.666864e+00   2.673833e-02
  8.344473e-01    1.676058e+00   2.676810e-02
  8.366577e-01    1.651651e+00   2.652975e-02
  8.388682e-01    1.624009e+00   2.626476e-02
  8.410786e-01    1.625228e+00   2.623272e-02
  8.432891e-01    1.635883e+00   2.627677e-02
  8.454996e-01    1.669917e+00   2.650668e-02
  8.477100e-01    1.654040e+00   2.633852e-02
  8.499205e-01    1.658336e+00   2.633128e-02
  8.521309e-01    1.660959e+00   2.631099e-02
  8.543414e-01    1.679236e+00   2.641409e-02
  8.565518e-01    1.668169e+00   2.628592e-02
  8.587623e-01    1.678990e+00   2.632998e-02
  8.609727e-01    1.651880e+00   2.607606e-02
  8.631832e-01    1.636218e+00   2.591212e-02
  8.653937e-01    1.633371e+00   2.584979e-02
  8.676041e-01    1.578851e+00   2.537637e-02
  8.698146e-01    1.614920e+00   2.562534e-02
  8.720250e-01    1.638644e+00   2.577356e-02
  8.742355e-01    1.630609e+00   2.567115e-02
  8.764459e-01    1.615046e+00   2.550939e-02
  8.786564e-01    1.574979e+00   2.515342e-02
  8.808669e-01    1.578243e+00   2.514127e-02
  8.830773e-01    1.606999e+00   2.533109e-02
  8.852878e-01    1.588647e+00   2.514829e-02
  8.874982e-01    1.571469e+00   2.497564e-02
  8.897087e-01    1.577924e+00   2.498949e-02
  8.919191e-01    1.558607e+00   2.479878e-02
  8.941296e-01    1.588140e+00   2.499550e-02
  8.963401e-01    1.571296e+00   2.482649e-02
  8.985505e-01    1.599059e+00   2.500789e-02
  9.007610e-01    1.629722e+00   2.520947e-02
  9.029714e-01    1.589653e+00   2.486191e-02
  9.051819e-01    1.586175e+00   2.479764e-02
  9.073923e-01    1.595561e+00   2.483434e-02
  9.096028e-01    1.599596e+00   2.483086e-02
  9.118132e-01    1.554774e+00   2.444477e-02
  9.140237e-01    1.548774e+00   2.436154e-02
  9.162342e-01    1.584727e+00   2.460825e-02
  9.184446e-01    1.622947e+00   2.486724e-02
  9.206551e-01    1.633615e+00   2.491287e-02
  9.228655e-01    1.643157e+00   2.494981e-02
  9.250760e-01    1.610085e+00   2.466202e-02
  9.272864e-01    1.586138e+00   2.444384e-02
  9.294969e-01    1.615018e+00   2.462941e-02
  9.317074e-01    1.609184e+00   2.455015e-02
  9.339178e-01    1.591293e+00   2.437995e-02
  9.361283e-01    1.608477e+00   2.447511e-02
  9.383387e-01    1.604578e+00   2.441217e-02
  9.405492e-01    1.616206e+00   2.446624e-02
  9.427596e-01    1.654984e+00   2.472238e-02
  9.449701e-01    1.643788e+00   2.460514e-02
  9.471805e-01    1.655164e+00   2.465515e-02
  9.493910e-01    1.693388e+00   2.490400e-02
  9.516015e-01    1.689136e+00   2.483799e-02
  9.538119e-01    1.728018e+00   2.508780e-02
  9.560224e-01    1.717907e+00   2.497910e-02
  9.582328e-01    1.734207e+00   2.506364e-02
  9.604433e-01    1.822254e+00   2.565563e-02
  9.626537e-01    1.839023e+00   2.573877e-02
  9.648642e-01    1.815701e+00   2.554001e-02
  9.670747e-01    1.823055e+00   2.555638e-02
  9.692851e-01    1.811856e+00   2.544390e-02
  9.714956e-01    1.829666e+00   2.553261e-02
  9.737060e-01    1.815171e+00   2.539785e-02
  9.759165e-01    1.865341e+00   2.571013e-02
  9.781269e-01    1.857764e+00   2.562432e-02
  9.803374e-01    1.800786e+00   2.519342e-02
  9.825478e-01    1.795657e+00   2.512432e-02
  9.847583e-01    1.785017e+00   2.501575e-02
  9.869688e-01    1.807929e+00   2.514209e-02
  9.891792e-01    1.786221e+00   2.495749e-02
  9.913897e-01    1.770764e+00   2.481573e-02
  9.936001e-01    1.763087e+00   2.472946e-02
  9.958106e-01    1.703551e+00   2.427533e-02
  9.980210e-01    1.682685e+00   2.409486e-02
  1.000231e+00    1.683337e+00   2.423155e-02
  1.002442e+00    1.673779e+00   2.429105e-02
  1.004652e+00    1.632120e+00   2.405378e-02
  1.006863e+00    1.612495e+00   2.395831e-02
  1.009073e+00    1.602959e+00   2.392394e-02
  1.011284e+00    1.618182e+00   2.406941e-02
  1.013494e+00    1.601281e+00   2.396713e-02
  1.015705e+00    1.582801e+00   2.385095e-02
  1.017915e+00    1.548520e+00   2.360751e-02
  1.020126e+00    1.541792e+00   2.357208e-02
  1.022336e+00    1.542774e+00   2.359120e-02
  1.024547e+00    1.576419e+00   2.385836e-02
  1.026757e+00    1.525768e+00   2.348028e-02
  1.028967e+00    1.515919e+00   2.341195e-02
  1.031178e+00    1.523534e+00   2.347683e-02
  1.033388e+00    1.566772e+00   2.381273e-02
  1.035599e+00    1.567399e+00   2.382099e-02
  1.037809e+00    1.544829e+00   2.365213e-02
  1.040020e+00    1.550116e+00   2.369385e-02
  1.042230e+00    1.589826e+00   2.399739e-02
  1.044441e+00    1.603164e+00   2.409764e-02
  1.046651e+00    1.587400e+00   2.397904e-02
  1.048862e+00    1.587130e+00   2.397618e-02
  1.051072e+00    1.635240e+00   2.433440e-02
  1.053282e+00    1.642671e+00   2.438863e-02
  1.055493e+00    1.650539e+00   2.444246e-02
  1.057703e+00    1.633919e+00   2.431750e-02
  1.059914e+00    1.645877e+00   2.440184e-02
  1.062124e+00    1.640718e+00   2.435930e-02
  1.064335e+00    1.675859e+00   2.461513e-02
  1.066545e+00    1.708875e+00   2.484997e-02
  1.068756e+00    1.707195e+00   2.483378e-02
  1.070966e+00    1.681041e+00   2.463582e-02
  1.073177e+00    1.700523e+00   2.477167e-02
  1.075387e+00    1.608996e+00   2.409038e-02
  1.077597e+00    1.549257e+00   2.363144e-02
  1.079808e+00    1.538742e+00   2.341505e-02
  1.082018e+00    1.497117e+00   2.290490e-02
  1.084229e+00    1.470647e+00   2.259107e-02
  1.086439e+00    1.496828e+00   2.270258e-02
  1.088650e+00    1.489970e+00   2.257395e-02
  1.090860e+00    1.479799e+00   2.242853e-02
  1.093071e+00    1.470008e+00   2.229163e-02
  1.095281e+00    1.459863e+00   2.215703e-02
  1.097492e+00    1.460431e+00   2.210615e-02
  1.099702e+00    1.452159e+00   2.199186e-02
  1.101912e+00    1.445093e+00   2.188935e-02
  1.104123e+00    1.432605e+00   2.174639e-02
  1.106333e+00    1.436367e+00   2.173045e-02
  1.108544e+00    1.440236e+00   2.171528e-02
  1.110754e+00    1.435925e+00   2.163960e-02
  1.112965e+00    1.414597e+00   2.143785e-02
  1.115175e+00    1.432756e+00   2.153366e-02
  1.117386e+00    1.394124e+00   2.120238e-02
  1.119596e+00    1.420781e+00   2.136613e-02
  1.121807e+00    1.431118e+00   2.140462e-02
  1.124017e+00    1.401697e+00   2.114687e-02
  1.126228e+00    1.406800e+00   2.114955e-02
  1.128438e+00    1.410254e+00   2.113863e-02
  1.130648e+00    1.370519e+00   2.080472e-02
  1.132859e+00    1.384993e+00   2.088008e-02
  1.135069e+00    1.385611e+00   2.085010e-02
  1.137280e+00    1.362804e+00   2.064511e-02
  1.139490e+00    1.363724e+00   2.061930e-02
  1.141701e+00    1.365702e+00   2.060134e-02
  1.143911e+00    1.366464e+00   2.057544e-02
  1.146122e+00    1.359308e+00   2.048972e-02
  1.148332e+00    1.367794e+00   2.052182e-02
  1.150543e+00    1.385907e+00   2.062636e-02
  1.152753e+00    1.356463e+00   2.037545e-02
  1.154963e+00    1.350459e+00   2.029953e-02
  1.157174e+00    1.346356e+00   2.023879e-02
  1.159384e+00    1.371767e+00   2.039904e-02
  1.161595e+00    1.375646e+00   2.039798e-02
  1.163805e+00    1.352737e+00   2.019832e-02
  1.166016e+00    1.378200e+00   2.035798e-02
  1.168226e+00    1.386496e+00   2.039001e-02
  1.170437e+00    1.386962e+00   2.036456e-02
  1.172647e+00    1.418806e+00   2.056759e-02
  1.174858e+00    1.402486e+00   2.042047e-02
  1.177068e+00    1.373469e+00   2.017976e-02
  1.179278e+00    1.367641e+00   2.010825e-02
  1.181489e+00    1.373492e+00   2.012408e-02
  1.183699e+00    1.334767e+00   1.981103e-02
  1.185910e+00    1.348782e+00   1.988706e-02
  1.188120e+00    1.393566e+00   2.018748e-02
  1.190331e+00    1.391953e+00   2.014868e-02
  1.192541e+00    1.379792e+00   2.003284e-02
  1.194752e+00    1.373181e+00   1.995754e-02
  1.196962e+00    1.384851e+00   2.001611e-02
  1.199173e+00    1.370224e+00   1.988343e-02
  1.201383e+00    1.350604e+00   1.971340e-02
  1.203593e+00    1.337233e+00   1.959087e-02
  1.205804e+00    1.320080e+00   1.943919e-02
  1.208014e+00    1.350035e+00   1.963164e-02
  1.210225e+00    1.350836e+00   1.961214e-02
  1.212435e+00    1.347227e+00   1.956116e-02
  1.214646e+00    1.347784e+00   1.953912e-02
  1.216856e+00    1.327835e+00   1.936872e-02
  1.219067e+00    1.346584e+00   1.948053e-02
  1.221277e+00    1.355965e+00   1.952320e-02
  1.223488e+00    1.338860e+00   1.937403e-02
  1.225698e+00    1.347851e+00   1.941209e-02
  1.227909e+00    1.352539e+00   1.941562e-02
  1.230119e+00    1.323905e+00   1.917746e-02
  1.232329e+00    1.348123e+00   1.932136e-02
  1.234540e+00    1.347850e+00   1.928916e-02
  1.236750e+00    1.355713e+00   1.931500e-02
  1.238961e+00    1.332091e+00   1.911921e-02
  1.241171e+00    1.360514e+00   1.929781e-02
  1.243382e+00    1.343120e+00   1.915064e-02
  1.245592e+00    1.317987e+00   1.894677e-02
  1.247803e+00    1.345307e+00   1.911852e-02
  1.250013e+00    1.337370e+00   1.903862e-02
  1.252224e+00    1.298334e+00   1.873590e-02
  1.254434e+00    1.291623e+00   1.866419e-02
  1.256644e+00    1.322802e+00   1.886513e-02
  1.258855e+00    1.333396e+00   1.891742e-02
  1.261065e+00    1.335819e+00   1.891134e-02
  1.263276e+00    1.341335e+00   1.892749e-02
  1.265486e+00    1.307752e+00   1.866652e-02
  1.267697e+00    1.361220e+00   1.902116e-02
  1.269907e+00    1.385943e+00   1.917016e-02
  1.272118e+00    1.334645e+00   1.878959e-02
  1.274328e+00    1.338182e+00   1.879182e-02
  1.276539e+00    1.322366e+00   1.865790e-02
  1.278749e+00    1.313668e+00   1.857445e-02
  1.280959e+00    1.326416e+00   1.864201e-02
  1.283170e+00    1.326172e+00   1.861807e-02
  1.285380e+00    1.359339e+00   1.882691e-02
  1.287591e+00    1.332880e+00   1.862091e-02
  1.289801e+00    1.339964e+00   1.864916e-02
  1.292012e+00    1.351731e+00   1.871377e-02
  1.294222e+00    1.367867e+00   1.880879e-02
  1.296433e+00    1.353117e+00   1.869149e-02
  1.298643e+00    1.369263e+00   1.878607e-02
  1.300854e+00    1.385656e+00   1.888157e-02
  1.303064e+00    1.388529e+00   1.888166e-02
  1.305274e+00    1.365489e+00   1.870277e-02
  1.307485e+00    1.359798e+00   1.864214e-02
  1.309695e+00    1.342647e+00   1.850202e-02
  1.311906e+00    1.357974e+00   1.858555e-02
  1.314116e+00    1.365716e+00   1.861754e-02
  1.316327e+00    1.373424e+00   1.864813e-02
  1.318537e+00    1.356825e+00   1.851316e-02
  1.320748e+00    1.344274e+00   1.840582e-02
  1.322958e+00    1.339866e+00   1.835519e-02
  1.325169e+00    1.359746e+00   1.846974e-02
  1.327379e+00    1.370356e+00   1.851970e-02
  1.329589e+00    1.372859e+00   1.851536e-02
  1.331800e+00    1.350185e+00   1.834114e-02
  1.334010e+00    1.344960e+00   1.828499e-02
  1.336221e+00    1.358088e+00   1.835218e-02
  1.338431e+00    1.353821e+00   1.830247e-02
  1.340642e+00    1.334658e+00   1.823625e-02
  1.342852e+00    1.347368e+00   1.842344e-02
  1.345063e+00    1.368119e+00   1.861461e-02
  1.347273e+00    1.338910e+00   1.844992e-02
  1.349484e+00    1.335541e+00   1.845422e-02
  1.351694e+00    1.343043e+00   1.852861e-02
  1.353905e+00    1.358775e+00   1.865489e-02
  1.356115e+00    1.372742e+00   1.876568e-02
  1.358325e+00    1.338201e+00   1.854137e-02
  1.360536e+00    1.346494e+00   1.861031e-02
  1.362746e+00    1.353077e+00   1.866535e-02
  1.364957e+00    1.362957e+00   1.874106e-02
  1.367167e+00    1.342619e+00   1.860785e-02
  1.369378e+00    1.330093e+00   1.852683e-02
  1.371588e+00    1.327879e+00   1.851650e-02
  1.373799e+00    1.305696e+00   1.836482e-02
  1.376009e+00    1.299736e+00   1.832618e-02
  1.378220e+00    1.307712e+00   1.838484e-02
  1.380430e+00    1.312461e+00   1.842088e-02
  1.382640e+00    1.317080e+00   1.845417e-02
  1.384851e+00    1.298249e+00   1.832265e-02
  1.387061e+00    1.321907e+00   1.848912e-02
  1.389272e+00    1.326308e+00   1.852010e-02
  1.391482e+00    1.293415e+00   1.828833e-02
  1.393693e+00    1.275022e+00   1.815696e-02
  1.395903e+00    1.281810e+00   1.820372e-02
  1.398114e+00    1.273757e+00   1.814509e-02
  1.400324e+00    1.267373e+00   1.809743e-02
  1.402535e+00    1.263943e+00   1.807063e-02
  1.404745e+00    1.238311e+00   1.788414e-02
  1.406955e+00    1.239477e+00   1.788989e-02
  1.409166e+00    1.252440e+00   1.797989e-02
  1.411376e+00    1.288202e+00   1.823167e-02
  1.413587e+00    1.239189e+00   1.787771e-02
  1.415797e+00    1.234726e+00   1.784198e-02
  1.418008e+00    1.268964e+00   1.804582e-02
  1.420218e+00    1.259301e+00   1.782787e-02
  1.422429e+00    1.274086e+00   1.784679e-02
  1.424639e+00    1.275862e+00   1.779437e-02
  1.426850e+00    1.264077e+00   1.765744e-02
  1.429060e+00    1.261433e+00   1.759013e-02
  1.431270e+00    1.269169e+00   1.759967e-02
  1.433481e+00    1.309282e+00   1.783407e-02
  1.435691e+00    1.293981e+00   1.769078e-02
  1.437902e+00    1.274395e+00   1.751985e-02
  1.440112e+00    1.257847e+00   1.737056e-02
  1.442323e+00    1.239054e+00   1.720765e-02
  1.444533e+00    1.279327e+00   1.745238e-02
  1.446744e+00    1.284488e+00   1.745628e-02
  1.448954e+00    1.252744e+00   1.720922e-02
  1.451165e+00    1.244759e+00   1.712485e-02
  1.453375e+00    1.255936e+00   1.717362e-02
  1.455586e+00    1.257437e+00   1.715590e-02
  1.457796e+00    1.260613e+00   1.715014e-02
  1.460006e+00    1.253190e+00   1.707249e-02
  1.462217e+00    1.270528e+00   1.716396e-02
  1.464427e+00    1.273693e+00   1.715967e-02
  1.466638e+00    1.279986e+00   1.717658e-02
  1.468848e+00    1.266478e+00   1.706041e-02
  1.471059e+00    1.248314e+00   1.691275e-02
  1.473269e+00    1.253192e+00   1.692152e-02
  1.475480e+00    1.229935e+00   1.674038e-02
  1.477690e+00    1.238858e+00   1.677741e-02
  1.479901e+00    1.284188e+00   1.705762e-02
  1.482111e+00    1.272041e+00   1.695340e-02
  1.484321e+00    1.242935e+00   1.673542e-02
  1.486532e+00    1.258643e+00   1.681856e-02
  1.488742e+00    1.275278e+00   1.690660e-02
  1.490953e+00    1.267512e+00   1.683243e-02
  1.493163e+00    1.273436e+00   1.684934e-02
  1.495374e+00    1.267792e+00   1.679043e-02
  1.497584e+00    1.256894e+00   1.669649e-02
  1.499795e+00    1.272895e+00   1.678068e-02
  1.502005e+00    1.253104e+00   1.662811e-02
  1.504216e+00    1.254210e+00   1.661442e-02
  1.506426e+00    1.252335e+00   1.658125e-02
  1.508636e+00    1.245591e+00   1.651618e-02
  1.510847e+00    1.241532e+00   1.646757e-02
  1.513057e+00    1.261316e+00   1.657309e-02
  1.515268e+00    1.269794e+00   1.660286e-02
  1.517478e+00    1.257573e+00   1.649757e-02
  1.519689e+00    1.270652e+00   1.655800e-02
  1.521899e+00    1.285497e+00   1.663107e-02
  1.524110e+00    1.269409e+00   1.650619e-02
  1.526320e+00    1.251031e+00   1.636671e-02
  1.528531e+00    1.267510e+00   1.645423e-02
  1.530741e+00    1.231395e+00   1.619915e-02
  1.532951e+00    1.251370e+00   1.631038e-02
  1.535162e+00    1.253821e+00   1.641311e-02
  1.537372e+00    1.233779e+00   1.634790e-02
  1.539583e+00    1.240711e+00   1.642788e-02
  1.541793e+00    1.230600e+00   1.636771e-02
  1.544004e+00    1.225666e+00   1.633511e-02
  1.546214e+00    1.237372e+00   1.641143e-02
  1.548425e+00    1.266299e+00   1.660242e-02
  1.550635e+00    1.250637e+00   1.650914e-02
  1.552846e+00    1.221787e+00   1.632718e-02
  1.555056e+00    1.221819e+00   1.628628e-02
  1.557266e+00    1.228317e+00   1.621981e-02
  1.559477e+00    1.229552e+00   1.616919e-02
  1.561687e+00    1.228015e+00   1.612861e-02
  1.563898e+00    1.253045e+00   1.627494e-02
  1.566108e+00    1.242420e+00   1.618985e-02
  1.568319e+00    1.238575e+00   1.614920e-02
  1.570529e+00    1.207071e+00   1.591774e-02
  1.572740e+00    1.211543e+00   1.591993e-02
  1.574950e+00    1.234187e+00   1.604182e-02
  1.577161e+00    1.229274e+00   1.598455e-02
  1.579371e+00    1.246218e+00   1.607063e-02
  1.581582e+00    1.248010e+00   1.606242e-02
  1.583792e+00    1.221843e+00   1.587527e-02
  1.586002e+00    1.229405e+00   1.590679e-02
  1.588213e+00    1.253304e+00   1.604334e-02
  1.590423e+00    1.251712e+00   1.601306e-02
  1.592634e+00    1.234184e+00   1.587899e-02
  1.594844e+00    1.214949e+00   1.573360e-02
  1.597055e+00    1.255846e+00   1.597562e-02
  1.599265e+00    1.253354e+00   1.593895e-02
  1.601476e+00    1.251368e+00   1.590591e-02
  1.603686e+00    1.249893e+00   1.587672e-02
  1.605897e+00    1.228021e+00   1.571710e-02
  1.608107e+00    1.245272e+00   1.580749e-02
  1.610317e+00    1.247360e+00   1.580136e-02
  1.612528e+00    1.214469e+00   1.557263e-02
  1.614738e+00    1.202173e+00   1.547487e-02
  1.616949e+00    1.182535e+00   1.532932e-02
  1.619159e+00    1.173288e+00   1.525093e-02
  1.621370e+00    1.175721e+00   1.524861e-02
  1.623580e+00    1.166048e+00   1.516777e-02
  1.625791e+00    1.180395e+00   1.524276e-02
  1.628001e+00    1.188771e+00   1.527858e-02
  1.630212e+00    1.191450e+00   1.527807e-02
  1.632422e+00    1.162475e+00   1.507343e-02
  1.634632e+00    1.163825e+00   1.506499e-02
  1.636843e+00    1.161158e+00   1.503032e-02
  1.639053e+00    1.130962e+00   1.481662e-02
  1.641264e+00    1.132900e+00   1.481248e-02
  1.643474e+00    1.148359e+00   1.489591e-02
  1.645685e+00    1.129984e+00   1.475981e-02
  1.647895e+00    1.123749e+00   1.470265e-02
  1.650106e+00    1.127039e+00   1.470733e-02
  1.652316e+00    1.126545e+00   1.468779e-02
  1.654527e+00    1.125472e+00   1.466426e-02
  1.656737e+00    1.103574e+00   1.450458e-02
  1.658947e+00    1.097979e+00   1.445171e-02
  1.661158e+00    1.097882e+00   1.443503e-02
  1.663368e+00    1.098043e+00   1.442024e-02
  1.665579e+00    1.108235e+00   1.447094e-02
  1.667789e+00    1.093641e+00   1.435927e-02
  1.670000e+00    1.101689e+00   1.439660e-02
  1.672210e+00    1.096444e+00   1.434649e-02
  1.674421e+00    1.107009e+00   1.440011e-02
  1.676631e+00    1.085708e+00   1.424515e-02
  1.678842e+00    1.078154e+00   1.417987e-02
  1.681052e+00    1.085696e+00   1.421406e-02
  1.683263e+00    1.077615e+00   1.414599e-02
  1.685473e+00    1.076611e+00   1.412434e-02
  1.687683e+00    1.071499e+00   1.407539e-02
  1.689894e+00    1.089143e+00   1.417500e-02
  1.692104e+00    1.066768e+00   1.401380e-02
  1.694315e+00    1.070085e+00   1.402106e-02
  1.696525e+00    1.071304e+00   1.401389e-02
  1.698736e+00    1.057357e+00   1.390759e-02
  1.700946e+00    1.057739e+00   1.389500e-02
  1.703157e+00    1.014434e+00   1.359325e-02
  1.705367e+00    1.044266e+00   1.377722e-02
  1.707578e+00    1.034291e+00   1.369679e-02
  1.709788e+00    1.041416e+00   1.372982e-02
  1.711998e+00    9.958766e-01   1.341159e-02
  1.714209e+00    1.018105e+00   1.354614e-02
  1.716419e+00    1.008585e+00   1.346859e-02
  1.718630e+00    1.012932e+00   1.348342e-02
  1.720840e+00    1.013265e+00   1.347158e-02
  1.723051e+00    1.022643e+00   1.351990e-02
  1.725261e+00    1.013954e+00   1.344774e-02
  1.727472e+00    1.008265e+00   1.339585e-02
  1.729682e+00    9.960606e-01   1.330119e-02
  1.731893e+00    1.002335e+00   1.332919e-02
  1.734103e+00    9.905194e-01   1.323672e-02
  1.736313e+00    9.891343e-01   1.321358e-02
  1.738524e+00    9.896386e-01   1.320319e-02
  1.740734e+00    9.876668e-01   1.317642e-02
  1.742945e+00    9.880376e-01   1.316549e-02
  1.745155e+00    9.626700e-01   1.298214e-02
  1.747366e+00    9.659472e-01   1.299056e-02
  1.749576e+00    9.813595e-01   1.308015e-02
  1.751787e+00    9.581019e-01   1.291105e-02
  1.753997e+00    9.595226e-01   1.290737e-02
  1.756208e+00    9.769289e-01   1.301071e-02
  1.758418e+00    9.703690e-01   1.295386e-02
  1.760628e+00    9.655367e-01   1.290823e-02
  1.762839e+00    9.639332e-01   1.288429e-02
  1.765049e+00    9.653630e-01   1.288071e-02
  1.767260e+00    9.570332e-01   1.281222e-02
  1.769470e+00    9.514835e-01   1.276207e-02
  1.771681e+00    9.352899e-01   1.263998e-02
  1.773891e+00    9.393088e-01   1.265412e-02
  1.776102e+00    9.253623e-01   1.254712e-02
  1.778312e+00    9.076599e-01   1.241404e-02
  1.780523e+00    9.252998e-01   1.252146e-02
  1.782733e+00    9.488698e-01   1.266718e-02
  1.784944e+00    9.514427e-01   1.267136e-02
  1.787154e+00    9.323015e-01   1.253072e-02
  1.789364e+00    9.295389e-01   1.249965e-02
  1.791575e+00    9.471161e-01   1.260462e-02
  1.793785e+00    9.413007e-01   1.255334e-02
  1.795996e+00    9.406529e-01   1.253637e-02
  1.798206e+00    9.404855e-01   1.252257e-02
  1.800417e+00    9.244779e-01   1.240283e-02
  1.802627e+00    9.147468e-01   1.232543e-02
  1.804838e+00    9.180927e-01   1.233580e-02
  1.807048e+00    9.224404e-01   1.235204e-02
  1.809259e+00    9.139524e-01   1.228143e-02
  1.811469e+00    8.879138e-01   1.209042e-02
  1.813679e+00    8.613902e-01   1.189379e-02
  1.815890e+00    8.640569e-01   1.189774e-02
  1.818100e+00    8.764731e-01   1.196798e-02
  1.820311e+00    8.668036e-01   1.188724e-02
  1.822521e+00    8.757302e-01   1.193355e-02
  1.824732e+00    8.738350e-01   1.190596e-02
  1.826942e+00    8.948125e-01   1.203564e-02
  1.829153e+00    8.745682e-01   1.188710e-02
  1.831363e+00    8.574175e-01   1.175810e-02
  1.833574e+00    8.767176e-01   1.187805e-02
  1.835784e+00    8.757538e-01   1.186012e-02
  1.837994e+00    8.828595e-01   1.189638e-02
  1.840205e+00    8.830917e-01   1.188674e-02
  1.842415e+00    8.960162e-01   1.196146e-02
  1.844626e+00    8.998938e-01   1.197559e-02
  1.846836e+00    8.887424e-01   1.188958e-02
  1.849047e+00    9.133281e-01   1.204098e-02
  1.851257e+00    9.344045e-01   1.216916e-02
  1.853468e+00    9.939848e-01   1.254168e-02
  1.855678e+00    9.413165e-01   1.219566e-02
  1.857889e+00    8.802671e-01   1.178490e-02
  1.860099e+00    9.018519e-01   1.191966e-02
  1.862309e+00    9.044812e-01   1.192829e-02
  1.864520e+00    9.037376e-01   1.191456e-02
  1.866730e+00    9.032358e-01   1.190162e-02
  1.868941e+00    9.307800e-01   1.207025e-02
  1.871151e+00    1.032430e+00   1.269972e-02
  1.873362e+00    1.171128e+00   1.351259e-02
  1.875572e+00    1.159768e+00   1.343421e-02
  1.877783e+00    9.622157e-01   1.222449e-02
  1.879993e+00    8.966733e-01   1.178926e-02
  1.882204e+00    9.178205e-01   1.191610e-02
  1.884414e+00    9.173976e-01   1.190184e-02
  1.886624e+00    8.826501e-01   1.166294e-02
  1.888835e+00    8.551453e-01   1.146872e-02
  1.891045e+00    8.549139e-01   1.145617e-02
  1.893256e+00    8.629321e-01   1.149854e-02
  1.895466e+00    8.431305e-01   1.135464e-02
  1.897677e+00    8.306509e-01   1.125939e-02
  1.899887e+00    8.301817e-01   1.124525e-02
  1.902098e+00    8.322966e-01   1.124873e-02
  1.904308e+00    8.251677e-01   1.118990e-02
  1.906519e+00    8.210645e-01   1.115126e-02
  1.908729e+00    8.222945e-01   1.114905e-02
  1.910940e+00    8.354992e-01   1.122703e-02
  1.913150e+00    8.231505e-01   1.113319e-02
  1.915360e+00    8.283479e-01   1.115762e-02
  1.917571e+00    8.373963e-01   1.120744e-02
  1.919781e+00    8.211718e-01   1.108765e-02
  1.921992e+00    8.466107e-01   1.124729e-02
  1.924202e+00    8.190855e-01   1.105218e-02
  1.926413e+00    8.162279e-01   1.102256e-02
  1.928623e+00    8.159099e-01   1.100988e-02
  1.930834e+00    8.047027e-01   1.092362e-02
  1.933044e+00    8.030040e-01   1.090147e-02
  1.935255e+00    7.981238e-01   1.085805e-02
  1.937465e+00    7.835253e-01   1.074804e-02
  1.939675e+00    7.913480e-01   1.079083e-02
  1.941886e+00    7.885208e-01   1.076134e-02
  1.944096e+00    8.091109e-01   1.089073e-02
  1.946307e+00    8.029258e-01   1.083869e-02
  1.948517e+00    7.753365e-01   1.064057e-02
  1.950728e+00    7.809664e-01   1.066898e-02
  1.952938e+00    7.936167e-01   1.074498e-02
  1.955149e+00    8.018676e-01   1.079042e-02
  1.957359e+00    8.049654e-01   1.080116e-02
  1.959570e+00    7.835047e-01   1.064541e-02
  1.961780e+00    7.778080e-01   1.059681e-02
  1.963990e+00    7.791414e-01   1.059587e-02
  1.966201e+00    7.641483e-01   1.048351e-02
  1.968411e+00    7.977339e-01   1.070121e-02
  1.970622e+00    7.860020e-01   1.061219e-02
  1.972832e+00    7.884493e-01   1.061868e-02
  1.975043e+00    7.872421e-01   1.060051e-02
  1.977253e+00    7.750612e-01   1.050831e-02
  1.979464e+00    7.810359e-01   1.053869e-02
  1.981674e+00    7.750421e-01   1.048798e-02
  1.983885e+00    7.867105e-01   1.055657e-02
  1.986095e+00    7.916836e-01   1.058012e-02
  1.988305e+00    7.935843e-01   1.058283e-02
  1.990516e+00    7.862759e-01   1.052402e-02
  1.992726e+00    7.885426e-01   1.052944e-02
  1.994937e+00    7.741474e-01   1.042280e-02
  1.997147e+00    7.625968e-01   1.033508e-02
  1.999358e+00    7.734295e-01   1.039838e-02
  2.001568e+00    7.579346e-01   1.028301e-02
  2.003779e+00    7.584525e-01   1.027469e-02
  2.005989e+00    7.797793e-01   1.040607e-02
  2.008200e+00    7.686688e-01   1.032016e-02
  2.010410e+00    7.649438e-01   1.028340e-02
  2.012621e+00    7.659931e-01   1.027878e-02
  2.014831e+00    7.550637e-01   1.019379e-02
  2.017041e+00    7.653019e-01   1.025230e-02
  2.019252e+00    7.614510e-01   1.021654e-02
  2.021462e+00    7.715789e-01   1.027471e-02
  2.023673e+00    7.706700e-01   1.025924e-02
  2.025883e+00    7.537770e-01   1.013671e-02
  2.028094e+00    7.615387e-01   1.017914e-02
  2.030304e+00    7.533160e-01   1.011454e-02
  2.032515e+00    7.653061e-01   1.018539e-02
  2.034725e+00    7.768357e-01   1.025228e-02
  2.036936e+00    7.612377e-01   1.013948e-02
  2.039146e+00    7.521843e-01   1.006946e-02
  2.041356e+00    7.585713e-01   1.010246e-02
  2.043567e+00    7.460899e-01   1.000977e-02
  2.045777e+00    7.489828e-01   1.001993e-02
  2.047988e+00    7.578129e-01   1.006944e-02
  2.050198e+00    7.501830e-01   1.001022e-02
  2.052409e+00    7.488232e-01   9.993485e-03
  2.054619e+00    7.693577e-01   1.012213e-02
  2.056830e+00    7.821121e-01   1.019837e-02
  2.059040e+00    7.739005e-01   1.013707e-02
  2.061251e+00    7.494769e-01   9.968583e-03
  2.063461e+00    7.489081e-01   9.957200e-03
  2.065671e+00    7.576147e-01   1.000614e-02
  2.067882e+00    7.516013e-01   9.957341e-03
  2.070092e+00    7.400259e-01   9.871207e-03
  2.072303e+00    7.550650e-01   9.961807e-03
  2.074513e+00    7.572126e-01   9.966585e-03
  2.076724e+00    7.532696e-01   9.931070e-03
  2.078934e+00    7.523790e-01   9.916150e-03
  2.081145e+00    7.443808e-01   9.854215e-03
  2.083355e+00    7.487167e-01   9.873636e-03
  2.085566e+00    7.567835e-01   9.917703e-03
  2.087776e+00    7.241080e-01   9.691829e-03
  2.089986e+00    7.209918e-01   9.662249e-03
  2.092197e+00    7.451609e-01   9.813854e-03
  2.094407e+00    7.347543e-01   9.735908e-03
  2.096618e+00    7.205861e-01   9.632741e-03
  2.098828e+00    7.337001e-01   9.710707e-03
  2.101039e+00    7.249678e-01   9.643800e-03
  2.103249e+00    7.414201e-01   9.743907e-03
  2.105460e+00    7.114835e-01   9.536253e-03
  2.107670e+00    7.343593e-01   9.679562e-03
  2.109881e+00    7.309992e-01   9.648232e-03
  2.112091e+00    7.183065e-01   9.555141e-03
  2.114301e+00    7.259064e-01   9.596777e-03
  2.116512e+00    7.242998e-01   9.577351e-03
  2.118722e+00    7.038356e-01   9.432360e-03
  2.120933e+00    7.312524e-01   9.605389e-03
  2.123143e+00    7.196934e-01   9.520277e-03
  2.125354e+00    6.908481e-01   9.319160e-03
  2.127564e+00    6.991190e-01   9.366154e-03
  2.129775e+00    6.943004e-01   9.325213e-03
  2.131985e+00    7.137576e-01   9.445929e-03
  2.134196e+00    7.115315e-01   9.422610e-03
  2.136406e+00    7.142963e-01   9.432153e-03
  2.138617e+00    7.115229e-01   9.405354e-03
  2.140827e+00    6.907570e-01   9.282944e-03
  2.143037e+00    7.074614e-01   9.440000e-03
  2.145248e+00    6.990703e-01   9.405752e-03
  2.147458e+00    6.930832e-01   9.380403e-03
  2.149669e+00    6.996936e-01   9.436842e-03
  2.151879e+00    7.044819e-01   9.478338e-03
  2.154090e+00    7.095748e-01   9.519867e-03
  2.156300e+00    7.075235e-01   9.512761e-03
  2.158511e+00    7.198544e-01   9.600664e-03
  2.160721e+00    7.132584e-01   9.561451e-03
  2.162932e+00    7.023773e-01   9.491998e-03
  2.165142e+00    7.036274e-01   9.503454e-03
  2.167352e+00    7.080007e-01   9.535899e-03
  2.169563e+00    7.089949e-01   9.544554e-03
  2.171773e+00    7.084114e-01   9.543111e-03
  2.173984e+00    6.965134e-01   9.464042e-03
  2.176194e+00    6.984011e-01   9.478057e-03
  2.178405e+00    7.053218e-01   9.525614e-03
  2.180615e+00    6.784240e-01   9.342892e-03
  2.182826e+00    6.865308e-01   9.399212e-03
  2.185036e+00    6.966443e-01   9.468256e-03
  2.187247e+00    6.829887e-01   9.374941e-03
  2.189457e+00    6.908143e-01   9.428085e-03
  2.191667e+00    6.893354e-01   9.417820e-03
  2.193878e+00    6.785222e-01   9.343099e-03
  2.196088e+00    6.862165e-01   9.395228e-03
  2.198299e+00    7.066392e-01   9.532912e-03
  2.200509e+00    6.896926e-01   9.416853e-03
  2.202720e+00    6.880193e-01   9.404264e-03
  2.204930e+00    6.866140e-01   9.393393e-03
  2.207141e+00    7.139798e-01   9.577617e-03
  2.209351e+00    7.012056e-01   9.489671e-03
  2.211562e+00    6.869885e-01   9.391308e-03
  2.213772e+00    6.942105e-01   9.384378e-03
  2.215982e+00    6.720362e-01   9.189207e-03
  2.218193e+00    6.792518e-01   9.208670e-03
  2.220403e+00    6.793650e-01   9.184784e-03
  2.222614e+00    6.776723e-01   9.152323e-03
  2.224824e+00    6.762624e-01   9.123378e-03
  2.227035e+00    6.605407e-01   8.999416e-03
  2.229245e+00    6.655982e-01   9.016911e-03
  2.231456e+00    6.674144e-01   9.013632e-03
  2.233666e+00    6.704316e-01   9.018904e-03
  2.235877e+00    6.661606e-01   8.975906e-03
  2.238087e+00    6.667067e-01   8.966139e-03
  2.240298e+00    6.574206e-01   8.889839e-03
  2.242508e+00    6.661786e-01   8.933740e-03
  2.244718e+00    6.812547e-01   9.018319e-03
  2.246929e+00    6.746753e-01   8.960174e-03
  2.249139e+00    6.855935e-01   9.019839e-03
  2.251350e+00    6.654283e-01   8.874508e-03
  2.253560e+00    6.665273e-01   8.870260e-03
  2.255771e+00    6.611630e-01   8.823136e-03
  2.257981e+00    6.555609e-01   8.774565e-03
  2.260192e+00    6.583468e-01   8.782132e-03
  2.262402e+00    6.631004e-01   8.802942e-03
  2.264613e+00    6.550054e-01   8.738294e-03
  2.266823e+00    6.336915e-01   8.584769e-03
  2.269033e+00    6.623515e-01   8.766361e-03
  2.271244e+00    6.606529e-01   8.744758e-03
  2.273454e+00    6.575843e-01   8.714202e-03
  2.275665e+00    6.549062e-01   8.686179e-03
  2.277875e+00    6.620194e-01   8.723298e-03
  2.280086e+00    6.562998e-01   8.675512e-03
  2.282296e+00    6.622172e-01   8.705109e-03
  2.284507e+00    6.640016e-01   8.706658e-03
  2.286717e+00    6.671461e-01   8.717723e-03
  2.288928e+00    6.507983e-01   8.600449e-03
  2.291138e+00    6.493572e-01   8.581523e-03
  2.293348e+00    6.545053e-01   8.605941e-03
  2.295559e+00    6.676195e-01   8.682346e-03
  2.297769e+00    6.542139e-01   8.585487e-03
  2.299980e+00    6.537948e-01   8.573400e-03
  2.302190e+00    6.508279e-01   8.544815e-03
  2.304401e+00    6.512949e-01   8.538565e-03
  2.306611e+00    6.467865e-01   8.499802e-03
  2.308822e+00    6.463244e-01   8.488396e-03
  2.311032e+00    6.613711e-01   8.580143e-03
  2.313243e+00    6.606072e-01   8.568865e-03
  2.315453e+00    6.574545e-01   8.540766e-03
  2.317663e+00    6.578860e-01   8.534375e-03
  2.319874e+00    6.464165e-01   8.450933e-03
  2.322084e+00    6.379967e-01   8.386785e-03
  2.324295e+00    6.535164e-01   8.479920e-03
  2.326505e+00    6.370031e-01   8.363083e-03
  2.328716e+00    6.419630e-01   8.387050e-03
  2.330926e+00    6.426798e-01   8.382920e-03
  2.333137e+00    6.515281e-01   8.432019e-03
  2.335347e+00    6.456351e-01   8.384891e-03
  2.337558e+00    6.264744e-01   8.251390e-03
  2.339768e+00    6.267253e-01   8.244557e-03
  2.341979e+00    6.297578e-01   8.256174e-03
  2.344189e+00    6.398605e-01   8.313718e-03
  2.346399e+00    6.178101e-01   8.160859e-03
  2.348610e+00    6.292560e-01   8.227671e-03
  2.350820e+00    6.315840e-01   8.234723e-03
  2.353031e+00    6.265354e-01   8.193516e-03
  2.355241e+00    6.321739e-01   8.222253e-03
  2.357452e+00    6.272641e-01   8.181863e-03
  2.359662e+00    6.462815e-01   8.296661e-03
  2.361873e+00    6.305133e-01   8.186597e-03
  2.364083e+00    6.269749e-01   8.155603e-03
  2.366294e+00    6.259832e-01   8.141066e-03
  2.368504e+00    6.237357e-01   8.118380e-03
  2.370714e+00    6.190886e-01   8.080060e-03
  2.372925e+00    6.152057e-01   8.046697e-03
  2.375135e+00    6.319405e-01   8.147286e-03
  2.377346e+00    6.297649e-01   8.125291e-03
  2.379556e+00    6.112933e-01   7.997405e-03
  2.381767e+00    6.260566e-01   8.085500e-03
  2.383977e+00    6.290694e-01   8.096965e-03
  2.386188e+00    6.155192e-01   8.001394e-03
  2.388398e+00    6.052715e-01   7.926621e-03
  2.390609e+00    6.216473e-01   8.025385e-03
  2.392819e+00    6.168763e-01   7.986757e-03
  2.395029e+00    6.102313e-01   7.936001e-03
  2.397240e+00    6.173726e-01   7.974396e-03
  2.399450e+00    6.247172e-01   8.013831e-03
  2.401661e+00    6.071143e-01   7.892475e-03
  2.403871e+00    6.059101e-01   7.876902e-03
  2.406082e+00    6.010405e-01   7.837814e-03
  2.408292e+00    6.144477e-01   7.916912e-03
  2.410503e+00    6.191763e-01   7.939784e-03
  2.412713e+00    6.259990e-01   7.975465e-03
  2.414924e+00    6.288629e-01   7.986084e-03
  2.417134e+00    6.176344e-01   7.906756e-03
  2.419344e+00    6.049675e-01   7.817828e-03
  2.421555e+00    5.964590e-01   7.755178e-03
  2.423765e+00    6.036071e-01   7.794094e-03
  2.425976e+00    6.012436e-01   7.771001e-03
  2.428186e+00    5.921897e-01   7.705081e-03
  2.430397e+00    6.168939e-01   7.856552e-03
  2.432607e+00    6.011121e-01   7.748116e-03
  2.434818e+00    5.933641e-01   7.690468e-03
  2.437028e+00    6.095338e-01   7.787315e-03
  2.439239e+00    5.918452e-01   7.665867e-03
  2.441449e+00    5.861005e-01   7.621389e-03
  2.443659e+00    5.852806e-01   7.608738e-03
  2.445870e+00    5.900881e-01   7.652191e-03
  2.448080e+00    5.873919e-01   7.669621e-03
  2.450291e+00    5.726900e-01   7.589569e-03
  2.452501e+00    5.904061e-01   7.717363e-03
  2.454712e+00    5.737045e-01   7.615868e-03
  2.456922e+00    5.761797e-01   7.638927e-03
  2.459133e+00    5.626329e-01   7.554001e-03
  2.461343e+00    5.615424e-01   7.550993e-03
  2.463554e+00    5.806909e-01   7.682192e-03
  2.465764e+00    5.616521e-01   7.558348e-03
  2.467975e+00    5.466808e-01   7.459178e-03
  2.470185e+00    5.384142e-01   7.404782e-03
  2.472395e+00    5.498534e-01   7.484226e-03
  2.474606e+00    5.619078e-01   7.567412e-03
  2.476816e+00    5.496897e-01   7.485426e-03
  2.479027e+00    5.408673e-01   7.425946e-03
  2.481237e+00    5.394283e-01   7.416339e-03
  2.483448e+00    5.360864e-01   7.393635e-03
  2.485658e+00    5.410526e-01   7.427641e-03
  2.487869e+00    5.506433e-01   7.493240e-03
  2.490079e+00    5.418281e-01   7.432488e-03
  2.492290e+00    5.482048e-01   7.475667e-03
  2.494500e+00    5.446399e-01   7.450582e-03
  2.496710e+00    5.382807e-01   7.406262e-03
  2.498921e+00    5.443385e-01   7.446814e-03
  2.501131e+00    5.231171e-01   7.299286e-03
  2.503342e+00    5.412700e-01   7.423553e-03
  2.505552e+00    5.453553e-01   7.450389e-03
  2.507763e+00    5.292639e-01   7.338241e-03
  2.509973e+00    5.292058e-01   7.336434e-03
  2.512184e+00    5.225242e-01   7.288367e-03
  2.514394e+00    5.244440e-01   7.292393e-03
  2.516605e+00    5.404347e-01   7.355065e-03
  2.518815e+00    5.333542e-01   7.278206e-03
  2.521025e+00    5.360440e-01   7.275356e-03
  2.523236e+00    5.303814e-01   7.218766e-03
  2.525446e+00    5.352558e-01   7.236109e-03
  2.527657e+00    5.297955e-01   7.184447e-03
  2.529867e+00    5.259607e-01   7.144202e-03
  2.532078e+00    5.291766e-01   7.150908e-03
  2.534288e+00    5.231070e-01   7.095916e-03
  2.536499e+00    5.320408e-01   7.144231e-03
  2.538709e+00    5.306138e-01   7.123583e-03
  2.540920e+00    5.360929e-01   7.149503e-03
  2.543130e+00    5.244050e-01   7.060780e-03
  2.545340e+00    5.177348e-01   7.005716e-03
  2.547551e+00    5.148374e-01   6.976209e-03
  2.549761e+00    5.359764e-01   7.108300e-03
  2.551972e+00    5.259714e-01   7.032242e-03
  2.554182e+00    5.288627e-01   7.042307e-03
  2.556393e+00    5.275100e-01   7.024133e-03
  2.558603e+00    5.362779e-01   7.073069e-03
  2.560814e+00    5.196631e-01   6.953939e-03
  2.563024e+00    5.145935e-01   6.911389e-03
  2.565235e+00    5.170403e-01   6.918319e-03
  2.567445e+00    5.126497e-01   6.879378e-03
  2.569656e+00    5.140463e-01   6.879038e-03
  2.571866e+00    5.132726e-01   6.864540e-03
  2.574076e+00    5.162246e-01   6.874990e-03
  2.576287e+00    5.111263e-01   6.832680e-03
  2.578497e+00    5.136285e-01   6.841549e-03
  2.580708e+00    5.077354e-01   6.794171e-03
  2.582918e+00    5.115702e-01   6.812032e-03
  2.585129e+00    5.101439e-01   6.794820e-03
  2.587339e+00    5.087657e-01   6.777989e-03
  2.589550e+00    5.129828e-01   6.798472e-03
  2.591760e+00    5.060961e-01   6.744999e-03
  2.593971e+00    5.099933e-01   6.763395e-03
  2.596181e+00    5.064968e-01   6.733981e-03
  2.598391e+00    5.061446e-01   6.726483e-03
  2.600602e+00    5.111821e-01   6.753936e-03
  2.602812e+00    5.129097e-01   6.757779e-03
  2.605023e+00    5.114310e-01   6.740858e-03
  2.607233e+00    5.091723e-01   6.718785e-03
  2.609444e+00    5.147247e-01   6.748059e-03
  2.611654e+00    5.133957e-01   6.731965e-03
  2.613865e+00    5.088068e-01   6.694757e-03
  2.616075e+00    5.030276e-01   6.649515e-03
  2.618286e+00    5.120720e-01   6.701977e-03
  2.620496e+00    5.061585e-01   6.656481e-03
  2.622706e+00    5.059768e-01   6.649517e-03
  2.624917e+00    5.072381e-01   6.651942e-03
  2.627127e+00    5.174088e-01   6.712491e-03
  2.629338e+00    5.036045e-01   6.616363e-03
  2.631548e+00    5.110886e-01   6.659119e-03
  2.633759e+00    5.024355e-01   6.595373e-03
  2.635969e+00    5.030306e-01   6.592568e-03
  2.638180e+00    4.976743e-01   6.550439e-03
  2.640390e+00    4.907919e-01   6.498422e-03
  2.642601e+00    5.016584e-01   6.563322e-03
  2.644811e+00    5.114736e-01   6.620050e-03
  2.647021e+00    5.022457e-01   6.553499e-03
  2.649232e+00    5.017467e-01   6.543498e-03
  2.651442e+00    5.022587e-01   6.540305e-03
  2.653653e+00    5.068986e-01   6.563614e-03
  2.655863e+00    4.912455e-01   6.454836e-03
  2.658074e+00    4.960606e-01   6.479791e-03
  2.660284e+00    4.982294e-01   6.487583e-03
  2.662495e+00    4.958707e-01   6.465457e-03
  2.664705e+00    5.026617e-01   6.502990e-03
  2.666916e+00    4.890009e-01   6.407584e-03
  2.669126e+00    4.917677e-01   6.419264e-03
  2.671337e+00    4.960380e-01   6.440490e-03
  2.673547e+00    4.980772e-01   6.447315e-03
  2.675757e+00    4.969518e-01   6.433559e-03
  2.677968e+00    5.018564e-01   6.458659e-03
  2.680178e+00    4.966201e-01   6.418456e-03
  2.682389e+00    5.063164e-01   6.474341e-03
  2.684599e+00    4.863952e-01   6.339547e-03
  2.686810e+00    4.880838e-01   6.343959e-03
  2.689020e+00    4.893320e-01   6.345792e-03
  2.691231e+00    4.895236e-01   6.340746e-03
  2.693441e+00    4.941120e-01   6.364223e-03
  2.695652e+00    4.911194e-01   6.338417e-03
  2.697862e+00    4.939217e-01   6.350086e-03
  2.700072e+00    4.873996e-01   6.301976e-03
  2.702283e+00    4.995073e-01   6.373473e-03
  2.704493e+00    4.843718e-01   6.269922e-03
  2.706704e+00    4.867929e-01   6.279167e-03
  2.708914e+00    4.906107e-01   6.297771e-03
  2.711125e+00    4.759339e-01   6.196689e-03
  2.713335e+00    4.745743e-01   6.181811e-03
  2.715546e+00    4.836915e-01   6.234464e-03
  2.717756e+00    4.886533e-01   6.260472e-03
  2.719967e+00    4.896756e-01   6.260779e-03
  2.722177e+00    4.867381e-01   6.235838e-03
  2.724387e+00    4.864261e-01   6.227734e-03
  2.726598e+00    4.802260e-01   6.181897e-03
  2.728808e+00    4.805117e-01   6.177590e-03
  2.731019e+00    4.944061e-01   6.260103e-03
  2.733229e+00    4.766058e-01   6.140625e-03
  2.735440e+00    4.776281e-01   6.140964e-03
  2.737650e+00    4.825369e-01   6.166433e-03
  2.739861e+00    4.859670e-01   6.182234e-03
  2.742071e+00    4.795605e-01   6.135619e-03
  2.744282e+00    4.887765e-01   6.188008e-03
  2.746492e+00    4.754225e-01   6.096903e-03
  2.748702e+00    4.726667e-01   6.073351e-03
  2.750913e+00    4.786283e-01   6.105776e-03
  2.753123e+00    4.693779e-01   6.040430e-03
  2.755334e+00    4.735605e-01   6.061253e-03
  2.757544e+00    4.752463e-01   6.066330e-03
  2.759755e+00    4.864684e-01   6.131614e-03
  2.761965e+00    4.819421e-01   6.097032e-03
  2.764176e+00    4.840146e-01   6.104108e-03
  2.766386e+00    4.927658e-01   6.153177e-03
  2.768597e+00    4.923208e-01   6.144468e-03
  2.770807e+00    4.826111e-01   6.077676e-03
  2.773017e+00    4.698876e-01   5.991106e-03
  2.775228e+00    4.801511e-01   6.050385e-03
  2.777438e+00    4.820156e-01   6.056311e-03
  2.779649e+00    4.821658e-01   6.051321e-03
  2.781859e+00    4.775693e-01   6.016653e-03
  2.784070e+00    4.701388e-01   5.963845e-03
  2.786280e+00    4.726639e-01   5.974095e-03
  2.788491e+00    4.819369e-01   6.026542e-03
  2.790701e+00    4.757057e-01   5.981828e-03
  2.792912e+00    4.831015e-01   6.022123e-03
  2.795122e+00    4.876537e-01   6.044636e-03
  2.797333e+00    4.779989e-01   5.978934e-03
  2.799543e+00    4.819562e-01   5.997724e-03
  2.801753e+00    4.649449e-01   5.885133e-03
  2.803964e+00    4.791714e-01   5.968801e-03
  2.806174e+00    4.702923e-01   5.907141e-03
  2.808385e+00    4.601835e-01   5.836606e-03
  2.810595e+00    4.660144e-01   5.866662e-03
  2.812806e+00    4.672268e-01   5.867740e-03
  2.815016e+00    4.662104e-01   5.856638e-03
  2.817227e+00    4.663078e-01   5.882976e-03
  2.819437e+00    4.639804e-01   5.879241e-03
  2.821648e+00    4.623789e-01   5.871342e-03
  2.823858e+00    4.655660e-01   5.896848e-03
  2.826068e+00    4.668318e-01   5.909789e-03
  2.828279e+00    4.663767e-01   5.910941e-03
  2.830489e+00    4.575787e-01   5.858194e-03
  2.832700e+00    4.606336e-01   5.880245e-03
  2.834910e+00    4.559010e-01   5.851987e-03
  2.837121e+00    4.753342e-01   5.977124e-03
  2.839331e+00    4.823061e-01   6.022048e-03
  2.841542e+00    4.619688e-01   5.894742e-03
  2.843752e+00    4.510098e-01   5.825131e-03
  2.845963e+00    4.848158e-01   6.039926e-03
  2.848173e+00    4.605290e-01   5.886793e-03
  2.850383e+00    4.649867e-01   5.915491e-03
  2.852594e+00    4.749300e-01   5.978333e-03
  2.854804e+00    4.788943e-01   6.002722e-03
  2.857015e+00    4.619595e-01   5.895214e-03
  2.859225e+00    4.728946e-01   5.964293e-03
  2.861436e+00    4.700895e-01   5.945958e-03
  2.863646e+00    4.661604e-01   5.921066e-03
  2.865857e+00    4.728295e-01   5.963630e-03
  2.868067e+00    4.763446e-01   5.985983e-03
  2.870278e+00    4.581135e-01   5.869966e-03
  2.872488e+00    4.605582e-01   5.884429e-03
  2.874698e+00    4.608698e-01   5.885407e-03
  2.876909e+00    4.653942e-01   5.912860e-03
  2.879119e+00    4.743044e-01   5.967575e-03
  2.881330e+00    4.646166e-01   5.904844e-03
  2.883540e+00    4.650279e-01   5.906054e-03
  2.885751e+00    4.578396e-01   5.858608e-03
  2.887961e+00    4.616280e-01   5.880892e-03
  2.890172e+00    4.618867e-01   5.880944e-03
  2.892382e+00    4.677424e-01   5.916289e-03
  2.894593e+00    4.613889e-01   5.874158e-03
  2.896803e+00    4.620830e-01   5.876583e-03
  2.899014e+00    4.513642e-01   5.806149e-03
  2.901224e+00    4.606173e-01   5.863337e-03
  2.903434e+00    4.588772e-01   5.850339e-03
  2.905645e+00    4.591959e-01   5.850130e-03
  2.907855e+00    4.529855e-01   5.808352e-03
  2.910066e+00    4.603606e-01   5.853363e-03
  2.912276e+00    4.672133e-01   5.894631e-03
  2.914487e+00    4.469732e-01   5.763127e-03
  2.916697e+00    4.439669e-01   5.741499e-03
  2.918908e+00    4.600303e-01   5.842446e-03
  2.921118e+00    4.674712e-01   5.886784e-03
  2.923329e+00    4.622054e-01   5.851215e-03
  2.925539e+00    4.543965e-01   5.799293e-03
  2.927749e+00    4.629639e-01   5.851387e-03
  2.929960e+00    4.520605e-01   5.779313e-03
  2.932170e+00    4.654503e-01   5.861918e-03
  2.934381e+00    4.713911e-01   5.896740e-03
  2.936591e+00    4.659759e-01   5.860159e-03
  2.938802e+00    4.564444e-01   5.797230e-03
  2.941012e+00    4.508286e-01   5.759107e-03
  2.943223e+00    4.657146e-01   5.850690e-03
  2.945433e+00    4.601841e-01   5.812116e-03
  2.947644e+00    4.458326e-01   5.716673e-03
  2.949854e+00    4.461052e-01   5.714185e-03
  2.952064e+00    4.308283e-01   5.611391e-03
  2.954275e+00    4.320299e-01   5.614898e-03
  2.956485e+00    4.515638e-01   5.736261e-03
  2.958696e+00    4.442759e-01   5.685464e-03
  2.960906e+00    4.623530e-01   5.795767e-03
  2.963117e+00    4.482485e-01   5.702225e-03
  2.965327e+00    4.455908e-01   5.681437e-03
  2.967538e+00    4.460987e-01   5.681782e-03
  2.969748e+00    4.530244e-01   5.722906e-03
  2.971959e+00    4.633161e-01   5.784374e-03
  2.974169e+00    4.580821e-01   5.749026e-03
  2.976379e+00    4.564746e-01   5.735993e-03
  2.978590e+00    4.522786e-01   5.706455e-03
  2.980800e+00    4.620889e-01   5.765168e-03
  2.983011e+00    4.543573e-01   5.713962e-03
  2.985221e+00    4.577304e-01   5.731939e-03
  2.987432e+00    4.663949e-01   5.782799e-03
  2.989642e+00    4.583583e-01   5.730123e-03
  2.991853e+00    4.620864e-01   5.750057e-03
  2.994063e+00    4.612878e-01   5.742172e-03
  2.996274e+00    4.603845e-01   5.733327e-03
  2.998484e+00    4.699769e-01   5.790004e-03
  3.000694e+00    4.785299e-01   5.838894e-03
  3.002905e+00    4.813559e-01   5.853107e-03
  3.005115e+00    4.695630e-01   5.777920e-03
  3.007326e+00    4.572259e-01   5.698363e-03
  3.009536e+00    4.599935e-01   5.712279e-03
  3.011747e+00    4.512359e-01   5.654748e-03
  3.013957e+00    4.545997e-01   5.672580e-03
  3.016168e+00    4.493603e-01   5.636584e-03
  3.018378e+00    4.485011e-01   5.628134e-03
  3.020589e+00    4.474069e-01   5.618080e-03
  3.022799e+00    4.591333e-01   5.688033e-03
  3.025010e+00    4.637299e-01   5.713176e-03
  3.027220e+00    4.545498e-01   5.653226e-03
  3.029430e+00    4.461465e-01   5.597493e-03
  3.031641e+00    4.460954e-01   5.594050e-03
  3.033851e+00    4.604355e-01   5.679713e-03
  3.036062e+00    4.598994e-01   5.673590e-03
  3.038272e+00    4.520082e-01   5.621138e-03
  3.040483e+00    4.605792e-01   5.670910e-03
  3.042693e+00    4.578991e-01   5.651119e-03
  3.044904e+00    4.489844e-01   5.591820e-03
  3.047114e+00    4.499939e-01   5.593290e-03
  3.049325e+00    4.486872e-01   5.580784e-03
  3.051535e+00    4.416623e-01   5.532582e-03
  3.053745e+00    4.403891e-01   5.519890e-03
  3.055956e+00    4.470906e-01   5.557194e-03
  3.058166e+00    4.497086e-01   5.569170e-03
  3.060377e+00    4.592442e-01   5.623085e-03
  3.062587e+00    4.504643e-01   5.564451e-03
  3.064798e+00    4.552657e-01   5.589743e-03
  3.067008e+00    4.522492e-01   5.566461e-03
  3.069219e+00    4.460752e-01   5.523835e-03
  3.071429e+00    4.531978e-01   5.564236e-03
  3.073640e+00    4.458134e-01   5.515394e-03
  3.075850e+00    4.511075e-01   5.544452e-03
  3.078060e+00    4.621154e-01   5.608553e-03
  3.080271e+00    4.364791e-01   5.447336e-03
  3.082481e+00    4.507086e-01   5.531956e-03
  3.084692e+00    4.496284e-01   5.521946e-03
  3.086902e+00    4.405197e-01   5.462515e-03
  3.089113e+00    4.457154e-01   5.491061e-03
  3.091323e+00    4.525275e-01   5.529471e-03
  3.093534e+00    4.529908e-01   5.528922e-03
  3.095744e+00    4.467275e-01   5.487194e-03
  3.097955e+00    4.565322e-01   5.543484e-03
  3.100165e+00    4.493494e-01   5.496380e-03
  3.102375e+00    4.463731e-01   5.474720e-03
  3.104586e+00    4.519124e-01   5.505070e-03
  3.106796e+00    4.544358e-01   5.516868e-03
  3.109007e+00    4.493810e-01   5.482885e-03
  3.111217e+00    4.488624e-01   5.475987e-03
  3.113428e+00    4.499472e-01   5.479201e-03
  3.115638e+00    4.482705e-01   5.465719e-03
  3.117849e+00    4.479932e-01   5.460301e-03
  3.120059e+00    4.458205e-01   5.443571e-03
  3.122270e+00    4.476619e-01   5.451531e-03
  3.124480e+00    4.629304e-01   5.539964e-03
  3.126691e+00    4.473802e-01   5.442570e-03
  3.128901e+00    4.354682e-01   5.366507e-03
  3.131111e+00    4.493800e-01   5.447707e-03
  3.133322e+00    4.444083e-01   5.414041e-03
  3.135532e+00    4.401869e-01   5.384863e-03
  3.137743e+00    4.587516e-01   5.493725e-03
  3.139953e+00    4.425502e-01   5.392157e-03
  3.142164e+00    4.398622e-01   5.387736e-03
  3.144374e+00    4.480268e-01   5.466091e-03
  3.146585e+00    4.378083e-01   5.417879e-03
  3.148795e+00    4.335116e-01   5.401912e-03
  3.151006e+00    4.409443e-01   5.456544e-03
  3.153216e+00    4.308316e-01   5.400662e-03
  3.155426e+00    4.477102e-01   5.511791e-03
  3.157637e+00    4.348716e-01   5.437683e-03
  3.159847e+00    4.430830e-01   5.493650e-03
  3.162058e+00    4.540330e-01   5.565645e-03
  3.164268e+00    4.410820e-01   5.489751e-03
  3.166479e+00    4.464800e-01   5.526908e-03
  3.168689e+00    4.453379e-01   5.523250e-03
  3.170900e+00    4.380570e-01   5.481057e-03
  3.173110e+00    4.385030e-01   5.486749e-03
  3.175321e+00    4.276537e-01   5.420869e-03
  3.177531e+00    4.484253e-01   5.553755e-03
  3.179741e+00    4.222609e-01   5.391338e-03
  3.181952e+00    4.314926e-01   5.452020e-03
  3.184162e+00    4.451224e-01   5.539691e-03
  3.186373e+00    4.483316e-01   5.561237e-03
  3.188583e+00    4.425434e-01   5.527030e-03
  3.190794e+00    4.404454e-01   5.515677e-03
  3.193004e+00    4.322312e-01   5.465222e-03
  3.195215e+00    4.366986e-01   5.494903e-03
  3.197425e+00    4.458463e-01   5.553391e-03
  3.199636e+00    4.305593e-01   5.456584e-03
  3.201846e+00    4.247680e-01   5.419177e-03
  3.204056e+00    4.300932e-01   5.453896e-03
  3.206267e+00    4.413349e-01   5.525592e-03
  3.208477e+00    4.337300e-01   5.478688e-03
  3.210688e+00    4.415608e-01   5.528778e-03
  3.212898e+00    4.349392e-01   5.487758e-03
  3.215109e+00    4.384846e-01   5.510827e-03
  3.217319e+00    4.266877e-01   5.436833e-03
  3.219530e+00    4.220987e-01   5.407904e-03
  3.221740e+00    4.220090e-01   5.407872e-03
  3.223951e+00    4.324903e-01   5.475096e-03
  3.226161e+00    4.277518e-01   5.445184e-03
  3.228372e+00    4.457197e-01   5.558950e-03
  3.230582e+00    4.255213e-01   5.431657e-03
  3.232792e+00    4.375409e-01   5.508064e-03
  3.235003e+00    4.241436e-01   5.423320e-03
  3.237213e+00    4.343612e-01   5.488368e-03
  3.239424e+00    4.276586e-01   5.445847e-03
  3.241634e+00    4.314458e-01   5.470027e-03
  3.243845e+00    4.323522e-01   5.475853e-03
  3.246055e+00    4.291001e-01   5.454940e-03
  3.248266e+00    4.266624e-01   5.439626e-03
  3.250476e+00    4.360783e-01   5.499022e-03
  3.252687e+00    4.241332e-01   5.423095e-03
  3.254897e+00    4.351000e-01   5.492646e-03
  3.257107e+00    4.148747e-01   5.363162e-03
  3.259318e+00    4.227140e-01   5.413344e-03
  3.261528e+00    4.361277e-01   5.498434e-03
  3.263739e+00    4.306208e-01   5.463053e-03
  3.265949e+00    4.089341e-01   5.323600e-03
  3.268160e+00    4.145366e-01   5.359509e-03
  3.270370e+00    4.142450e-01   5.357141e-03
  3.272581e+00    4.070012e-01   5.309801e-03
  3.274791e+00    4.293206e-01   5.452920e-03
  3.277002e+00    4.314686e-01   5.465999e-03
  3.279212e+00    4.238118e-01   5.416881e-03
  3.281422e+00    4.343741e-01   5.483390e-03
  3.283633e+00    4.356955e-01   5.491043e-03
  3.285843e+00    4.210535e-01   5.397658e-03
  3.288054e+00    4.173832e-01   5.373125e-03
  3.290264e+00    4.244732e-01   5.418284e-03
  3.292475e+00    4.252383e-01   5.422299e-03
  3.294685e+00    4.273691e-01   5.435248e-03
  3.296896e+00    4.287330e-01   5.443159e-03
  3.299106e+00    4.207186e-01   5.391487e-03
  3.301317e+00    4.191125e-01   5.380154e-03
  3.303527e+00    4.166385e-01   5.363803e-03
  3.305737e+00    4.124332e-01   5.335615e-03
  3.307948e+00    4.268764e-01   5.427564e-03
  3.310158e+00    4.377715e-01   5.495540e-03
  3.312369e+00    4.310349e-01   5.452200e-03
  3.314579e+00    4.255339e-01   5.416385e-03
  3.316790e+00    4.209777e-01   5.386608e-03
  3.319000e+00    4.268742e-01   5.422994e-03
  3.321211e+00    4.191938e-01   5.373393e-03
  3.323421e+00    4.286817e-01   5.432644e-03
  3.325632e+00    4.137560e-01   5.336350e-03
  3.327842e+00    4.207287e-01   5.380216e-03
  3.330052e+00    4.294667e-01   5.434720e-03
  3.332263e+00    4.238543e-01   5.398070e-03
  3.334473e+00    4.294835e-01   5.432889e-03
  3.336684e+00    4.282196e-01   5.423601e-03
  3.338894e+00    4.173077e-01   5.353232e-03
  3.341105e+00    4.095370e-01   5.301945e-03
  3.343315e+00    4.244117e-01   5.396242e-03
  3.345526e+00    4.131106e-01   5.323003e-03
  3.347736e+00    4.203757e-01   5.368209e-03
  3.349947e+00    4.269809e-01   5.409270e-03
  3.352157e+00    4.311000e-01   5.434124e-03
  3.354368e+00    4.276622e-01   5.411089e-03
  3.356578e+00    4.269972e-01   5.405873e-03
  3.358788e+00    4.209034e-01   5.365812e-03
  3.360999e+00    4.275611e-01   5.406821e-03
  3.363209e+00    4.117276e-01   5.304779e-03
  3.365420e+00    4.157664e-01   5.329191e-03
  3.367630e+00    4.174572e-01   5.339014e-03
  3.369841e+00    4.174820e-01   5.337751e-03
  3.372051e+00    4.157334e-01   5.324584e-03
  3.374262e+00    4.179885e-01   5.336536e-03
  3.376472e+00    4.240065e-01   5.372391e-03
  3.378683e+00    4.197876e-01   5.343062e-03
  3.380893e+00    4.163833e-01   5.319003e-03
  3.383103e+00    4.102927e-01   5.277302e-03
  3.385314e+00    4.104342e-01   5.275949e-03
  3.387524e+00    4.288514e-01   5.390266e-03
  3.389735e+00    4.129026e-01   5.286486e-03
  3.391945e+00    4.105046e-01   5.267415e-03
  3.394156e+00    4.119954e-01   5.272761e-03
  3.396366e+00    4.225361e-01   5.336341e-03
  3.398577e+00    4.184511e-01   5.307400e-03
  3.400787e+00    4.153821e-01   5.299903e-03
  3.402998e+00    4.048173e-01   5.269873e-03
  3.405208e+00    3.995762e-01   5.256169e-03
  3.407418e+00    3.955595e-01   5.245347e-03
  3.409629e+00    4.015934e-01   5.299181e-03
  3.411839e+00    3.978077e-01   5.285908e-03
  3.414050e+00    3.965829e-01   5.288729e-03
  3.416260e+00    3.938466e-01   5.280106e-03
  3.418471e+00    3.942294e-01   5.292087e-03
  3.420681e+00    3.843433e-01   5.233719e-03
  3.422892e+00    3.947535e-01   5.312146e-03
  3.425102e+00    3.969179e-01   5.334605e-03
  3.427313e+00    3.887521e-01   5.286623e-03
  3.429523e+00    4.000236e-01   5.369897e-03
  3.431733e+00    3.866395e-01   5.285975e-03
  3.433944e+00    3.845725e-01   5.278306e-03
  3.436154e+00    3.870142e-01   5.301327e-03
  3.438365e+00    3.759992e-01   5.231213e-03
  3.440575e+00    3.842301e-01   5.294098e-03
  3.442786e+00    3.831756e-01   5.292488e-03
  3.444996e+00    3.872513e-01   5.326133e-03
  3.447207e+00    3.627020e-01   5.159752e-03
  3.449417e+00    3.752571e-01   5.289308e-03
  3.451628e+00    3.634141e-01   5.234416e-03
  3.453838e+00    3.571965e-01   5.210266e-03
  3.456049e+00    3.693296e-01   5.322027e-03
  3.458259e+00    3.670625e-01   5.327603e-03
  3.460469e+00    3.707478e-01   5.374188e-03
  3.462680e+00    3.829697e-01   5.481549e-03
  3.464890e+00    3.789441e-01   5.470756e-03
  3.467101e+00    3.726024e-01   5.442393e-03
  3.469311e+00    3.737302e-01   5.467226e-03
  3.471522e+00    3.752416e-01   5.494677e-03
  3.473732e+00    3.934471e-01   5.642635e-03
  3.475943e+00    4.028170e-01   5.725545e-03
  3.478153e+00    4.094460e-01   5.788329e-03
  3.480364e+00    4.109726e-01   5.814616e-03
  3.482574e+00    4.042148e-01   5.781934e-03
  3.484784e+00    4.246170e-01   5.941179e-03
  3.486995e+00    4.535663e-01   6.156130e-03
  3.489205e+00    4.383095e-01   6.066659e-03
  3.491416e+00    4.569890e-01   6.209988e-03
  3.493626e+00    4.443710e-01   6.138425e-03
  3.495837e+00    4.557015e-01   6.231172e-03
  3.498047e+00    4.679462e-01   6.329221e-03
  3.500258e+00    4.506453e-01   6.225672e-03
  3.502468e+00    4.606178e-01   6.308703e-03
  3.504679e+00    4.621871e-01   6.333935e-03
  3.506889e+00    4.736755e-01   6.426764e-03
  3.509099e+00    4.613208e-01   6.356569e-03
  3.511310e+00    4.716139e-01   6.441534e-03
  3.513520e+00    4.729481e-01   6.464867e-03
  3.515731e+00    4.958928e-01   6.634371e-03
  3.517941e+00    4.852907e-01   6.577372e-03
  3.520152e+00    5.138049e-01   6.782408e-03
  3.522362e+00    5.062171e-01   6.746739e-03
  3.524573e+00    4.979473e-01   6.705544e-03
  3.526783e+00    4.993595e-01   6.728255e-03
  3.528994e+00    5.217271e-01   6.889586e-03
  3.531204e+00    5.360264e-01   6.995989e-03
  3.533414e+00    5.472910e-01   7.081464e-03
  3.535625e+00    5.225228e-01   6.931670e-03
  3.537835e+00    5.440964e-01   7.085549e-03
  3.540046e+00    5.535331e-01   7.155819e-03
  3.542256e+00    5.321169e-01   7.023550e-03
  3.544467e+00    5.199423e-01   6.950242e-03
  3.546677e+00    5.278413e-01   7.010327e-03
  3.548888e+00    5.368554e-01   7.077449e-03
  3.551098e+00    5.370767e-01   7.086205e-03
  3.553309e+00    5.515439e-01   7.189299e-03
  3.555519e+00    5.225740e-01   7.009109e-03
  3.557729e+00    5.291255e-01   7.064522e-03
  3.559940e+00    5.311722e-01   7.089676e-03
  3.562150e+00    5.359440e-01   7.133165e-03
  3.564361e+00    5.647305e-01   7.335888e-03
  3.566571e+00    5.648399e-01   7.350840e-03
  3.568782e+00    5.413184e-01   7.210305e-03
  3.570992e+00    5.509216e-01   7.287936e-03
  3.573203e+00    5.457751e-01   7.268091e-03
  3.575413e+00    5.490113e-01   7.303542e-03
  3.577624e+00    5.392962e-01   7.252796e-03
  3.579834e+00    5.513687e-01   7.347637e-03
  3.582045e+00    5.176843e-01   7.133430e-03
  3.584255e+00    5.239831e-01   7.190573e-03
  3.586465e+00    5.504640e-01   7.384168e-03
  3.588676e+00    5.437761e-01   7.353465e-03
  3.590886e+00    5.583834e-01   7.465574e-03
  3.593097e+00    5.223647e-01   7.235104e-03
  3.595307e+00    5.236968e-01   7.258084e-03
  3.597518e+00    5.289897e-01   7.308774e-03
  3.599728e+00    5.496729e-01   7.464586e-03
  3.601939e+00    5.489597e-01   7.474001e-03
  3.604149e+00    5.259635e-01   7.330051e-03
  3.606360e+00    5.244349e-01   7.333379e-03
  3.608570e+00    5.477951e-01   7.509239e-03
  3.610780e+00    5.584517e-01   7.593263e-03
  3.612991e+00    5.300092e-01   7.407319e-03
  3.615201e+00    5.333829e-01   7.440646e-03
  3.617412e+00    5.209904e-01   7.360864e-03
  3.619622e+00    5.591622e-01   7.631847e-03
  3.621833e+00    5.366102e-01   7.483126e-03
  3.624043e+00    5.293345e-01   7.441636e-03
  3.626254e+00    5.476739e-01   7.579290e-03
  3.628464e+00    5.381432e-01   7.524085e-03
  3.630675e+00    5.239529e-01   7.438184e-03
  3.632885e+00    5.099037e-01   7.351913e-03
  3.635095e+00    5.435738e-01   7.605289e-03
  3.637306e+00    5.326309e-01   7.542700e-03
  3.639516e+00    5.354065e-01   7.576894e-03
  3.641727e+00    5.367885e-01   7.601270e-03
  3.643937e+00    5.427575e-01   7.658116e-03
  3.646148e+00    5.405080e-01   7.656920e-03
  3.648358e+00    5.412827e-01   7.677405e-03
  3.650569e+00    5.256721e-01   7.580495e-03
  3.652779e+00    5.281329e-01   7.612959e-03
  3.654990e+00    5.288669e-01   7.633041e-03
  3.657200e+00    5.203192e-01   7.585858e-03
  3.659410e+00    5.343696e-01   7.702584e-03
  3.661621e+00    5.461563e-01   7.802355e-03
  3.663831e+00    5.555200e-01   7.884442e-03
  3.666042e+00    5.448771e-01   7.823901e-03
  3.668252e+00    5.304610e-01   7.734933e-03
  3.670463e+00    5.214331e-01   7.683928e-03
  3.672673e+00    5.258929e-01   7.732042e-03
  3.674884e+00    5.402918e-01   7.852735e-03
  3.677094e+00    5.290667e-01   7.786213e-03
  3.679305e+00    5.301650e-01   7.809852e-03
  3.681515e+00    5.213276e-01   7.760018e-03
  3.683726e+00    5.078753e-01   7.674643e-03
  3.685936e+00    5.446291e-01   7.963443e-03
  3.688146e+00    5.319464e-01   7.886011e-03
  3.690357e+00    5.375287e-01   7.943416e-03
  3.692567e+00    5.229691e-01   7.851153e-03
  3.694778e+00    5.022939e-01   7.710030e-03
  3.696988e+00    5.272701e-01   7.915410e-03
  3.699199e+00    5.249288e-01   7.914037e-03
  3.701409e+00    5.351313e-01   8.007111e-03
  3.703620e+00    5.172166e-01   7.888165e-03
  3.705830e+00    5.427188e-01   8.096919e-03
  3.708041e+00    5.370390e-01   8.071324e-03
  3.710251e+00    5.131568e-01   7.906276e-03
  3.712461e+00    5.349416e-01   8.089348e-03
  3.714672e+00    5.248859e-01   8.029701e-03
  3.716882e+00    5.446712e-01   8.196740e-03
  3.719093e+00    5.464771e-01   8.227881e-03
  3.721303e+00    5.133367e-01   7.991364e-03
  3.723514e+00    5.156168e-01   8.026289e-03
  3.725724e+00    5.260954e-01   8.124708e-03
  3.727935e+00    5.340432e-01   8.203583e-03
  3.730145e+00    5.148454e-01   8.072087e-03
  3.732356e+00    5.209877e-01   8.137683e-03
  3.734566e+00    5.061421e-01   8.038334e-03
  3.736776e+00    5.259527e-01   8.212047e-03
  3.738987e+00    5.091618e-01   8.097544e-03
  3.741197e+00    5.265697e-01   8.253061e-03
  3.743408e+00    5.318431e-01   8.312661e-03
  3.745618e+00    5.054518e-01   8.121969e-03
  3.747829e+00    5.157471e-01   8.222398e-03
  3.750039e+00    5.256780e-01   8.319852e-03
  3.752250e+00    5.112388e-01   8.223273e-03
  3.754460e+00    5.015916e-01   8.163683e-03
  3.756671e+00    5.029098e-01   8.193086e-03
  3.758881e+00    5.225458e-01   8.370371e-03
  3.761091e+00    5.020739e-01   8.223853e-03
  3.763302e+00    5.028561e-01   8.249183e-03
  3.765512e+00    5.059739e-01   8.293967e-03
  3.767723e+00    5.134022e-01   8.374087e-03
  3.769933e+00    5.152234e-01   8.408393e-03
  3.772144e+00    5.280551e-01   8.532503e-03
  3.774354e+00    5.043162e-01   8.358319e-03
  3.776565e+00    5.013683e-01   8.353605e-03
  3.778775e+00    5.011503e-01   8.371688e-03
  3.780986e+00    5.275896e-01   8.610449e-03
  3.783196e+00    5.150481e-01   8.528024e-03
  3.785407e+00    5.061289e-01   8.474282e-03
  3.787617e+00    5.186848e-01   8.599855e-03
  3.789827e+00    5.056608e-01   8.511808e-03
  3.792038e+00    4.910944e-01   8.408926e-03
  3.794248e+00    4.752034e-01   8.292375e-03
  3.796459e+00    5.043226e-01   8.563985e-03
  3.798669e+00    5.234370e-01   8.746717e-03
  3.800880e+00    5.036310e-01   8.601148e-03
  3.803090e+00    5.143775e-01   8.714553e-03
  3.805301e+00    4.983828e-01   8.600048e-03
  3.807511e+00    5.026513e-01   8.658850e-03
  3.809722e+00    4.743221e-01   8.432975e-03
  3.811932e+00    5.045406e-01   8.719717e-03
  3.814142e+00    4.956495e-01   8.665442e-03
  3.816353e+00    4.894956e-01   8.634052e-03
  3.818563e+00    4.988850e-01   8.739587e-03
  3.820774e+00    4.838514e-01   8.629712e-03
  3.822984e+00    4.844824e-01   8.658384e-03
  3.825195e+00    5.165013e-01   8.964080e-03
  3.827405e+00    5.062687e-01   8.898932e-03
  3.829616e+00    5.189413e-01   9.034245e-03
  3.831826e+00    4.722472e-01   8.641774e-03
  3.834037e+00    4.985298e-01   8.903421e-03
  3.836247e+00    4.797589e-01   8.758591e-03
  3.838457e+00    5.001150e-01   8.967453e-03
  3.840668e+00    5.313919e-01   9.269788e-03
  3.842878e+00    5.073870e-01   9.083807e-03
  3.845089e+00    4.878637e-01   8.932629e-03
  3.847299e+00    5.017010e-01   9.084421e-03
  3.849510e+00    5.209001e-01   9.283110e-03
  3.851720e+00    5.058852e-01   9.169955e-03
  3.853931e+00    5.253515e-01   9.364348e-03
  3.856141e+00    5.252345e-01   9.382870e-03
  3.858352e+00    5.140094e-01   9.301719e-03
  3.860562e+00    5.265017e-01   9.433945e-03
  3.862772e+00    5.088975e-01   9.294852e-03
  3.864983e+00    5.092629e-01   9.318131e-03
  3.867193e+00    4.786713e-01   9.053394e-03
  3.869404e+00    4.652319e-01   8.944596e-03
  3.871614e+00    4.978026e-01   9.272489e-03
  3.873825e+00    4.903120e-01   9.222758e-03
  3.876035e+00    5.043043e-01   9.374192e-03
  3.878246e+00    5.003831e-01   9.363668e-03
  3.880456e+00    4.908122e-01   9.302679e-03
  3.882667e+00    4.908398e-01   9.332192e-03
  3.884877e+00    5.083182e-01   9.527128e-03
  3.887087e+00    5.160468e-01   9.629939e-03
  3.889298e+00    4.973524e-01   9.484526e-03
  3.891508e+00    5.012462e-01   9.552380e-03
  3.893719e+00    4.979940e-01   9.552595e-03
  3.895929e+00    4.963012e-01   9.567871e-03
  3.898140e+00    5.055585e-01   9.688962e-03
  3.900350e+00    5.144250e-01   9.806396e-03
  3.902561e+00    5.187219e-01   9.880578e-03
  3.904771e+00    4.985824e-01   9.719994e-03
  3.906982e+00    5.192618e-01   9.953686e-03
  3.909192e+00    5.137816e-01   9.935283e-03
  3.911403e+00    5.133246e-01   9.965830e-03
  3.913613e+00    4.995914e-01   9.866115e-03
  3.915823e+00    5.046122e-01   9.951090e-03
  3.918034e+00    4.722167e-01   9.660941e-03
  3.920244e+00    5.174465e-01   1.014983e-02
  3.922455e+00    4.639488e-01   9.646077e-03
  3.924665e+00    4.871849e-01   9.920989e-03
  3.926876e+00    4.979759e-01   1.006776e-02
  3.929086e+00    4.883016e-01   1.000694e-02
  3.931297e+00    4.803631e-01   9.959779e-03
  3.933507e+00    4.524130e-01   9.693526e-03
  3.935718e+00    4.799142e-01   1.001230e-02
  3.937928e+00    5.074088e-01   1.032518e-02
  3.940138e+00    4.961033e-01   1.023916e-02
  3.942349e+00    5.024197e-01   1.033439e-02
  3.944559e+00    4.754288e-01   1.008269e-02
  3.946770e+00    4.847265e-01   1.021084e-02
  3.948980e+00    5.099499e-01   1.050456e-02
  3.951191e+00    4.986083e-01   1.041844e-02
  3.953401e+00    4.804507e-01   1.025807e-02
  3.955612e+00    4.910926e-01   1.040290e-02
  3.957822e+00    4.720224e-01   1.023010e-02
  3.960033e+00    4.979095e-01   1.053989e-02
  3.962243e+00    5.080311e-01   1.068007e-02
  3.964453e+00    4.841528e-01   1.045917e-02
  3.966664e+00    4.614488e-01   1.024351e-02
  3.968874e+00    5.309722e-01   1.101773e-02
  3.971085e+00    5.206411e-01   1.093276e-02
  3.973295e+00    5.085310e-01   1.082699e-02
  3.975506e+00    4.887919e-01   1.063634e-02
  3.977716e+00    4.761932e-01   1.052015e-02
  3.979927e+00    4.828927e-01   1.061598e-02
  3.982137e+00    4.802637e-01   1.060916e-02
  3.984348e+00    4.860747e-01   1.069581e-02
  3.986558e+00    4.760111e-01   1.060658e-02
  3.988768e+00    4.918246e-01   1.080442e-02
  3.990979e+00    5.008581e-01   1.092644e-02
  3.993189e+00    5.213301e-01   1.117131e-02
  3.995400e+00    4.796889e-01   1.073939e-02
  3.997610e+00    4.741053e-01   1.070610e-02
  3.999821e+00    5.092273e-01   1.113406e-02
  4.002031e+00    5.016196e-01   1.108962e-02
  4.004242e+00    4.635535e-01   1.069814e-02
  4.006452e+00    5.117437e-01   1.128100e-02
  4.008663e+00    5.308087e-01   1.153101e-02
  4.010873e+00    4.968791e-01   1.119697e-02
  4.013084e+00    4.730389e-01   1.096547e-02
  4.015294e+00    5.060847e-01   1.138384e-02
  4.017504e+00    4.787519e-01   1.111385e-02
  4.019715e+00    4.961955e-01   1.135742e-02
  4.021925e+00    5.082671e-01   1.153888e-02
  4.024136e+00    4.886994e-01   1.135854e-02
  4.026346e+00    4.782930e-01   1.128074e-02
  4.028557e+00    4.958155e-01   1.153034e-02
  4.030767e+00    4.705925e-01   1.127833e-02
  4.032978e+00    4.854503e-01   1.150132e-02
  4.035188e+00    4.732224e-01   1.140122e-02
  4.037399e+00    4.769894e-01   1.149385e-02
  4.039609e+00    4.898124e-01   1.169532e-02
  4.041819e+00    4.707726e-01   1.151381e-02
  4.044030e+00    4.617977e-01   1.145243e-02
  4.046240e+00    4.613556e-01   1.149566e-02
  4.048451e+00    4.477217e-01   1.137355e-02
  4.050661e+00    4.393364e-01   1.131556e-02
  4.052872e+00    4.488266e-01   1.148803e-02
  4.055082e+00    4.835719e-01   1.197789e-02
  4.057293e+00    4.532920e-01   1.164892e-02
  4.059503e+00    5.020737e-01   1.231546e-02
  4.061714e+00    4.534063e-01   1.175831e-02
  4.063924e+00    4.811881e-01   1.216967e-02
  4.066134e+00    4.862590e-01   1.229127e-02
  4.068345e+00    4.483393e-01   1.185926e-02
  4.070555e+00    4.689047e-01   1.218668e-02
  4.072766e+00    4.436324e-01   1.191214e-02
  4.074976e+00    4.743938e-01   1.237939e-02
  4.077187e+00    5.048612e-01   1.283457e-02
  4.079397e+00    4.852088e-01   1.264637e-02
  4.081608e+00    4.662742e-01   1.246172e-02
  4.083818e+00    4.342422e-01   1.208852e-02
  4.086029e+00    4.537027e-01   1.242154e-02
  4.088239e+00    4.677731e-01   1.268060e-02
  4.090449e+00    5.309815e-01   1.358339e-02
  4.092660e+00    4.695977e-01   1.284468e-02
  4.094870e+00    4.799382e-01   1.305735e-02
  4.097081e+00    5.011975e-01   1.341644e-02
  4.099291e+00    4.858345e-01   1.326410e-02
  4.101502e+00    4.595837e-01   1.294882e-02
  4.103712e+00    4.541593e-01   1.292012e-02
  4.105923e+00    4.817155e-01   1.335777e-02
  4.108133e+00    4.987682e-01   1.364459e-02
  4.110344e+00    4.720573e-01   1.332502e-02
  4.112554e+00    4.782853e-01   1.346549e-02
  4.114764e+00    4.967323e-01   1.377803e-02
  4.116975e+00    4.840913e-01   1.365515e-02
  4.119185e+00    4.924940e-01   1.382904e-02
  4.121396e+00    5.008418e-01   1.400331e-02
  4.123606e+00    5.126337e-01   1.422538e-02
  4.125817e+00    4.892387e-01   1.395517e-02
  4.128027e+00    5.058438e-01   1.424986e-02
  4.130238e+00    4.606235e-01   1.365644e-02
  4.132448e+00    4.610700e-01   1.372209e-02
  4.134659e+00    4.797786e-01   1.405803e-02
  4.136869e+00    4.653675e-01   1.390708e-02
  4.139080e+00    5.062355e-01   1.457014e-02
  4.141290e+00    5.084246e-01   1.466635e-02
  4.143500e+00    4.743685e-01   1.423209e-02
  4.145711e+00    4.613146e-01   1.410023e-02
  4.147921e+00    4.880753e-01   1.457030e-02
  4.150132e+00    4.347338e-01   1.381662e-02
  4.152342e+00    4.415317e-01   1.399138e-02
  4.154553e+00    4.933485e-01   1.486014e-02
  4.156763e+00    4.720433e-01   1.460784e-02
  4.158974e+00    4.967029e-01   1.505965e-02
  4.161184e+00    5.283421e-01   1.560893e-02
  4.163395e+00    4.905840e-01   1.511781e-02
  4.165605e+00    4.971355e-01   1.529744e-02
  4.167815e+00    4.830612e-01   1.515808e-02
  4.170026e+00    5.075284e-01   1.561900e-02
  4.172236e+00    4.860572e-01   1.536770e-02
  4.174447e+00    5.223846e-01   1.601830e-02
  4.176657e+00    4.763270e-01   1.537948e-02
  4.178868e+00    4.667825e-01   1.531074e-02
  4.181078e+00    5.167903e-01   1.620090e-02
  4.183289e+00    4.985884e-01   1.600408e-02
  4.185499e+00    4.950472e-01   1.604122e-02
  4.187710e+00    4.701437e-01   1.572423e-02
  4.189920e+00    4.381956e-01   1.527180e-02
  4.192130e+00    4.873099e-01   1.620349e-02
  4.194341e+00    4.550403e-01   1.575366e-02
  4.196551e+00    5.088477e-01   1.676467e-02
  4.198762e+00    4.888766e-01   1.653674e-02
  4.200972e+00    4.867595e-01   1.660773e-02
  4.203183e+00    4.522398e-01   1.611340e-02
  4.205393e+00    4.459718e-01   1.610796e-02
  4.207604e+00    4.863932e-01   1.693688e-02
  4.209814e+00    4.804926e-01   1.694916e-02
  4.212025e+00    4.578666e-01   1.666263e-02
  4.214235e+00    4.747209e-01   1.708694e-02
  4.216445e+00    4.554735e-01   1.685792e-02
  4.218656e+00    4.727896e-01   1.730383e-02
  4.220866e+00    4.988286e-01   1.790574e-02
  4.223077e+00    4.898832e-01   1.788104e-02
  4.225287e+00    4.999861e-01   1.820626e-02
  4.227498e+00    5.163078e-01   1.864663e-02
  4.229708e+00    4.873842e-01   1.826382e-02
  4.231919e+00    4.667018e-01   1.801991e-02
  4.234129e+00    5.036265e-01   1.887651e-02
  4.236340e+00    5.134780e-01   1.922303e-02
  4.238550e+00    4.901140e-01   1.894649e-02
  4.240761e+00    4.950551e-01   1.921003e-02
  4.242971e+00    5.173091e-01   1.981667e-02
  4.245181e+00    4.877545e-01   1.942317e-02
  4.247392e+00    4.988444e-01   1.982653e-02
  4.249602e+00    4.142220e-01   1.824642e-02
  4.251813e+00    4.113747e-01   1.836228e-02
  4.254023e+00    4.491388e-01   1.938001e-02
  4.256234e+00    4.677466e-01   1.998888e-02
  4.258444e+00    4.775635e-01   2.040873e-02
  4.260655e+00    4.263590e-01   1.949608e-02
  4.262865e+00    4.455441e-01   2.015535e-02
  4.265076e+00    4.294195e-01   2.001253e-02
  4.267286e+00    4.992716e-01   2.183479e-02
  4.269496e+00    4.905700e-01   2.190808e-02
  4.271707e+00    5.534056e-01   2.355575e-02
  4.273917e+00    5.311917e-01   2.337716e-02
  4.276128e+00    4.762296e-01   2.242867e-02
  4.278338e+00    5.167436e-01   2.367449e-02
  4.280549e+00    5.080717e-01   2.381276e-02
  4.282759e+00    4.375251e-01   2.241502e-02
  4.284970e+00    4.131630e-01   2.210385e-02
  4.287180e+00    4.130903e-01   2.236752e-02
  4.289391e+00    4.355302e-01   2.313880e-02
  4.291601e+00    4.872311e-01   2.466970e-02
  4.293811e+00    4.812073e-01   2.470781e-02
  4.296022e+00    4.901187e-01   2.513619e-02
  4.298232e+00    5.107054e-01   2.587361e-02
  4.300443e+00    5.304742e-01   2.658709e-02
  4.302653e+00    4.826525e-01   2.558058e-02
  4.304864e+00    3.881779e-01   2.313870e-02
  4.307074e+00    4.224800e-01   2.435672e-02
  4.309285e+00    5.100043e-01   2.700337e-02
  4.311495e+00    5.243977e-01   2.763918e-02
  4.313706e+00    5.179409e-01   2.772651e-02
  4.315916e+00    4.798754e-01   2.695033e-02
  4.318126e+00    4.379756e-01   2.600124e-02
  4.320337e+00    4.081324e-01   2.535442e-02
  4.322547e+00    5.014631e-01   2.840225e-02
  4.324758e+00    4.707884e-01   2.780595e-02
  4.326968e+00    4.335289e-01   2.698374e-02
  4.329179e+00    4.808292e-01   2.873014e-02
  4.331389e+00    4.322868e-01   2.755501e-02
  4.333600e+00    4.940785e-01   2.981104e-02
  4.335810e+00    4.596626e-01   2.909668e-02
  4.338021e+00    3.900044e-01   2.714346e-02
  4.340231e+00    3.790154e-01   2.709477e-02
  4.342442e+00    5.506052e-01   3.309459e-02
  4.344652e+00    4.057038e-01   2.879433e-02
  4.346862e+00    3.493176e-01   2.709256e-02
  4.349073e+00    4.545524e-01   3.135442e-02
  4.351283e+00    4.031616e-01   2.997065e-02
  4.353494e+00    4.427372e-01   3.189215e-02
  4.355704e+00    4.693637e-01   3.336633e-02
  4.357915e+00    3.923181e-01   3.101180e-02
  4.360125e+00    3.795668e-01   3.102548e-02
  4.362336e+00    3.624153e-01   3.086834e-02
  4.364546e+00    4.910147e-01   3.658450e-02
  4.366757e+00    4.212924e-01   3.456135e-02
  4.368967e+00    3.206413e-01   3.075400e-02
  4.371177e+00    4.006173e-01   3.510502e-02
  4.373388e+00    3.762831e-01   3.478401e-02
  4.375598e+00    3.602351e-01   3.480980e-02
  4.377809e+00    3.397368e-01   3.466116e-02
  4.380019e+00    3.979866e-01   3.845790e-02
  4.382230e+00    4.980885e-01   4.422552e-02
  4.384440e+00    1.666985e-01   2.631973e-02
  4.386651e+00    3.937249e-01   4.169866e-02
  4.388861e+00    3.672820e-01   4.162387e-02
  4.391072e+00    3.681235e-01   4.313679e-02
  4.393282e+00    4.234575e-01   4.805411e-02
  4.395492e+00    5.987607e-01   5.951443e-02
  4.397703e+00    3.723458e-01   4.908022e-02
  4.399913e+00    4.690129e-01   5.787204e-02
  4.402124e+00    3.345348e-01   5.163529e-02
  4.404334e+00    4.938464e-01   6.670891e-02
  4.406545e+00    4.039944e-01   6.481586e-02
  4.408755e+00    5.082375e-01   7.884248e-02
  4.410966e+00    4.447479e-01   8.164079e-02
  4.413176e+00    2.028542e-01   6.240759e-02
  4.415387e+00   -2.304455e-01            nan
  4.417597e+00   -1.902338e+00            nan
  4.419807e+00   -3.766224e-01            nan
