# == pyFAI calibration ==
# Distance Sample to Detector: 0.216 m
# PONI: 1.166e-01, 1.308e-01 m
# Rotations: 0.000000 0.000000 0.000000 rad
# 
# == Fit2d calibration ==
# Distance Sample-beamCenter: 216.000 mm
# Center: x=1744.293, y=1555.000 pix
# Tilt: 0.000 deg  TiltPlanRot: 0.000 deg
# 
# Detector Eiger 9M	 PixelSize= 7.500e-05, 7.500e-05 m
#    Detector has a mask: True 
#    Detector has a dark current: False 
#    detector has a flat field: False 
# 
# Wavelength: 9.8e-11 m
# Mask applied: from detector
# Dark current applied: False
# Flat field applied: False
# Polarization factor: None
# Normalization factor: 1.0
# 
# Headers of the input frame:
# {
# "_array_data.header_convention": "SLS_1.0",
# "_array_data.header_contents": "# Detector: Dectris Eiger 9M, S/N E-18-0102\r\n# Pixel_size 75e-6 m x 75e-6 m\r\n# Silicon sensor, thickness 0.000450 m\r\n# Exposure_time 0.024997 s\r\n# Exposure_period 0.025000 s\r\n# Count_cutoff 62318 counts\r\n# Wavelength 0.980106 A\r\n# Detector_distance 0.215992 m\r\n# Beam_xy (1555, 1744) pixels\r\n# Start_angle 0.000000 deg.\r\n# Angle_increment 0.000000 deg.",
# "Content-Type": "application/octet-stream;",
# "conversions": "x-CBF_BYTE_OFFSET",
# "Content-Transfer-Encoding": "BINARY",
# "X-Binary-Size": "10166596",
# "X-Binary-ID": "1",
# "X-Binary-Element-Type": "signed 32-bit integer",
# "X-Binary-Element-Byte-Order": "LITTLE_ENDIAN",
# "Content-MD5": "YPVuN752I7uoOXq1sifAqg==",
# "X-Binary-Number-of-Elements": "10166590",
# "X-Binary-Size-Fastest-Dimension": "3110",
# "X-Binary-Size-Second-Dimension": "3269",
# "X-Binary-Size-Padding": "4095"
# }
# --> H:/Proxima2a_2019-04-05/RAW_DATA/C5_gel17_position5/C5_mesh_1_data.cbf/C5_mesh_1_data.cbf000060.dat
#        q_A^-1              I           sigma 
  1.105228e-03    1.220780e+00   5.978686e-01
  3.315685e-03    1.303078e+00   3.755178e-01
  5.526141e-03    9.760655e-01   2.513111e-01
  7.736597e-03    1.006798e+00   2.156212e-01
  9.947054e-03    1.209730e+00   2.083631e-01
  1.215751e-02    1.177493e+00   1.858865e-01
  1.436797e-02    1.068380e+00   1.628691e-01
  1.657842e-02    1.249184e+00   1.639297e-01
  1.878888e-02    1.253216e+00   1.542327e-01
  2.099934e-02    1.274225e+00   1.471381e-01
  2.320979e-02    1.287833e+00   1.406898e-01
  2.542025e-02    1.152644e+00   1.271912e-01
  2.763070e-02    1.304977e+00   1.298051e-01
  2.984116e-02    1.243696e+00   1.219365e-01
  3.205162e-02    1.416366e+00   1.255665e-01
  3.426207e-02    1.427516e+00   1.219173e-01
  3.647253e-02    1.232398e+00   1.097906e-01
  3.868299e-02    1.268688e+00   1.081740e-01
  4.089344e-02    1.286264e+00   1.059365e-01
  4.310390e-02    1.293612e+00   1.034727e-01
  4.531436e-02    1.216738e+00   9.787331e-02
  4.752481e-02    1.301099e+00   9.882665e-02
  4.973527e-02    1.373481e+00   9.925746e-02
  5.194572e-02    1.255291e+00   9.284859e-02
  5.415618e-02    1.139790e+00   8.664651e-02
  5.636664e-02    1.237293e+00   8.849148e-02
  5.857709e-02    1.237218e+00   8.680358e-02
  6.078755e-02    1.223402e+00   8.473092e-02
  6.299801e-02    1.182309e+00   8.182047e-02
  6.520846e-02    1.282715e+00   8.376756e-02
  6.741892e-02    1.269745e+00   8.196118e-02
  6.962938e-02    1.293031e+00   8.138994e-02
  7.183983e-02    1.332285e+00   8.133371e-02
  7.405029e-02    1.300050e+00   7.913364e-02
  7.626074e-02    1.298156e+00   7.792088e-02
  7.847120e-02    1.242556e+00   7.515053e-02
  8.068166e-02    1.205257e+00   7.299247e-02
  8.289211e-02    1.280949e+00   7.423907e-02
  8.510257e-02    1.374697e+00   7.590196e-02
  8.731303e-02    1.229499e+00   7.086453e-02
  8.952348e-02    1.254945e+00   7.070659e-02
  9.173394e-02    1.436119e+00   7.471864e-02
  9.394439e-02    1.413298e+00   7.324301e-02
  9.615485e-02    1.319540e+00   6.995214e-02
  9.836531e-02    1.336193e+00   6.959484e-02
  1.005758e-01    1.326424e+00   6.857418e-02
  1.027862e-01    1.351007e+00   6.845683e-02
  1.049967e-01    1.274208e+00   6.577791e-02
  1.072071e-01    1.221789e+00   6.374248e-02
  1.094176e-01    1.263303e+00   6.415731e-02
  1.116280e-01    1.321672e+00   6.496831e-02
  1.138385e-01    1.306337e+00   6.395889e-02
  1.160490e-01    1.349272e+00   6.437862e-02
  1.182594e-01    1.430477e+00   6.566378e-02
  1.204699e-01    1.330179e+00   6.273584e-02
  1.226803e-01    1.359273e+00   6.284166e-02
  1.248908e-01    1.367620e+00   6.247327e-02
  1.271012e-01    1.401967e+00   6.269921e-02
  1.293117e-01    1.415294e+00   6.245499e-02
  1.315222e-01    1.415064e+00   6.192145e-02
  1.337326e-01    1.403806e+00   6.116166e-02
  1.359431e-01    1.362564e+00   6.029181e-02
  1.381535e-01    1.347109e+00   6.075358e-02
  1.403640e-01    1.341715e+00   6.089363e-02
  1.425744e-01    1.281947e+00   5.961699e-02
  1.447849e-01    1.323131e+00   6.058098e-02
  1.469953e-01    1.419863e+00   6.271712e-02
  1.492058e-01    1.404020e+00   6.229376e-02
  1.514163e-01    1.371777e+00   6.147207e-02
  1.536267e-01    1.380039e+00   6.153654e-02
  1.558372e-01    1.382372e+00   6.145256e-02
  1.580476e-01    1.337857e+00   6.030834e-02
  1.602581e-01    1.309014e+00   5.950316e-02
  1.624685e-01    1.396195e+00   6.128445e-02
  1.646790e-01    1.403023e+00   6.125771e-02
  1.668895e-01    1.506792e+00   6.329932e-02
  1.690999e-01    1.562616e+00   6.426763e-02
  1.713104e-01    1.565331e+00   6.412387e-02
  1.735208e-01    1.499784e+00   6.257173e-02
  1.757313e-01    1.543992e+00   6.328826e-02
  1.779417e-01    1.583014e+00   6.387401e-02
  1.801522e-01    1.616479e+00   6.434008e-02
  1.823626e-01    1.542404e+00   6.263936e-02
  1.845731e-01    1.520582e+00   6.199321e-02
  1.867836e-01    1.679457e+00   6.493149e-02
  1.889940e-01    1.718751e+00   6.547207e-02
  1.912045e-01    1.630225e+00   6.355076e-02
  1.934149e-01    1.675035e+00   6.420264e-02
  1.956254e-01    1.733123e+00   6.509099e-02
  1.978358e-01    1.773760e+00   6.562401e-02
  2.000463e-01    1.794044e+00   6.577948e-02
  2.022568e-01    1.700360e+00   6.382876e-02
  2.044672e-01    1.772852e+00   6.495189e-02
  2.066777e-01    1.687926e+00   6.316675e-02
  2.088881e-01    1.727124e+00   6.368691e-02
  2.110986e-01    1.776978e+00   6.437805e-02
  2.133090e-01    1.676663e+00   6.233119e-02
  2.155195e-01    1.673286e+00   6.206185e-02
  2.177300e-01    1.607935e+00   6.035989e-02
  2.199404e-01    1.687638e+00   6.020835e-02
  2.221509e-01    1.709099e+00   5.959506e-02
  2.243613e-01    1.799835e+00   6.038124e-02
  2.265718e-01    1.849336e+00   6.053134e-02
  2.287822e-01    1.775482e+00   5.872332e-02
  2.309927e-01    1.755759e+00   5.786426e-02
  2.332031e-01    1.756599e+00   5.738272e-02
  2.354136e-01    1.864038e+00   5.863242e-02
  2.376241e-01    1.863905e+00   5.817529e-02
  2.398345e-01    1.894655e+00   5.821910e-02
  2.420450e-01    1.948313e+00   5.861583e-02
  2.442554e-01    1.927422e+00   5.789909e-02
  2.464659e-01    1.824235e+00   5.594976e-02
  2.486763e-01    1.785967e+00   5.499588e-02
  2.508868e-01    1.891042e+00   5.623357e-02
  2.530973e-01    1.895419e+00   5.594959e-02
  2.553077e-01    1.851272e+00   5.495877e-02
  2.575182e-01    1.840901e+00   5.448036e-02
  2.597286e-01    1.818305e+00   5.383021e-02
  2.619391e-01    1.794843e+00   5.317390e-02
  2.641495e-01    1.759328e+00   5.235382e-02
  2.663600e-01    1.790927e+00   5.253139e-02
  2.685704e-01    1.823617e+00   5.272131e-02
  2.707809e-01    1.789196e+00   5.194421e-02
  2.729914e-01    1.766591e+00   5.134603e-02
  2.752018e-01    1.716411e+00   5.034813e-02
  2.774123e-01    1.711850e+00   5.002432e-02
  2.796227e-01    1.739370e+00   5.017541e-02
  2.818332e-01    1.689166e+00   4.919931e-02
  2.840436e-01    1.681912e+00   4.885560e-02
  2.862541e-01    1.717537e+00   4.913294e-02
  2.884646e-01    1.736426e+00   4.916797e-02
  2.906750e-01    1.697489e+00   4.838306e-02
  2.928855e-01    1.640313e+00   4.734088e-02
  2.950959e-01    1.635280e+00   4.705105e-02
  2.973064e-01    1.705518e+00   4.783493e-02
  2.995168e-01    1.665336e+00   4.705400e-02
  3.017273e-01    1.654104e+00   4.668830e-02
  3.039377e-01    1.651814e+00   4.645168e-02
  3.061482e-01    1.691479e+00   4.680273e-02
  3.083587e-01    1.701752e+00   4.674145e-02
  3.105691e-01    1.679071e+00   4.623061e-02
  3.127796e-01    1.675541e+00   4.598784e-02
  3.149900e-01    1.644995e+00   4.537687e-02
  3.172005e-01    1.643829e+00   4.517528e-02
  3.194109e-01    1.619529e+00   4.465504e-02
  3.216214e-01    1.624181e+00   4.453665e-02
  3.238319e-01    1.654336e+00   4.477011e-02
  3.260423e-01    1.602336e+00   4.388537e-02
  3.282528e-01    1.551470e+00   4.301129e-02
  3.304632e-01    1.586235e+00   4.332201e-02
  3.326737e-01    1.642304e+00   4.390903e-02
  3.348841e-01    1.645844e+00   4.378588e-02
  3.370946e-01    1.630010e+00   4.341079e-02
  3.393050e-01    1.629627e+00   4.324127e-02
  3.415155e-01    1.636150e+00   4.316483e-02
  3.437260e-01    1.535651e+00   4.166315e-02
  3.459364e-01    1.583409e+00   4.214953e-02
  3.481469e-01    1.561665e+00   4.170633e-02
  3.503573e-01    1.587620e+00   4.189828e-02
  3.525678e-01    1.613764e+00   4.209133e-02
  3.547782e-01    1.611169e+00   4.190547e-02
  3.569887e-01    1.565246e+00   4.115758e-02
  3.591992e-01    1.589881e+00   4.133344e-02
  3.614096e-01    1.544287e+00   4.059520e-02
  3.636201e-01    1.549358e+00   4.051891e-02
  3.658305e-01    1.557618e+00   4.048818e-02
  3.680410e-01    1.530921e+00   4.000168e-02
  3.702514e-01    1.509263e+00   3.958414e-02
  3.724619e-01    1.539561e+00   3.984332e-02
  3.746724e-01    1.545318e+00   3.978457e-02
  3.768828e-01    1.550256e+00   3.971399e-02
  3.790933e-01    1.577222e+00   3.992738e-02
  3.813037e-01    1.523298e+00   3.911053e-02
  3.835142e-01    1.542863e+00   3.923159e-02
  3.857246e-01    1.607189e+00   3.991152e-02
  3.879351e-01    1.540726e+00   3.895108e-02
  3.901455e-01    1.503934e+00   3.836067e-02
  3.923560e-01    1.551980e+00   3.884475e-02
  3.945665e-01    1.526022e+00   3.839638e-02
  3.967769e-01    1.556028e+00   3.865062e-02
  3.989874e-01    1.515982e+00   3.803090e-02
  4.011978e-01    1.504498e+00   3.777007e-02
  4.034083e-01    1.510414e+00   3.772807e-02
  4.056187e-01    1.535738e+00   3.792585e-02
  4.078292e-01    1.530039e+00   3.774083e-02
  4.100397e-01    1.598558e+00   3.845888e-02
  4.122501e-01    1.559759e+00   3.787564e-02
  4.144606e-01    1.540032e+00   3.752374e-02
  4.166710e-01    1.575914e+00   3.784551e-02
  4.188815e-01    1.551610e+00   3.744162e-02
  4.210919e-01    1.527920e+00   3.704581e-02
  4.233024e-01    1.556770e+00   3.728392e-02
  4.255128e-01    1.574374e+00   3.738577e-02
  4.277233e-01    1.556585e+00   3.706713e-02
  4.299338e-01    1.522409e+00   3.655249e-02
  4.321442e-01    1.527179e+00   3.650493e-02
  4.343547e-01    1.507120e+00   3.616186e-02
  4.365651e-01    1.508660e+00   3.607754e-02
  4.387756e-01    1.517278e+00   3.607913e-02
  4.409860e-01    1.530075e+00   3.613057e-02
  4.431965e-01    1.504668e+00   3.573028e-02
  4.454070e-01    1.504818e+00   3.563263e-02
  4.476174e-01    1.553146e+00   3.610091e-02
  4.498279e-01    1.498521e+00   3.536391e-02
  4.520383e-01    1.518071e+00   3.549613e-02
  4.542488e-01    1.523069e+00   3.545869e-02
  4.564592e-01    1.460896e+00   3.463423e-02
  4.586697e-01    1.482770e+00   3.479995e-02
  4.608801e-01    1.536835e+00   3.533380e-02
  4.630906e-01    1.479339e+00   3.457478e-02
  4.653011e-01    1.488558e+00   3.459112e-02
  4.675115e-01    1.498237e+00   3.461200e-02
  4.697220e-01    1.507581e+00   3.462887e-02
  4.719324e-01    1.507536e+00   3.453879e-02
  4.741429e-01    1.414666e+00   3.337181e-02
  4.763533e-01    1.467381e+00   3.390073e-02
  4.785638e-01    1.438212e+00   3.347543e-02
  4.807743e-01    1.430385e+00   3.329929e-02
  4.829847e-01    1.464371e+00   3.360746e-02
  4.851952e-01    1.503126e+00   3.396310e-02
  4.874056e-01    1.539960e+00   3.429006e-02
  4.896161e-01    1.469835e+00   3.341715e-02
  4.918265e-01    1.447669e+00   3.308185e-02
  4.940370e-01    1.443202e+00   3.294922e-02
  4.962475e-01    1.447293e+00   3.291440e-02
  4.984579e-01    1.455359e+00   3.292464e-02
  5.006684e-01    1.457784e+00   3.287174e-02
  5.028788e-01    1.426155e+00   3.243439e-02
  5.050893e-01    1.448444e+00   3.260734e-02
  5.072997e-01    1.490024e+00   3.299220e-02
  5.095102e-01    1.450697e+00   3.247594e-02
  5.117206e-01    1.431688e+00   3.218573e-02
  5.139311e-01    1.465658e+00   3.248828e-02
  5.161416e-01    1.442822e+00   3.215801e-02
  5.183520e-01    1.460560e+00   3.227819e-02
  5.205625e-01    1.429545e+00   3.185884e-02
  5.227729e-01    1.414959e+00   3.162195e-02
  5.249834e-01    1.461995e+00   3.206862e-02
  5.271938e-01    1.449060e+00   3.185195e-02
  5.294043e-01    1.477165e+00   3.208512e-02
  5.316148e-01    1.543400e+00   3.272147e-02
  5.338252e-01    1.539357e+00   3.260390e-02
  5.360357e-01    1.517634e+00   3.229935e-02
  5.382461e-01    1.514826e+00   3.219649e-02
  5.404566e-01    1.530949e+00   3.229374e-02
  5.426670e-01    1.526599e+00   3.217514e-02
  5.448775e-01    1.532369e+00   3.216389e-02
  5.470879e-01    1.513621e+00   3.189524e-02
  5.492984e-01    1.491846e+00   3.159457e-02
  5.515089e-01    1.495426e+00   3.156229e-02
  5.537193e-01    1.544536e+00   3.200569e-02
  5.559298e-01    1.530724e+00   3.179239e-02
  5.581402e-01    1.536098e+00   3.177856e-02
  5.603507e-01    1.519451e+00   3.153710e-02
  5.625611e-01    1.536856e+00   3.164838e-02
  5.647716e-01    1.559277e+00   3.180918e-02
  5.669821e-01    1.597887e+00   3.213118e-02
  5.691925e-01    1.556012e+00   3.163932e-02
  5.714030e-01    1.529322e+00   3.129991e-02
  5.736134e-01    1.486942e+00   3.079754e-02
  5.758239e-01    1.512564e+00   3.099543e-02
  5.780343e-01    1.459510e+00   3.038261e-02
  5.802448e-01    1.476913e+00   3.049920e-02
  5.824552e-01    1.456178e+00   3.022083e-02
  5.846657e-01    1.420336e+00   2.978437e-02
  5.868762e-01    1.387032e+00   2.937182e-02
  5.890866e-01    1.416904e+00   2.962481e-02
  5.912971e-01    1.440960e+00   2.981341e-02
  5.935075e-01    1.436845e+00   2.970927e-02
  5.957180e-01    1.431144e+00   2.958944e-02
  5.979284e-01    1.444125e+00   2.966265e-02
  6.001389e-01    1.471931e+00   2.988589e-02
  6.023494e-01    1.487459e+00   2.998211e-02
  6.045598e-01    1.451486e+00   2.955705e-02
  6.067703e-01    1.436147e+00   2.934133e-02
  6.089807e-01    1.437733e+00   2.929851e-02
  6.111912e-01    1.446808e+00   2.933213e-02
  6.134016e-01    1.499261e+00   2.979955e-02
  6.156121e-01    1.444511e+00   2.919226e-02
  6.178226e-01    1.433175e+00   2.901990e-02
  6.200330e-01    1.462636e+00   2.925882e-02
  6.222435e-01    1.465064e+00   2.922511e-02
  6.244539e-01    1.470176e+00   2.921871e-02
  6.266644e-01    1.475953e+00   2.921897e-02
  6.288748e-01    1.485211e+00   2.925342e-02
  6.310853e-01    1.502261e+00   2.936370e-02
  6.332957e-01    1.512591e+00   2.940762e-02
  6.355062e-01    1.495743e+00   2.918657e-02
  6.377167e-01    1.470643e+00   2.888511e-02
  6.399271e-01    1.472986e+00   2.885272e-02
  6.421376e-01    1.473783e+00   2.880544e-02
  6.443480e-01    1.443823e+00   2.845693e-02
  6.465585e-01    1.438788e+00   2.835342e-02
  6.487689e-01    1.461228e+00   2.851973e-02
  6.509794e-01    1.440455e+00   2.826289e-02
  6.531899e-01    1.420437e+00   2.801304e-02
  6.554003e-01    1.409658e+00   2.785407e-02
  6.576108e-01    1.397345e+00   2.768051e-02
  6.598212e-01    1.395828e+00   2.761410e-02
  6.620317e-01    1.398501e+00   2.758929e-02
  6.642421e-01    1.409472e+00   2.764604e-02
  6.664526e-01    1.441983e+00   2.791156e-02
  6.686630e-01    1.424808e+00   2.769354e-02
  6.708735e-01    1.406765e+00   2.746715e-02
  6.730840e-01    1.394860e+00   2.730081e-02
  6.752944e-01    1.399161e+00   2.729315e-02
  6.775049e-01    1.440676e+00   2.764481e-02
  6.797153e-01    1.418019e+00   2.737693e-02
  6.819258e-01    1.399022e+00   2.714386e-02
  6.841362e-01    1.412184e+00   2.722221e-02
  6.863467e-01    1.407372e+00   2.712711e-02
  6.885572e-01    1.420208e+00   2.720172e-02
  6.907676e-01    1.390125e+00   2.686385e-02
  6.929781e-01    1.407431e+00   2.698251e-02
  6.951885e-01    1.406352e+00   2.692438e-02
  6.973990e-01    1.392122e+00   2.674047e-02
  6.996094e-01    1.387996e+00   2.665385e-02
  7.018199e-01    1.387017e+00   2.659767e-02
  7.040303e-01    1.380635e+00   2.648979e-02
  7.062408e-01    1.399832e+00   2.662661e-02
  7.084513e-01    1.371806e+00   2.631287e-02
  7.106617e-01    1.386499e+00   2.640743e-02
  7.128722e-01    1.371461e+00   2.621839e-02
  7.150826e-01    1.419669e+00   2.662923e-02
  7.172931e-01    1.409821e+00   2.649097e-02
  7.195035e-01    1.364055e+00   2.601265e-02
  7.217140e-01    1.361531e+00   2.603455e-02
  7.239245e-01    1.323693e+00   2.587814e-02
  7.261349e-01    1.312381e+00   2.586646e-02
  7.283454e-01    1.354928e+00   2.634957e-02
  7.305558e-01    1.354466e+00   2.639516e-02
  7.327663e-01    1.355040e+00   2.644018e-02
  7.349767e-01    1.344034e+00   2.634770e-02
  7.371872e-01    1.391205e+00   2.679557e-02
  7.393976e-01    1.356856e+00   2.644948e-02
  7.416081e-01    1.358225e+00   2.644780e-02
  7.438186e-01    1.339302e+00   2.612981e-02
  7.460290e-01    1.359390e+00   2.605163e-02
  7.482395e-01    1.370929e+00   2.600227e-02
  7.504499e-01    1.366446e+00   2.583278e-02
  7.526604e-01    1.357884e+00   2.564349e-02
  7.548708e-01    1.344641e+00   2.543549e-02
  7.570813e-01    1.374478e+00   2.566854e-02
  7.592918e-01    1.343124e+00   2.534160e-02
  7.615022e-01    1.333293e+00   2.521756e-02
  7.637127e-01    1.371266e+00   2.554356e-02
  7.659231e-01    1.343832e+00   2.525719e-02
  7.681336e-01    1.364350e+00   2.541986e-02
  7.703440e-01    1.391403e+00   2.564129e-02
  7.725545e-01    1.389854e+00   2.559801e-02
  7.747650e-01    1.426169e+00   2.589392e-02
  7.769754e-01    1.409537e+00   2.569265e-02
  7.791859e-01    1.386641e+00   2.543293e-02
  7.813963e-01    1.370215e+00   2.523286e-02
  7.836068e-01    1.358989e+00   2.508112e-02
  7.858172e-01    1.382327e+00   2.524826e-02
  7.880277e-01    1.407283e+00   2.542671e-02
  7.902381e-01    1.362613e+00   2.497444e-02
  7.924486e-01    1.371142e+00   2.500607e-02
  7.946591e-01    1.406306e+00   2.527942e-02
  7.968695e-01    1.400880e+00   2.518547e-02
  7.990800e-01    1.389708e+00   2.504002e-02
  8.012904e-01    1.424413e+00   2.530686e-02
  8.035009e-01    1.445696e+00   2.544989e-02
  8.057113e-01    1.444598e+00   2.539622e-02
  8.079218e-01    1.436443e+00   2.528075e-02
  8.101323e-01    1.402175e+00   2.493496e-02
  8.123427e-01    1.422602e+00   2.507311e-02
  8.145532e-01    1.405164e+00   2.487634e-02
  8.167636e-01    1.431438e+00   2.506559e-02
  8.189741e-01    1.427364e+00   2.498819e-02
  8.211845e-01    1.452514e+00   2.516511e-02
  8.233950e-01    1.422841e+00   2.486625e-02
  8.256054e-01    1.409045e+00   2.470440e-02
  8.278159e-01    1.413113e+00   2.469917e-02
  8.300264e-01    1.451592e+00   2.499265e-02
  8.322368e-01    1.428721e+00   2.475472e-02
  8.344473e-01    1.421391e+00   2.465072e-02
  8.366577e-01    1.450756e+00   2.486401e-02
  8.388682e-01    1.392525e+00   2.432096e-02
  8.410786e-01    1.407144e+00   2.440930e-02
  8.432891e-01    1.442414e+00   2.467407e-02
  8.454996e-01    1.444693e+00   2.465448e-02
  8.477100e-01    1.420626e+00   2.440946e-02
  8.499205e-01    1.425740e+00   2.441495e-02
  8.521309e-01    1.395879e+00   2.412025e-02
  8.543414e-01    1.410491e+00   2.420833e-02
  8.565518e-01    1.412268e+00   2.418588e-02
  8.587623e-01    1.419444e+00   2.420948e-02
  8.609727e-01    1.414690e+00   2.413144e-02
  8.631832e-01    1.381385e+00   2.380892e-02
  8.653937e-01    1.384923e+00   2.380277e-02
  8.676041e-01    1.380388e+00   2.372790e-02
  8.698146e-01    1.398800e+00   2.384909e-02
  8.720250e-01    1.498009e+00   2.464273e-02
  8.742355e-01    1.597955e+00   2.541278e-02
  8.764459e-01    1.640304e+00   2.570809e-02
  8.786564e-01    1.529398e+00   2.478679e-02
  8.808669e-01    1.411677e+00   2.377763e-02
  8.830773e-01    1.395025e+00   2.360138e-02
  8.852878e-01    1.367478e+00   2.333216e-02
  8.874982e-01    1.341800e+00   2.307850e-02
  8.897087e-01    1.364589e+00   2.323888e-02
  8.919191e-01    1.356124e+00   2.313194e-02
  8.941296e-01    1.356114e+00   2.309751e-02
  8.963401e-01    1.363205e+00   2.312421e-02
  8.985505e-01    1.393474e+00   2.334504e-02
  9.007610e-01    1.389997e+00   2.328163e-02
  9.029714e-01    1.408986e+00   2.340651e-02
  9.051819e-01    1.425344e+00   2.350685e-02
  9.073923e-01    1.518082e+00   2.422389e-02
  9.096028e-01    1.398416e+00   2.321693e-02
  9.118132e-01    1.364725e+00   2.290208e-02
  9.140237e-01    1.358602e+00   2.281689e-02
  9.162342e-01    1.381000e+00   2.297210e-02
  9.184446e-01    1.394537e+00   2.305103e-02
  9.206551e-01    1.396423e+00   2.303337e-02
  9.228655e-01    1.388513e+00   2.293521e-02
  9.250760e-01    1.378626e+00   2.282060e-02
  9.272864e-01    1.389512e+00   2.287864e-02
  9.294969e-01    1.397272e+00   2.290899e-02
  9.317074e-01    1.380677e+00   2.274035e-02
  9.339178e-01    1.404897e+00   2.290762e-02
  9.361283e-01    1.418189e+00   2.298180e-02
  9.383387e-01    1.414949e+00   2.292431e-02
  9.405492e-01    1.440614e+00   2.309898e-02
  9.427596e-01    1.457348e+00   2.319931e-02
  9.449701e-01    1.445491e+00   2.307335e-02
  9.471805e-01    1.457742e+00   2.313809e-02
  9.493910e-01    1.480569e+00   2.328656e-02
  9.516015e-01    1.477176e+00   2.322738e-02
  9.538119e-01    1.508537e+00   2.344048e-02
  9.560224e-01    1.497486e+00   2.332160e-02
  9.582328e-01    1.475304e+00   2.311717e-02
  9.604433e-01    1.487424e+00   2.317905e-02
  9.626537e-01    1.511614e+00   2.333537e-02
  9.648642e-01    1.542943e+00   2.354364e-02
  9.670747e-01    1.563472e+00   2.366707e-02
  9.692851e-01    1.586872e+00   2.381183e-02
  9.714956e-01    1.592640e+00   2.382143e-02
  9.737060e-01    1.569941e+00   2.362001e-02
  9.759165e-01    1.561580e+00   2.352380e-02
  9.781269e-01    1.596120e+00   2.375141e-02
  9.803374e-01    1.606604e+00   2.379635e-02
  9.825478e-01    1.602572e+00   2.373510e-02
  9.847583e-01    1.649757e+00   2.404930e-02
  9.869688e-01    1.660876e+00   2.409790e-02
  9.891792e-01    1.729641e+00   2.455901e-02
  9.913897e-01    1.807943e+00   2.507488e-02
  9.936001e-01    1.701232e+00   2.429185e-02
  9.958106e-01    1.528230e+00   2.299228e-02
  9.980210e-01    1.463909e+00   2.247399e-02
  1.000231e+00    1.443983e+00   2.244279e-02
  1.002442e+00    1.449471e+00   2.260487e-02
  1.004652e+00    1.401264e+00   2.228780e-02
  1.006863e+00    1.402643e+00   2.234501e-02
  1.009073e+00    1.401937e+00   2.237361e-02
  1.011284e+00    1.368497e+00   2.213468e-02
  1.013494e+00    1.389694e+00   2.232760e-02
  1.015705e+00    1.390342e+00   2.235388e-02
  1.017915e+00    1.355366e+00   2.208616e-02
  1.020126e+00    1.317611e+00   2.179108e-02
  1.022336e+00    1.305585e+00   2.170208e-02
  1.024547e+00    1.319634e+00   2.182890e-02
  1.026757e+00    1.306900e+00   2.173100e-02
  1.028967e+00    1.325798e+00   2.189467e-02
  1.031178e+00    1.323330e+00   2.188002e-02
  1.033388e+00    1.302877e+00   2.171493e-02
  1.035599e+00    1.296829e+00   2.166761e-02
  1.037809e+00    1.314775e+00   2.182006e-02
  1.040020e+00    1.292061e+00   2.163192e-02
  1.042230e+00    1.316675e+00   2.183880e-02
  1.044441e+00    1.305986e+00   2.174979e-02
  1.046651e+00    1.269835e+00   2.144681e-02
  1.048862e+00    1.268951e+00   2.143858e-02
  1.051072e+00    1.264479e+00   2.139864e-02
  1.053282e+00    1.263425e+00   2.138882e-02
  1.055493e+00    1.294774e+00   2.164854e-02
  1.057703e+00    1.286453e+00   2.157750e-02
  1.059914e+00    1.249130e+00   2.125826e-02
  1.062124e+00    1.265342e+00   2.139203e-02
  1.064335e+00    1.263117e+00   2.137005e-02
  1.066545e+00    1.255213e+00   2.129755e-02
  1.068756e+00    1.265721e+00   2.138307e-02
  1.070966e+00    1.271893e+00   2.142907e-02
  1.073177e+00    1.262619e+00   2.134520e-02
  1.075387e+00    1.255999e+00   2.128433e-02
  1.077597e+00    1.234612e+00   2.109569e-02
  1.079808e+00    1.249425e+00   2.109924e-02
  1.082018e+00    1.231180e+00   2.077118e-02
  1.084229e+00    1.222454e+00   2.059675e-02
  1.086439e+00    1.241045e+00   2.067204e-02
  1.088650e+00    1.232543e+00   2.053144e-02
  1.090860e+00    1.264529e+00   2.073308e-02
  1.093071e+00    1.267164e+00   2.069656e-02
  1.095281e+00    1.267973e+00   2.064954e-02
  1.097492e+00    1.273287e+00   2.064126e-02
  1.099702e+00    1.224681e+00   2.019604e-02
  1.101912e+00    1.227070e+00   2.017063e-02
  1.104123e+00    1.213059e+00   2.001082e-02
  1.106333e+00    1.222385e+00   2.004656e-02
  1.108544e+00    1.243814e+00   2.018023e-02
  1.110754e+00    1.236449e+00   2.008036e-02
  1.112965e+00    1.242518e+00   2.009167e-02
  1.115175e+00    1.245929e+00   2.008068e-02
  1.117386e+00    1.220549e+00   1.983862e-02
  1.119596e+00    1.233240e+00   1.990609e-02
  1.121807e+00    1.231190e+00   1.985328e-02
  1.124017e+00    1.230394e+00   1.981258e-02
  1.126228e+00    1.214614e+00   1.965190e-02
  1.128438e+00    1.174178e+00   1.928833e-02
  1.130648e+00    1.208296e+00   1.953466e-02
  1.132859e+00    1.179435e+00   1.926839e-02
  1.135069e+00    1.209078e+00   1.947665e-02
  1.137280e+00    1.206551e+00   1.942556e-02
  1.139490e+00    1.193488e+00   1.928944e-02
  1.141701e+00    1.179971e+00   1.914933e-02
  1.143911e+00    1.182250e+00   1.913835e-02
  1.146122e+00    1.172232e+00   1.902760e-02
  1.148332e+00    1.189569e+00   1.913817e-02
  1.150543e+00    1.197437e+00   1.917263e-02
  1.152753e+00    1.192377e+00   1.910337e-02
  1.154963e+00    1.179871e+00   1.897415e-02
  1.157174e+00    1.171152e+00   1.887606e-02
  1.159384e+00    1.163770e+00   1.878898e-02
  1.161595e+00    1.193394e+00   1.899875e-02
  1.163805e+00    1.189803e+00   1.894290e-02
  1.166016e+00    1.145445e+00   1.855948e-02
  1.168226e+00    1.174714e+00   1.876826e-02
  1.170437e+00    1.184037e+00   1.881593e-02
  1.172647e+00    1.214308e+00   1.902769e-02
  1.174858e+00    1.225850e+00   1.909128e-02
  1.177068e+00    1.208109e+00   1.892603e-02
  1.179278e+00    1.168074e+00   1.858333e-02
  1.181489e+00    1.182354e+00   1.867138e-02
  1.183699e+00    1.172871e+00   1.857075e-02
  1.185910e+00    1.162872e+00   1.846571e-02
  1.188120e+00    1.194206e+00   1.868779e-02
  1.190331e+00    1.228251e+00   1.892683e-02
  1.192541e+00    1.206667e+00   1.873396e-02
  1.194752e+00    1.207258e+00   1.871299e-02
  1.196962e+00    1.176828e+00   1.845164e-02
  1.199173e+00    1.145085e+00   1.817667e-02
  1.201383e+00    1.170324e+00   1.835059e-02
  1.203593e+00    1.192876e+00   1.850324e-02
  1.205804e+00    1.191738e+00   1.847007e-02
  1.208014e+00    1.176157e+00   1.832386e-02
  1.210225e+00    1.214966e+00   1.859968e-02
  1.212435e+00    1.211570e+00   1.855021e-02
  1.214646e+00    1.180636e+00   1.828744e-02
  1.216856e+00    1.166209e+00   1.815167e-02
  1.219067e+00    1.195512e+00   1.835528e-02
  1.221277e+00    1.173868e+00   1.816505e-02
  1.223488e+00    1.140080e+00   1.787804e-02
  1.225698e+00    1.170784e+00   1.809212e-02
  1.227909e+00    1.178954e+00   1.812695e-02
  1.230119e+00    1.161996e+00   1.796658e-02
  1.232329e+00    1.144918e+00   1.780574e-02
  1.234540e+00    1.167412e+00   1.795165e-02
  1.236750e+00    1.152940e+00   1.781208e-02
  1.238961e+00    1.171464e+00   1.792944e-02
  1.241171e+00    1.192206e+00   1.806477e-02
  1.243382e+00    1.161817e+00   1.781125e-02
  1.245592e+00    1.165057e+00   1.781367e-02
  1.247803e+00    1.166456e+00   1.780237e-02
  1.250013e+00    1.165614e+00   1.777407e-02
  1.252224e+00    1.177582e+00   1.784338e-02
  1.254434e+00    1.182194e+00   1.785604e-02
  1.256644e+00    1.191651e+00   1.790555e-02
  1.258855e+00    1.168443e+00   1.770867e-02
  1.261065e+00    1.174146e+00   1.773005e-02
  1.263276e+00    1.151776e+00   1.753915e-02
  1.265486e+00    1.149849e+00   1.750334e-02
  1.267697e+00    1.150918e+00   1.749022e-02
  1.269907e+00    1.179788e+00   1.768701e-02
  1.272118e+00    1.179878e+00   1.766660e-02
  1.274328e+00    1.182992e+00   1.766861e-02
  1.276539e+00    1.174594e+00   1.758452e-02
  1.278749e+00    1.203662e+00   1.777973e-02
  1.280959e+00    1.170678e+00   1.751346e-02
  1.283170e+00    1.185724e+00   1.760461e-02
  1.285380e+00    1.186073e+00   1.758617e-02
  1.287591e+00    1.158569e+00   1.736066e-02
  1.289801e+00    1.188041e+00   1.756015e-02
  1.292012e+00    1.191827e+00   1.757208e-02
  1.294222e+00    1.192144e+00   1.755914e-02
  1.296433e+00    1.207073e+00   1.765399e-02
  1.298643e+00    1.200223e+00   1.758831e-02
  1.300854e+00    1.180766e+00   1.742980e-02
  1.303064e+00    1.185090e+00   1.744367e-02
  1.305274e+00    1.201524e+00   1.754398e-02
  1.307485e+00    1.177033e+00   1.734415e-02
  1.309695e+00    1.155177e+00   1.716178e-02
  1.311906e+00    1.202196e+00   1.748707e-02
  1.314116e+00    1.189572e+00   1.737552e-02
  1.316327e+00    1.187869e+00   1.734271e-02
  1.318537e+00    1.201096e+00   1.741838e-02
  1.320748e+00    1.213798e+00   1.748978e-02
  1.322958e+00    1.206949e+00   1.742098e-02
  1.325169e+00    1.218835e+00   1.748657e-02
  1.327379e+00    1.239643e+00   1.761431e-02
  1.329589e+00    1.209015e+00   1.737542e-02
  1.331800e+00    1.217617e+00   1.741745e-02
  1.334010e+00    1.225916e+00   1.745704e-02
  1.336221e+00    1.200981e+00   1.725806e-02
  1.338431e+00    1.208244e+00   1.729044e-02
  1.340642e+00    1.205838e+00   1.733385e-02
  1.342852e+00    1.197340e+00   1.736747e-02
  1.345063e+00    1.211562e+00   1.751720e-02
  1.347273e+00    1.190051e+00   1.739408e-02
  1.349484e+00    1.186066e+00   1.739088e-02
  1.351694e+00    1.170701e+00   1.729901e-02
  1.353905e+00    1.176906e+00   1.736159e-02
  1.356115e+00    1.165111e+00   1.728835e-02
  1.358325e+00    1.172336e+00   1.735429e-02
  1.360536e+00    1.164973e+00   1.731051e-02
  1.362746e+00    1.146094e+00   1.717847e-02
  1.364957e+00    1.141051e+00   1.714770e-02
  1.367167e+00    1.146066e+00   1.719192e-02
  1.369378e+00    1.130003e+00   1.707654e-02
  1.371588e+00    1.130423e+00   1.708442e-02
  1.373799e+00    1.162009e+00   1.732486e-02
  1.376009e+00    1.151194e+00   1.724724e-02
  1.378220e+00    1.146259e+00   1.721254e-02
  1.380430e+00    1.133460e+00   1.711869e-02
  1.382640e+00    1.133668e+00   1.712109e-02
  1.384851e+00    1.132305e+00   1.711162e-02
  1.387061e+00    1.116414e+00   1.699138e-02
  1.389272e+00    1.109418e+00   1.693826e-02
  1.391482e+00    1.097507e+00   1.684646e-02
  1.393693e+00    1.097560e+00   1.684604e-02
  1.395903e+00    1.118963e+00   1.700813e-02
  1.398114e+00    1.099700e+00   1.685981e-02
  1.400324e+00    1.126574e+00   1.706258e-02
  1.402535e+00    1.129164e+00   1.707999e-02
  1.404745e+00    1.118203e+00   1.699471e-02
  1.406955e+00    1.091681e+00   1.678942e-02
  1.409166e+00    1.118634e+00   1.699235e-02
  1.411376e+00    1.087046e+00   1.674782e-02
  1.413587e+00    1.099948e+00   1.684336e-02
  1.415797e+00    1.114025e+00   1.694750e-02
  1.418008e+00    1.104517e+00   1.683597e-02
  1.420218e+00    1.084403e+00   1.654362e-02
  1.422429e+00    1.059131e+00   1.627180e-02
  1.424639e+00    1.065316e+00   1.625998e-02
  1.426850e+00    1.093520e+00   1.642304e-02
  1.429060e+00    1.122113e+00   1.659033e-02
  1.431270e+00    1.146909e+00   1.673053e-02
  1.433481e+00    1.109897e+00   1.642008e-02
  1.435691e+00    1.122609e+00   1.647771e-02
  1.437902e+00    1.119886e+00   1.642348e-02
  1.440112e+00    1.111388e+00   1.632799e-02
  1.442323e+00    1.124593e+00   1.639358e-02
  1.444533e+00    1.144521e+00   1.650731e-02
  1.446744e+00    1.130407e+00   1.637585e-02
  1.448954e+00    1.128309e+00   1.633217e-02
  1.451165e+00    1.122501e+00   1.626213e-02
  1.453375e+00    1.095922e+00   1.604237e-02
  1.455586e+00    1.126272e+00   1.623646e-02
  1.457796e+00    1.126043e+00   1.620892e-02
  1.460006e+00    1.142449e+00   1.630071e-02
  1.462217e+00    1.133918e+00   1.621498e-02
  1.464427e+00    1.129509e+00   1.615926e-02
  1.466638e+00    1.090624e+00   1.585522e-02
  1.468848e+00    1.097512e+00   1.588160e-02
  1.471059e+00    1.135830e+00   1.613276e-02
  1.473269e+00    1.128457e+00   1.605733e-02
  1.475480e+00    1.100481e+00   1.583491e-02
  1.477690e+00    1.118839e+00   1.594403e-02
  1.479901e+00    1.129298e+00   1.599590e-02
  1.482111e+00    1.109589e+00   1.583389e-02
  1.484321e+00    1.091178e+00   1.568050e-02
  1.486532e+00    1.106111e+00   1.576658e-02
  1.488742e+00    1.099058e+00   1.569511e-02
  1.490953e+00    1.101791e+00   1.569351e-02
  1.493163e+00    1.089832e+00   1.558741e-02
  1.495374e+00    1.124196e+00   1.581097e-02
  1.497584e+00    1.124885e+00   1.579539e-02
  1.499795e+00    1.103781e+00   1.562626e-02
  1.502005e+00    1.103820e+00   1.560623e-02
  1.504216e+00    1.097091e+00   1.553895e-02
  1.506426e+00    1.103707e+00   1.556624e-02
  1.508636e+00    1.094752e+00   1.548389e-02
  1.510847e+00    1.099726e+00   1.549860e-02
  1.513057e+00    1.114835e+00   1.558108e-02
  1.515268e+00    1.110675e+00   1.552779e-02
  1.517478e+00    1.121589e+00   1.558009e-02
  1.519689e+00    1.140433e+00   1.568664e-02
  1.521899e+00    1.122325e+00   1.553976e-02
  1.524110e+00    1.117421e+00   1.548653e-02
  1.526320e+00    1.132672e+00   1.557325e-02
  1.528531e+00    1.136495e+00   1.558067e-02
  1.530741e+00    1.104092e+00   1.533897e-02
  1.532951e+00    1.097147e+00   1.527228e-02
  1.535162e+00    1.108704e+00   1.543408e-02
  1.537372e+00    1.086399e+00   1.534045e-02
  1.539583e+00    1.075817e+00   1.529732e-02
  1.541793e+00    1.082136e+00   1.534865e-02
  1.544004e+00    1.068861e+00   1.525446e-02
  1.546214e+00    1.069175e+00   1.525530e-02
  1.548425e+00    1.073886e+00   1.528911e-02
  1.550635e+00    1.074884e+00   1.530522e-02
  1.552846e+00    1.096469e+00   1.546718e-02
  1.555056e+00    1.073598e+00   1.526651e-02
  1.557266e+00    1.065720e+00   1.510817e-02
  1.559477e+00    1.066134e+00   1.505639e-02
  1.561687e+00    1.076212e+00   1.509887e-02
  1.563898e+00    1.077692e+00   1.509326e-02
  1.566108e+00    1.092121e+00   1.517904e-02
  1.568319e+00    1.073755e+00   1.503634e-02
  1.570529e+00    1.074035e+00   1.501497e-02
  1.572740e+00    1.076820e+00   1.500870e-02
  1.574950e+00    1.089911e+00   1.507507e-02
  1.577161e+00    1.077378e+00   1.496441e-02
  1.579371e+00    1.078356e+00   1.494919e-02
  1.581582e+00    1.071993e+00   1.488667e-02
  1.583792e+00    1.075760e+00   1.489604e-02
  1.586002e+00    1.067585e+00   1.482303e-02
  1.588213e+00    1.075208e+00   1.485980e-02
  1.590423e+00    1.082566e+00   1.489185e-02
  1.592634e+00    1.081943e+00   1.486741e-02
  1.594844e+00    1.103265e+00   1.499301e-02
  1.597055e+00    1.092591e+00   1.490111e-02
  1.599265e+00    1.083351e+00   1.481861e-02
  1.601476e+00    1.070812e+00   1.471374e-02
  1.603686e+00    1.087769e+00   1.481126e-02
  1.605897e+00    1.086280e+00   1.478226e-02
  1.608107e+00    1.078389e+00   1.471019e-02
  1.610317e+00    1.093262e+00   1.479314e-02
  1.612528e+00    1.110192e+00   1.488907e-02
  1.614738e+00    1.099154e+00   1.479697e-02
  1.616949e+00    1.072832e+00   1.460098e-02
  1.619159e+00    1.042611e+00   1.437656e-02
  1.621370e+00    1.070245e+00   1.454854e-02
  1.623580e+00    1.046865e+00   1.437173e-02
  1.625791e+00    1.030523e+00   1.424227e-02
  1.628001e+00    1.017444e+00   1.413479e-02
  1.630212e+00    1.029527e+00   1.420198e-02
  1.632422e+00    1.028682e+00   1.417948e-02
  1.634632e+00    1.046407e+00   1.428484e-02
  1.636843e+00    1.043929e+00   1.425141e-02
  1.639053e+00    1.030380e+00   1.414243e-02
  1.641264e+00    1.034667e+00   1.415572e-02
  1.643474e+00    1.028768e+00   1.409898e-02
  1.645685e+00    9.947584e-01   1.384852e-02
  1.647895e+00    9.943470e-01   1.383025e-02
  1.650106e+00    9.788476e-01   1.370637e-02
  1.652316e+00    9.609926e-01   1.356570e-02
  1.654527e+00    9.707287e-01   1.361888e-02
  1.656737e+00    9.674003e-01   1.358023e-02
  1.658947e+00    9.713223e-01   1.359266e-02
  1.661158e+00    9.664133e-01   1.354319e-02
  1.663368e+00    9.589387e-01   1.347593e-02
  1.665579e+00    9.290097e-01   1.324924e-02
  1.667789e+00    9.423836e-01   1.332934e-02
  1.670000e+00    9.412172e-01   1.330685e-02
  1.672210e+00    9.379163e-01   1.326890e-02
  1.674421e+00    9.399667e-01   1.326926e-02
  1.676631e+00    9.308015e-01   1.318981e-02
  1.678842e+00    9.358575e-01   1.321103e-02
  1.681052e+00    9.361104e-01   1.319860e-02
  1.683263e+00    9.311990e-01   1.314991e-02
  1.685473e+00    9.530689e-01   1.328925e-02
  1.687683e+00    9.187620e-01   1.303368e-02
  1.689894e+00    9.133435e-01   1.298068e-02
  1.692104e+00    9.253531e-01   1.305192e-02
  1.694315e+00    9.039412e-01   1.288671e-02
  1.696525e+00    9.074025e-01   1.289740e-02
  1.698736e+00    8.967122e-01   1.280760e-02
  1.700946e+00    8.935943e-01   1.277141e-02
  1.703157e+00    8.981370e-01   1.279036e-02
  1.705367e+00    8.859674e-01   1.269010e-02
  1.707578e+00    8.727186e-01   1.258157e-02
  1.709788e+00    8.829393e-01   1.264205e-02
  1.711998e+00    8.751456e-01   1.257238e-02
  1.714209e+00    8.894343e-01   1.266125e-02
  1.716419e+00    8.943960e-01   1.268325e-02
  1.718630e+00    8.875136e-01   1.262112e-02
  1.720840e+00    8.864884e-01   1.260065e-02
  1.723051e+00    8.671313e-01   1.244957e-02
  1.725261e+00    8.748848e-01   1.249151e-02
  1.727472e+00    8.715163e-01   1.245435e-02
  1.729682e+00    8.355536e-01   1.218246e-02
  1.731893e+00    8.466507e-01   1.225036e-02
  1.734103e+00    8.366202e-01   1.216503e-02
  1.736313e+00    8.503593e-01   1.225162e-02
  1.738524e+00    8.459074e-01   1.220681e-02
  1.740734e+00    8.541166e-01   1.225323e-02
  1.742945e+00    8.337816e-01   1.209419e-02
  1.745155e+00    8.328872e-01   1.207537e-02
  1.747366e+00    8.315250e-01   1.205281e-02
  1.749576e+00    8.277594e-01   1.201300e-02
  1.751787e+00    8.214391e-01   1.195482e-02
  1.753997e+00    8.088117e-01   1.185043e-02
  1.756208e+00    8.258157e-01   1.196220e-02
  1.758418e+00    8.253008e-01   1.194638e-02
  1.760628e+00    8.422180e-01   1.205576e-02
  1.762839e+00    8.070817e-01   1.178954e-02
  1.765049e+00    7.867002e-01   1.162783e-02
  1.767260e+00    7.998914e-01   1.171323e-02
  1.769470e+00    7.888156e-01   1.162005e-02
  1.771681e+00    7.819349e-01   1.155735e-02
  1.773891e+00    8.079271e-01   1.173582e-02
  1.776102e+00    8.186456e-01   1.180147e-02
  1.778312e+00    7.859873e-01   1.155206e-02
  1.780523e+00    7.825488e-01   1.151516e-02
  1.782733e+00    7.759042e-01   1.145462e-02
  1.784944e+00    8.066565e-01   1.166744e-02
  1.787154e+00    7.880380e-01   1.152051e-02
  1.789364e+00    7.640820e-01   1.133274e-02
  1.791575e+00    7.525877e-01   1.123587e-02
  1.793785e+00    7.683209e-01   1.134137e-02
  1.795996e+00    7.558638e-01   1.123774e-02
  1.798206e+00    7.522247e-01   1.119931e-02
  1.800417e+00    7.589914e-01   1.123804e-02
  1.802627e+00    7.557116e-01   1.120288e-02
  1.804838e+00    7.703927e-01   1.130004e-02
  1.807048e+00    7.590488e-01   1.120482e-02
  1.809259e+00    7.587383e-01   1.119006e-02
  1.811469e+00    7.636377e-01   1.121242e-02
  1.813679e+00    7.594454e-01   1.116783e-02
  1.815890e+00    7.494929e-01   1.108095e-02
  1.818100e+00    7.537957e-01   1.109886e-02
  1.820311e+00    7.374014e-01   1.096410e-02
  1.822521e+00    7.206234e-01   1.082528e-02
  1.824732e+00    7.393196e-01   1.095130e-02
  1.826942e+00    7.346780e-01   1.090564e-02
  1.829153e+00    7.448087e-01   1.096987e-02
  1.831363e+00    7.502599e-01   1.099883e-02
  1.833574e+00    7.632908e-01   1.108309e-02
  1.835784e+00    7.373933e-01   1.088298e-02
  1.837994e+00    7.440011e-01   1.092084e-02
  1.840205e+00    7.521501e-01   1.097012e-02
  1.842415e+00    7.500005e-01   1.094354e-02
  1.844626e+00    7.483182e-01   1.092053e-02
  1.846836e+00    7.652441e-01   1.103261e-02
  1.849047e+00    7.878662e-01   1.118342e-02
  1.851257e+00    7.574377e-01   1.095640e-02
  1.853468e+00    7.435247e-01   1.084712e-02
  1.855678e+00    7.120795e-01   1.060720e-02
  1.857889e+00    7.106391e-01   1.058871e-02
  1.860099e+00    7.254267e-01   1.069038e-02
  1.862309e+00    7.224181e-01   1.066038e-02
  1.864520e+00    7.150946e-01   1.059836e-02
  1.866730e+00    7.374369e-01   1.075394e-02
  1.868941e+00    7.189879e-01   1.060853e-02
  1.871151e+00    7.152722e-01   1.057063e-02
  1.873362e+00    7.274346e-01   1.064963e-02
  1.875572e+00    7.285161e-01   1.064742e-02
  1.877783e+00    7.314737e-01   1.065839e-02
  1.879993e+00    7.400491e-01   1.071027e-02
  1.882204e+00    7.150849e-01   1.051805e-02
  1.884414e+00    6.942159e-01   1.035338e-02
  1.886624e+00    7.174883e-01   1.051526e-02
  1.888835e+00    7.632696e-01   1.083509e-02
  1.891045e+00    7.939060e-01   1.103986e-02
  1.893256e+00    7.643622e-01   1.082193e-02
  1.895466e+00    7.117350e-01   1.043242e-02
  1.897677e+00    6.919108e-01   1.027616e-02
  1.899887e+00    7.083907e-01   1.038768e-02
  1.902098e+00    7.322769e-01   1.055119e-02
  1.904308e+00    7.390287e-01   1.058975e-02
  1.906519e+00    7.285290e-01   1.050411e-02
  1.908729e+00    7.091084e-01   1.035335e-02
  1.910940e+00    7.054476e-01   1.031630e-02
  1.913150e+00    7.220535e-01   1.042713e-02
  1.915360e+00    6.836150e-01   1.013612e-02
  1.917571e+00    6.962401e-01   1.021927e-02
  1.919781e+00    7.131056e-01   1.033235e-02
  1.921992e+00    6.972183e-01   1.020683e-02
  1.924202e+00    7.065563e-01   1.026492e-02
  1.926413e+00    6.991757e-01   1.020166e-02
  1.928623e+00    7.016266e-01   1.020973e-02
  1.930834e+00    6.879744e-01   1.010032e-02
  1.933044e+00    6.944876e-01   1.013814e-02
  1.935255e+00    6.946257e-01   1.012960e-02
  1.937465e+00    6.679418e-01   9.923680e-03
  1.939675e+00    6.708328e-01   9.935225e-03
  1.941886e+00    6.816952e-01   1.000588e-02
  1.944096e+00    6.842341e-01   1.001510e-02
  1.946307e+00    6.851414e-01   1.001219e-02
  1.948517e+00    6.766331e-01   9.940214e-03
  1.950728e+00    6.593171e-01   9.802901e-03
  1.952938e+00    6.567425e-01   9.774572e-03
  1.955149e+00    6.645876e-01   9.823440e-03
  1.957359e+00    6.649335e-01   9.816815e-03
  1.959570e+00    6.644147e-01   9.803036e-03
  1.961780e+00    6.710724e-01   9.842916e-03
  1.963990e+00    6.791824e-01   9.892850e-03
  1.966201e+00    6.721479e-01   9.832201e-03
  1.968411e+00    6.737208e-01   9.834329e-03
  1.970622e+00    6.691570e-01   9.791650e-03
  1.972832e+00    6.834315e-01   9.886253e-03
  1.975043e+00    6.581056e-01   9.692181e-03
  1.977253e+00    6.549882e-01   9.660074e-03
  1.979464e+00    6.659223e-01   9.731127e-03
  1.981674e+00    6.878625e-01   9.880513e-03
  1.983885e+00    6.829292e-01   9.835670e-03
  1.986095e+00    6.714815e-01   9.743882e-03
  1.988305e+00    6.537167e-01   9.605058e-03
  1.990516e+00    6.748866e-01   9.750097e-03
  1.992726e+00    6.872675e-01   9.830050e-03
  1.994937e+00    6.784328e-01   9.757197e-03
  1.997147e+00    6.814211e-01   9.769550e-03
  1.999358e+00    6.551059e-01   9.569992e-03
  2.001568e+00    6.623911e-01   9.613039e-03
  2.003779e+00    6.514915e-01   9.522698e-03
  2.005989e+00    6.559839e-01   9.544365e-03
  2.008200e+00    6.559790e-01   9.533705e-03
  2.010410e+00    6.539890e-01   9.508396e-03
  2.012621e+00    6.546279e-01   9.502250e-03
  2.014831e+00    6.554942e-01   9.497905e-03
  2.017041e+00    6.652496e-01   9.558675e-03
  2.019252e+00    6.584562e-01   9.500505e-03
  2.021462e+00    6.482330e-01   9.417702e-03
  2.023673e+00    6.575849e-01   9.476693e-03
  2.025883e+00    6.505735e-01   9.417245e-03
  2.028094e+00    6.495132e-01   9.400664e-03
  2.030304e+00    6.567414e-01   9.443996e-03
  2.032515e+00    6.330054e-01   9.263260e-03
  2.034725e+00    6.354793e-01   9.272704e-03
  2.036936e+00    6.371128e-01   9.276051e-03
  2.039146e+00    6.509193e-01   9.367145e-03
  2.041356e+00    6.684752e-01   9.483563e-03
  2.043567e+00    6.830892e-01   9.577802e-03
  2.045777e+00    7.081895e-01   9.743250e-03
  2.047988e+00    6.934796e-01   9.632557e-03
  2.050198e+00    6.497090e-01   9.315807e-03
  2.052409e+00    6.465917e-01   9.286297e-03
  2.054619e+00    6.460728e-01   9.275736e-03
  2.056830e+00    6.489494e-01   9.289711e-03
  2.059040e+00    6.523129e-01   9.306735e-03
  2.061251e+00    6.520540e-01   9.298132e-03
  2.063461e+00    6.470771e-01   9.255537e-03
  2.065671e+00    6.360601e-01   9.168357e-03
  2.067882e+00    6.360705e-01   9.160132e-03
  2.070092e+00    6.326874e-01   9.127287e-03
  2.072303e+00    6.282986e-01   9.087177e-03
  2.074513e+00    6.496019e-01   9.231247e-03
  2.076724e+00    6.411648e-01   9.162341e-03
  2.078934e+00    6.273695e-01   9.054948e-03
  2.081145e+00    6.445658e-01   9.169755e-03
  2.083355e+00    6.388843e-01   9.120739e-03
  2.085566e+00    6.313679e-01   9.058705e-03
  2.087776e+00    6.269606e-01   9.018289e-03
  2.089986e+00    6.246041e-01   8.993232e-03
  2.092197e+00    6.162614e-01   8.924788e-03
  2.094407e+00    6.129026e-01   8.892015e-03
  2.096618e+00    6.157385e-01   8.904410e-03
  2.098828e+00    6.198628e-01   8.925631e-03
  2.101039e+00    6.256492e-01   8.958906e-03
  2.103249e+00    6.268910e-01   8.959755e-03
  2.105460e+00    6.113600e-01   8.839850e-03
  2.107670e+00    5.979956e-01   8.734751e-03
  2.109881e+00    6.081255e-01   8.800053e-03
  2.112091e+00    6.122897e-01   8.821867e-03
  2.114301e+00    6.132825e-01   8.820954e-03
  2.116512e+00    5.966890e-01   8.692817e-03
  2.118722e+00    5.937516e-01   8.663376e-03
  2.120933e+00    6.049200e-01   8.736360e-03
  2.123143e+00    5.980308e-01   8.678347e-03
  2.125354e+00    5.979000e-01   8.669613e-03
  2.127564e+00    5.994390e-01   8.672770e-03
  2.129775e+00    5.986983e-01   8.659443e-03
  2.131985e+00    5.896993e-01   8.585869e-03
  2.134196e+00    6.036351e-01   8.678845e-03
  2.136406e+00    5.959412e-01   8.615346e-03
  2.138617e+00    6.270138e-01   8.829134e-03
  2.140827e+00    6.384504e-01   8.924567e-03
  2.143037e+00    6.156126e-01   8.805932e-03
  2.145248e+00    5.957566e-01   8.682951e-03
  2.147458e+00    5.930078e-01   8.676798e-03
  2.149669e+00    5.865716e-01   8.640392e-03
  2.151879e+00    5.898855e-01   8.673226e-03
  2.154090e+00    5.920892e-01   8.696130e-03
  2.156300e+00    5.991499e-01   8.753938e-03
  2.158511e+00    5.944059e-01   8.724107e-03
  2.160721e+00    5.798357e-01   8.620906e-03
  2.162932e+00    5.794449e-01   8.621411e-03
  2.165142e+00    5.807014e-01   8.633500e-03
  2.167352e+00    5.728324e-01   8.577455e-03
  2.169563e+00    5.793025e-01   8.627542e-03
  2.171773e+00    5.766131e-01   8.609715e-03
  2.173984e+00    5.892739e-01   8.705035e-03
  2.176194e+00    5.866151e-01   8.686472e-03
  2.178405e+00    5.803962e-01   8.640962e-03
  2.180615e+00    5.778818e-01   8.622818e-03
  2.182826e+00    5.873923e-01   8.694134e-03
  2.185036e+00    5.816119e-01   8.651283e-03
  2.187247e+00    5.864727e-01   8.687317e-03
  2.189457e+00    5.810448e-01   8.646656e-03
  2.191667e+00    5.807013e-01   8.643927e-03
  2.193878e+00    5.912713e-01   8.721720e-03
  2.196088e+00    5.817294e-01   8.650430e-03
  2.198299e+00    5.851839e-01   8.675067e-03
  2.200509e+00    5.870596e-01   8.687980e-03
  2.202720e+00    5.890792e-01   8.701835e-03
  2.204930e+00    5.881408e-01   8.693763e-03
  2.207141e+00    5.778725e-01   8.616509e-03
  2.209351e+00    5.760980e-01   8.601526e-03
  2.211562e+00    5.813184e-01   8.638911e-03
  2.213772e+00    5.750899e-01   8.541379e-03
  2.215982e+00    5.617989e-01   8.401788e-03
  2.218193e+00    5.641899e-01   8.392568e-03
  2.220403e+00    5.652725e-01   8.378108e-03
  2.222614e+00    5.727870e-01   8.414296e-03
  2.224824e+00    5.693678e-01   8.371324e-03
  2.227035e+00    5.721114e-01   8.375402e-03
  2.229245e+00    5.664818e-01   8.318491e-03
  2.231456e+00    5.682433e-01   8.317052e-03
  2.233666e+00    5.656374e-01   8.284098e-03
  2.235877e+00    5.727473e-01   8.322825e-03
  2.238087e+00    5.567392e-01   8.193401e-03
  2.240298e+00    5.604120e-01   8.207760e-03
  2.242508e+00    5.686405e-01   8.253875e-03
  2.244718e+00    5.661411e-01   8.221156e-03
  2.246929e+00    5.727393e-01   8.255579e-03
  2.249139e+00    5.608827e-01   8.158339e-03
  2.251350e+00    5.679669e-01   8.198874e-03
  2.253560e+00    5.636097e-01   8.156761e-03
  2.255771e+00    5.549800e-01   8.083642e-03
  2.257981e+00    5.432425e-01   7.987595e-03
  2.260192e+00    5.608655e-01   8.105913e-03
  2.262402e+00    5.473737e-01   7.997992e-03
  2.264613e+00    5.466427e-01   7.982790e-03
  2.266823e+00    5.525945e-01   8.016656e-03
  2.269033e+00    5.535514e-01   8.014099e-03
  2.271244e+00    5.615193e-01   8.061999e-03
  2.273454e+00    5.869926e-01   8.233174e-03
  2.275665e+00    5.781603e-01   8.161395e-03
  2.277875e+00    5.590370e-01   8.016147e-03
  2.280086e+00    5.694812e-01   8.081344e-03
  2.282296e+00    5.734647e-01   8.100791e-03
  2.284507e+00    5.610586e-01   8.003350e-03
  2.286717e+00    5.602207e-01   7.988620e-03
  2.288928e+00    5.513158e-01   7.915843e-03
  2.291138e+00    5.647751e-01   8.003152e-03
  2.293348e+00    5.506702e-01   7.893831e-03
  2.295559e+00    5.657185e-01   7.992310e-03
  2.297769e+00    5.582754e-01   7.931028e-03
  2.299980e+00    5.560943e-01   7.906903e-03
  2.302190e+00    5.536752e-01   7.881293e-03
  2.304401e+00    5.431793e-01   7.797719e-03
  2.306611e+00    5.576473e-01   7.892376e-03
  2.308822e+00    5.574529e-01   7.883251e-03
  2.311032e+00    5.371774e-01   7.732703e-03
  2.313243e+00    5.482062e-01   7.805888e-03
  2.315453e+00    5.567157e-01   7.859254e-03
  2.317663e+00    5.446791e-01   7.765449e-03
  2.319874e+00    5.383039e-01   7.711915e-03
  2.322084e+00    5.328097e-01   7.664306e-03
  2.324295e+00    5.416885e-01   7.720354e-03
  2.326505e+00    5.473657e-01   7.752384e-03
  2.328716e+00    5.325422e-01   7.638901e-03
  2.330926e+00    5.446645e-01   7.717264e-03
  2.333137e+00    5.436890e-01   7.702630e-03
  2.335347e+00    5.555650e-01   7.778048e-03
  2.337558e+00    5.569568e-01   7.780127e-03
  2.339768e+00    5.479487e-01   7.709014e-03
  2.341979e+00    5.432816e-01   7.668391e-03
  2.344189e+00    5.384818e-01   7.626735e-03
  2.346399e+00    5.420331e-01   7.643994e-03
  2.348610e+00    5.441105e-01   7.650818e-03
  2.350820e+00    5.266030e-01   7.519252e-03
  2.353031e+00    5.517010e-01   7.688629e-03
  2.355241e+00    5.501059e-01   7.670007e-03
  2.357452e+00    5.450292e-01   7.626713e-03
  2.359662e+00    5.414116e-01   7.593752e-03
  2.361873e+00    5.425380e-01   7.593996e-03
  2.364083e+00    5.505657e-01   7.642510e-03
  2.366294e+00    5.510741e-01   7.638439e-03
  2.368504e+00    5.386873e-01   7.544638e-03
  2.370714e+00    5.201931e-01   7.406618e-03
  2.372925e+00    5.354736e-01   7.507172e-03
  2.375135e+00    5.336681e-01   7.487059e-03
  2.377346e+00    5.074568e-01   7.293725e-03
  2.379556e+00    5.211145e-01   7.383971e-03
  2.381767e+00    5.210795e-01   7.376542e-03
  2.383977e+00    5.267982e-01   7.409601e-03
  2.386188e+00    5.155924e-01   7.323151e-03
  2.388398e+00    5.166229e-01   7.323176e-03
  2.390609e+00    5.196232e-01   7.337344e-03
  2.392819e+00    5.238089e-01   7.359648e-03
  2.395029e+00    5.374504e-01   7.447717e-03
  2.397240e+00    5.414031e-01   7.467674e-03
  2.399450e+00    5.282268e-01   7.368997e-03
  2.401661e+00    5.276110e-01   7.357577e-03
  2.403871e+00    5.205122e-01   7.300738e-03
  2.406082e+00    5.237909e-01   7.316813e-03
  2.408292e+00    5.229834e-01   7.303953e-03
  2.410503e+00    5.189749e-01   7.268999e-03
  2.412713e+00    5.073176e-01   7.179760e-03
  2.414924e+00    5.029075e-01   7.141676e-03
  2.417134e+00    5.021400e-01   7.129249e-03
  2.419344e+00    5.114567e-01   7.188272e-03
  2.421555e+00    5.117827e-01   7.183629e-03
  2.423765e+00    5.299710e-01   7.303221e-03
  2.425976e+00    5.167615e-01   7.204387e-03
  2.428186e+00    5.151751e-01   7.186623e-03
  2.430397e+00    5.271206e-01   7.262416e-03
  2.432607e+00    5.375664e-01   7.327132e-03
  2.434818e+00    5.166207e-01   7.175946e-03
  2.437028e+00    5.155382e-01   7.161746e-03
  2.439239e+00    5.085996e-01   7.106320e-03
  2.441449e+00    5.053011e-01   7.076585e-03
  2.443659e+00    4.708016e-01   6.824188e-03
  2.445870e+00    4.678971e-01   6.813985e-03
  2.448080e+00    4.918638e-01   7.018303e-03
  2.450291e+00    4.972214e-01   7.071838e-03
  2.452501e+00    4.769610e-01   6.936418e-03
  2.454712e+00    4.836468e-01   6.992602e-03
  2.456922e+00    4.730149e-01   6.921350e-03
  2.459133e+00    4.630851e-01   6.853225e-03
  2.461343e+00    4.687345e-01   6.898852e-03
  2.463554e+00    4.708488e-01   6.917555e-03
  2.465764e+00    4.664288e-01   6.887879e-03
  2.467975e+00    4.623161e-01   6.859525e-03
  2.470185e+00    4.540069e-01   6.799616e-03
  2.472395e+00    4.718944e-01   6.933407e-03
  2.474606e+00    4.515594e-01   6.783784e-03
  2.476816e+00    4.613872e-01   6.857885e-03
  2.479027e+00    4.552643e-01   6.813001e-03
  2.481237e+00    4.469481e-01   6.750739e-03
  2.483448e+00    4.518219e-01   6.787718e-03
  2.485658e+00    4.527673e-01   6.794680e-03
  2.487869e+00    4.553670e-01   6.814199e-03
  2.490079e+00    4.581575e-01   6.834574e-03
  2.492290e+00    4.523921e-01   6.791029e-03
  2.494500e+00    4.507699e-01   6.778178e-03
  2.496710e+00    4.450979e-01   6.734775e-03
  2.498921e+00    4.350123e-01   6.657127e-03
  2.501131e+00    4.539729e-01   6.799773e-03
  2.503342e+00    4.594128e-01   6.839236e-03
  2.505552e+00    4.476896e-01   6.750377e-03
  2.507763e+00    4.400221e-01   6.691029e-03
  2.509973e+00    4.357884e-01   6.657486e-03
  2.512184e+00    4.433308e-01   6.713372e-03
  2.514394e+00    4.520239e-01   6.770201e-03
  2.516605e+00    4.474328e-01   6.692359e-03
  2.518815e+00    4.449072e-01   6.647386e-03
  2.521025e+00    4.498989e-01   6.665166e-03
  2.523236e+00    4.509403e-01   6.656241e-03
  2.525446e+00    4.411150e-01   6.569013e-03
  2.527657e+00    4.489048e-01   6.613271e-03
  2.529867e+00    4.340667e-01   6.490157e-03
  2.532078e+00    4.361226e-01   6.491806e-03
  2.534288e+00    4.421851e-01   6.524010e-03
  2.536499e+00    4.487802e-01   6.561463e-03
  2.538709e+00    4.328576e-01   6.434020e-03
  2.540920e+00    4.299359e-01   6.402610e-03
  2.543130e+00    4.358531e-01   6.437087e-03
  2.545340e+00    4.319512e-01   6.399063e-03
  2.547551e+00    4.368267e-01   6.425974e-03
  2.549761e+00    4.417717e-01   6.453438e-03
  2.551972e+00    4.496751e-01   6.502230e-03
  2.554182e+00    4.505832e-01   6.500264e-03
  2.556393e+00    4.431200e-01   6.437822e-03
  2.558603e+00    4.321036e-01   6.349018e-03
  2.560814e+00    4.410928e-01   6.406702e-03
  2.563024e+00    4.383571e-01   6.378927e-03
  2.565235e+00    4.387754e-01   6.373217e-03
  2.567445e+00    4.339023e-01   6.329008e-03
  2.569656e+00    4.277480e-01   6.275092e-03
  2.571866e+00    4.310867e-01   6.291006e-03
  2.574076e+00    4.367177e-01   6.323438e-03
  2.576287e+00    4.393377e-01   6.334693e-03
  2.578497e+00    4.233548e-01   6.211312e-03
  2.580708e+00    4.345154e-01   6.285199e-03
  2.582918e+00    4.406100e-01   6.321953e-03
  2.585129e+00    4.291511e-01   6.232135e-03
  2.587339e+00    4.352946e-01   6.269519e-03
  2.589550e+00    4.229330e-01   6.172992e-03
  2.591760e+00    4.342230e-01   6.247716e-03
  2.593971e+00    4.340521e-01   6.239557e-03
  2.596181e+00    4.129524e-01   6.080429e-03
  2.598391e+00    4.161653e-01   6.099343e-03
  2.600602e+00    4.225641e-01   6.140659e-03
  2.602812e+00    4.322776e-01   6.203903e-03
  2.605023e+00    4.269048e-01   6.158673e-03
  2.607233e+00    4.155055e-01   6.069428e-03
  2.609444e+00    4.253863e-01   6.134548e-03
  2.611654e+00    4.286416e-01   6.151235e-03
  2.613865e+00    4.221710e-01   6.098225e-03
  2.616075e+00    4.157969e-01   6.045521e-03
  2.618286e+00    4.330589e-01   6.163273e-03
  2.620496e+00    4.314803e-01   6.145843e-03
  2.622706e+00    4.182647e-01   6.045761e-03
  2.624917e+00    4.299098e-01   6.123940e-03
  2.627127e+00    4.316633e-01   6.131112e-03
  2.629338e+00    4.324653e-01   6.131272e-03
  2.631548e+00    4.231501e-01   6.059209e-03
  2.633759e+00    4.178765e-01   6.014820e-03
  2.635969e+00    4.233005e-01   6.047593e-03
  2.638180e+00    4.154036e-01   5.984561e-03
  2.640390e+00    4.228578e-01   6.031924e-03
  2.642601e+00    4.346063e-01   6.108969e-03
  2.644811e+00    4.329674e-01   6.090846e-03
  2.647021e+00    4.245088e-01   6.025018e-03
  2.649232e+00    4.225591e-01   6.004977e-03
  2.651442e+00    4.178384e-01   5.965388e-03
  2.653653e+00    4.271560e-01   6.025248e-03
  2.655863e+00    4.232034e-01   5.991164e-03
  2.658074e+00    4.220567e-01   5.976937e-03
  2.660284e+00    4.250296e-01   5.992088e-03
  2.662495e+00    4.103672e-01   5.881684e-03
  2.664705e+00    4.247264e-01   5.977632e-03
  2.666916e+00    4.176043e-01   5.921371e-03
  2.669126e+00    4.218295e-01   5.945300e-03
  2.671337e+00    4.150580e-01   5.891366e-03
  2.673547e+00    4.256561e-01   5.960174e-03
  2.675757e+00    4.249123e-01   5.949006e-03
  2.677968e+00    4.284378e-01   5.967562e-03
  2.680178e+00    4.172435e-01   5.883195e-03
  2.682389e+00    4.061680e-01   5.798789e-03
  2.684599e+00    4.128104e-01   5.840351e-03
  2.686810e+00    4.099429e-01   5.813985e-03
  2.689020e+00    4.179744e-01   5.864875e-03
  2.691231e+00    4.140838e-01   5.831736e-03
  2.693441e+00    4.195384e-01   5.864341e-03
  2.695652e+00    4.253352e-01   5.898649e-03
  2.697862e+00    4.113322e-01   5.794928e-03
  2.700072e+00    4.123934e-01   5.796802e-03
  2.702283e+00    4.255923e-01   5.883045e-03
  2.704493e+00    4.159974e-01   5.810565e-03
  2.706704e+00    4.049235e-01   5.726868e-03
  2.708914e+00    4.062388e-01   5.730711e-03
  2.711125e+00    4.080125e-01   5.737490e-03
  2.713335e+00    4.140573e-01   5.774236e-03
  2.715546e+00    4.080791e-01   5.726477e-03
  2.717756e+00    4.191053e-01   5.797859e-03
  2.719967e+00    4.159890e-01   5.770532e-03
  2.722177e+00    3.962144e-01   5.626168e-03
  2.724387e+00    4.135428e-01   5.742230e-03
  2.726598e+00    4.093787e-01   5.707698e-03
  2.728808e+00    4.114704e-01   5.716600e-03
  2.731019e+00    4.122415e-01   5.716305e-03
  2.733229e+00    4.068165e-01   5.673249e-03
  2.735440e+00    4.067439e-01   5.666983e-03
  2.737650e+00    4.092053e-01   5.678587e-03
  2.739861e+00    3.954051e-01   5.576519e-03
  2.742071e+00    3.995371e-01   5.600353e-03
  2.744282e+00    4.046487e-01   5.630333e-03
  2.746492e+00    4.135916e-01   5.686628e-03
  2.748702e+00    4.117909e-01   5.668788e-03
  2.750913e+00    3.980622e-01   5.568217e-03
  2.753123e+00    4.036314e-01   5.601439e-03
  2.755334e+00    4.177848e-01   5.693120e-03
  2.757544e+00    4.125683e-01   5.652175e-03
  2.759755e+00    4.059436e-01   5.601190e-03
  2.761965e+00    4.120874e-01   5.637864e-03
  2.764176e+00    4.223783e-01   5.702231e-03
  2.766386e+00    4.096668e-01   5.610413e-03
  2.768597e+00    4.095415e-01   5.604145e-03
  2.770807e+00    4.007385e-01   5.538200e-03
  2.773017e+00    4.040418e-01   5.555510e-03
  2.775228e+00    3.883604e-01   5.441418e-03
  2.777438e+00    3.903247e-01   5.449910e-03
  2.779649e+00    4.064765e-01   5.556089e-03
  2.781859e+00    4.048193e-01   5.539467e-03
  2.784070e+00    3.871607e-01   5.412017e-03
  2.786280e+00    3.893501e-01   5.422079e-03
  2.788491e+00    4.066418e-01   5.535777e-03
  2.790701e+00    3.998776e-01   5.484394e-03
  2.792912e+00    4.126340e-01   5.565605e-03
  2.795122e+00    4.008781e-01   5.480526e-03
  2.797333e+00    3.997800e-01   5.467891e-03
  2.799543e+00    3.982447e-01   5.452015e-03
  2.801753e+00    4.119567e-01   5.539642e-03
  2.803964e+00    4.088344e-01   5.513347e-03
  2.806174e+00    4.019851e-01   5.461327e-03
  2.808385e+00    3.955758e-01   5.411410e-03
  2.810595e+00    3.843923e-01   5.328178e-03
  2.812806e+00    3.998787e-01   5.428383e-03
  2.815016e+00    3.950474e-01   5.391162e-03
  2.817227e+00    3.982796e-01   5.436942e-03
  2.819437e+00    3.915043e-01   5.400579e-03
  2.821648e+00    3.887564e-01   5.383652e-03
  2.823858e+00    3.993390e-01   5.461330e-03
  2.826068e+00    4.035988e-01   5.495005e-03
  2.828279e+00    3.902736e-01   5.407203e-03
  2.830489e+00    3.809988e-01   5.345556e-03
  2.832700e+00    3.904260e-01   5.413602e-03
  2.834910e+00    3.941630e-01   5.441343e-03
  2.837121e+00    3.866991e-01   5.391132e-03
  2.839331e+00    3.945166e-01   5.446472e-03
  2.841542e+00    4.013213e-01   5.494185e-03
  2.843752e+00    3.919369e-01   5.430290e-03
  2.845963e+00    3.758517e-01   5.318043e-03
  2.848173e+00    3.837779e-01   5.373886e-03
  2.850383e+00    3.988084e-01   5.478394e-03
  2.852594e+00    3.914309e-01   5.427422e-03
  2.854804e+00    3.857268e-01   5.387258e-03
  2.857015e+00    3.982887e-01   5.473882e-03
  2.859225e+00    3.937704e-01   5.442525e-03
  2.861436e+00    3.912267e-01   5.424305e-03
  2.863646e+00    3.926819e-01   5.434434e-03
  2.865857e+00    3.731207e-01   5.297648e-03
  2.868067e+00    3.861988e-01   5.389878e-03
  2.870278e+00    3.937591e-01   5.442064e-03
  2.872488e+00    3.825627e-01   5.363090e-03
  2.874698e+00    3.891010e-01   5.407756e-03
  2.876909e+00    3.901071e-01   5.413528e-03
  2.879119e+00    3.868585e-01   5.389452e-03
  2.881330e+00    3.883734e-01   5.398664e-03
  2.883540e+00    3.809804e-01   5.345759e-03
  2.885751e+00    3.978101e-01   5.461028e-03
  2.887961e+00    3.871596e-01   5.385715e-03
  2.890172e+00    3.885886e-01   5.394164e-03
  2.892382e+00    3.962154e-01   5.445176e-03
  2.894593e+00    3.874518e-01   5.382944e-03
  2.896803e+00    3.988513e-01   5.459729e-03
  2.899014e+00    3.803289e-01   5.329710e-03
  2.901224e+00    3.842341e-01   5.355173e-03
  2.903434e+00    3.916896e-01   5.405088e-03
  2.905645e+00    3.815454e-01   5.332621e-03
  2.907855e+00    3.794752e-01   5.316220e-03
  2.910066e+00    3.910578e-01   5.394798e-03
  2.912276e+00    3.896987e-01   5.383505e-03
  2.914487e+00    3.765604e-01   5.289734e-03
  2.916697e+00    3.843748e-01   5.342295e-03
  2.918908e+00    3.827754e-01   5.329335e-03
  2.921118e+00    3.853418e-01   5.344707e-03
  2.923329e+00    3.836307e-01   5.330701e-03
  2.925539e+00    3.880286e-01   5.359093e-03
  2.927749e+00    3.810150e-01   5.308296e-03
  2.929960e+00    3.765212e-01   5.274407e-03
  2.932170e+00    3.809770e-01   5.303367e-03
  2.934381e+00    3.995189e-01   5.428637e-03
  2.936591e+00    3.734753e-01   5.246376e-03
  2.938802e+00    3.811091e-01   5.297240e-03
  2.941012e+00    3.835360e-01   5.311933e-03
  2.943223e+00    3.884341e-01   5.343262e-03
  2.945433e+00    3.864565e-01   5.326198e-03
  2.947644e+00    3.906951e-01   5.351509e-03
  2.949854e+00    3.869459e-01   5.321830e-03
  2.952064e+00    3.864730e-01   5.314677e-03
  2.954275e+00    3.911146e-01   5.342413e-03
  2.956485e+00    3.920268e-01   5.344756e-03
  2.958696e+00    3.868289e-01   5.305170e-03
  2.960906e+00    3.869388e-01   5.302066e-03
  2.963117e+00    3.844282e-01   5.280707e-03
  2.965327e+00    3.864393e-01   5.290921e-03
  2.967538e+00    3.796212e-01   5.241367e-03
  2.969748e+00    3.783450e-01   5.229972e-03
  2.971959e+00    3.991706e-01   5.369037e-03
  2.974169e+00    3.834385e-01   5.259828e-03
  2.976379e+00    3.764448e-01   5.208966e-03
  2.978590e+00    3.698165e-01   5.160066e-03
  2.980800e+00    3.704871e-01   5.162224e-03
  2.983011e+00    3.795215e-01   5.222225e-03
  2.985221e+00    3.861474e-01   5.264700e-03
  2.987432e+00    3.894521e-01   5.284315e-03
  2.989642e+00    3.711942e-01   5.156584e-03
  2.991853e+00    3.873255e-01   5.264395e-03
  2.994063e+00    3.875284e-01   5.263101e-03
  2.996274e+00    3.736988e-01   5.165445e-03
  2.998484e+00    3.888110e-01   5.266347e-03
  3.000694e+00    3.852131e-01   5.238757e-03
  3.002905e+00    3.714575e-01   5.141711e-03
  3.005115e+00    3.719730e-01   5.142563e-03
  3.007326e+00    3.796708e-01   5.192616e-03
  3.009536e+00    3.786388e-01   5.182593e-03
  3.011747e+00    3.848586e-01   5.222293e-03
  3.013957e+00    3.732303e-01   5.139919e-03
  3.016168e+00    3.739113e-01   5.141634e-03
  3.018378e+00    3.797282e-01   5.178683e-03
  3.020589e+00    3.763805e-01   5.152892e-03
  3.022799e+00    3.771208e-01   5.155052e-03
  3.025010e+00    3.790711e-01   5.165420e-03
  3.027220e+00    3.667051e-01   5.077653e-03
  3.029430e+00    3.748216e-01   5.130592e-03
  3.031641e+00    3.728373e-01   5.114138e-03
  3.033851e+00    3.795833e-01   5.156965e-03
  3.036062e+00    3.750215e-01   5.123376e-03
  3.038272e+00    3.701432e-01   5.086680e-03
  3.040483e+00    3.744931e-01   5.113568e-03
  3.042693e+00    3.837942e-01   5.173660e-03
  3.044904e+00    3.726306e-01   5.094199e-03
  3.047114e+00    3.798722e-01   5.139055e-03
  3.049325e+00    3.766973e-01   5.113517e-03
  3.051535e+00    3.816788e-01   5.143180e-03
  3.053745e+00    3.764413e-01   5.103404e-03
  3.055956e+00    3.782240e-01   5.111322e-03
  3.058166e+00    3.774489e-01   5.102150e-03
  3.060377e+00    3.833063e-01   5.137200e-03
  3.062587e+00    3.747281e-01   5.075176e-03
  3.064798e+00    3.706260e-01   5.043443e-03
  3.067008e+00    3.674050e-01   5.017214e-03
  3.069219e+00    3.621175e-01   4.976929e-03
  3.071429e+00    3.679543e-01   5.013693e-03
  3.073640e+00    3.714946e-01   5.034727e-03
  3.075850e+00    3.882058e-01   5.143390e-03
  3.078060e+00    3.855415e-01   5.122835e-03
  3.080271e+00    3.819441e-01   5.095703e-03
  3.082481e+00    3.710229e-01   5.019153e-03
  3.084692e+00    3.678283e-01   4.994472e-03
  3.086902e+00    3.631391e-01   4.959575e-03
  3.089113e+00    3.809558e-01   5.076509e-03
  3.091323e+00    3.854991e-01   5.103563e-03
  3.093534e+00    3.766948e-01   5.041858e-03
  3.095744e+00    3.828649e-01   5.079843e-03
  3.097955e+00    3.663420e-01   4.965836e-03
  3.100165e+00    3.722339e-01   5.002555e-03
  3.102375e+00    3.746442e-01   5.015596e-03
  3.104586e+00    3.712958e-01   4.989938e-03
  3.106796e+00    3.777882e-01   5.030144e-03
  3.109007e+00    3.791646e-01   5.036346e-03
  3.111217e+00    3.807666e-01   5.043549e-03
  3.113428e+00    3.776862e-01   5.019974e-03
  3.115638e+00    3.795655e-01   5.029436e-03
  3.117849e+00    3.799328e-01   5.028468e-03
  3.120059e+00    3.673676e-01   4.941456e-03
  3.122270e+00    3.552337e-01   4.856250e-03
  3.124480e+00    3.752676e-01   4.987906e-03
  3.126691e+00    3.773773e-01   4.998651e-03
  3.128901e+00    3.661680e-01   4.921020e-03
  3.131111e+00    3.746964e-01   4.974457e-03
  3.133322e+00    3.659110e-01   4.912676e-03
  3.135532e+00    3.667732e-01   4.915368e-03
  3.137743e+00    3.617710e-01   4.878594e-03
  3.139953e+00    3.672004e-01   4.911713e-03
  3.142164e+00    3.568859e-01   4.853031e-03
  3.144374e+00    3.636986e-01   4.924861e-03
  3.146585e+00    3.724371e-01   4.997056e-03
  3.148795e+00    3.758447e-01   5.029800e-03
  3.151006e+00    3.667264e-01   4.976202e-03
  3.153216e+00    3.653702e-01   4.973465e-03
  3.155426e+00    3.701393e-01   5.011605e-03
  3.157637e+00    3.734620e-01   5.039139e-03
  3.159847e+00    3.605866e-01   4.955928e-03
  3.162058e+00    3.771687e-01   5.072688e-03
  3.164268e+00    3.743528e-01   5.057479e-03
  3.166479e+00    3.634039e-01   4.986282e-03
  3.168689e+00    3.666439e-01   5.011539e-03
  3.170900e+00    3.694470e-01   5.033564e-03
  3.173110e+00    3.764202e-01   5.083500e-03
  3.175321e+00    3.752646e-01   5.078010e-03
  3.177531e+00    3.750094e-01   5.078814e-03
  3.179741e+00    3.748402e-01   5.079584e-03
  3.181952e+00    3.646768e-01   5.012185e-03
  3.184162e+00    3.557612e-01   4.952508e-03
  3.186373e+00    3.540584e-01   4.942082e-03
  3.188583e+00    3.498480e-01   4.914192e-03
  3.190794e+00    3.676626e-01   5.039376e-03
  3.193004e+00    3.622520e-01   5.003302e-03
  3.195215e+00    3.484906e-01   4.908686e-03
  3.197425e+00    3.644936e-01   5.021220e-03
  3.199636e+00    3.650980e-01   5.024687e-03
  3.201846e+00    3.622385e-01   5.004416e-03
  3.204056e+00    3.628424e-01   5.009400e-03
  3.206267e+00    3.737217e-01   5.084741e-03
  3.208477e+00    3.619687e-01   5.004982e-03
  3.210688e+00    3.630176e-01   5.013012e-03
  3.212898e+00    3.643494e-01   5.022710e-03
  3.215109e+00    3.606180e-01   4.997625e-03
  3.217319e+00    3.685999e-01   5.053216e-03
  3.219530e+00    3.580853e-01   4.980987e-03
  3.221740e+00    3.560718e-01   4.967452e-03
  3.223951e+00    3.665524e-01   5.040477e-03
  3.226161e+00    3.596850e-01   4.993199e-03
  3.228372e+00    3.623265e-01   5.012006e-03
  3.230582e+00    3.560818e-01   4.968745e-03
  3.232792e+00    3.601909e-01   4.997523e-03
  3.235003e+00    3.770876e-01   5.113632e-03
  3.237213e+00    3.728032e-01   5.084611e-03
  3.239424e+00    3.677939e-01   5.050322e-03
  3.241634e+00    3.479320e-01   4.912199e-03
  3.243845e+00    3.542852e-01   4.956884e-03
  3.246055e+00    3.526789e-01   4.945389e-03
  3.248266e+00    3.570856e-01   4.976369e-03
  3.250476e+00    3.537488e-01   4.952792e-03
  3.252687e+00    3.604281e-01   4.999252e-03
  3.254897e+00    3.629728e-01   5.016774e-03
  3.257107e+00    3.575126e-01   4.978609e-03
  3.259318e+00    3.571450e-01   4.975824e-03
  3.261528e+00    3.668193e-01   5.042623e-03
  3.263739e+00    3.680006e-01   5.050241e-03
  3.265949e+00    3.596867e-01   4.992764e-03
  3.268160e+00    3.539897e-01   4.952671e-03
  3.270370e+00    3.579282e-01   4.979685e-03
  3.272581e+00    3.458325e-01   4.894574e-03
  3.274791e+00    3.523714e-01   4.940127e-03
  3.277002e+00    3.563238e-01   4.967261e-03
  3.279212e+00    3.483374e-01   4.910928e-03
  3.281422e+00    3.592457e-01   4.986694e-03
  3.283633e+00    3.542709e-01   4.951429e-03
  3.285843e+00    3.508686e-01   4.927288e-03
  3.288054e+00    3.476665e-01   4.903909e-03
  3.290264e+00    3.498860e-01   4.919250e-03
  3.292475e+00    3.475012e-01   4.901703e-03
  3.294685e+00    3.424892e-01   4.865652e-03
  3.296896e+00    3.553735e-01   4.955638e-03
  3.299106e+00    3.476029e-01   4.900654e-03
  3.301317e+00    3.571543e-01   4.966577e-03
  3.303527e+00    3.520902e-01   4.930827e-03
  3.305737e+00    3.486290e-01   4.905576e-03
  3.307948e+00    3.577656e-01   4.968819e-03
  3.310158e+00    3.654692e-01   5.021250e-03
  3.312369e+00    3.535934e-01   4.938189e-03
  3.314579e+00    3.457018e-01   4.881954e-03
  3.316790e+00    3.587864e-01   4.972802e-03
  3.319000e+00    3.493295e-01   4.905806e-03
  3.321211e+00    3.371415e-01   4.818874e-03
  3.323421e+00    3.453215e-01   4.875909e-03
  3.325632e+00    3.494001e-01   4.903820e-03
  3.327842e+00    3.426923e-01   4.855697e-03
  3.330052e+00    3.491143e-01   4.899980e-03
  3.332263e+00    3.529548e-01   4.925953e-03
  3.334473e+00    3.583210e-01   4.962410e-03
  3.336684e+00    3.588093e-01   4.964634e-03
  3.338894e+00    3.429968e-01   4.853259e-03
  3.341105e+00    3.372635e-01   4.811425e-03
  3.343315e+00    3.468167e-01   4.878053e-03
  3.345526e+00    3.462665e-01   4.873388e-03
  3.347736e+00    3.364033e-01   4.802202e-03
  3.349947e+00    3.367505e-01   4.803843e-03
  3.352157e+00    3.428650e-01   4.846198e-03
  3.354368e+00    3.645409e-01   4.995837e-03
  3.356578e+00    3.621534e-01   4.978491e-03
  3.358788e+00    3.494949e-01   4.889525e-03
  3.360999e+00    3.377666e-01   4.805650e-03
  3.363209e+00    3.414259e-01   4.830686e-03
  3.365420e+00    3.411066e-01   4.827061e-03
  3.367630e+00    3.417324e-01   4.830552e-03
  3.369841e+00    3.397396e-01   4.815189e-03
  3.372051e+00    3.340823e-01   4.773146e-03
  3.374262e+00    3.391149e-01   4.806767e-03
  3.376472e+00    3.347858e-01   4.773787e-03
  3.378683e+00    3.405334e-01   4.812317e-03
  3.380893e+00    3.422187e-01   4.822111e-03
  3.383103e+00    3.400139e-01   4.804093e-03
  3.385314e+00    3.317601e-01   4.743439e-03
  3.387524e+00    3.362217e-01   4.772753e-03
  3.389735e+00    3.477475e-01   4.851464e-03
  3.391945e+00    3.491339e-01   4.857757e-03
  3.394156e+00    3.386967e-01   4.780783e-03
  3.396366e+00    3.361644e-01   4.759776e-03
  3.398577e+00    3.336339e-01   4.739094e-03
  3.400787e+00    3.324674e-01   4.741525e-03
  3.402998e+00    3.222756e-01   4.702028e-03
  3.405208e+00    3.273451e-01   4.757423e-03
  3.407418e+00    3.035979e-01   4.595353e-03
  3.409629e+00    3.203237e-01   4.732697e-03
  3.411839e+00    3.270597e-01   4.792864e-03
  3.414050e+00    3.391409e-01   4.890747e-03
  3.416260e+00    3.215823e-01   4.771173e-03
  3.418471e+00    3.151438e-01   4.731596e-03
  3.420681e+00    3.099179e-01   4.699731e-03
  3.422892e+00    3.305291e-01   4.860858e-03
  3.425102e+00    3.228536e-01   4.811218e-03
  3.427313e+00    3.072770e-01   4.700105e-03
  3.429523e+00    3.035823e-01   4.678010e-03
  3.431733e+00    3.029895e-01   4.679350e-03
  3.433944e+00    3.012658e-01   4.671778e-03
  3.436154e+00    3.007622e-01   4.673376e-03
  3.438365e+00    2.985715e-01   4.661567e-03
  3.440575e+00    3.067040e-01   4.729964e-03
  3.442786e+00    3.054086e-01   4.724992e-03
  3.444996e+00    3.089587e-01   4.757342e-03
  3.447207e+00    3.085701e-01   4.759169e-03
  3.449417e+00    3.035790e-01   4.757400e-03
  3.451628e+00    3.050586e-01   4.795766e-03
  3.453838e+00    3.098700e-01   4.852862e-03
  3.456049e+00    2.996249e-01   4.793569e-03
  3.458259e+00    2.955766e-01   4.780763e-03
  3.460469e+00    3.122318e-01   4.931863e-03
  3.462680e+00    3.075083e-01   4.911901e-03
  3.464890e+00    3.079133e-01   4.931448e-03
  3.467101e+00    3.075877e-01   4.944813e-03
  3.469311e+00    3.105468e-01   4.983706e-03
  3.471522e+00    3.022940e-01   4.931743e-03
  3.473732e+00    3.305342e-01   5.171859e-03
  3.475943e+00    3.390494e-01   5.252854e-03
  3.478153e+00    3.332654e-01   5.222168e-03
  3.480364e+00    3.484044e-01   5.353703e-03
  3.482574e+00    3.504715e-01   5.383853e-03
  3.484784e+00    3.714693e-01   5.556953e-03
  3.486995e+00    3.618069e-01   5.498275e-03
  3.489205e+00    3.690380e-01   5.566649e-03
  3.491416e+00    3.834276e-01   5.688265e-03
  3.493626e+00    3.716495e-01   5.613725e-03
  3.495837e+00    3.739244e-01   5.644463e-03
  3.498047e+00    3.822090e-01   5.720062e-03
  3.500258e+00    3.814954e-01   5.728141e-03
  3.502468e+00    3.894908e-01   5.801211e-03
  3.504679e+00    4.063895e-01   5.939304e-03
  3.506889e+00    4.050572e-01   5.943051e-03
  3.509099e+00    4.097095e-01   5.990453e-03
  3.511310e+00    4.134137e-01   6.030959e-03
  3.513520e+00    4.356609e-01   6.204814e-03
  3.515731e+00    4.194885e-01   6.101927e-03
  3.517941e+00    4.102373e-01   6.047387e-03
  3.520152e+00    4.301655e-01   6.205881e-03
  3.522362e+00    4.216135e-01   6.157181e-03
  3.524573e+00    4.469468e-01   6.352869e-03
  3.526783e+00    4.468627e-01   6.364783e-03
  3.528994e+00    4.478291e-01   6.383056e-03
  3.531204e+00    4.396994e-01   6.336262e-03
  3.533414e+00    4.522782e-01   6.437506e-03
  3.535625e+00    4.543051e-01   6.463355e-03
  3.537835e+00    4.755288e-01   6.624055e-03
  3.540046e+00    4.619509e-01   6.537120e-03
  3.542256e+00    4.745220e-01   6.632540e-03
  3.544467e+00    4.689696e-01   6.600768e-03
  3.546677e+00    4.642892e-01   6.574797e-03
  3.548888e+00    4.635795e-01   6.576715e-03
  3.551098e+00    4.695956e-01   6.626104e-03
  3.553309e+00    4.702196e-01   6.638160e-03
  3.555519e+00    4.717873e-01   6.659757e-03
  3.557729e+00    4.812730e-01   6.737535e-03
  3.559940e+00    4.654200e-01   6.636396e-03
  3.562150e+00    4.725845e-01   6.698272e-03
  3.564361e+00    4.668057e-01   6.669617e-03
  3.566571e+00    4.823943e-01   6.793174e-03
  3.568782e+00    4.662053e-01   6.691418e-03
  3.570992e+00    4.667694e-01   6.708255e-03
  3.573203e+00    4.850108e-01   6.851532e-03
  3.575413e+00    4.799383e-01   6.828711e-03
  3.577624e+00    4.627836e-01   6.718624e-03
  3.579834e+00    4.663746e-01   6.757616e-03
  3.582045e+00    4.627169e-01   6.744079e-03
  3.584255e+00    4.562587e-01   6.709831e-03
  3.586465e+00    4.661649e-01   6.795264e-03
  3.588676e+00    4.723309e-01   6.853389e-03
  3.590886e+00    4.753278e-01   6.888000e-03
  3.593097e+00    4.721342e-01   6.878443e-03
  3.595307e+00    4.705141e-01   6.879676e-03
  3.597518e+00    4.540863e-01   6.771622e-03
  3.599728e+00    4.737665e-01   6.930018e-03
  3.601939e+00    4.644854e-01   6.874952e-03
  3.604149e+00    4.518825e-01   6.794238e-03
  3.606360e+00    4.662472e-01   6.914584e-03
  3.608570e+00    4.783549e-01   7.017196e-03
  3.610780e+00    4.656016e-01   6.933344e-03
  3.612991e+00    4.752534e-01   7.014252e-03
  3.615201e+00    4.557772e-01   6.878088e-03
  3.617412e+00    4.708560e-01   6.997748e-03
  3.619622e+00    4.591395e-01   6.915675e-03
  3.621833e+00    4.571252e-01   6.906674e-03
  3.624043e+00    4.483767e-01   6.848974e-03
  3.626254e+00    4.647023e-01   6.981585e-03
  3.628464e+00    4.730762e-01   7.054557e-03
  3.630675e+00    4.590895e-01   6.962584e-03
  3.632885e+00    4.726363e-01   7.078144e-03
  3.635095e+00    4.703965e-01   7.074873e-03
  3.637306e+00    4.772642e-01   7.139909e-03
  3.639516e+00    4.612091e-01   7.032351e-03
  3.641727e+00    4.369101e-01   6.857727e-03
  3.643937e+00    4.637550e-01   7.078866e-03
  3.646148e+00    4.622114e-01   7.080644e-03
  3.648358e+00    4.536878e-01   7.028791e-03
  3.650569e+00    4.749179e-01   7.205245e-03
  3.652779e+00    4.467982e-01   7.002258e-03
  3.654990e+00    4.561885e-01   7.089195e-03
  3.657200e+00    4.593511e-01   7.127567e-03
  3.659410e+00    4.576952e-01   7.128599e-03
  3.661621e+00    4.718322e-01   7.252076e-03
  3.663831e+00    4.619049e-01   7.189480e-03
  3.666042e+00    4.556296e-01   7.154508e-03
  3.668252e+00    4.673025e-01   7.259843e-03
  3.670463e+00    4.702336e-01   7.296937e-03
  3.672673e+00    4.676057e-01   7.290982e-03
  3.674884e+00    4.635291e-01   7.273539e-03
  3.677094e+00    4.553361e-01   7.223313e-03
  3.679305e+00    4.746264e-01   7.389474e-03
  3.681515e+00    4.665200e-01   7.340765e-03
  3.683726e+00    4.441841e-01   7.177323e-03
  3.685936e+00    4.688335e-01   7.388577e-03
  3.688146e+00    4.620384e-01   7.349591e-03
  3.690357e+00    4.521419e-01   7.285232e-03
  3.692567e+00    4.434805e-01   7.229881e-03
  3.694778e+00    4.564767e-01   7.349998e-03
  3.696988e+00    4.479101e-01   7.295460e-03
  3.699199e+00    4.612976e-01   7.418876e-03
  3.701409e+00    4.606022e-01   7.428673e-03
  3.703620e+00    4.489117e-01   7.348828e-03
  3.705830e+00    4.478527e-01   7.355325e-03
  3.708041e+00    4.583721e-01   7.456711e-03
  3.710251e+00    4.486345e-01   7.392582e-03
  3.712461e+00    4.484601e-01   7.406638e-03
  3.714672e+00    4.592308e-01   7.510726e-03
  3.716882e+00    4.637762e-01   7.563606e-03
  3.719093e+00    4.412980e-01   7.393820e-03
  3.721303e+00    4.585117e-01   7.552555e-03
  3.723514e+00    4.381650e-01   7.398959e-03
  3.725724e+00    4.393519e-01   7.424745e-03
  3.727935e+00    4.469016e-01   7.504494e-03
  3.730145e+00    4.476981e-01   7.527312e-03
  3.732356e+00    4.372444e-01   7.455027e-03
  3.734566e+00    4.439746e-01   7.528499e-03
  3.736776e+00    4.204729e-01   7.342576e-03
  3.738987e+00    4.376674e-01   7.507526e-03
  3.741197e+00    4.587381e-01   7.703135e-03
  3.743408e+00    4.531897e-01   7.673442e-03
  3.745618e+00    4.553823e-01   7.709161e-03
  3.747829e+00    4.720062e-01   7.866040e-03
  3.750039e+00    4.432081e-01   7.639427e-03
  3.752250e+00    4.237610e-01   7.486730e-03
  3.754460e+00    4.310724e-01   7.568080e-03
  3.756671e+00    4.457295e-01   7.713238e-03
  3.758881e+00    4.633105e-01   7.881682e-03
  3.761091e+00    4.496724e-01   7.782879e-03
  3.763302e+00    4.398932e-01   7.715483e-03
  3.765512e+00    4.313064e-01   7.657562e-03
  3.767723e+00    4.473822e-01   7.817141e-03
  3.769933e+00    4.182860e-01   7.576238e-03
  3.772144e+00    4.427296e-01   7.812783e-03
  3.774354e+00    4.212856e-01   7.639330e-03
  3.776565e+00    4.294971e-01   7.731714e-03
  3.778775e+00    4.421818e-01   7.863738e-03
  3.780986e+00    4.456815e-01   7.913909e-03
  3.783196e+00    4.605488e-01   8.064180e-03
  3.785407e+00    4.561004e-01   8.044575e-03
  3.787617e+00    4.471090e-01   7.984491e-03
  3.789827e+00    4.293029e-01   7.842856e-03
  3.792038e+00    4.280826e-01   7.850925e-03
  3.794248e+00    4.314734e-01   7.901642e-03
  3.796459e+00    4.099124e-01   7.720917e-03
  3.798669e+00    4.383623e-01   8.004400e-03
  3.800880e+00    4.182134e-01   7.837864e-03
  3.803090e+00    4.467093e-01   8.121109e-03
  3.805301e+00    4.331633e-01   8.017622e-03
  3.807511e+00    4.344314e-01   8.049831e-03
  3.809722e+00    4.330546e-01   8.057764e-03
  3.811932e+00    4.371610e-01   8.116705e-03
  3.814142e+00    4.356528e-01   8.124007e-03
  3.816353e+00    4.362546e-01   8.151019e-03
  3.818563e+00    4.415171e-01   8.221707e-03
  3.820774e+00    4.534826e-01   8.354545e-03
  3.822984e+00    4.368970e-01   8.222175e-03
  3.825195e+00    4.464450e-01   8.334024e-03
  3.827405e+00    4.527574e-01   8.415540e-03
  3.829616e+00    4.384447e-01   8.304020e-03
  3.831826e+00    4.384033e-01   8.326311e-03
  3.834037e+00    4.411530e-01   8.375509e-03
  3.836247e+00    4.193183e-01   8.188227e-03
  3.838457e+00    4.298511e-01   8.313753e-03
  3.840668e+00    4.521485e-01   8.550715e-03
  3.842878e+00    4.200139e-01   8.264730e-03
  3.845089e+00    3.936225e-01   8.023637e-03
  3.847299e+00    4.118859e-01   8.231166e-03
  3.849510e+00    4.208945e-01   8.344539e-03
  3.851720e+00    4.278187e-01   8.432860e-03
  3.853931e+00    4.253145e-01   8.425668e-03
  3.856141e+00    4.575385e-01   8.757338e-03
  3.858352e+00    4.412552e-01   8.618341e-03
  3.860562e+00    4.284099e-01   8.509902e-03
  3.862772e+00    4.584225e-01   8.821779e-03
  3.864983e+00    4.375404e-01   8.637115e-03
  3.867193e+00    4.531104e-01   8.808317e-03
  3.869404e+00    4.327120e-01   8.626387e-03
  3.871614e+00    4.385821e-01   8.703478e-03
  3.873825e+00    4.674330e-01   9.004971e-03
  3.876035e+00    4.396299e-01   8.752478e-03
  3.878246e+00    4.379947e-01   8.760536e-03
  3.880456e+00    4.382295e-01   8.790242e-03
  3.882667e+00    4.204413e-01   8.637064e-03
  3.884877e+00    4.180283e-01   8.639702e-03
  3.887087e+00    4.346922e-01   8.838309e-03
  3.889298e+00    4.312042e-01   8.831275e-03
  3.891508e+00    4.267313e-01   8.813826e-03
  3.893719e+00    4.228515e-01   8.802430e-03
  3.895929e+00    4.214969e-01   8.817493e-03
  3.898140e+00    4.035160e-01   8.655993e-03
  3.900350e+00    4.471976e-01   9.143216e-03
  3.902561e+00    4.153011e-01   8.840946e-03
  3.904771e+00    4.322138e-01   9.049953e-03
  3.906982e+00    4.183824e-01   8.934636e-03
  3.909192e+00    4.388356e-01   9.182134e-03
  3.911403e+00    4.123578e-01   8.932061e-03
  3.913613e+00    4.169265e-01   9.012988e-03
  3.915823e+00    4.571350e-01   9.471347e-03
  3.918034e+00    4.451424e-01   9.379903e-03
  3.920244e+00    4.333303e-01   9.288383e-03
  3.922455e+00    4.331488e-01   9.320300e-03
  3.924665e+00    4.534900e-01   9.571768e-03
  3.926876e+00    4.292848e-01   9.347623e-03
  3.929086e+00    4.440887e-01   9.543126e-03
  3.931297e+00    4.432295e-01   9.567058e-03
  3.933507e+00    4.330999e-01   9.484389e-03
  3.935718e+00    4.200345e-01   9.366926e-03
  3.937928e+00    4.221599e-01   9.418058e-03
  3.940138e+00    3.943898e-01   9.129295e-03
  3.942349e+00    4.234729e-01   9.487784e-03
  3.944559e+00    4.169213e-01   9.441928e-03
  3.946770e+00    4.216892e-01   9.523780e-03
  3.948980e+00    4.154443e-01   9.481412e-03
  3.951191e+00    4.456296e-01   9.849308e-03
  3.953401e+00    4.351228e-01   9.762282e-03
  3.955612e+00    4.123364e-01   9.532252e-03
  3.957822e+00    4.073767e-01   9.503848e-03
  3.960033e+00    4.266944e-01   9.757026e-03
  3.962243e+00    4.170755e-01   9.676895e-03
  3.964453e+00    4.202777e-01   9.744887e-03
  3.966664e+00    4.108665e-01   9.665723e-03
  3.968874e+00    3.905138e-01   9.448919e-03
  3.971085e+00    3.941691e-01   9.512560e-03
  3.973295e+00    4.368545e-01   1.003487e-02
  3.975506e+00    4.322480e-01   1.000230e-02
  3.977716e+00    4.208476e-01   9.889868e-03
  3.979927e+00    3.960842e-01   9.614586e-03
  3.982137e+00    4.207731e-01   9.930349e-03
  3.984348e+00    4.307102e-01   1.006830e-02
  3.986558e+00    4.183955e-01   9.943975e-03
  3.988768e+00    4.360173e-01   1.017303e-02
  3.990979e+00    4.493341e-01   1.034912e-02
  3.993189e+00    4.421876e-01   1.028852e-02
  3.995400e+00    4.278388e-01   1.014235e-02
  3.997610e+00    4.173893e-01   1.004536e-02
  3.999821e+00    3.944138e-01   9.798837e-03
  4.002031e+00    4.257323e-01   1.021634e-02
  4.004242e+00    4.354009e-01   1.036830e-02
  4.006452e+00    3.976392e-01   9.944123e-03
  4.008663e+00    3.833362e-01   9.799151e-03
  4.010873e+00    4.101702e-01   1.017307e-02
  4.013084e+00    4.462454e-01   1.065041e-02
  4.015294e+00    4.194405e-01   1.036368e-02
  4.017504e+00    4.184563e-01   1.039046e-02
  4.019715e+00    4.149989e-01   1.038673e-02
  4.021925e+00    3.927421e-01   1.014314e-02
  4.024136e+00    3.839035e-01   1.006724e-02
  4.026346e+00    4.003603e-01   1.032082e-02
  4.028557e+00    4.494713e-01   1.097823e-02
  4.030767e+00    4.259847e-01   1.073054e-02
  4.032978e+00    4.094088e-01   1.056218e-02
  4.035188e+00    4.326624e-01   1.090170e-02
  4.037399e+00    4.426446e-01   1.107234e-02
  4.039609e+00    4.155623e-01   1.077242e-02
  4.041819e+00    4.183028e-01   1.085331e-02
  4.044030e+00    4.281853e-01   1.102764e-02
  4.046240e+00    4.258578e-01   1.104459e-02
  4.048451e+00    3.934616e-01   1.066213e-02
  4.050661e+00    4.033395e-01   1.084201e-02
  4.052872e+00    4.202240e-01   1.111597e-02
  4.055082e+00    4.296257e-01   1.129012e-02
  4.057293e+00    3.981501e-01   1.091734e-02
  4.059503e+00    4.175316e-01   1.123089e-02
  4.061714e+00    4.059577e-01   1.112591e-02
  4.063924e+00    4.128808e-01   1.127294e-02
  4.066134e+00    4.160336e-01   1.136908e-02
  4.068345e+00    4.429927e-01   1.178836e-02
  4.070555e+00    4.266977e-01   1.162524e-02
  4.072766e+00    4.302838e-01   1.173152e-02
  4.074976e+00    4.026831e-01   1.140566e-02
  4.077187e+00    4.198045e-01   1.170338e-02
  4.079397e+00    3.902732e-01   1.134195e-02
  4.081608e+00    4.352561e-01   1.203992e-02
  4.083818e+00    4.115003e-01   1.176777e-02
  4.086029e+00    4.310655e-01   1.210771e-02
  4.088239e+00    3.778880e-01   1.139748e-02
  4.090449e+00    4.465832e-01   1.245721e-02
  4.092660e+00    4.180772e-01   1.211943e-02
  4.094870e+00    4.123060e-01   1.210255e-02
  4.097081e+00    4.105803e-01   1.214326e-02
  4.099291e+00    3.781874e-01   1.170262e-02
  4.101502e+00    4.144880e-01   1.229705e-02
  4.103712e+00    4.433584e-01   1.276556e-02
  4.105923e+00    3.835860e-01   1.191997e-02
  4.108133e+00    3.821610e-01   1.194358e-02
  4.110344e+00    4.002457e-01   1.226962e-02
  4.112554e+00    4.017785e-01   1.234169e-02
  4.114764e+00    4.325770e-01   1.285739e-02
  4.116975e+00    4.129259e-01   1.261169e-02
  4.119185e+00    4.007531e-01   1.247459e-02
  4.121396e+00    4.143328e-01   1.273683e-02
  4.123606e+00    3.855197e-01   1.233615e-02
  4.125817e+00    4.047712e-01   1.269345e-02
  4.128027e+00    4.553438e-01   1.351980e-02
  4.130238e+00    4.182310e-01   1.301273e-02
  4.132448e+00    4.594562e-01   1.369824e-02
  4.134659e+00    4.047502e-01   1.291202e-02
  4.136869e+00    4.603997e-01   1.383275e-02
  4.139080e+00    4.165727e-01   1.321702e-02
  4.141290e+00    4.533876e-01   1.384991e-02
  4.143500e+00    4.629957e-01   1.406027e-02
  4.145711e+00    4.466993e-01   1.387544e-02
  4.147921e+00    3.808252e-01   1.286995e-02
  4.150132e+00    4.164377e-01   1.352275e-02
  4.152342e+00    4.405258e-01   1.397565e-02
  4.154553e+00    3.957931e-01   1.331027e-02
  4.156763e+00    3.938203e-01   1.334241e-02
  4.158974e+00    4.339856e-01   1.407679e-02
  4.161184e+00    4.203125e-01   1.392212e-02
  4.163395e+00    4.400803e-01   1.431836e-02
  4.165605e+00    4.054746e-01   1.381547e-02
  4.167815e+00    3.978157e-01   1.375567e-02
  4.170026e+00    4.308444e-01   1.439064e-02
  4.172236e+00    4.425524e-01   1.466394e-02
  4.174447e+00    4.309919e-01   1.454974e-02
  4.176657e+00    4.291790e-01   1.459845e-02
  4.178868e+00    4.659178e-01   1.529662e-02
  4.181078e+00    4.219721e-01   1.463938e-02
  4.183289e+00    4.607830e-01   1.538527e-02
  4.185499e+00    4.955394e-01   1.604930e-02
  4.187710e+00    4.127009e-01   1.473234e-02
  4.189920e+00    3.891235e-01   1.439132e-02
  4.192130e+00    4.156690e-01   1.496494e-02
  4.194341e+00    4.610740e-01   1.585783e-02
  4.196551e+00    4.464028e-01   1.570256e-02
  4.198762e+00    4.087181e-01   1.512022e-02
  4.200972e+00    4.012161e-01   1.507789e-02
  4.203183e+00    4.027286e-01   1.520585e-02
  4.205393e+00    4.051651e-01   1.535308e-02
  4.207604e+00    4.741331e-01   1.672215e-02
  4.209814e+00    4.548532e-01   1.649074e-02
  4.212025e+00    4.308731e-01   1.616403e-02
  4.214235e+00    4.536155e-01   1.670259e-02
  4.216445e+00    4.450029e-01   1.666278e-02
  4.218656e+00    3.832573e-01   1.557984e-02
  4.220866e+00    3.760536e-01   1.554697e-02
  4.223077e+00    3.917434e-01   1.598982e-02
  4.225287e+00    4.411321e-01   1.710122e-02
  4.227498e+00    4.170788e-01   1.675899e-02
  4.229708e+00    4.934050e-01   1.837629e-02
  4.231919e+00    4.566614e-01   1.782532e-02
  4.234129e+00    3.906339e-01   1.662449e-02
  4.236340e+00    4.309152e-01   1.761010e-02
  4.238550e+00    3.826006e-01   1.673974e-02
  4.240761e+00    4.224256e-01   1.774519e-02
  4.242971e+00    4.140496e-01   1.772892e-02
  4.245181e+00    3.804641e-01   1.715451e-02
  4.247392e+00    3.969614e-01   1.768641e-02
  4.249602e+00    3.874519e-01   1.764644e-02
  4.251813e+00    3.703073e-01   1.742176e-02
  4.254023e+00    3.751933e-01   1.771318e-02
  4.256234e+00    4.403518e-01   1.939442e-02
  4.258444e+00    4.390379e-01   1.956837e-02
  4.260655e+00    4.249552e-01   1.946369e-02
  4.262865e+00    4.139030e-01   1.942678e-02
  4.265076e+00    3.517249e-01   1.811224e-02
  4.267286e+00    3.938793e-01   1.939345e-02
  4.269496e+00    4.096561e-01   2.001981e-02
  4.271707e+00    4.187897e-01   2.049165e-02
  4.273917e+00    4.512727e-01   2.154642e-02
  4.276128e+00    4.577876e-01   2.199025e-02
  4.278338e+00    4.285078e-01   2.155931e-02
  4.280549e+00    3.367979e-01   1.938769e-02
  4.282759e+00    3.132218e-01   1.896515e-02
  4.284970e+00    4.509038e-01   2.309131e-02
  4.287180e+00    4.125454e-01   2.235314e-02
  4.289391e+00    3.623043e-01   2.110367e-02
  4.291601e+00    5.187033e-01   2.545398e-02
  4.293811e+00    3.382903e-01   2.071683e-02
  4.296022e+00    4.203081e-01   2.327722e-02
  4.298232e+00    3.808070e-01   2.234213e-02
  4.300443e+00    3.972241e-01   2.300693e-02
  4.302653e+00    4.105595e-01   2.359211e-02
  4.304864e+00    4.867137e-01   2.590995e-02
  4.307074e+00    4.260056e-01   2.445784e-02
  4.309285e+00    4.069915e-01   2.412328e-02
  4.311495e+00    4.830202e-01   2.652554e-02
  4.313706e+00    4.849731e-01   2.682942e-02
  4.315916e+00    4.281362e-01   2.545616e-02
  4.318126e+00    3.876806e-01   2.446345e-02
  4.320337e+00    3.746856e-01   2.429292e-02
  4.322547e+00    4.173744e-01   2.591102e-02
  4.324758e+00    4.130346e-01   2.604520e-02
  4.326968e+00    4.190167e-01   2.652792e-02
  4.329179e+00    4.441885e-01   2.761350e-02
  4.331389e+00    4.454582e-01   2.797239e-02
  4.333600e+00    5.031242e-01   3.008241e-02
  4.335810e+00    3.525151e-01   2.548046e-02
  4.338021e+00    4.077393e-01   2.775352e-02
  4.340231e+00    4.201093e-01   2.852576e-02
  4.342442e+00    5.020479e-01   3.160181e-02
  4.344652e+00    3.305362e-01   2.599034e-02
  4.346862e+00    3.024904e-01   2.521145e-02
  4.349073e+00    3.158861e-01   2.613767e-02
  4.351283e+00    4.729728e-01   3.246174e-02
  4.353494e+00    4.276938e-01   3.134454e-02
  4.355704e+00    3.760249e-01   2.986567e-02
  4.357915e+00    2.715079e-01   2.579899e-02
  4.360125e+00    4.686359e-01   3.447238e-02
  4.362336e+00    4.799730e-01   3.552462e-02
  4.364546e+00    3.882763e-01   3.253349e-02
  4.366757e+00    2.638072e-01   2.734889e-02
  4.368967e+00    2.614088e-01   2.776759e-02
  4.371177e+00    3.840933e-01   3.437444e-02
  4.373388e+00    3.969053e-01   3.572289e-02
  4.375598e+00    4.155562e-01   3.738932e-02
  4.377809e+00    4.526770e-01   4.000793e-02
  4.380019e+00    4.341584e-01   4.016900e-02
  4.382230e+00    1.579223e-01   2.490263e-02
  4.384440e+00    3.201734e-01   3.647622e-02
  4.386651e+00    4.551075e-01   4.482942e-02
  4.388861e+00    4.953918e-01   4.834324e-02
  4.391072e+00    2.946012e-01   3.858750e-02
  4.393282e+00    3.975033e-01   4.655824e-02
  4.395492e+00    3.185386e-01   4.341083e-02
  4.397703e+00    3.949306e-01   5.054386e-02
  4.399913e+00    2.938832e-01   4.580921e-02
  4.402124e+00    4.330483e-01   5.875707e-02
  4.404334e+00    5.895369e-01   7.287543e-02
  4.406545e+00    3.199751e-01   5.769228e-02
  4.408755e+00    3.038507e-01   6.095979e-02
  4.410966e+00    2.441523e-01   6.049612e-02
  4.413176e+00    3.556551e-02   2.614539e-02
  4.415387e+00   -5.666373e-01            nan
  4.417597e+00   -2.015271e+00            nan
  4.419807e+00   -3.766224e-01            nan
