# == pyFAI calibration ==
# Distance Sample to Detector: 0.216 m
# PONI: 1.166e-01, 1.308e-01 m
# Rotations: 0.000000 0.000000 0.000000 rad
# 
# == Fit2d calibration ==
# Distance Sample-beamCenter: 216.000 mm
# Center: x=1744.293, y=1555.000 pix
# Tilt: 0.000 deg  TiltPlanRot: 0.000 deg
# 
# Detector Eiger 9M	 PixelSize= 7.500e-05, 7.500e-05 m
#    Detector has a mask: True 
#    Detector has a dark current: False 
#    detector has a flat field: False 
# 
# Wavelength: 9.8e-11 m
# Mask applied: from detector
# Dark current applied: False
# Flat field applied: False
# Polarization factor: None
# Normalization factor: 1.0
# 
# Headers of the input frame:
# {
# "_array_data.header_convention": "SLS_1.0",
# "_array_data.header_contents": "# Detector: Dectris Eiger 9M, S/N E-18-0102\r\n# Pixel_size 75e-6 m x 75e-6 m\r\n# Silicon sensor, thickness 0.000450 m\r\n# Exposure_time 0.024997 s\r\n# Exposure_period 0.025000 s\r\n# Count_cutoff 62318 counts\r\n# Wavelength 0.980106 A\r\n# Detector_distance 0.215992 m\r\n# Beam_xy (1555, 1744) pixels\r\n# Start_angle 0.000000 deg.\r\n# Angle_increment 0.000000 deg.",
# "Content-Type": "application/octet-stream;",
# "conversions": "x-CBF_BYTE_OFFSET",
# "Content-Transfer-Encoding": "BINARY",
# "X-Binary-Size": "10166622",
# "X-Binary-ID": "1",
# "X-Binary-Element-Type": "signed 32-bit integer",
# "X-Binary-Element-Byte-Order": "LITTLE_ENDIAN",
# "Content-MD5": "m4FkPOaLi/BlDjzFaedq2A==",
# "X-Binary-Number-of-Elements": "10166590",
# "X-Binary-Size-Fastest-Dimension": "3110",
# "X-Binary-Size-Second-Dimension": "3269",
# "X-Binary-Size-Padding": "4095"
# }
# --> H:/Proxima2a_2019-04-05/RAW_DATA/C5_gel17_position5/C5_mesh_1_data.cbf/C5_mesh_1_data.cbf000190.dat
#        q_A^-1              I           sigma 
  1.105228e-03    1.236065e+00   6.015996e-01
  3.315685e-03    1.211722e+00   3.621154e-01
  5.526141e-03    1.627069e+00   3.244704e-01
  7.736597e-03    1.762850e+00   2.853172e-01
  9.947054e-03    1.275421e+00   2.139456e-01
  1.215751e-02    1.372388e+00   2.006814e-01
  1.436797e-02    1.271585e+00   1.776841e-01
  1.657842e-02    1.471209e+00   1.779023e-01
  1.878888e-02    1.585157e+00   1.734601e-01
  2.099934e-02    1.366508e+00   1.523730e-01
  2.320979e-02    1.380924e+00   1.456860e-01
  2.542025e-02    1.272719e+00   1.336521e-01
  2.763070e-02    1.333077e+00   1.311952e-01
  2.984116e-02    1.590899e+00   1.379106e-01
  3.205162e-02    1.606774e+00   1.337407e-01
  3.426207e-02    1.458413e+00   1.232296e-01
  3.647253e-02    1.505042e+00   1.213288e-01
  3.868299e-02    1.513066e+00   1.181339e-01
  4.089344e-02    1.419110e+00   1.112727e-01
  4.310390e-02    1.437820e+00   1.090878e-01
  4.531436e-02    1.554599e+00   1.106305e-01
  4.752481e-02    1.493583e+00   1.058848e-01
  4.973527e-02    1.428034e+00   1.012094e-01
  5.194572e-02    1.491895e+00   1.012213e-01
  5.415618e-02    1.507379e+00   9.964374e-02
  5.636664e-02    1.527468e+00   9.832213e-02
  5.857709e-02    1.466822e+00   9.451555e-02
  6.078755e-02    1.445802e+00   9.211104e-02
  6.299801e-02    1.466746e+00   9.113265e-02
  6.520846e-02    1.403237e+00   8.761456e-02
  6.741892e-02    1.391904e+00   8.581328e-02
  6.962938e-02    1.453297e+00   8.628662e-02
  7.183983e-02    1.440341e+00   8.456776e-02
  7.405029e-02    1.453216e+00   8.366548e-02
  7.626074e-02    1.435178e+00   8.193005e-02
  7.847120e-02    1.455995e+00   8.134932e-02
  8.068166e-02    1.432843e+00   7.958619e-02
  8.289211e-02    1.462662e+00   7.933020e-02
  8.510257e-02    1.503280e+00   7.937237e-02
  8.731303e-02    1.462417e+00   7.728589e-02
  8.952348e-02    1.510978e+00   7.758479e-02
  9.173394e-02    1.550951e+00   7.764846e-02
  9.394439e-02    1.601035e+00   7.795603e-02
  9.615485e-02    1.550283e+00   7.582200e-02
  9.836531e-02    1.552011e+00   7.500494e-02
  1.005758e-01    1.470170e+00   7.219435e-02
  1.027862e-01    1.479833e+00   7.164637e-02
  1.049967e-01    1.434156e+00   6.978437e-02
  1.072071e-01    1.475786e+00   7.005554e-02
  1.094176e-01    1.514965e+00   7.025764e-02
  1.116280e-01    1.608599e+00   7.167432e-02
  1.138385e-01    1.622810e+00   7.128648e-02
  1.160490e-01    1.654628e+00   7.129223e-02
  1.182594e-01    1.669842e+00   7.094521e-02
  1.204699e-01    1.620665e+00   6.924800e-02
  1.226803e-01    1.563589e+00   6.739937e-02
  1.248908e-01    1.504019e+00   6.551460e-02
  1.271012e-01    1.612571e+00   6.724387e-02
  1.293117e-01    1.592669e+00   6.625316e-02
  1.315222e-01    1.677560e+00   6.742054e-02
  1.337326e-01    1.683892e+00   6.698579e-02
  1.359431e-01    1.689177e+00   6.713013e-02
  1.381535e-01    1.573546e+00   6.566144e-02
  1.403640e-01    1.577573e+00   6.602925e-02
  1.425744e-01    1.523531e+00   6.499211e-02
  1.447849e-01    1.556329e+00   6.570306e-02
  1.469953e-01    1.581827e+00   6.619761e-02
  1.492058e-01    1.641832e+00   6.736314e-02
  1.514163e-01    1.629795e+00   6.700426e-02
  1.536267e-01    1.708824e+00   6.847563e-02
  1.558372e-01    1.624799e+00   6.662349e-02
  1.580476e-01    1.626539e+00   6.649739e-02
  1.602581e-01    1.641334e+00   6.662948e-02
  1.624685e-01    1.652362e+00   6.666991e-02
  1.646790e-01    1.659767e+00   6.662726e-02
  1.668895e-01    1.691788e+00   6.707264e-02
  1.690999e-01    1.729241e+00   6.760737e-02
  1.713104e-01    1.823690e+00   6.921366e-02
  1.735208e-01    1.869164e+00   6.985341e-02
  1.757313e-01    1.782787e+00   6.800649e-02
  1.779417e-01    1.790771e+00   6.793629e-02
  1.801522e-01    1.945852e+00   7.059132e-02
  1.823626e-01    1.896504e+00   6.945847e-02
  1.845731e-01    1.838070e+00   6.815854e-02
  1.867836e-01    1.919208e+00   6.941158e-02
  1.889940e-01    1.986336e+00   7.038434e-02
  1.912045e-01    1.943498e+00   6.938870e-02
  1.934149e-01    2.128070e+00   7.236588e-02
  1.956254e-01    2.058059e+00   7.093085e-02
  1.978358e-01    1.988839e+00   6.948886e-02
  2.000463e-01    2.024436e+00   6.987563e-02
  2.022568e-01    2.010320e+00   6.940306e-02
  2.044672e-01    2.103158e+00   7.074431e-02
  2.066777e-01    2.063177e+00   6.983611e-02
  2.088881e-01    2.011631e+00   6.873258e-02
  2.110986e-01    2.001301e+00   6.832079e-02
  2.133090e-01    1.947662e+00   6.717989e-02
  2.155195e-01    2.033664e+00   6.841937e-02
  2.177300e-01    1.980162e+00   6.698301e-02
  2.199404e-01    2.009555e+00   6.570027e-02
  2.221509e-01    2.001956e+00   6.449914e-02
  2.243613e-01    2.014289e+00   6.387731e-02
  2.265718e-01    2.098301e+00   6.447721e-02
  2.287822e-01    2.124135e+00   6.423081e-02
  2.309927e-01    2.130828e+00   6.374589e-02
  2.332031e-01    2.142393e+00   6.337157e-02
  2.354136e-01    2.171095e+00   6.327759e-02
  2.376241e-01    2.123261e+00   6.209095e-02
  2.398345e-01    2.092548e+00   6.118404e-02
  2.420450e-01    2.112386e+00   6.103406e-02
  2.442554e-01    2.125988e+00   6.080840e-02
  2.464659e-01    2.206013e+00   6.152642e-02
  2.486763e-01    2.214181e+00   6.123506e-02
  2.508868e-01    2.196164e+00   6.060069e-02
  2.530973e-01    2.162828e+00   5.976614e-02
  2.553077e-01    2.198574e+00   5.989251e-02
  2.575182e-01    2.186098e+00   5.936897e-02
  2.597286e-01    2.162696e+00   5.870710e-02
  2.619391e-01    2.104629e+00   5.758017e-02
  2.641495e-01    2.076646e+00   5.687955e-02
  2.663600e-01    2.107616e+00   5.698699e-02
  2.685704e-01    2.038423e+00   5.573997e-02
  2.707809e-01    2.049977e+00   5.560097e-02
  2.729914e-01    2.036617e+00   5.513072e-02
  2.752018e-01    1.978960e+00   5.406187e-02
  2.774123e-01    1.967857e+00   5.363463e-02
  2.796227e-01    1.956121e+00   5.320993e-02
  2.818332e-01    2.028583e+00   5.391621e-02
  2.840436e-01    2.008111e+00   5.338343e-02
  2.862541e-01    1.975138e+00   5.268885e-02
  2.884646e-01    1.970318e+00   5.237477e-02
  2.906750e-01    2.003168e+00   5.255917e-02
  2.928855e-01    2.000528e+00   5.228115e-02
  2.950959e-01    1.988420e+00   5.188328e-02
  2.973064e-01    1.972138e+00   5.143818e-02
  2.995168e-01    1.933074e+00   5.069556e-02
  3.017273e-01    1.946121e+00   5.064207e-02
  3.039377e-01    1.949777e+00   5.046768e-02
  3.061482e-01    1.933244e+00   5.003584e-02
  3.083587e-01    1.946106e+00   4.998473e-02
  3.105691e-01    1.929724e+00   4.956131e-02
  3.127796e-01    1.933911e+00   4.940645e-02
  3.149900e-01    1.878727e+00   4.849357e-02
  3.172005e-01    1.845391e+00   4.786485e-02
  3.194109e-01    1.890925e+00   4.825177e-02
  3.216214e-01    1.941739e+00   4.869627e-02
  3.238319e-01    1.927596e+00   4.832638e-02
  3.260423e-01    1.880436e+00   4.754144e-02
  3.282528e-01    1.857255e+00   4.705940e-02
  3.304632e-01    1.852288e+00   4.681438e-02
  3.326737e-01    1.878071e+00   4.695511e-02
  3.348841e-01    1.885782e+00   4.686898e-02
  3.370946e-01    1.883456e+00   4.666382e-02
  3.393050e-01    1.900468e+00   4.669653e-02
  3.415155e-01    1.889942e+00   4.639196e-02
  3.437260e-01    1.848780e+00   4.571391e-02
  3.459364e-01    1.792001e+00   4.483996e-02
  3.481469e-01    1.803579e+00   4.482038e-02
  3.503573e-01    1.873560e+00   4.551524e-02
  3.525678e-01    1.890115e+00   4.555297e-02
  3.547782e-01    1.842987e+00   4.481890e-02
  3.569887e-01    1.846274e+00   4.469990e-02
  3.591992e-01    1.833515e+00   4.438758e-02
  3.614096e-01    1.775860e+00   4.353266e-02
  3.636201e-01    1.780959e+00   4.344191e-02
  3.658305e-01    1.740303e+00   4.279670e-02
  3.680410e-01    1.785551e+00   4.320039e-02
  3.702514e-01    1.867014e+00   4.402633e-02
  3.724619e-01    1.833541e+00   4.348132e-02
  3.746724e-01    1.763324e+00   4.249832e-02
  3.768828e-01    1.738850e+00   4.206036e-02
  3.790933e-01    1.780046e+00   4.241701e-02
  3.813037e-01    1.765947e+00   4.211047e-02
  3.835142e-01    1.814356e+00   4.254355e-02
  3.857246e-01    1.824206e+00   4.252082e-02
  3.879351e-01    1.798743e+00   4.208637e-02
  3.901455e-01    1.779416e+00   4.172637e-02
  3.923560e-01    1.826529e+00   4.214078e-02
  3.945665e-01    1.826120e+00   4.200245e-02
  3.967769e-01    1.806995e+00   4.165106e-02
  3.989874e-01    1.808416e+00   4.153736e-02
  4.011978e-01    1.819352e+00   4.153462e-02
  4.034083e-01    1.794793e+00   4.112670e-02
  4.056187e-01    1.804162e+00   4.110687e-02
  4.078292e-01    1.830456e+00   4.128003e-02
  4.100397e-01    1.825442e+00   4.109759e-02
  4.122501e-01    1.820156e+00   4.091528e-02
  4.144606e-01    1.788794e+00   4.044097e-02
  4.166710e-01    1.828755e+00   4.076860e-02
  4.188815e-01    1.844211e+00   4.081959e-02
  4.210919e-01    1.773795e+00   3.991541e-02
  4.233024e-01    1.741284e+00   3.943158e-02
  4.255128e-01    1.809052e+00   4.007537e-02
  4.277233e-01    1.839063e+00   4.029033e-02
  4.299338e-01    1.780799e+00   3.953291e-02
  4.321442e-01    1.781325e+00   3.942559e-02
  4.343547e-01    1.751684e+00   3.898565e-02
  4.365651e-01    1.825346e+00   3.968383e-02
  4.387756e-01    1.763880e+00   3.890076e-02
  4.409860e-01    1.788919e+00   3.906733e-02
  4.431965e-01    1.742998e+00   3.845604e-02
  4.454070e-01    1.741643e+00   3.833413e-02
  4.476174e-01    1.759371e+00   3.842295e-02
  4.498279e-01    1.735989e+00   3.806293e-02
  4.520383e-01    1.760751e+00   3.822823e-02
  4.542488e-01    1.789960e+00   3.844007e-02
  4.564592e-01    1.753537e+00   3.794492e-02
  4.586697e-01    1.709458e+00   3.736551e-02
  4.608801e-01    1.710692e+00   3.727887e-02
  4.630906e-01    1.713692e+00   3.721275e-02
  4.653011e-01    1.711810e+00   3.709451e-02
  4.675115e-01    1.736071e+00   3.725806e-02
  4.697220e-01    1.720477e+00   3.699325e-02
  4.719324e-01    1.714647e+00   3.683497e-02
  4.741429e-01    1.732387e+00   3.692965e-02
  4.763533e-01    1.668448e+00   3.614883e-02
  4.785638e-01    1.688597e+00   3.627250e-02
  4.807743e-01    1.659375e+00   3.586584e-02
  4.829847e-01    1.700475e+00   3.621556e-02
  4.851952e-01    1.711296e+00   3.623866e-02
  4.874056e-01    1.731682e+00   3.636198e-02
  4.896161e-01    1.727927e+00   3.623244e-02
  4.918265e-01    1.730900e+00   3.617356e-02
  4.940370e-01    1.712332e+00   3.589017e-02
  4.962475e-01    1.687596e+00   3.554203e-02
  4.984579e-01    1.681726e+00   3.539270e-02
  5.006684e-01    1.673449e+00   3.521943e-02
  5.028788e-01    1.638151e+00   3.476156e-02
  5.050893e-01    1.718700e+00   3.551932e-02
  5.072997e-01    1.738948e+00   3.564166e-02
  5.095102e-01    1.684407e+00   3.499426e-02
  5.117206e-01    1.671580e+00   3.477786e-02
  5.139311e-01    1.666418e+00   3.464194e-02
  5.161416e-01    1.716931e+00   3.507996e-02
  5.183520e-01    1.654691e+00   3.435643e-02
  5.205625e-01    1.692556e+00   3.466587e-02
  5.227729e-01    1.733040e+00   3.499622e-02
  5.249834e-01    1.688401e+00   3.446237e-02
  5.271938e-01    1.712081e+00   3.462224e-02
  5.294043e-01    1.734968e+00   3.477243e-02
  5.316148e-01    1.731368e+00   3.465680e-02
  5.338252e-01    1.774550e+00   3.500612e-02
  5.360357e-01    1.761169e+00   3.479452e-02
  5.382461e-01    1.745973e+00   3.456575e-02
  5.404566e-01    1.746594e+00   3.449322e-02
  5.426670e-01    1.771558e+00   3.466059e-02
  5.448775e-01    1.787396e+00   3.473737e-02
  5.470879e-01    1.820507e+00   3.497950e-02
  5.492984e-01    1.766059e+00   3.437581e-02
  5.515089e-01    1.801197e+00   3.463911e-02
  5.537193e-01    1.779083e+00   3.434997e-02
  5.559298e-01    1.799810e+00   3.447370e-02
  5.581402e-01    1.784822e+00   3.425485e-02
  5.603507e-01    1.831792e+00   3.462713e-02
  5.625611e-01    1.795479e+00   3.420780e-02
  5.647716e-01    1.830647e+00   3.446619e-02
  5.669821e-01    1.810717e+00   3.420417e-02
  5.691925e-01    1.762136e+00   3.366978e-02
  5.714030e-01    1.771563e+00   3.368773e-02
  5.736134e-01    1.736484e+00   3.328162e-02
  5.758239e-01    1.746011e+00   3.330154e-02
  5.780343e-01    1.722510e+00   3.300671e-02
  5.802448e-01    1.709411e+00   3.281215e-02
  5.824552e-01    1.666247e+00   3.232725e-02
  5.846657e-01    1.674910e+00   3.234362e-02
  5.868762e-01    1.633593e+00   3.187569e-02
  5.890866e-01    1.653437e+00   3.200217e-02
  5.912971e-01    1.670706e+00   3.210226e-02
  5.935075e-01    1.638330e+00   3.172399e-02
  5.957180e-01    1.660496e+00   3.187233e-02
  5.979284e-01    1.701927e+00   3.220165e-02
  6.001389e-01    1.694221e+00   3.206325e-02
  6.023494e-01    1.647252e+00   3.155149e-02
  6.045598e-01    1.667142e+00   3.167676e-02
  6.067703e-01    1.654636e+00   3.149429e-02
  6.089807e-01    1.640980e+00   3.130098e-02
  6.111912e-01    1.659238e+00   3.141179e-02
  6.134016e-01    1.682985e+00   3.157266e-02
  6.156121e-01    1.678373e+00   3.146671e-02
  6.178226e-01    1.712138e+00   3.171872e-02
  6.200330e-01    1.727320e+00   3.179621e-02
  6.222435e-01    1.717529e+00   3.164314e-02
  6.244539e-01    1.703863e+00   3.145531e-02
  6.266644e-01    1.694195e+00   3.130474e-02
  6.288748e-01    1.715863e+00   3.144298e-02
  6.310853e-01    1.732772e+00   3.153617e-02
  6.332957e-01    1.743276e+00   3.157055e-02
  6.355062e-01    1.747135e+00   3.154407e-02
  6.377167e-01    1.716979e+00   3.121068e-02
  6.399271e-01    1.681207e+00   3.082464e-02
  6.421376e-01    1.733246e+00   3.123833e-02
  6.443480e-01    1.689284e+00   3.078097e-02
  6.465585e-01    1.672837e+00   3.057272e-02
  6.487689e-01    1.689851e+00   3.066978e-02
  6.509794e-01    1.676344e+00   3.048934e-02
  6.531899e-01    1.665944e+00   3.033747e-02
  6.554003e-01    1.616672e+00   2.982929e-02
  6.576108e-01    1.606860e+00   2.968326e-02
  6.598212e-01    1.606027e+00   2.962042e-02
  6.620317e-01    1.639108e+00   2.986845e-02
  6.642421e-01    1.634848e+00   2.977444e-02
  6.664526e-01    1.615644e+00   2.954451e-02
  6.686630e-01    1.610743e+00   2.944511e-02
  6.708735e-01    1.671076e+00   2.993650e-02
  6.730840e-01    1.621766e+00   2.943774e-02
  6.752944e-01    1.644392e+00   2.958846e-02
  6.775049e-01    1.628796e+00   2.939436e-02
  6.797153e-01    1.612642e+00   2.919526e-02
  6.819258e-01    1.606336e+00   2.908557e-02
  6.841362e-01    1.624298e+00   2.919514e-02
  6.863467e-01    1.599774e+00   2.892201e-02
  6.885572e-01    1.630725e+00   2.914812e-02
  6.907676e-01    1.615939e+00   2.896369e-02
  6.929781e-01    1.630529e+00   2.904243e-02
  6.951885e-01    1.606883e+00   2.878003e-02
  6.973990e-01    1.599591e+00   2.866387e-02
  6.996094e-01    1.567559e+00   2.832551e-02
  7.018199e-01    1.620431e+00   2.874867e-02
  7.040303e-01    1.639978e+00   2.887076e-02
  7.062408e-01    1.585396e+00   2.833655e-02
  7.084513e-01    1.578043e+00   2.822156e-02
  7.106617e-01    1.610896e+00   2.846426e-02
  7.128722e-01    1.632893e+00   2.860839e-02
  7.150826e-01    1.583950e+00   2.812781e-02
  7.172931e-01    1.567847e+00   2.793623e-02
  7.195035e-01    1.538898e+00   2.762952e-02
  7.217140e-01    1.575368e+00   2.800447e-02
  7.239245e-01    1.626969e+00   2.868988e-02
  7.261349e-01    1.595311e+00   2.851873e-02
  7.283454e-01    1.567855e+00   2.834449e-02
  7.305558e-01    1.580411e+00   2.851184e-02
  7.327663e-01    1.585898e+00   2.860394e-02
  7.349767e-01    1.578870e+00   2.855691e-02
  7.371872e-01    1.569873e+00   2.846424e-02
  7.393976e-01    1.584090e+00   2.857854e-02
  7.416081e-01    1.551760e+00   2.826936e-02
  7.438186e-01    1.539842e+00   2.801787e-02
  7.460290e-01    1.557557e+00   2.788592e-02
  7.482395e-01    1.591772e+00   2.801845e-02
  7.504499e-01    1.576975e+00   2.775158e-02
  7.526604e-01    1.539149e+00   2.730146e-02
  7.548708e-01    1.604542e+00   2.778514e-02
  7.570813e-01    1.554398e+00   2.729691e-02
  7.592918e-01    1.579839e+00   2.748414e-02
  7.615022e-01    1.590602e+00   2.754363e-02
  7.637127e-01    1.593054e+00   2.753189e-02
  7.659231e-01    1.629538e+00   2.781280e-02
  7.681336e-01    1.588448e+00   2.742819e-02
  7.703440e-01    1.558179e+00   2.713452e-02
  7.725545e-01    1.576097e+00   2.725919e-02
  7.747650e-01    1.647251e+00   2.782865e-02
  7.769754e-01    1.589342e+00   2.728220e-02
  7.791859e-01    1.587775e+00   2.721503e-02
  7.813963e-01    1.605129e+00   2.731034e-02
  7.836068e-01    1.594218e+00   2.716519e-02
  7.858172e-01    1.599083e+00   2.715575e-02
  7.880277e-01    1.581590e+00   2.695544e-02
  7.902381e-01    1.611278e+00   2.715779e-02
  7.924486e-01    1.639753e+00   2.734600e-02
  7.946591e-01    1.576055e+00   2.676165e-02
  7.968695e-01    1.607585e+00   2.697965e-02
  7.990800e-01    1.637867e+00   2.718391e-02
  8.012904e-01    1.646209e+00   2.720591e-02
  8.035009e-01    1.631323e+00   2.703445e-02
  8.057113e-01    1.588945e+00   2.663485e-02
  8.079218e-01    1.601994e+00   2.669782e-02
  8.101323e-01    1.640260e+00   2.696894e-02
  8.123427e-01    1.657770e+00   2.706626e-02
  8.145532e-01    1.692358e+00   2.730041e-02
  8.167636e-01    1.663200e+00   2.701867e-02
  8.189741e-01    1.636728e+00   2.675814e-02
  8.211845e-01    1.616543e+00   2.654802e-02
  8.233950e-01    1.645119e+00   2.673811e-02
  8.256054e-01    1.660390e+00   2.681740e-02
  8.278159e-01    1.624644e+00   2.648339e-02
  8.300264e-01    1.617037e+00   2.637848e-02
  8.322368e-01    1.627146e+00   2.641784e-02
  8.344473e-01    1.664630e+00   2.667667e-02
  8.366577e-01    1.679439e+00   2.675199e-02
  8.388682e-01    1.656606e+00   2.652704e-02
  8.410786e-01    1.638922e+00   2.634302e-02
  8.432891e-01    1.678781e+00   2.661907e-02
  8.454996e-01    1.628598e+00   2.617672e-02
  8.477100e-01    1.614607e+00   2.602264e-02
  8.499205e-01    1.645938e+00   2.623267e-02
  8.521309e-01    1.653180e+00   2.624930e-02
  8.543414e-01    1.709265e+00   2.664922e-02
  8.565518e-01    1.695808e+00   2.650279e-02
  8.587623e-01    1.617933e+00   2.584682e-02
  8.609727e-01    1.629411e+00   2.589807e-02
  8.631832e-01    1.657471e+00   2.607987e-02
  8.653937e-01    1.629462e+00   2.581884e-02
  8.676041e-01    1.606888e+00   2.560068e-02
  8.698146e-01    1.605411e+00   2.554981e-02
  8.720250e-01    1.590355e+00   2.539094e-02
  8.742355e-01    1.649340e+00   2.581817e-02
  8.764459e-01    1.610470e+00   2.547322e-02
  8.786564e-01    1.592013e+00   2.528907e-02
  8.808669e-01    1.583282e+00   2.518138e-02
  8.830773e-01    1.611848e+00   2.536928e-02
  8.852878e-01    1.627920e+00   2.545722e-02
  8.874982e-01    1.622689e+00   2.537941e-02
  8.897087e-01    1.626157e+00   2.536853e-02
  8.919191e-01    1.623490e+00   2.530970e-02
  8.941296e-01    1.617083e+00   2.522223e-02
  8.963401e-01    1.613730e+00   2.515949e-02
  8.985505e-01    1.591603e+00   2.494955e-02
  9.007610e-01    1.571388e+00   2.475418e-02
  9.029714e-01    1.579381e+00   2.478144e-02
  9.051819e-01    1.609087e+00   2.497608e-02
  9.073923e-01    1.599674e+00   2.486636e-02
  9.096028e-01    1.586014e+00   2.472519e-02
  9.118132e-01    1.599544e+00   2.479422e-02
  9.140237e-01    1.603810e+00   2.479059e-02
  9.162342e-01    1.651783e+00   2.512351e-02
  9.184446e-01    1.630991e+00   2.492879e-02
  9.206551e-01    1.601142e+00   2.466402e-02
  9.228655e-01    1.610006e+00   2.469684e-02
  9.250760e-01    1.657846e+00   2.502512e-02
  9.272864e-01    1.629922e+00   2.477892e-02
  9.294969e-01    1.635710e+00   2.478671e-02
  9.317074e-01    1.621096e+00   2.464085e-02
  9.339178e-01    1.629923e+00   2.467409e-02
  9.361283e-01    1.642348e+00   2.473144e-02
  9.383387e-01    1.674707e+00   2.493994e-02
  9.405492e-01    1.642608e+00   2.466529e-02
  9.427596e-01    1.636575e+00   2.458450e-02
  9.449701e-01    1.634619e+00   2.453642e-02
  9.471805e-01    1.664585e+00   2.472522e-02
  9.493910e-01    1.702422e+00   2.497034e-02
  9.516015e-01    1.731839e+00   2.514999e-02
  9.538119e-01    1.763436e+00   2.534361e-02
  9.560224e-01    1.782409e+00   2.544372e-02
  9.582328e-01    1.757078e+00   2.522839e-02
  9.604433e-01    1.783165e+00   2.537899e-02
  9.626537e-01    1.743832e+00   2.506378e-02
  9.648642e-01    1.746390e+00   2.504778e-02
  9.670747e-01    1.811572e+00   2.547576e-02
  9.692851e-01    1.825499e+00   2.553952e-02
  9.714956e-01    1.837609e+00   2.558796e-02
  9.737060e-01    1.893616e+00   2.594082e-02
  9.759165e-01    1.940757e+00   2.622473e-02
  9.781269e-01    1.941738e+00   2.619704e-02
  9.803374e-01    1.905981e+00   2.591882e-02
  9.825478e-01    1.852453e+00   2.551857e-02
  9.847583e-01    1.825290e+00   2.529638e-02
  9.869688e-01    1.811926e+00   2.516987e-02
  9.891792e-01    1.779240e+00   2.490867e-02
  9.913897e-01    1.752398e+00   2.468671e-02
  9.936001e-01    1.744236e+00   2.459689e-02
  9.958106e-01    1.744227e+00   2.456342e-02
  9.980210e-01    1.705418e+00   2.425708e-02
  1.000231e+00    1.674278e+00   2.416627e-02
  1.002442e+00    1.694498e+00   2.444092e-02
  1.004652e+00    1.642360e+00   2.412912e-02
  1.006863e+00    1.641298e+00   2.417135e-02
  1.009073e+00    1.640288e+00   2.420089e-02
  1.011284e+00    1.623432e+00   2.410844e-02
  1.013494e+00    1.607353e+00   2.401251e-02
  1.015705e+00    1.594519e+00   2.393907e-02
  1.017915e+00    1.601763e+00   2.400993e-02
  1.020126e+00    1.559971e+00   2.371065e-02
  1.022336e+00    1.588700e+00   2.393973e-02
  1.024547e+00    1.717643e+00   2.490409e-02
  1.026757e+00    1.812808e+00   2.559377e-02
  1.028967e+00    1.812737e+00   2.560162e-02
  1.031178e+00    1.684290e+00   2.468440e-02
  1.033388e+00    1.595354e+00   2.402898e-02
  1.035599e+00    1.556843e+00   2.374065e-02
  1.037809e+00    1.570459e+00   2.384751e-02
  1.040020e+00    1.619008e+00   2.421463e-02
  1.042230e+00    1.691267e+00   2.475113e-02
  1.044441e+00    1.854478e+00   2.591764e-02
  1.046651e+00    2.082231e+00   2.746326e-02
  1.048862e+00    2.113768e+00   2.766964e-02
  1.051072e+00    1.783124e+00   2.541104e-02
  1.053282e+00    1.553630e+00   2.371846e-02
  1.055493e+00    1.538738e+00   2.360012e-02
  1.057703e+00    1.556491e+00   2.373431e-02
  1.059914e+00    1.598744e+00   2.404989e-02
  1.062124e+00    1.703409e+00   2.482029e-02
  1.064335e+00    1.775899e+00   2.533918e-02
  1.066545e+00    1.733765e+00   2.503034e-02
  1.068756e+00    1.617487e+00   2.417252e-02
  1.070966e+00    1.541871e+00   2.359405e-02
  1.073177e+00    1.491768e+00   2.320143e-02
  1.075387e+00    1.487626e+00   2.316393e-02
  1.077597e+00    1.508827e+00   2.332105e-02
  1.079808e+00    1.495843e+00   2.308634e-02
  1.082018e+00    1.463893e+00   2.264932e-02
  1.084229e+00    1.460618e+00   2.251390e-02
  1.086439e+00    1.477957e+00   2.255903e-02
  1.088650e+00    1.465553e+00   2.238820e-02
  1.090860e+00    1.456171e+00   2.224877e-02
  1.093071e+00    1.431703e+00   2.199927e-02
  1.095281e+00    1.417430e+00   2.183265e-02
  1.097492e+00    1.413450e+00   2.174767e-02
  1.099702e+00    1.418109e+00   2.173249e-02
  1.101912e+00    1.443048e+00   2.187384e-02
  1.104123e+00    1.422319e+00   2.166819e-02
  1.106333e+00    1.410568e+00   2.153440e-02
  1.108544e+00    1.433876e+00   2.166727e-02
  1.110754e+00    1.421371e+00   2.152965e-02
  1.112965e+00    1.429216e+00   2.154834e-02
  1.115175e+00    1.437610e+00   2.157010e-02
  1.117386e+00    1.422801e+00   2.141934e-02
  1.119596e+00    1.383191e+00   2.108160e-02
  1.121807e+00    1.396034e+00   2.114061e-02
  1.124017e+00    1.414582e+00   2.124384e-02
  1.126228e+00    1.387005e+00   2.100023e-02
  1.128438e+00    1.376704e+00   2.088566e-02
  1.130648e+00    1.358542e+00   2.071360e-02
  1.132859e+00    1.386528e+00   2.089164e-02
  1.135069e+00    1.370415e+00   2.073545e-02
  1.137280e+00    1.351634e+00   2.056033e-02
  1.139490e+00    1.347036e+00   2.049274e-02
  1.141701e+00    1.370543e+00   2.063783e-02
  1.143911e+00    1.389528e+00   2.074836e-02
  1.146122e+00    1.355133e+00   2.045824e-02
  1.148332e+00    1.352135e+00   2.040403e-02
  1.150543e+00    1.346888e+00   2.033391e-02
  1.152753e+00    1.355796e+00   2.037043e-02
  1.154963e+00    1.373942e+00   2.047525e-02
  1.157174e+00    1.371388e+00   2.042607e-02
  1.159384e+00    1.383069e+00   2.048291e-02
  1.161595e+00    1.359228e+00   2.027589e-02
  1.163805e+00    1.353866e+00   2.020673e-02
  1.166016e+00    1.359743e+00   2.022122e-02
  1.168226e+00    1.377595e+00   2.032442e-02
  1.170437e+00    1.420046e+00   2.060603e-02
  1.172647e+00    1.399172e+00   2.042478e-02
  1.174858e+00    1.377672e+00   2.023901e-02
  1.177068e+00    1.364520e+00   2.011391e-02
  1.179278e+00    1.329333e+00   1.982464e-02
  1.181489e+00    1.328156e+00   1.978917e-02
  1.183699e+00    1.318686e+00   1.969131e-02
  1.185910e+00    1.334505e+00   1.978154e-02
  1.188120e+00    1.326187e+00   1.969342e-02
  1.190331e+00    1.361029e+00   1.992360e-02
  1.192541e+00    1.347417e+00   1.979643e-02
  1.194752e+00    1.350663e+00   1.979322e-02
  1.196962e+00    1.371373e+00   1.991847e-02
  1.199173e+00    1.350330e+00   1.973856e-02
  1.201383e+00    1.327605e+00   1.954483e-02
  1.203593e+00    1.329181e+00   1.953180e-02
  1.205804e+00    1.311754e+00   1.937778e-02
  1.208014e+00    1.339786e+00   1.955699e-02
  1.210225e+00    1.335375e+00   1.949958e-02
  1.212435e+00    1.352118e+00   1.959663e-02
  1.214646e+00    1.357271e+00   1.960777e-02
  1.216856e+00    1.335513e+00   1.942464e-02
  1.219067e+00    1.311591e+00   1.922576e-02
  1.221277e+00    1.308206e+00   1.917629e-02
  1.223488e+00    1.360762e+00   1.953183e-02
  1.225698e+00    1.364805e+00   1.953380e-02
  1.227909e+00    1.356011e+00   1.944053e-02
  1.230119e+00    1.347433e+00   1.934712e-02
  1.232329e+00    1.340436e+00   1.926620e-02
  1.234540e+00    1.351461e+00   1.931499e-02
  1.236750e+00    1.344671e+00   1.923617e-02
  1.238961e+00    1.335335e+00   1.914248e-02
  1.241171e+00    1.334726e+00   1.911406e-02
  1.243382e+00    1.327019e+00   1.903548e-02
  1.245592e+00    1.314847e+00   1.892420e-02
  1.247803e+00    1.346035e+00   1.912368e-02
  1.250013e+00    1.353750e+00   1.915486e-02
  1.252224e+00    1.355622e+00   1.914479e-02
  1.254434e+00    1.347321e+00   1.906238e-02
  1.256644e+00    1.337531e+00   1.896988e-02
  1.258855e+00    1.321338e+00   1.883169e-02
  1.261065e+00    1.327251e+00   1.885060e-02
  1.263276e+00    1.347510e+00   1.897098e-02
  1.265486e+00    1.367737e+00   1.908983e-02
  1.267697e+00    1.354827e+00   1.897646e-02
  1.269907e+00    1.346436e+00   1.889495e-02
  1.272118e+00    1.320954e+00   1.869296e-02
  1.274328e+00    1.335851e+00   1.877545e-02
  1.276539e+00    1.321724e+00   1.865336e-02
  1.278749e+00    1.346892e+00   1.880785e-02
  1.280959e+00    1.340277e+00   1.873917e-02
  1.283170e+00    1.378718e+00   1.898331e-02
  1.285380e+00    1.407462e+00   1.915729e-02
  1.287591e+00    1.354328e+00   1.877013e-02
  1.289801e+00    1.365134e+00   1.882349e-02
  1.292012e+00    1.372879e+00   1.885960e-02
  1.294222e+00    1.349832e+00   1.868439e-02
  1.296433e+00    1.358088e+00   1.872577e-02
  1.298643e+00    1.355028e+00   1.868819e-02
  1.300854e+00    1.355060e+00   1.867195e-02
  1.303064e+00    1.354867e+00   1.865137e-02
  1.305274e+00    1.335417e+00   1.849569e-02
  1.307485e+00    1.319024e+00   1.836051e-02
  1.309695e+00    1.342632e+00   1.850190e-02
  1.311906e+00    1.378841e+00   1.872781e-02
  1.314116e+00    1.360555e+00   1.858233e-02
  1.316327e+00    1.347505e+00   1.847134e-02
  1.318537e+00    1.346908e+00   1.844538e-02
  1.320748e+00    1.344335e+00   1.840625e-02
  1.322958e+00    1.355209e+00   1.845997e-02
  1.325169e+00    1.330792e+00   1.827206e-02
  1.327379e+00    1.329919e+00   1.824440e-02
  1.329589e+00    1.356918e+00   1.840755e-02
  1.331800e+00    1.352786e+00   1.835879e-02
  1.334010e+00    1.365857e+00   1.842648e-02
  1.336221e+00    1.379315e+00   1.849506e-02
  1.338431e+00    1.385005e+00   1.851204e-02
  1.340642e+00    1.369206e+00   1.847077e-02
  1.342852e+00    1.362688e+00   1.852790e-02
  1.345063e+00    1.360616e+00   1.856349e-02
  1.347273e+00    1.329630e+00   1.838587e-02
  1.349484e+00    1.321128e+00   1.835437e-02
  1.351694e+00    1.338008e+00   1.849386e-02
  1.353905e+00    1.335199e+00   1.849234e-02
  1.356115e+00    1.325596e+00   1.844062e-02
  1.358325e+00    1.309218e+00   1.833948e-02
  1.360536e+00    1.333679e+00   1.852153e-02
  1.362746e+00    1.348108e+00   1.863104e-02
  1.364957e+00    1.353322e+00   1.867469e-02
  1.367167e+00    1.318014e+00   1.843658e-02
  1.369378e+00    1.308493e+00   1.837576e-02
  1.371588e+00    1.335580e+00   1.857012e-02
  1.373799e+00    1.331528e+00   1.854559e-02
  1.376009e+00    1.312792e+00   1.841801e-02
  1.378220e+00    1.315365e+00   1.843856e-02
  1.380430e+00    1.289212e+00   1.825701e-02
  1.382640e+00    1.296649e+00   1.831047e-02
  1.384851e+00    1.280969e+00   1.820030e-02
  1.387061e+00    1.274260e+00   1.815286e-02
  1.389272e+00    1.269419e+00   1.811855e-02
  1.391482e+00    1.293761e+00   1.829075e-02
  1.393693e+00    1.296079e+00   1.830628e-02
  1.395903e+00    1.283687e+00   1.821705e-02
  1.398114e+00    1.281496e+00   1.820012e-02
  1.400324e+00    1.266085e+00   1.808825e-02
  1.402535e+00    1.253408e+00   1.799516e-02
  1.404745e+00    1.284032e+00   1.821127e-02
  1.406955e+00    1.288009e+00   1.823677e-02
  1.409166e+00    1.269655e+00   1.810306e-02
  1.411376e+00    1.255497e+00   1.799875e-02
  1.413587e+00    1.248840e+00   1.794717e-02
  1.415797e+00    1.252817e+00   1.797222e-02
  1.418008e+00    1.249324e+00   1.790562e-02
  1.420218e+00    1.241749e+00   1.770321e-02
  1.422429e+00    1.241740e+00   1.761876e-02
  1.424639e+00    1.264716e+00   1.771649e-02
  1.426850e+00    1.256537e+00   1.760469e-02
  1.429060e+00    1.265463e+00   1.761820e-02
  1.431270e+00    1.271430e+00   1.761536e-02
  1.433481e+00    1.260597e+00   1.749935e-02
  1.435691e+00    1.263697e+00   1.748252e-02
  1.437902e+00    1.273304e+00   1.751235e-02
  1.440112e+00    1.231668e+00   1.718885e-02
  1.442323e+00    1.235480e+00   1.718281e-02
  1.444533e+00    1.272724e+00   1.740729e-02
  1.446744e+00    1.288692e+00   1.748480e-02
  1.448954e+00    1.294285e+00   1.749222e-02
  1.451165e+00    1.289690e+00   1.743117e-02
  1.453375e+00    1.261716e+00   1.721313e-02
  1.455586e+00    1.269454e+00   1.723767e-02
  1.457796e+00    1.272928e+00   1.723371e-02
  1.460006e+00    1.275515e+00   1.722388e-02
  1.462217e+00    1.275696e+00   1.719884e-02
  1.464427e+00    1.265772e+00   1.710621e-02
  1.466638e+00    1.299518e+00   1.730716e-02
  1.468848e+00    1.265263e+00   1.705221e-02
  1.471059e+00    1.270804e+00   1.706441e-02
  1.473269e+00    1.248196e+00   1.688777e-02
  1.475480e+00    1.226925e+00   1.671989e-02
  1.477690e+00    1.221944e+00   1.666250e-02
  1.479901e+00    1.268819e+00   1.695523e-02
  1.482111e+00    1.267291e+00   1.692173e-02
  1.484321e+00    1.251803e+00   1.679501e-02
  1.486532e+00    1.227537e+00   1.660946e-02
  1.488742e+00    1.247849e+00   1.672379e-02
  1.490953e+00    1.252288e+00   1.673103e-02
  1.493163e+00    1.270651e+00   1.683090e-02
  1.495374e+00    1.269703e+00   1.680309e-02
  1.497584e+00    1.262330e+00   1.673255e-02
  1.499795e+00    1.278938e+00   1.682046e-02
  1.502005e+00    1.274622e+00   1.677026e-02
  1.504216e+00    1.258525e+00   1.664299e-02
  1.506426e+00    1.233793e+00   1.645803e-02
  1.508636e+00    1.269038e+00   1.667090e-02
  1.510847e+00    1.271395e+00   1.666445e-02
  1.513057e+00    1.252609e+00   1.651581e-02
  1.515268e+00    1.272337e+00   1.661946e-02
  1.517478e+00    1.256423e+00   1.649003e-02
  1.519689e+00    1.240193e+00   1.635836e-02
  1.521899e+00    1.241790e+00   1.634588e-02
  1.524110e+00    1.269547e+00   1.650709e-02
  1.526320e+00    1.243194e+00   1.631536e-02
  1.528531e+00    1.252958e+00   1.635952e-02
  1.530741e+00    1.235733e+00   1.622765e-02
  1.532951e+00    1.250919e+00   1.630744e-02
  1.535162e+00    1.247776e+00   1.637350e-02
  1.537372e+00    1.267384e+00   1.656902e-02
  1.539583e+00    1.245471e+00   1.645937e-02
  1.541793e+00    1.250044e+00   1.649651e-02
  1.544004e+00    1.226726e+00   1.634217e-02
  1.546214e+00    1.233602e+00   1.638642e-02
  1.548425e+00    1.247070e+00   1.647587e-02
  1.550635e+00    1.242669e+00   1.645646e-02
  1.552846e+00    1.230448e+00   1.638493e-02
  1.555056e+00    1.262783e+00   1.655704e-02
  1.557266e+00    1.254048e+00   1.638881e-02
  1.559477e+00    1.244761e+00   1.626888e-02
  1.561687e+00    1.259166e+00   1.633189e-02
  1.563898e+00    1.266433e+00   1.636166e-02
  1.566108e+00    1.252286e+00   1.625400e-02
  1.568319e+00    1.262346e+00   1.630343e-02
  1.570529e+00    1.242185e+00   1.614761e-02
  1.572740e+00    1.227358e+00   1.602351e-02
  1.574950e+00    1.256333e+00   1.618510e-02
  1.577161e+00    1.241312e+00   1.606263e-02
  1.579371e+00    1.255428e+00   1.612992e-02
  1.581582e+00    1.254543e+00   1.610439e-02
  1.583792e+00    1.257734e+00   1.610674e-02
  1.586002e+00    1.263759e+00   1.612752e-02
  1.588213e+00    1.245147e+00   1.599108e-02
  1.590423e+00    1.260071e+00   1.606640e-02
  1.592634e+00    1.263706e+00   1.606779e-02
  1.594844e+00    1.232583e+00   1.584739e-02
  1.597055e+00    1.240176e+00   1.587564e-02
  1.599265e+00    1.239365e+00   1.584975e-02
  1.601476e+00    1.244265e+00   1.586070e-02
  1.603686e+00    1.238474e+00   1.580402e-02
  1.605897e+00    1.214644e+00   1.563127e-02
  1.608107e+00    1.229837e+00   1.570922e-02
  1.610317e+00    1.244722e+00   1.578464e-02
  1.612528e+00    1.240275e+00   1.573721e-02
  1.614738e+00    1.216719e+00   1.556821e-02
  1.616949e+00    1.213030e+00   1.552571e-02
  1.619159e+00    1.206160e+00   1.546310e-02
  1.621370e+00    1.178106e+00   1.526407e-02
  1.623580e+00    1.192532e+00   1.533906e-02
  1.625791e+00    1.173975e+00   1.520127e-02
  1.628001e+00    1.166252e+00   1.513317e-02
  1.630212e+00    1.176605e+00   1.518259e-02
  1.632422e+00    1.148560e+00   1.498293e-02
  1.634632e+00    1.179096e+00   1.516350e-02
  1.636843e+00    1.169382e+00   1.508345e-02
  1.639053e+00    1.152706e+00   1.495837e-02
  1.641264e+00    1.162145e+00   1.500245e-02
  1.643474e+00    1.147519e+00   1.489047e-02
  1.645685e+00    1.152948e+00   1.490901e-02
  1.647895e+00    1.163141e+00   1.495813e-02
  1.650106e+00    1.126331e+00   1.470274e-02
  1.652316e+00    1.126306e+00   1.468622e-02
  1.654527e+00    1.151013e+00   1.482971e-02
  1.656737e+00    1.132164e+00   1.469125e-02
  1.658947e+00    1.149929e+00   1.478964e-02
  1.661158e+00    1.156694e+00   1.481662e-02
  1.663368e+00    1.157447e+00   1.480517e-02
  1.665579e+00    1.119873e+00   1.454673e-02
  1.667789e+00    1.092249e+00   1.435014e-02
  1.670000e+00    1.085218e+00   1.428856e-02
  1.672210e+00    1.079016e+00   1.423203e-02
  1.674421e+00    1.078234e+00   1.421173e-02
  1.676631e+00    1.074453e+00   1.417109e-02
  1.678842e+00    1.093419e+00   1.427991e-02
  1.681052e+00    1.112967e+00   1.439145e-02
  1.683263e+00    1.107313e+00   1.433963e-02
  1.685473e+00    1.090157e+00   1.421289e-02
  1.687683e+00    1.081191e+00   1.413893e-02
  1.689894e+00    1.063138e+00   1.400475e-02
  1.692104e+00    1.041503e+00   1.384684e-02
  1.694315e+00    1.062450e+00   1.397096e-02
  1.696525e+00    1.036043e+00   1.378133e-02
  1.698736e+00    1.047258e+00   1.384101e-02
  1.700946e+00    1.058676e+00   1.390114e-02
  1.703157e+00    1.063030e+00   1.391503e-02
  1.705367e+00    1.032054e+00   1.369644e-02
  1.707578e+00    1.034537e+00   1.369842e-02
  1.709788e+00    1.026783e+00   1.363300e-02
  1.711998e+00    1.027074e+00   1.362004e-02
  1.714209e+00    1.016774e+00   1.353730e-02
  1.716419e+00    1.012942e+00   1.349763e-02
  1.718630e+00    1.013565e+00   1.348764e-02
  1.720840e+00    1.009378e+00   1.344571e-02
  1.723051e+00    1.019232e+00   1.349733e-02
  1.725261e+00    1.029152e+00   1.354815e-02
  1.727472e+00    1.003643e+00   1.336511e-02
  1.729682e+00    9.893337e-01   1.325620e-02
  1.731893e+00    1.001604e+00   1.332431e-02
  1.734103e+00    1.015938e+00   1.340549e-02
  1.736313e+00    9.891856e-01   1.321392e-02
  1.738524e+00    1.003461e+00   1.329506e-02
  1.740734e+00    1.025783e+00   1.342826e-02
  1.742945e+00    1.000262e+00   1.324669e-02
  1.745155e+00    9.834401e-01   1.312144e-02
  1.747366e+00    9.651470e-01   1.298519e-02
  1.749576e+00    9.612675e-01   1.294555e-02
  1.751787e+00    9.583214e-01   1.291253e-02
  1.753997e+00    9.564453e-01   1.288666e-02
  1.756208e+00    9.529358e-01   1.284995e-02
  1.758418e+00    9.506456e-01   1.282152e-02
  1.760628e+00    9.574441e-01   1.285402e-02
  1.762839e+00    9.545342e-01   1.282133e-02
  1.765049e+00    9.336271e-01   1.266723e-02
  1.767260e+00    9.361116e-01   1.267139e-02
  1.769470e+00    9.689723e-01   1.287881e-02
  1.771681e+00    9.609330e-01   1.281209e-02
  1.773891e+00    9.312906e-01   1.260001e-02
  1.776102e+00    9.129233e-01   1.246249e-02
  1.778312e+00    9.311277e-01   1.257350e-02
  1.780523e+00    9.215270e-01   1.249591e-02
  1.782733e+00    9.155694e-01   1.244293e-02
  1.784944e+00    9.185061e-01   1.245010e-02
  1.787154e+00    9.138002e-01   1.240574e-02
  1.789364e+00    9.158159e-01   1.240707e-02
  1.791575e+00    9.058263e-01   1.232680e-02
  1.793785e+00    8.879067e-01   1.219210e-02
  1.795996e+00    9.119527e-01   1.234362e-02
  1.798206e+00    9.377358e-01   1.250425e-02
  1.800417e+00    9.191183e-01   1.236682e-02
  1.802627e+00    9.143850e-01   1.232299e-02
  1.804838e+00    9.088098e-01   1.227329e-02
  1.807048e+00    8.999708e-01   1.220068e-02
  1.809259e+00    8.889628e-01   1.211236e-02
  1.811469e+00    9.117450e-01   1.225155e-02
  1.813679e+00    9.398372e-01   1.242359e-02
  1.815890e+00    9.461810e-01   1.245031e-02
  1.818100e+00    9.322353e-01   1.234283e-02
  1.820311e+00    9.125776e-01   1.219705e-02
  1.822521e+00    9.020466e-01   1.211155e-02
  1.824732e+00    8.962482e-01   1.205769e-02
  1.826942e+00    8.852714e-01   1.197130e-02
  1.829153e+00    8.780972e-01   1.191106e-02
  1.831363e+00    8.746107e-01   1.187540e-02
  1.833574e+00    8.771042e-01   1.188068e-02
  1.835784e+00    8.824787e-01   1.190556e-02
  1.837994e+00    9.103374e-01   1.208010e-02
  1.840205e+00    9.184363e-01   1.212226e-02
  1.842415e+00    9.371832e-01   1.223317e-02
  1.844626e+00    9.611207e-01   1.237626e-02
  1.846836e+00    9.312741e-01   1.217077e-02
  1.849047e+00    8.851755e-01   1.185397e-02
  1.851257e+00    8.627163e-01   1.169304e-02
  1.853468e+00    8.814899e-01   1.181068e-02
  1.855678e+00    8.687800e-01   1.171632e-02
  1.857889e+00    8.571923e-01   1.162943e-02
  1.860099e+00    8.566839e-01   1.161733e-02
  1.862309e+00    8.572444e-01   1.161264e-02
  1.864520e+00    8.480499e-01   1.154164e-02
  1.866730e+00    8.701613e-01   1.168167e-02
  1.868941e+00    8.651186e-01   1.163675e-02
  1.871151e+00    8.627604e-01   1.160942e-02
  1.873362e+00    8.563856e-01   1.155506e-02
  1.875572e+00    8.473478e-01   1.148301e-02
  1.877783e+00    8.455988e-01   1.145973e-02
  1.879993e+00    8.492528e-01   1.147330e-02
  1.882204e+00    8.418925e-01   1.141259e-02
  1.884414e+00    8.460269e-01   1.142948e-02
  1.886624e+00    8.532947e-01   1.146736e-02
  1.888835e+00    8.501496e-01   1.143515e-02
  1.891045e+00    8.597152e-01   1.148831e-02
  1.893256e+00    8.580995e-01   1.146629e-02
  1.895466e+00    8.542220e-01   1.142907e-02
  1.897677e+00    8.327323e-01   1.127349e-02
  1.899887e+00    8.545899e-01   1.140936e-02
  1.902098e+00    8.476487e-01   1.135201e-02
  1.904308e+00    8.299103e-01   1.122202e-02
  1.906519e+00    8.166860e-01   1.112149e-02
  1.908729e+00    8.198777e-01   1.113265e-02
  1.910940e+00    7.989089e-01   1.097845e-02
  1.913150e+00    7.909254e-01   1.091308e-02
  1.915360e+00    8.177426e-01   1.108596e-02
  1.917571e+00    8.381549e-01   1.121252e-02
  1.919781e+00    7.938886e-01   1.090191e-02
  1.921992e+00    8.106720e-01   1.100597e-02
  1.924202e+00    8.059401e-01   1.096313e-02
  1.926413e+00    8.004845e-01   1.091576e-02
  1.928623e+00    8.010517e-01   1.090915e-02
  1.930834e+00    8.252203e-01   1.106199e-02
  1.933044e+00    8.060145e-01   1.092191e-02
  1.935255e+00    8.152075e-01   1.097362e-02
  1.937465e+00    8.002685e-01   1.086230e-02
  1.939675e+00    8.017475e-01   1.086148e-02
  1.941886e+00    8.019944e-01   1.085291e-02
  1.944096e+00    7.927453e-01   1.078003e-02
  1.946307e+00    8.050084e-01   1.085272e-02
  1.948517e+00    7.983410e-01   1.079727e-02
  1.950728e+00    7.883408e-01   1.071924e-02
  1.952938e+00    7.968134e-01   1.076660e-02
  1.955149e+00    7.720755e-01   1.058810e-02
  1.957359e+00    7.851883e-01   1.066761e-02
  1.959570e+00    8.053091e-01   1.079252e-02
  1.961780e+00    7.985731e-01   1.073734e-02
  1.963990e+00    7.764071e-01   1.057725e-02
  1.966201e+00    7.953191e-01   1.069520e-02
  1.968411e+00    7.856343e-01   1.061976e-02
  1.970622e+00    7.896966e-01   1.063708e-02
  1.972832e+00    7.842411e-01   1.059032e-02
  1.975043e+00    7.775785e-01   1.053525e-02
  1.977253e+00    7.778749e-01   1.052736e-02
  1.979464e+00    7.524139e-01   1.034381e-02
  1.981674e+00    7.650706e-01   1.042027e-02
  1.983885e+00    7.763547e-01   1.048687e-02
  1.986095e+00    7.687150e-01   1.042553e-02
  1.988305e+00    7.622327e-01   1.037168e-02
  1.990516e+00    7.777807e-01   1.046700e-02
  1.992726e+00    7.758896e-01   1.044463e-02
  1.994937e+00    7.731739e-01   1.041622e-02
  1.997147e+00    7.728088e-01   1.040406e-02
  1.999358e+00    7.575302e-01   1.029096e-02
  2.001568e+00    7.576644e-01   1.028116e-02
  2.003779e+00    7.585818e-01   1.027558e-02
  2.005989e+00    7.577783e-01   1.025821e-02
  2.008200e+00    7.667847e-01   1.030750e-02
  2.010410e+00    7.641264e-01   1.027791e-02
  2.012621e+00    7.624564e-01   1.025502e-02
  2.014831e+00    7.595317e-01   1.022390e-02
  2.017041e+00    7.731798e-01   1.030494e-02
  2.019252e+00    7.580677e-01   1.019382e-02
  2.021462e+00    7.603590e-01   1.019974e-02
  2.023673e+00    7.666853e-01   1.023268e-02
  2.025883e+00    7.625296e-01   1.019540e-02
  2.028094e+00    7.433896e-01   1.005710e-02
  2.030304e+00    7.500790e-01   1.009279e-02
  2.032515e+00    7.374493e-01   9.998306e-03
  2.034725e+00    7.437243e-01   1.003140e-02
  2.036936e+00    7.568955e-01   1.011051e-02
  2.039146e+00    7.465676e-01   1.003180e-02
  2.041356e+00    7.544093e-01   1.007472e-02
  2.043567e+00    7.526294e-01   1.005351e-02
  2.045777e+00    7.662156e-01   1.013457e-02
  2.047988e+00    7.608112e-01   1.008933e-02
  2.050198e+00    7.678993e-01   1.012772e-02
  2.052409e+00    7.581865e-01   1.005579e-02
  2.054619e+00    7.636130e-01   1.008427e-02
  2.056830e+00    7.552381e-01   1.002163e-02
  2.059040e+00    7.637873e-01   1.007060e-02
  2.061251e+00    7.654873e-01   1.007450e-02
  2.063461e+00    7.459955e-01   9.937820e-03
  2.065671e+00    7.533388e-01   9.977868e-03
  2.067882e+00    7.603362e-01   1.001502e-02
  2.070092e+00    7.693300e-01   1.006476e-02
  2.072303e+00    7.628310e-01   1.001291e-02
  2.074513e+00    7.714737e-01   1.005999e-02
  2.076724e+00    7.704248e-01   1.004353e-02
  2.078934e+00    7.591973e-01   9.960978e-03
  2.081145e+00    7.452447e-01   9.859929e-03
  2.083355e+00    7.506986e-01   9.886708e-03
  2.085566e+00    7.416657e-01   9.818126e-03
  2.087776e+00    7.501491e-01   9.864558e-03
  2.089986e+00    7.580827e-01   9.907663e-03
  2.092197e+00    7.583712e-01   9.900487e-03
  2.094407e+00    7.499430e-01   9.835996e-03
  2.096618e+00    7.394137e-01   9.757787e-03
  2.098828e+00    7.391731e-01   9.746855e-03
  2.101039e+00    7.267272e-01   9.655509e-03
  2.103249e+00    7.316828e-01   9.679700e-03
  2.105460e+00    7.256910e-01   9.630999e-03
  2.107670e+00    7.227551e-01   9.602790e-03
  2.109881e+00    7.386127e-01   9.698321e-03
  2.112091e+00    7.297491e-01   9.630959e-03
  2.114301e+00    7.232789e-01   9.579395e-03
  2.116512e+00    7.226354e-01   9.566327e-03
  2.118722e+00    7.274955e-01   9.589598e-03
  2.120933e+00    7.270272e-01   9.577599e-03
  2.123143e+00    7.118996e-01   9.468587e-03
  2.125354e+00    6.898733e-01   9.312584e-03
  2.127564e+00    7.030276e-01   9.392289e-03
  2.129775e+00    7.078742e-01   9.415937e-03
  2.131985e+00    7.155191e-01   9.457578e-03
  2.134196e+00    7.084377e-01   9.402108e-03
  2.136406e+00    7.076945e-01   9.388455e-03
  2.138617e+00    7.002816e-01   9.330763e-03
  2.140827e+00    7.089145e-01   9.404144e-03
  2.143037e+00    7.113466e-01   9.465902e-03
  2.145248e+00    6.959080e-01   9.384451e-03
  2.147458e+00    7.070674e-01   9.474561e-03
  2.149669e+00    6.893811e-01   9.367061e-03
  2.151879e+00    6.929171e-01   9.400198e-03
  2.154090e+00    7.020529e-01   9.469287e-03
  2.156300e+00    6.980793e-01   9.449063e-03
  2.158511e+00    6.794325e-01   9.327216e-03
  2.160721e+00    7.018191e-01   9.484455e-03
  2.162932e+00    7.002442e-01   9.477577e-03
  2.165142e+00    6.920987e-01   9.425282e-03
  2.167352e+00    6.920622e-01   9.427952e-03
  2.169563e+00    6.901682e-01   9.416991e-03
  2.171773e+00    6.744332e-01   9.311427e-03
  2.173984e+00    6.968807e-01   9.466522e-03
  2.176194e+00    6.919403e-01   9.434129e-03
  2.178405e+00    6.903702e-01   9.424102e-03
  2.180615e+00    6.974452e-01   9.472949e-03
  2.182826e+00    7.104587e-01   9.561609e-03
  2.185036e+00    6.972682e-01   9.472503e-03
  2.187247e+00    6.860300e-01   9.395789e-03
  2.189457e+00    6.838930e-01   9.380735e-03
  2.191667e+00    6.939421e-01   9.449229e-03
  2.193878e+00    6.885357e-01   9.411796e-03
  2.196088e+00    6.779141e-01   9.338219e-03
  2.198299e+00    6.735993e-01   9.307392e-03
  2.200509e+00    6.734606e-01   9.305361e-03
  2.202720e+00    6.787340e-01   9.340589e-03
  2.204930e+00    6.762828e-01   9.322468e-03
  2.207141e+00    6.772273e-01   9.327870e-03
  2.209351e+00    6.655879e-01   9.245497e-03
  2.211562e+00    6.563559e-01   9.179557e-03
  2.213772e+00    6.747755e-01   9.252076e-03
  2.215982e+00    6.810229e-01   9.250418e-03
  2.218193e+00    6.827480e-01   9.232361e-03
  2.220403e+00    6.761808e-01   9.163226e-03
  2.222614e+00    6.737384e-01   9.125725e-03
  2.224824e+00    6.749557e-01   9.114556e-03
  2.227035e+00    6.749887e-01   9.097307e-03
  2.229245e+00    6.709297e-01   9.052952e-03
  2.231456e+00    6.715227e-01   9.041345e-03
  2.233666e+00    6.672013e-01   8.997139e-03
  2.235877e+00    6.660480e-01   8.975160e-03
  2.238087e+00    6.576889e-01   8.905282e-03
  2.240298e+00    6.702153e-01   8.975926e-03
  2.242508e+00    6.685334e-01   8.949526e-03
  2.244718e+00    6.851369e-01   9.043966e-03
  2.246929e+00    6.768386e-01   8.974535e-03
  2.249139e+00    6.735482e-01   8.940255e-03
  2.251350e+00    6.719611e-01   8.917948e-03
  2.253560e+00    6.679912e-01   8.880010e-03
  2.255771e+00    6.735575e-01   8.905441e-03
  2.257981e+00    6.612582e-01   8.812625e-03
  2.260192e+00    6.544788e-01   8.756288e-03
  2.262402e+00    6.802850e-01   8.916280e-03
  2.264613e+00    6.578600e-01   8.757315e-03
  2.266823e+00    6.359145e-01   8.599819e-03
  2.269033e+00    6.481494e-01   8.671882e-03
  2.271244e+00    6.584023e-01   8.729829e-03
  2.273454e+00    6.625683e-01   8.747168e-03
  2.275665e+00    6.503063e-01   8.655636e-03
  2.277875e+00    6.529178e-01   8.663104e-03
  2.280086e+00    6.730071e-01   8.785252e-03
  2.282296e+00    6.579034e-01   8.676712e-03
  2.284507e+00    6.631036e-01   8.700770e-03
  2.286717e+00    6.661876e-01   8.711462e-03
  2.288928e+00    6.562263e-01   8.636219e-03
  2.291138e+00    6.557180e-01   8.623465e-03
  2.293348e+00    6.533970e-01   8.598658e-03
  2.295559e+00    6.583615e-01   8.621932e-03
  2.297769e+00    6.566131e-01   8.601211e-03
  2.299980e+00    6.653352e-01   8.648733e-03
  2.302190e+00    6.680073e-01   8.656854e-03
  2.304401e+00    6.504297e-01   8.532903e-03
  2.306611e+00    6.434550e-01   8.477878e-03
  2.308822e+00    6.509594e-01   8.518793e-03
  2.311032e+00    6.313351e-01   8.383042e-03
  2.313243e+00    6.549847e-01   8.532311e-03
  2.315453e+00    6.423616e-01   8.442172e-03
  2.317663e+00    6.449689e-01   8.450171e-03
  2.319874e+00    6.381546e-01   8.396744e-03
  2.322084e+00    6.604450e-01   8.533060e-03
  2.324295e+00    6.583552e-01   8.511253e-03
  2.326505e+00    6.458162e-01   8.420750e-03
  2.328716e+00    6.386517e-01   8.365386e-03
  2.330926e+00    6.479223e-01   8.417049e-03
  2.333137e+00    6.402509e-01   8.358724e-03
  2.335347e+00    6.492190e-01   8.408112e-03
  2.337558e+00    6.516830e-01   8.415783e-03
  2.339768e+00    6.243148e-01   8.228688e-03
  2.341979e+00    6.277467e-01   8.242980e-03
  2.344189e+00    6.406291e-01   8.318706e-03
  2.346399e+00    6.365582e-01   8.283754e-03
  2.348610e+00    6.349466e-01   8.264792e-03
  2.350820e+00    6.305889e-01   8.228245e-03
  2.353031e+00    6.180609e-01   8.137921e-03
  2.355241e+00    6.135384e-01   8.100147e-03
  2.357452e+00    6.101766e-01   8.069673e-03
  2.359662e+00    6.111186e-01   8.067782e-03
  2.361873e+00    6.239698e-01   8.143997e-03
  2.364083e+00    6.382688e-01   8.228732e-03
  2.366294e+00    6.175043e-01   8.085743e-03
  2.368504e+00    6.274216e-01   8.142329e-03
  2.370714e+00    6.213677e-01   8.094919e-03
  2.372925e+00    6.159692e-01   8.051696e-03
  2.375135e+00    6.102696e-01   8.006384e-03
  2.377346e+00    6.188375e-01   8.054470e-03
  2.379556e+00    6.234313e-01   8.076417e-03
  2.381767e+00    6.111323e-01   7.988561e-03
  2.383977e+00    6.064947e-01   7.950351e-03
  2.386188e+00    6.132585e-01   7.986664e-03
  2.388398e+00    6.236078e-01   8.045800e-03
  2.390609e+00    6.118214e-01   7.961717e-03
  2.392819e+00    6.103175e-01   7.944187e-03
  2.395029e+00    6.063186e-01   7.910503e-03
  2.397240e+00    6.128606e-01   7.945223e-03
  2.399450e+00    6.042179e-01   7.881230e-03
  2.401661e+00    6.285509e-01   8.030593e-03
  2.403871e+00    6.196747e-01   7.965886e-03
  2.406082e+00    5.990918e-01   7.825094e-03
  2.408292e+00    6.044810e-01   7.852461e-03
  2.410503e+00    5.948061e-01   7.781947e-03
  2.412713e+00    6.041155e-01   7.834835e-03
  2.414924e+00    6.101759e-01   7.866531e-03
  2.417134e+00    6.056741e-01   7.829820e-03
  2.419344e+00    6.143660e-01   7.878317e-03
  2.421555e+00    6.034019e-01   7.800193e-03
  2.423765e+00    5.834503e-01   7.662848e-03
  2.425976e+00    6.052811e-01   7.797038e-03
  2.428186e+00    5.998241e-01   7.754602e-03
  2.430397e+00    5.884628e-01   7.673378e-03
  2.432607e+00    5.974740e-01   7.724610e-03
  2.434818e+00    5.903586e-01   7.670992e-03
  2.437028e+00    5.820243e-01   7.609545e-03
  2.439239e+00    5.960104e-01   7.692772e-03
  2.441449e+00    5.894291e-01   7.643015e-03
  2.443659e+00    5.765506e-01   7.551789e-03
  2.445870e+00    5.811336e-01   7.593905e-03
  2.448080e+00    5.637020e-01   7.513374e-03
  2.450291e+00    5.662383e-01   7.546694e-03
  2.452501e+00    5.716531e-01   7.593812e-03
  2.454712e+00    5.717109e-01   7.602614e-03
  2.456922e+00    5.700675e-01   7.598303e-03
  2.459133e+00    5.617229e-01   7.547887e-03
  2.461343e+00    5.615299e-01   7.550915e-03
  2.463554e+00    5.575518e-01   7.527580e-03
  2.465764e+00    5.607616e-01   7.552334e-03
  2.467975e+00    5.591846e-01   7.544014e-03
  2.470185e+00    5.509449e-01   7.490446e-03
  2.472395e+00    5.495913e-01   7.482456e-03
  2.474606e+00    5.483353e-01   7.475462e-03
  2.476816e+00    5.340188e-01   7.377945e-03
  2.479027e+00    5.430946e-01   7.441225e-03
  2.481237e+00    5.464962e-01   7.464757e-03
  2.483448e+00    5.306974e-01   7.356388e-03
  2.485658e+00    5.278527e-01   7.336467e-03
  2.487869e+00    5.520263e-01   7.502641e-03
  2.490079e+00    5.468655e-01   7.466962e-03
  2.492290e+00    5.543409e-01   7.517384e-03
  2.494500e+00    5.474369e-01   7.469695e-03
  2.496710e+00    5.456076e-01   7.456487e-03
  2.498921e+00    5.367743e-01   7.394917e-03
  2.501131e+00    5.230464e-01   7.298776e-03
  2.503342e+00    5.176256e-01   7.259623e-03
  2.505552e+00    5.170979e-01   7.254797e-03
  2.507763e+00    5.167252e-01   7.250788e-03
  2.509973e+00    5.280043e-01   7.328089e-03
  2.512184e+00    5.371782e-01   7.389869e-03
  2.514394e+00    5.120909e-01   7.206011e-03
  2.516605e+00    5.254331e-01   7.252257e-03
  2.518815e+00    5.304444e-01   7.258327e-03
  2.521025e+00    5.096775e-01   7.094180e-03
  2.523236e+00    5.225884e-01   7.165521e-03
  2.525446e+00    5.295103e-01   7.197172e-03
  2.527657e+00    5.243250e-01   7.147254e-03
  2.529867e+00    5.201741e-01   7.104795e-03
  2.532078e+00    5.309515e-01   7.162886e-03
  2.534288e+00    5.206668e-01   7.079354e-03
  2.536499e+00    5.284405e-01   7.120016e-03
  2.538709e+00    5.203154e-01   7.054118e-03
  2.540920e+00    5.280128e-01   7.095415e-03
  2.543130e+00    5.302622e-01   7.100099e-03
  2.545340e+00    5.282186e-01   7.076292e-03
  2.547551e+00    5.157218e-01   6.982206e-03
  2.549761e+00    5.143119e-01   6.963160e-03
  2.551972e+00    5.060241e-01   6.897603e-03
  2.554182e+00    5.132262e-01   6.937412e-03
  2.556393e+00    5.131801e-01   6.928075e-03
  2.558603e+00    5.146638e-01   6.929069e-03
  2.560814e+00    5.141708e-01   6.917078e-03
  2.563024e+00    5.253699e-01   6.983392e-03
  2.565235e+00    5.245388e-01   6.968287e-03
  2.567445e+00    5.282893e-01   6.983533e-03
  2.569656e+00    5.264750e-01   6.961700e-03
  2.571866e+00    5.281042e-01   6.963023e-03
  2.574076e+00    5.218867e-01   6.912592e-03
  2.576287e+00    5.077420e-01   6.810023e-03
  2.578497e+00    5.090921e-01   6.811269e-03
  2.580708e+00    5.118181e-01   6.821424e-03
  2.582918e+00    5.155439e-01   6.838438e-03
  2.585129e+00    5.120795e-01   6.807704e-03
  2.587339e+00    4.978927e-01   6.705174e-03
  2.589550e+00    5.063679e-01   6.754491e-03
  2.591760e+00    5.054351e-01   6.740588e-03
  2.593971e+00    5.069998e-01   6.743526e-03
  2.596181e+00    4.970473e-01   6.670871e-03
  2.598391e+00    5.023155e-01   6.700974e-03
  2.600602e+00    5.194089e-01   6.808076e-03
  2.602812e+00    5.082481e-01   6.727006e-03
  2.605023e+00    5.055302e-01   6.701854e-03
  2.607233e+00    5.088810e-01   6.716868e-03
  2.609444e+00    5.084056e-01   6.706502e-03
  2.611654e+00    4.985724e-01   6.634078e-03
  2.613865e+00    4.980958e-01   6.623907e-03
  2.616075e+00    4.974676e-01   6.612678e-03
  2.618286e+00    5.052129e-01   6.656931e-03
  2.620496e+00    5.000694e-01   6.616314e-03
  2.622706e+00    5.160343e-01   6.715286e-03
  2.624917e+00    5.111991e-01   6.677873e-03
  2.627127e+00    4.843203e-01   6.494310e-03
  2.629338e+00    4.969763e-01   6.572667e-03
  2.631548e+00    5.105927e-01   6.655890e-03
  2.633759e+00    4.995143e-01   6.576175e-03
  2.635969e+00    4.985790e-01   6.563335e-03
  2.638180e+00    5.128803e-01   6.649741e-03
  2.640390e+00    5.018284e-01   6.571102e-03
  2.642601e+00    5.016197e-01   6.563060e-03
  2.644811e+00    4.997501e-01   6.543747e-03
  2.647021e+00    4.954509e-01   6.509017e-03
  2.649232e+00    4.950176e-01   6.499464e-03
  2.651442e+00    5.035765e-01   6.548885e-03
  2.653653e+00    4.974100e-01   6.501893e-03
  2.655863e+00    5.060545e-01   6.551392e-03
  2.658074e+00    5.176622e-01   6.619372e-03
  2.660284e+00    5.177733e-01   6.613607e-03
  2.662495e+00    5.047611e-01   6.523169e-03
  2.664705e+00    5.046915e-01   6.516089e-03
  2.666916e+00    5.136861e-01   6.567331e-03
  2.669126e+00    5.079743e-01   6.524191e-03
  2.671337e+00    4.959082e-01   6.439654e-03
  2.673547e+00    4.896543e-01   6.392563e-03
  2.675757e+00    5.019534e-01   6.465857e-03
  2.677968e+00    4.992792e-01   6.442054e-03
  2.680178e+00    4.918198e-01   6.387369e-03
  2.682389e+00    4.923062e-01   6.384122e-03
  2.684599e+00    5.069855e-01   6.472340e-03
  2.686810e+00    4.931456e-01   6.376768e-03
  2.689020e+00    4.966112e-01   6.392817e-03
  2.691231e+00    4.855522e-01   6.314976e-03
  2.693441e+00    4.945545e-01   6.367082e-03
  2.695652e+00    4.885829e-01   6.322016e-03
  2.697862e+00    4.956548e-01   6.361226e-03
  2.700072e+00    4.855323e-01   6.289889e-03
  2.702283e+00    4.924107e-01   6.328035e-03
  2.704493e+00    4.935161e-01   6.328818e-03
  2.706704e+00    4.951392e-01   6.332789e-03
  2.708914e+00    4.726692e-01   6.181551e-03
  2.711125e+00    4.772253e-01   6.205066e-03
  2.713335e+00    4.909840e-01   6.287787e-03
  2.715546e+00    4.751999e-01   6.179510e-03
  2.717756e+00    4.837652e-01   6.229077e-03
  2.719967e+00    4.741763e-01   6.160906e-03
  2.722177e+00    4.784011e-01   6.182199e-03
  2.724387e+00    4.649916e-01   6.088977e-03
  2.726598e+00    4.732755e-01   6.136981e-03
  2.728808e+00    4.781776e-01   6.162576e-03
  2.731019e+00    4.818822e-01   6.180310e-03
  2.733229e+00    4.790304e-01   6.156210e-03
  2.735440e+00    4.812207e-01   6.164023e-03
  2.737650e+00    4.878840e-01   6.200501e-03
  2.739861e+00    4.901696e-01   6.208910e-03
  2.742071e+00    4.800892e-01   6.139001e-03
  2.744282e+00    4.813419e-01   6.140767e-03
  2.746492e+00    4.927652e-01   6.207107e-03
  2.748702e+00    4.843695e-01   6.148080e-03
  2.750913e+00    4.893975e-01   6.174069e-03
  2.753123e+00    4.925320e-01   6.187628e-03
  2.755334e+00    4.910288e-01   6.172032e-03
  2.757544e+00    4.859467e-01   6.134252e-03
  2.759755e+00    4.833823e-01   6.112133e-03
  2.761965e+00    4.918016e-01   6.159081e-03
  2.764176e+00    4.894621e-01   6.138369e-03
  2.766386e+00    4.807949e-01   6.077982e-03
  2.768597e+00    4.820140e-01   6.079813e-03
  2.770807e+00    4.794287e-01   6.057586e-03
  2.773017e+00    4.875560e-01   6.102708e-03
  2.775228e+00    4.960217e-01   6.149560e-03
  2.777438e+00    4.925371e-01   6.122056e-03
  2.779649e+00    4.786330e-01   6.029122e-03
  2.781859e+00    4.802896e-01   6.033764e-03
  2.784070e+00    4.681877e-01   5.951446e-03
  2.786280e+00    4.858933e-01   6.057126e-03
  2.788491e+00    4.817344e-01   6.025280e-03
  2.790701e+00    4.764315e-01   5.986378e-03
  2.792912e+00    4.933660e-01   6.085774e-03
  2.795122e+00    4.807259e-01   6.001555e-03
  2.797333e+00    4.661685e-01   5.904471e-03
  2.799543e+00    4.749444e-01   5.953932e-03
  2.801753e+00    4.834573e-01   6.001151e-03
  2.803964e+00    4.874828e-01   6.020343e-03
  2.806174e+00    4.832843e-01   5.988171e-03
  2.808385e+00    4.762209e-01   5.937451e-03
  2.810595e+00    4.734490e-01   5.913273e-03
  2.812806e+00    4.771838e-01   5.929935e-03
  2.815016e+00    4.640476e-01   5.843045e-03
  2.817227e+00    4.766330e-01   5.947740e-03
  2.819437e+00    4.699468e-01   5.916920e-03
  2.821648e+00    4.749899e-01   5.950883e-03
  2.823858e+00    4.733116e-01   5.945685e-03
  2.826068e+00    4.742827e-01   5.956774e-03
  2.828279e+00    4.736534e-01   5.956867e-03
  2.830489e+00    4.683269e-01   5.926606e-03
  2.832700e+00    4.619131e-01   5.888410e-03
  2.834910e+00    4.730285e-01   5.960877e-03
  2.837121e+00    4.838414e-01   6.030395e-03
  2.839331e+00    4.578638e-01   5.867485e-03
  2.841542e+00    4.584046e-01   5.871928e-03
  2.843752e+00    4.593104e-01   5.878503e-03
  2.845963e+00    4.790632e-01   6.003993e-03
  2.848173e+00    4.647064e-01   5.913426e-03
  2.850383e+00    4.703392e-01   5.949446e-03
  2.852594e+00    4.796294e-01   6.007832e-03
  2.854804e+00    4.611841e-01   5.890689e-03
  2.857015e+00    4.675252e-01   5.930604e-03
  2.859225e+00    4.733488e-01   5.967176e-03
  2.861436e+00    4.770755e-01   5.989955e-03
  2.863646e+00    4.713870e-01   5.954192e-03
  2.865857e+00    4.605265e-01   5.885529e-03
  2.868067e+00    4.546372e-01   5.847995e-03
  2.870278e+00    4.644491e-01   5.910398e-03
  2.872488e+00    4.603074e-01   5.882848e-03
  2.874698e+00    4.635780e-01   5.902651e-03
  2.876909e+00    4.707195e-01   5.946616e-03
  2.879119e+00    4.718102e-01   5.951858e-03
  2.881330e+00    4.582517e-01   5.864267e-03
  2.883540e+00    4.503586e-01   5.812156e-03
  2.885751e+00    4.562216e-01   5.848232e-03
  2.887961e+00    4.490363e-01   5.800142e-03
  2.890172e+00    4.602736e-01   5.870670e-03
  2.892382e+00    4.485293e-01   5.793502e-03
  2.894593e+00    4.548728e-01   5.832523e-03
  2.896803e+00    4.737745e-01   5.950456e-03
  2.899014e+00    4.723860e-01   5.939808e-03
  2.901224e+00    4.560682e-01   5.834343e-03
  2.903434e+00    4.512342e-01   5.801386e-03
  2.905645e+00    4.678053e-01   5.904715e-03
  2.907855e+00    4.598747e-01   5.852364e-03
  2.910066e+00    4.701126e-01   5.915033e-03
  2.912276e+00    4.470059e-01   5.765760e-03
  2.914487e+00    4.411720e-01   5.725588e-03
  2.916697e+00    4.594967e-01   5.841048e-03
  2.918908e+00    4.539813e-01   5.803928e-03
  2.921118e+00    4.598898e-01   5.838840e-03
  2.923329e+00    4.564023e-01   5.814366e-03
  2.925539e+00    4.554306e-01   5.805899e-03
  2.927749e+00    4.518591e-01   5.780779e-03
  2.929960e+00    4.698790e-01   5.892105e-03
  2.932170e+00    4.598310e-01   5.826446e-03
  2.934381e+00    4.651635e-01   5.857655e-03
  2.936591e+00    4.547236e-01   5.788975e-03
  2.938802e+00    4.696711e-01   5.880595e-03
  2.941012e+00    4.625853e-01   5.833739e-03
  2.943223e+00    4.555317e-01   5.786379e-03
  2.945433e+00    4.455025e-01   5.718636e-03
  2.947644e+00    4.512262e-01   5.751149e-03
  2.949854e+00    4.535927e-01   5.761934e-03
  2.952064e+00    4.424287e-01   5.686431e-03
  2.954275e+00    4.545467e-01   5.759357e-03
  2.956485e+00    4.565754e-01   5.768010e-03
  2.958696e+00    4.615796e-01   5.795129e-03
  2.960906e+00    4.546471e-01   5.747268e-03
  2.963117e+00    4.447159e-01   5.679713e-03
  2.965327e+00    4.537220e-01   5.733032e-03
  2.967538e+00    4.620680e-01   5.782584e-03
  2.969748e+00    4.532199e-01   5.724150e-03
  2.971959e+00    4.524656e-01   5.716231e-03
  2.974169e+00    4.672635e-01   5.806358e-03
  2.976379e+00    4.485542e-01   5.686029e-03
  2.978590e+00    4.320767e-01   5.577550e-03
  2.980800e+00    4.390361e-01   5.619515e-03
  2.983011e+00    4.523045e-01   5.701031e-03
  2.985221e+00    4.449278e-01   5.651228e-03
  2.987432e+00    4.530914e-01   5.699716e-03
  2.989642e+00    4.522240e-01   5.691652e-03
  2.991853e+00    4.539481e-01   5.699196e-03
  2.994063e+00    4.615059e-01   5.743516e-03
  2.996274e+00    4.516103e-01   5.678449e-03
  2.998484e+00    4.517064e-01   5.676341e-03
  3.000694e+00    4.516771e-01   5.672715e-03
  3.002905e+00    4.580945e-01   5.709920e-03
  3.005115e+00    4.544889e-01   5.684427e-03
  3.007326e+00    4.487453e-01   5.645250e-03
  3.009536e+00    4.397050e-01   5.584891e-03
  3.011747e+00    4.504540e-01   5.649839e-03
  3.013957e+00    4.503056e-01   5.645731e-03
  3.016168e+00    4.598077e-01   5.701712e-03
  3.018378e+00    4.521340e-01   5.650898e-03
  3.020589e+00    4.529686e-01   5.652894e-03
  3.022799e+00    4.483600e-01   5.620920e-03
  3.025010e+00    4.528166e-01   5.645530e-03
  3.027220e+00    4.583728e-01   5.676950e-03
  3.029430e+00    4.674970e-01   5.729848e-03
  3.031641e+00    4.595263e-01   5.677646e-03
  3.033851e+00    4.565524e-01   5.655727e-03
  3.036062e+00    4.517726e-01   5.623227e-03
  3.038272e+00    4.554201e-01   5.642309e-03
  3.040483e+00    4.562654e-01   5.644302e-03
  3.042693e+00    4.443553e-01   5.566926e-03
  3.044904e+00    4.322387e-01   5.486530e-03
  3.047114e+00    4.534419e-01   5.614682e-03
  3.049325e+00    4.530140e-01   5.607623e-03
  3.051535e+00    4.460491e-01   5.559996e-03
  3.053745e+00    4.493185e-01   5.575570e-03
  3.055956e+00    4.676844e-01   5.683735e-03
  3.058166e+00    4.641920e-01   5.658148e-03
  3.060377e+00    4.494503e-01   5.562807e-03
  3.062587e+00    4.500376e-01   5.561830e-03
  3.064798e+00    4.327451e-01   5.449723e-03
  3.067008e+00    4.478711e-01   5.539448e-03
  3.069219e+00    4.438961e-01   5.510331e-03
  3.071429e+00    4.464818e-01   5.522843e-03
  3.073640e+00    4.370080e-01   5.460657e-03
  3.075850e+00    4.528135e-01   5.554930e-03
  3.078060e+00    4.503252e-01   5.536541e-03
  3.080271e+00    4.512124e-01   5.538508e-03
  3.082481e+00    4.455360e-01   5.500118e-03
  3.084692e+00    4.479302e-01   5.511520e-03
  3.086902e+00    4.409598e-01   5.465230e-03
  3.089113e+00    4.459719e-01   5.492638e-03
  3.091323e+00    4.471514e-01   5.496542e-03
  3.093534e+00    4.503694e-01   5.512888e-03
  3.095744e+00    4.583407e-01   5.558053e-03
  3.097955e+00    4.411796e-01   5.449499e-03
  3.100165e+00    4.472964e-01   5.483788e-03
  3.102375e+00    4.495099e-01   5.493931e-03
  3.104586e+00    4.525695e-01   5.509064e-03
  3.106796e+00    4.556225e-01   5.524065e-03
  3.109007e+00    4.600844e-01   5.547793e-03
  3.111217e+00    4.601002e-01   5.544127e-03
  3.113428e+00    4.630356e-01   5.558311e-03
  3.115638e+00    4.384632e-01   5.405615e-03
  3.117849e+00    4.398614e-01   5.410512e-03
  3.120059e+00    4.389440e-01   5.401435e-03
  3.122270e+00    4.331698e-01   5.362571e-03
  3.124480e+00    4.361177e-01   5.377130e-03
  3.126691e+00    4.472584e-01   5.441807e-03
  3.128901e+00    4.476901e-01   5.441300e-03
  3.131111e+00    4.506817e-01   5.455593e-03
  3.133322e+00    4.455405e-01   5.420926e-03
  3.135532e+00    4.514467e-01   5.453312e-03
  3.137743e+00    4.514879e-01   5.450053e-03
  3.139953e+00    4.446105e-01   5.404696e-03
  3.142164e+00    4.441832e-01   5.414136e-03
  3.144374e+00    4.496297e-01   5.475847e-03
  3.146585e+00    4.485585e-01   5.483998e-03
  3.148795e+00    4.493359e-01   5.499612e-03
  3.151006e+00    4.418428e-01   5.462110e-03
  3.153216e+00    4.396066e-01   5.455383e-03
  3.155426e+00    4.544396e-01   5.553062e-03
  3.157637e+00    4.480196e-01   5.519264e-03
  3.159847e+00    4.386069e-01   5.465857e-03
  3.162058e+00    4.490486e-01   5.534986e-03
  3.164268e+00    4.345218e-01   5.448786e-03
  3.166479e+00    4.233995e-01   5.382163e-03
  3.168689e+00    4.442952e-01   5.516769e-03
  3.170900e+00    4.309975e-01   5.436720e-03
  3.173110e+00    4.302985e-01   5.435159e-03
  3.175321e+00    4.333916e-01   5.457127e-03
  3.177531e+00    4.399221e-01   5.500842e-03
  3.179741e+00    4.390836e-01   5.497670e-03
  3.181952e+00    4.474953e-01   5.552207e-03
  3.184162e+00    4.530000e-01   5.588500e-03
  3.186373e+00    4.334546e-01   5.468202e-03
  3.188583e+00    4.344214e-01   5.476064e-03
  3.190794e+00    4.409809e-01   5.519022e-03
  3.193004e+00    4.301222e-01   5.451887e-03
  3.195215e+00    4.261063e-01   5.427848e-03
  3.197425e+00    4.449934e-01   5.548077e-03
  3.199636e+00    4.332044e-01   5.473317e-03
  3.201846e+00    4.352546e-01   5.485651e-03
  3.204056e+00    4.451830e-01   5.548763e-03
  3.206267e+00    4.460396e-01   5.554956e-03
  3.208477e+00    4.373625e-01   5.501592e-03
  3.210688e+00    4.477480e-01   5.567380e-03
  3.212898e+00    4.387588e-01   5.511802e-03
  3.215109e+00    4.323460e-01   5.472112e-03
  3.217319e+00    4.323594e-01   5.472844e-03
  3.219530e+00    4.326437e-01   5.475034e-03
  3.221740e+00    4.322475e-01   5.473087e-03
  3.223951e+00    4.235957e-01   5.418504e-03
  3.226161e+00    4.322777e-01   5.473931e-03
  3.228372e+00    4.297163e-01   5.458228e-03
  3.230582e+00    4.365770e-01   5.501756e-03
  3.232792e+00    4.287994e-01   5.452771e-03
  3.235003e+00    4.295677e-01   5.457888e-03
  3.237213e+00    4.210100e-01   5.403354e-03
  3.239424e+00    4.288246e-01   5.453269e-03
  3.241634e+00    4.143291e-01   5.360438e-03
  3.243845e+00    4.199892e-01   5.396992e-03
  3.246055e+00    4.277597e-01   5.446405e-03
  3.248266e+00    4.284657e-01   5.451121e-03
  3.250476e+00    4.193319e-01   5.392385e-03
  3.252687e+00    4.256862e-01   5.433025e-03
  3.254897e+00    4.272257e-01   5.442705e-03
  3.257107e+00    4.305978e-01   5.463842e-03
  3.259318e+00    4.197990e-01   5.394673e-03
  3.261528e+00    4.199455e-01   5.395443e-03
  3.263739e+00    4.174500e-01   5.378863e-03
  3.265949e+00    4.242666e-01   5.422456e-03
  3.268160e+00    4.204962e-01   5.397913e-03
  3.270370e+00    4.245738e-01   5.423503e-03
  3.272581e+00    4.356392e-01   5.493428e-03
  3.274791e+00    4.385098e-01   5.510997e-03
  3.277002e+00    4.216335e-01   5.403330e-03
  3.279212e+00    4.294757e-01   5.452962e-03
  3.281422e+00    4.369576e-01   5.499674e-03
  3.283633e+00    4.216100e-01   5.401545e-03
  3.285843e+00    4.327365e-01   5.472022e-03
  3.288054e+00    4.269603e-01   5.434441e-03
  3.290264e+00    4.201916e-01   5.390879e-03
  3.292475e+00    4.183006e-01   5.377894e-03
  3.294685e+00    4.287910e-01   5.444277e-03
  3.296896e+00    4.202597e-01   5.389104e-03
  3.299106e+00    4.293503e-01   5.446498e-03
  3.301317e+00    4.273696e-01   5.432902e-03
  3.303527e+00    4.207062e-01   5.389927e-03
  3.305737e+00    4.185154e-01   5.374821e-03
  3.307948e+00    4.157965e-01   5.356659e-03
  3.310158e+00    4.203401e-01   5.385027e-03
  3.312369e+00    4.243794e-01   5.409933e-03
  3.314579e+00    4.114844e-01   5.326212e-03
  3.316790e+00    4.222260e-01   5.394590e-03
  3.319000e+00    4.182189e-01   5.367725e-03
  3.321211e+00    4.236499e-01   5.401878e-03
  3.323421e+00    4.342097e-01   5.467560e-03
  3.325632e+00    4.152904e-01   5.346248e-03
  3.327842e+00    4.240403e-01   5.401338e-03
  3.330052e+00    4.264061e-01   5.415329e-03
  3.332263e+00    4.281741e-01   5.425507e-03
  3.334473e+00    4.296014e-01   5.433634e-03
  3.336684e+00    4.158517e-01   5.344713e-03
  3.338894e+00    4.150781e-01   5.338911e-03
  3.341105e+00    4.170553e-01   5.350378e-03
  3.343315e+00    4.227139e-01   5.385448e-03
  3.345526e+00    4.111935e-01   5.310637e-03
  3.347736e+00    4.199203e-01   5.365301e-03
  3.349947e+00    4.148333e-01   5.331786e-03
  3.352157e+00    4.150364e-01   5.331903e-03
  3.354368e+00    4.167140e-01   5.341403e-03
  3.356578e+00    4.066776e-01   5.275650e-03
  3.358788e+00    4.050850e-01   5.264025e-03
  3.360999e+00    4.211945e-01   5.366421e-03
  3.363209e+00    4.214578e-01   5.367080e-03
  3.365420e+00    4.167446e-01   5.335472e-03
  3.367630e+00    4.064386e-01   5.268086e-03
  3.369841e+00    4.003060e-01   5.226792e-03
  3.372051e+00    4.082383e-01   5.276362e-03
  3.374262e+00    4.091477e-01   5.279821e-03
  3.376472e+00    4.182714e-01   5.335912e-03
  3.378683e+00    4.136385e-01   5.303787e-03
  3.380893e+00    4.126914e-01   5.295373e-03
  3.383103e+00    4.039532e-01   5.236364e-03
  3.385314e+00    4.005402e-01   5.211990e-03
  3.387524e+00    4.146069e-01   5.299985e-03
  3.389735e+00    4.033815e-01   5.225167e-03
  3.391945e+00    4.067472e-01   5.243259e-03
  3.394156e+00    4.016498e-01   5.206141e-03
  3.396366e+00    4.171637e-01   5.302299e-03
  3.398577e+00    4.254287e-01   5.351481e-03
  3.400787e+00    4.083644e-01   5.254921e-03
  3.402998e+00    4.077564e-01   5.288980e-03
  3.405208e+00    4.013480e-01   5.267807e-03
  3.407418e+00    3.929709e-01   5.228167e-03
  3.409629e+00    3.940147e-01   5.248932e-03
  3.411839e+00    3.938796e-01   5.259733e-03
  3.414050e+00    3.961407e-01   5.285795e-03
  3.416260e+00    3.949001e-01   5.287143e-03
  3.418471e+00    3.982486e-01   5.319008e-03
  3.420681e+00    3.728642e-01   5.154971e-03
  3.422892e+00    3.865914e-01   5.256948e-03
  3.425102e+00    3.958092e-01   5.327135e-03
  3.427313e+00    3.840747e-01   5.254739e-03
  3.429523e+00    3.795118e-01   5.230404e-03
  3.431733e+00    3.825865e-01   5.258203e-03
  3.433944e+00    3.794315e-01   5.242897e-03
  3.436154e+00    3.852369e-01   5.289132e-03
  3.438365e+00    3.788253e-01   5.250839e-03
  3.440575e+00    3.732321e-01   5.217792e-03
  3.442786e+00    3.895377e-01   5.336237e-03
  3.444996e+00    3.589480e-01   5.127816e-03
  3.447207e+00    3.586779e-01   5.131037e-03
  3.449417e+00    3.746842e-01   5.285258e-03
  3.451628e+00    3.642553e-01   5.240466e-03
  3.453838e+00    3.739730e-01   5.331232e-03
  3.456049e+00    3.717547e-01   5.339473e-03
  3.458259e+00    3.588573e-01   5.267731e-03
  3.460469e+00    3.737334e-01   5.395761e-03
  3.462680e+00    3.844084e-01   5.491827e-03
  3.464890e+00    3.783412e-01   5.466415e-03
  3.467101e+00    3.731598e-01   5.446454e-03
  3.469311e+00    3.856897e-01   5.554001e-03
  3.471522e+00    3.968756e-01   5.650854e-03
  3.473732e+00    3.964106e-01   5.663859e-03
  3.475943e+00    4.054789e-01   5.744422e-03
  3.478153e+00    4.021620e-01   5.736632e-03
  3.480364e+00    3.973006e-01   5.717069e-03
  3.482574e+00    4.116010e-01   5.834518e-03
  3.484784e+00    4.302695e-01   5.980596e-03
  3.486995e+00    4.268629e-01   5.972191e-03
  3.489205e+00    4.346203e-01   6.041040e-03
  3.491416e+00    4.455499e-01   6.131789e-03
  3.493626e+00    4.380437e-01   6.094559e-03
  3.495837e+00    4.592876e-01   6.255649e-03
  3.498047e+00    4.527782e-01   6.225816e-03
  3.500258e+00    4.555310e-01   6.259301e-03
  3.502468e+00    4.541969e-01   6.264584e-03
  3.504679e+00    4.648521e-01   6.352173e-03
  3.506889e+00    4.729413e-01   6.421780e-03
  3.509099e+00    4.606942e-01   6.352246e-03
  3.511310e+00    4.817685e-01   6.510483e-03
  3.513520e+00    4.843423e-01   6.542310e-03
  3.515731e+00    4.920810e-01   6.608823e-03
  3.517941e+00    5.148915e-01   6.774983e-03
  3.520152e+00    5.043305e-01   6.719600e-03
  3.522362e+00    5.199732e-01   6.837786e-03
  3.524573e+00    4.886774e-01   6.642846e-03
  3.526783e+00    5.176845e-01   6.850588e-03
  3.528994e+00    5.067098e-01   6.789720e-03
  3.531204e+00    5.132572e-01   6.845792e-03
  3.533414e+00    5.261480e-01   6.943323e-03
  3.535625e+00    5.262177e-01   6.956127e-03
  3.537835e+00    5.516065e-01   7.134281e-03
  3.540046e+00    5.441493e-01   7.094910e-03
  3.542256e+00    5.391439e-01   7.069786e-03
  3.544467e+00    5.282526e-01   7.005525e-03
  3.546677e+00    5.431023e-01   7.110965e-03
  3.548888e+00    5.487936e-01   7.155702e-03
  3.551098e+00    5.568273e-01   7.215336e-03
  3.553309e+00    5.438764e-01   7.139155e-03
  3.555519e+00    5.381854e-01   7.113006e-03
  3.557729e+00    5.442156e-01   7.164583e-03
  3.559940e+00    5.188882e-01   7.007210e-03
  3.562150e+00    5.475717e-01   7.210134e-03
  3.564361e+00    5.342538e-01   7.135219e-03
  3.566571e+00    5.408368e-01   7.192923e-03
  3.568782e+00    5.470493e-01   7.248390e-03
  3.570992e+00    5.228217e-01   7.099654e-03
  3.573203e+00    5.364119e-01   7.205434e-03
  3.575413e+00    5.406914e-01   7.248022e-03
  3.577624e+00    5.354478e-01   7.226887e-03
  3.579834e+00    5.238701e-01   7.162038e-03
  3.582045e+00    5.327494e-01   7.236460e-03
  3.584255e+00    5.456159e-01   7.337524e-03
  3.586465e+00    5.330516e-01   7.266451e-03
  3.588676e+00    5.453683e-01   7.364233e-03
  3.590886e+00    5.233955e-01   7.227884e-03
  3.593097e+00    5.370069e-01   7.335801e-03
  3.595307e+00    5.306175e-01   7.305884e-03
  3.597518e+00    5.200683e-01   7.246910e-03
  3.599728e+00    5.291680e-01   7.324014e-03
  3.601939e+00    5.443754e-01   7.442730e-03
  3.604149e+00    5.395702e-01   7.424230e-03
  3.606360e+00    5.346412e-01   7.404417e-03
  3.608570e+00    5.184761e-01   7.305553e-03
  3.610780e+00    5.304730e-01   7.400574e-03
  3.612991e+00    5.425438e-01   7.494413e-03
  3.615201e+00    5.337450e-01   7.443147e-03
  3.617412e+00    5.415533e-01   7.504755e-03
  3.619622e+00    5.297132e-01   7.428155e-03
  3.621833e+00    5.398879e-01   7.505909e-03
  3.624043e+00    5.452371e-01   7.552594e-03
  3.626254e+00    5.397211e-01   7.524085e-03
  3.628464e+00    5.306150e-01   7.471253e-03
  3.630675e+00    5.490603e-01   7.614322e-03
  3.632885e+00    5.281421e-01   7.482258e-03
  3.635095e+00    5.358828e-01   7.551270e-03
  3.637306e+00    5.384083e-01   7.583513e-03
  3.639516e+00    5.372767e-01   7.590125e-03
  3.641727e+00    5.297535e-01   7.551306e-03
  3.643937e+00    5.169364e-01   7.473739e-03
  3.646148e+00    5.172557e-01   7.490410e-03
  3.648358e+00    5.385547e-01   7.658013e-03
  3.650569e+00    5.332856e-01   7.635195e-03
  3.652779e+00    5.428870e-01   7.718537e-03
  3.654990e+00    5.456769e-01   7.753426e-03
  3.657200e+00    5.310665e-01   7.663787e-03
  3.659410e+00    5.417640e-01   7.755688e-03
  3.661621e+00    5.415978e-01   7.769770e-03
  3.663831e+00    5.333475e-01   7.725505e-03
  3.666042e+00    5.273986e-01   7.697353e-03
  3.668252e+00    5.375441e-01   7.786422e-03
  3.670463e+00    5.175616e-01   7.655321e-03
  3.672673e+00    5.387294e-01   7.825878e-03
  3.674884e+00    5.167238e-01   7.679527e-03
  3.677094e+00    5.313968e-01   7.803336e-03
  3.679305e+00    5.295188e-01   7.805109e-03
  3.681515e+00    5.428780e-01   7.918729e-03
  3.683726e+00    5.351321e-01   7.877923e-03
  3.685936e+00    5.415276e-01   7.940723e-03
  3.688146e+00    5.501912e-01   8.020152e-03
  3.690357e+00    5.315069e-01   7.898775e-03
  3.692567e+00    5.386678e-01   7.968110e-03
  3.694778e+00    4.988954e-01   7.683932e-03
  3.696988e+00    5.151731e-01   7.824076e-03
  3.699199e+00    5.336080e-01   7.979196e-03
  3.701409e+00    5.357572e-01   8.011786e-03
  3.703620e+00    5.431943e-01   8.083809e-03
  3.705830e+00    5.153499e-01   7.890170e-03
  3.708041e+00    5.363500e-01   8.066082e-03
  3.710251e+00    5.235208e-01   7.985738e-03
  3.712461e+00    5.481249e-01   8.188413e-03
  3.714672e+00    5.189834e-01   7.984459e-03
  3.716882e+00    5.325890e-01   8.105311e-03
  3.719093e+00    5.143021e-01   7.981975e-03
  3.721303e+00    5.143815e-01   7.999504e-03
  3.723514e+00    5.078392e-01   7.965539e-03
  3.725724e+00    4.973918e-01   7.899964e-03
  3.727935e+00    5.003374e-01   7.940490e-03
  3.730145e+00    5.073211e-01   8.012846e-03
  3.732356e+00    5.252231e-01   8.170725e-03
  3.734566e+00    5.227006e-01   8.168735e-03
  3.736776e+00    5.158452e-01   8.132737e-03
  3.738987e+00    5.215392e-01   8.195397e-03
  3.741197e+00    5.075724e-01   8.102830e-03
  3.743408e+00    5.087687e-01   8.130325e-03
  3.745618e+00    5.217734e-01   8.252051e-03
  3.747829e+00    5.132684e-01   8.202643e-03
  3.750039e+00    5.248554e-01   8.313319e-03
  3.752250e+00    5.287833e-01   8.363187e-03
  3.754460e+00    5.152754e-01   8.274279e-03
  3.756671e+00    5.370154e-01   8.466361e-03
  3.758881e+00    5.236746e-01   8.379431e-03
  3.761091e+00    4.930550e-01   8.149641e-03
  3.763302e+00    5.033870e-01   8.253518e-03
  3.765512e+00    5.206883e-01   8.413697e-03
  3.767723e+00    5.361742e-01   8.557764e-03
  3.769933e+00    5.230158e-01   8.471807e-03
  3.772144e+00    5.090172e-01   8.377238e-03
  3.774354e+00    5.094865e-01   8.401080e-03
  3.776565e+00    5.004694e-01   8.346112e-03
  3.778775e+00    5.215231e-01   8.540142e-03
  3.780986e+00    5.181037e-01   8.532732e-03
  3.783196e+00    5.043272e-01   8.438758e-03
  3.785407e+00    5.060367e-01   8.473546e-03
  3.787617e+00    5.109627e-01   8.535596e-03
  3.789827e+00    5.070218e-01   8.523237e-03
  3.792038e+00    5.169569e-01   8.627497e-03
  3.794248e+00    5.128868e-01   8.614874e-03
  3.796459e+00    5.057727e-01   8.576405e-03
  3.798669e+00    5.068569e-01   8.606986e-03
  3.800880e+00    5.215338e-01   8.752705e-03
  3.803090e+00    5.227246e-01   8.784959e-03
  3.805301e+00    5.032950e-01   8.642318e-03
  3.807511e+00    5.030114e-01   8.661948e-03
  3.809722e+00    5.248835e-01   8.871012e-03
  3.811932e+00    5.201920e-01   8.854038e-03
  3.814142e+00    5.003363e-01   8.706251e-03
  3.816353e+00    5.154404e-01   8.859955e-03
  3.818563e+00    4.834197e-01   8.603067e-03
  3.820774e+00    4.724423e-01   8.527358e-03
  3.822984e+00    4.904966e-01   8.711941e-03
  3.825195e+00    5.094778e-01   8.902935e-03
  3.827405e+00    5.240076e-01   9.053505e-03
  3.829616e+00    4.927547e-01   8.803347e-03
  3.831826e+00    4.778115e-01   8.692499e-03
  3.834037e+00    5.132476e-01   9.033939e-03
  3.836247e+00    4.969045e-01   8.913674e-03
  3.838457e+00    4.907562e-01   8.883223e-03
  3.840668e+00    4.930543e-01   8.929098e-03
  3.842878e+00    5.038935e-01   9.052450e-03
  3.845089e+00    4.920841e-01   8.971215e-03
  3.847299e+00    5.091410e-01   9.151516e-03
  3.849510e+00    4.919296e-01   9.021268e-03
  3.851720e+00    5.265341e-01   9.355275e-03
  3.853931e+00    5.013692e-01   9.148083e-03
  3.856141e+00    5.067900e-01   9.216665e-03
  3.858352e+00    4.948604e-01   9.126796e-03
  3.860562e+00    5.054938e-01   9.243829e-03
  3.862772e+00    5.122914e-01   9.325754e-03
  3.864983e+00    4.921620e-01   9.160354e-03
  3.867193e+00    4.783734e-01   9.050548e-03
  3.869404e+00    4.970754e-01   9.245687e-03
  3.871614e+00    4.960961e-01   9.256587e-03
  3.873825e+00    5.066708e-01   9.375306e-03
  3.876035e+00    5.065768e-01   9.395364e-03
  3.878246e+00    4.820719e-01   9.190732e-03
  3.880456e+00    4.963976e-01   9.355385e-03
  3.882667e+00    4.990944e-01   9.410376e-03
  3.884877e+00    4.863374e-01   9.318860e-03
  3.887087e+00    5.037119e-01   9.514158e-03
  3.889298e+00    4.993722e-01   9.503749e-03
  3.891508e+00    4.865243e-01   9.411076e-03
  3.893719e+00    4.778377e-01   9.357252e-03
  3.895929e+00    4.925656e-01   9.531837e-03
  3.898140e+00    4.953862e-01   9.591005e-03
  3.900350e+00    4.886983e-01   9.558011e-03
  3.902561e+00    5.200841e-01   9.893548e-03
  3.904771e+00    5.175844e-01   9.903498e-03
  3.906982e+00    5.106838e-01   9.871134e-03
  3.909192e+00    5.184188e-01   9.980044e-03
  3.911403e+00    4.967169e-01   9.803201e-03
  3.913613e+00    5.038214e-01   9.907888e-03
  3.915823e+00    4.957914e-01   9.863658e-03
  3.918034e+00    4.869884e-01   9.810888e-03
  3.920244e+00    5.060845e-01   1.003779e-02
  3.922455e+00    4.762937e-01   9.773620e-03
  3.924665e+00    4.645339e-01   9.687544e-03
  3.926876e+00    5.190356e-01   1.027843e-02
  3.929086e+00    4.958086e-01   1.008351e-02
  3.931297e+00    4.789257e-01   9.944863e-03
  3.933507e+00    4.647616e-01   9.824931e-03
  3.935718e+00    5.137300e-01   1.035903e-02
  3.937928e+00    4.956169e-01   1.020464e-02
  3.940138e+00    4.806991e-01   1.007889e-02
  3.942349e+00    4.800543e-01   1.010180e-02
  3.944559e+00    4.596032e-01   9.913452e-03
  3.946770e+00    4.600935e-01   9.948007e-03
  3.948980e+00    4.949286e-01   1.034870e-02
  3.951191e+00    5.120324e-01   1.055770e-02
  3.953401e+00    4.841800e-01   1.029786e-02
  3.955612e+00    4.971923e-01   1.046728e-02
  3.957822e+00    4.910140e-01   1.043388e-02
  3.960033e+00    4.663772e-01   1.020074e-02
  3.962243e+00    4.811296e-01   1.039349e-02
  3.964453e+00    4.660863e-01   1.026206e-02
  3.966664e+00    4.744799e-01   1.038710e-02
  3.968874e+00    5.213020e-01   1.091702e-02
  3.971085e+00    4.923444e-01   1.063157e-02
  3.973295e+00    4.688933e-01   1.039637e-02
  3.975506e+00    4.687215e-01   1.041572e-02
  3.977716e+00    5.071229e-01   1.085640e-02
  3.979927e+00    4.909986e-01   1.070475e-02
  3.982137e+00    4.518000e-01   1.029003e-02
  3.984348e+00    5.148151e-01   1.100736e-02
  3.986558e+00    4.938616e-01   1.080363e-02
  3.988768e+00    4.669864e-01   1.052817e-02
  3.990979e+00    4.534717e-01   1.039668e-02
  3.993189e+00    4.779210e-01   1.069610e-02
  3.995400e+00    5.186642e-01   1.116709e-02
  3.997610e+00    4.948821e-01   1.093820e-02
  3.999821e+00    4.950024e-01   1.097745e-02
  4.002031e+00    5.027555e-01   1.110220e-02
  4.004242e+00    4.869370e-01   1.096467e-02
  4.006452e+00    4.868382e-01   1.100303e-02
  4.008663e+00    4.724228e-01   1.087845e-02
  4.010873e+00    4.757805e-01   1.095654e-02
  4.013084e+00    4.971334e-01   1.124129e-02
  4.015294e+00    4.676400e-01   1.094292e-02
  4.017504e+00    4.998171e-01   1.135563e-02
  4.019715e+00    5.106723e-01   1.152208e-02
  4.021925e+00    4.431962e-01   1.077490e-02
  4.024136e+00    4.958142e-01   1.144087e-02
  4.026346e+00    4.910182e-01   1.142982e-02
  4.028557e+00    4.971583e-01   1.154602e-02
  4.030767e+00    4.983674e-01   1.160632e-02
  4.032978e+00    4.700313e-01   1.131724e-02
  4.035188e+00    4.802363e-01   1.148536e-02
  4.037399e+00    4.858080e-01   1.159958e-02
  4.039609e+00    4.803594e-01   1.158195e-02
  4.041819e+00    4.735443e-01   1.154768e-02
  4.044030e+00    4.961307e-01   1.187047e-02
  4.046240e+00    4.708866e-01   1.161373e-02
  4.048451e+00    4.982463e-01   1.199804e-02
  4.050661e+00    5.010425e-01   1.208420e-02
  4.052872e+00    4.909424e-01   1.201493e-02
  4.055082e+00    4.687569e-01   1.179308e-02
  4.057293e+00    4.619898e-01   1.176014e-02
  4.059503e+00    4.789315e-01   1.202832e-02
  4.061714e+00    4.612246e-01   1.185912e-02
  4.063924e+00    4.478424e-01   1.174048e-02
  4.066134e+00    4.832531e-01   1.225324e-02
  4.068345e+00    5.248756e-01   1.283151e-02
  4.070555e+00    5.126226e-01   1.274217e-02
  4.072766e+00    4.944003e-01   1.257533e-02
  4.074976e+00    4.783553e-01   1.243105e-02
  4.077187e+00    4.822591e-01   1.254397e-02
  4.079397e+00    5.007408e-01   1.284705e-02
  4.081608e+00    4.924702e-01   1.280700e-02
  4.083818e+00    4.509369e-01   1.231877e-02
  4.086029e+00    5.015090e-01   1.305943e-02
  4.088239e+00    4.926476e-01   1.301356e-02
  4.090449e+00    4.728555e-01   1.281848e-02
  4.092660e+00    5.010690e-01   1.326793e-02
  4.094870e+00    4.433846e-01   1.255035e-02
  4.097081e+00    4.683867e-01   1.296987e-02
  4.099291e+00    5.038601e-01   1.350774e-02
  4.101502e+00    4.857346e-01   1.331217e-02
  4.103712e+00    4.839408e-01   1.333705e-02
  4.105923e+00    4.886788e-01   1.345391e-02
  4.108133e+00    5.046002e-01   1.372411e-02
  4.110344e+00    5.102035e-01   1.385299e-02
  4.112554e+00    4.647824e-01   1.327418e-02
  4.114764e+00    4.725903e-01   1.343888e-02
  4.116975e+00    5.224757e-01   1.418625e-02
  4.119185e+00    4.544013e-01   1.328352e-02
  4.121396e+00    4.657100e-01   1.350325e-02
  4.123606e+00    4.503033e-01   1.333267e-02
  4.125817e+00    4.626146e-01   1.357000e-02
  4.128027e+00    5.182719e-01   1.442392e-02
  4.130238e+00    4.698459e-01   1.379235e-02
  4.132448e+00    4.579734e-01   1.367607e-02
  4.134659e+00    4.500892e-01   1.361594e-02
  4.136869e+00    4.735746e-01   1.402929e-02
  4.139080e+00    5.116921e-01   1.464838e-02
  4.141290e+00    5.318570e-01   1.500068e-02
  4.143500e+00    5.135777e-01   1.480852e-02
  4.145711e+00    4.880133e-01   1.450276e-02
  4.147921e+00    4.153830e-01   1.344131e-02
  4.150132e+00    4.984334e-01   1.479419e-02
  4.152342e+00    4.568057e-01   1.423160e-02
  4.154553e+00    5.127912e-01   1.515013e-02
  4.156763e+00    4.446029e-01   1.417663e-02
  4.158974e+00    4.960987e-01   1.505066e-02
  4.161184e+00    4.730971e-01   1.477035e-02
  4.163395e+00    5.153535e-01   1.549472e-02
  4.165605e+00    4.958363e-01   1.527748e-02
  4.167815e+00    5.374779e-01   1.598895e-02
  4.170026e+00    4.644229e-01   1.494116e-02
  4.172236e+00    4.535188e-01   1.484436e-02
  4.174447e+00    4.967853e-01   1.562080e-02
  4.176657e+00    4.995716e-01   1.575028e-02
  4.178868e+00    5.219869e-01   1.619096e-02
  4.181078e+00    4.984208e-01   1.591024e-02
  4.183289e+00    5.110564e-01   1.620291e-02
  4.185499e+00    5.285344e-01   1.657503e-02
  4.187710e+00    5.321383e-01   1.672865e-02
  4.189920e+00    4.334459e-01   1.518904e-02
  4.192130e+00    4.640568e-01   1.581204e-02
  4.194341e+00    4.219303e-01   1.516997e-02
  4.196551e+00    4.339494e-01   1.548149e-02
  4.198762e+00    4.915113e-01   1.658113e-02
  4.200972e+00    4.805694e-01   1.650186e-02
  4.203183e+00    4.246220e-01   1.561371e-02
  4.205393e+00    4.627936e-01   1.640876e-02
  4.207604e+00    4.890136e-01   1.698241e-02
  4.209814e+00    4.673328e-01   1.671561e-02
  4.212025e+00    5.017157e-01   1.744202e-02
  4.214235e+00    5.280629e-01   1.802128e-02
  4.216445e+00    5.305397e-01   1.819416e-02
  4.218656e+00    4.680829e-01   1.721759e-02
  4.220866e+00    4.758698e-01   1.748902e-02
  4.223077e+00    4.825529e-01   1.774644e-02
  4.225287e+00    5.034661e-01   1.826993e-02
  4.227498e+00    5.334847e-01   1.895381e-02
  4.229708e+00    5.042232e-01   1.857703e-02
  4.231919e+00    4.636181e-01   1.796026e-02
  4.234129e+00    4.406486e-01   1.765680e-02
  4.236340e+00    5.186139e-01   1.931874e-02
  4.238550e+00    5.206786e-01   1.952836e-02
  4.240761e+00    4.671973e-01   1.866158e-02
  4.242971e+00    5.040364e-01   1.956117e-02
  4.245181e+00    5.145707e-01   1.994966e-02
  4.247392e+00    5.173730e-01   2.019141e-02
  4.249602e+00    4.949946e-01   1.994602e-02
  4.251813e+00    4.430552e-01   1.905640e-02
  4.254023e+00    4.693348e-01   1.981115e-02
  4.256234e+00    4.701030e-01   2.003905e-02
  4.258444e+00    4.704438e-01   2.025618e-02
  4.260655e+00    4.388767e-01   1.977984e-02
  4.262865e+00    4.373188e-01   1.996893e-02
  4.265076e+00    4.339432e-01   2.011765e-02
  4.267286e+00    5.021680e-01   2.189805e-02
  4.269496e+00    4.801442e-01   2.167355e-02
  4.271707e+00    5.433079e-01   2.334030e-02
  4.273917e+00    5.275657e-01   2.329681e-02
  4.276128e+00    4.949553e-01   2.286504e-02
  4.278338e+00    5.459551e-01   2.433550e-02
  4.280549e+00    4.532356e-01   2.249032e-02
  4.282759e+00    4.288488e-01   2.219173e-02
  4.284970e+00    3.962664e-01   2.164747e-02
  4.287180e+00    5.126814e-01   2.491791e-02
  4.289391e+00    5.002561e-01   2.479888e-02
  4.291601e+00    5.451348e-01   2.609388e-02
  4.293811e+00    4.720980e-01   2.447316e-02
  4.296022e+00    5.192263e-01   2.587176e-02
  4.298232e+00    5.534449e-01   2.693472e-02
  4.300443e+00    4.637264e-01   2.485842e-02
  4.302653e+00    4.333705e-01   2.423869e-02
  4.304864e+00    4.918777e-01   2.604684e-02
  4.307074e+00    4.847134e-01   2.608936e-02
  4.309285e+00    4.789016e-01   2.616776e-02
  4.311495e+00    4.590917e-01   2.586037e-02
  4.313706e+00    5.284482e-01   2.800556e-02
  4.315916e+00    5.989892e-01   3.011021e-02
  4.318126e+00    4.492284e-01   2.633393e-02
  4.320337e+00    3.785520e-01   2.441767e-02
  4.322547e+00    5.380752e-01   2.942048e-02
  4.324758e+00    4.902567e-01   2.837525e-02
  4.326968e+00    5.550810e-01   3.053193e-02
  4.329179e+00    5.768270e-01   3.146803e-02
  4.331389e+00    5.857045e-01   3.207492e-02
  4.333600e+00    4.423844e-01   2.820859e-02
  4.335810e+00    4.297524e-01   2.813319e-02
  4.338021e+00    5.148656e-01   3.118713e-02
  4.340231e+00    4.514090e-01   2.956999e-02
  4.342442e+00    3.825564e-01   2.758578e-02
  4.344652e+00    4.202472e-01   2.930552e-02
  4.346862e+00    4.547536e-01   3.091179e-02
  4.349073e+00    4.268754e-01   3.038582e-02
  4.351283e+00    2.653536e-01   2.431450e-02
  4.353494e+00    3.933150e-01   3.005905e-02
  4.355704e+00    4.650006e-01   3.321069e-02
  4.357915e+00    4.735741e-01   3.407283e-02
  4.360125e+00    4.173595e-01   3.253269e-02
  4.362336e+00    4.043945e-01   3.260709e-02
  4.364546e+00    4.977076e-01   3.683238e-02
  4.366757e+00    4.415165e-01   3.538208e-02
  4.368967e+00    4.479457e-01   3.634963e-02
  4.371177e+00    3.264390e-01   3.168938e-02
  4.373388e+00    3.623531e-01   3.413376e-02
  4.375598e+00    4.070424e-01   3.700129e-02
  4.377809e+00    4.890693e-01   4.158656e-02
  4.380019e+00    4.400898e-01   4.044097e-02
  4.382230e+00    4.536730e-01   4.220613e-02
  4.384440e+00    4.344287e-01   4.249122e-02
  4.386651e+00    5.207199e-01   4.795282e-02
  4.388861e+00    4.742890e-01   4.730077e-02
  4.391072e+00    4.683683e-01   4.865707e-02
  4.393282e+00    4.402080e-01   4.899452e-02
  4.395492e+00    3.662620e-01   4.654944e-02
  4.397703e+00    2.613581e-01   4.111546e-02
  4.399913e+00    5.993984e-01   6.542396e-02
  4.402124e+00    4.059742e-01   5.689085e-02
  4.404334e+00    2.005436e-01   4.250924e-02
  4.406545e+00    2.579542e-01   5.179333e-02
  4.408755e+00    4.227911e-01   7.191345e-02
  4.410966e+00    7.949593e-02   3.452951e-02
  4.413176e+00   -2.726269e-02            nan
  4.415387e+00   -5.804884e-01            nan
  4.417597e+00   -1.881020e+00            nan
  4.419807e+00   -3.766224e-01            nan
