# == pyFAI calibration ==
# Distance Sample to Detector: 0.216 m
# PONI: 1.166e-01, 1.308e-01 m
# Rotations: 0.000000 0.000000 0.000000 rad
# 
# == Fit2d calibration ==
# Distance Sample-beamCenter: 216.000 mm
# Center: x=1744.293, y=1555.000 pix
# Tilt: 0.000 deg  TiltPlanRot: 0.000 deg
# 
# Detector Eiger 9M	 PixelSize= 7.500e-05, 7.500e-05 m
#    Detector has a mask: True 
#    Detector has a dark current: False 
#    detector has a flat field: False 
# 
# Wavelength: 9.8e-11 m
# Mask applied: from detector
# Dark current applied: False
# Flat field applied: False
# Polarization factor: None
# Normalization factor: 1.0
# 
# Headers of the input frame:
# {
# "_array_data.header_convention": "SLS_1.0",
# "_array_data.header_contents": "# Detector: Dectris Eiger 9M, S/N E-18-0102\r\n# Pixel_size 75e-6 m x 75e-6 m\r\n# Silicon sensor, thickness 0.000450 m\r\n# Exposure_time 0.024997 s\r\n# Exposure_period 0.025000 s\r\n# Count_cutoff 62318 counts\r\n# Wavelength 0.980106 A\r\n# Detector_distance 0.215992 m\r\n# Beam_xy (1555, 1744) pixels\r\n# Start_angle 0.000000 deg.\r\n# Angle_increment 0.000000 deg.",
# "Content-Type": "application/octet-stream;",
# "conversions": "x-CBF_BYTE_OFFSET",
# "Content-Transfer-Encoding": "BINARY",
# "X-Binary-Size": "10166614",
# "X-Binary-ID": "1",
# "X-Binary-Element-Type": "signed 32-bit integer",
# "X-Binary-Element-Byte-Order": "LITTLE_ENDIAN",
# "Content-MD5": "jcX550wpJbpJa127oKnjjw==",
# "X-Binary-Number-of-Elements": "10166590",
# "X-Binary-Size-Fastest-Dimension": "3110",
# "X-Binary-Size-Second-Dimension": "3269",
# "X-Binary-Size-Padding": "4095"
# }
# --> H:/Proxima2a_2019-04-05/RAW_DATA/C5_gel17_position5/C5_mesh_1_data.cbf/C5_mesh_1_data.cbf000059.dat
#        q_A^-1              I           sigma 
  1.105228e-03    2.460448e+00   8.487779e-01
  3.315685e-03    1.570639e+00   4.122718e-01
  5.526141e-03    1.544618e+00   3.161424e-01
  7.736597e-03    1.473114e+00   2.608185e-01
  9.947054e-03    1.482981e+00   2.306983e-01
  1.215751e-02    1.235203e+00   1.903872e-01
  1.436797e-02    1.439206e+00   1.890328e-01
  1.657842e-02    1.495049e+00   1.793379e-01
  1.878888e-02    1.348419e+00   1.599837e-01
  2.099934e-02    1.353945e+00   1.516710e-01
  2.320979e-02    1.256378e+00   1.389610e-01
  2.542025e-02    1.371556e+00   1.387446e-01
  2.763070e-02    1.457723e+00   1.371917e-01
  2.984116e-02    1.418863e+00   1.302407e-01
  3.205162e-02    1.547302e+00   1.312423e-01
  3.426207e-02    1.483247e+00   1.242744e-01
  3.647253e-02    1.503520e+00   1.212674e-01
  3.868299e-02    1.568772e+00   1.202889e-01
  4.089344e-02    1.564812e+00   1.168454e-01
  4.310390e-02    1.412258e+00   1.081138e-01
  4.531436e-02    1.371704e+00   1.039192e-01
  4.752481e-02    1.455560e+00   1.045283e-01
  4.973527e-02    1.433857e+00   1.014156e-01
  5.194572e-02    1.419051e+00   9.871928e-02
  5.415618e-02    1.321001e+00   9.328039e-02
  5.636664e-02    1.432104e+00   9.520343e-02
  5.857709e-02    1.452024e+00   9.403758e-02
  6.078755e-02    1.564373e+00   9.581369e-02
  6.299801e-02    1.522427e+00   9.284633e-02
  6.520846e-02    1.561127e+00   9.241229e-02
  6.741892e-02    1.561833e+00   9.090070e-02
  6.962938e-02    1.540095e+00   8.882600e-02
  7.183983e-02    1.535149e+00   8.730668e-02
  7.405029e-02    1.428647e+00   8.295521e-02
  7.626074e-02    1.538223e+00   8.482033e-02
  7.847120e-02    1.495291e+00   8.243977e-02
  8.068166e-02    1.510761e+00   8.172145e-02
  8.289211e-02    1.556148e+00   8.182616e-02
  8.510257e-02    1.456107e+00   7.811709e-02
  8.731303e-02    1.545609e+00   7.945378e-02
  8.952348e-02    1.496056e+00   7.720076e-02
  9.173394e-02    1.602844e+00   7.893678e-02
  9.394439e-02    1.496144e+00   7.535918e-02
  9.615485e-02    1.427057e+00   7.274619e-02
  9.836531e-02    1.492701e+00   7.355782e-02
  1.005758e-01    1.480906e+00   7.245748e-02
  1.027862e-01    1.528524e+00   7.281552e-02
  1.049967e-01    1.625597e+00   7.429616e-02
  1.072071e-01    1.588851e+00   7.268962e-02
  1.094176e-01    1.483573e+00   6.952593e-02
  1.116280e-01    1.525650e+00   6.980187e-02
  1.138385e-01    1.513899e+00   6.885283e-02
  1.160490e-01    1.493157e+00   6.772433e-02
  1.182594e-01    1.576037e+00   6.892368e-02
  1.204699e-01    1.557735e+00   6.789028e-02
  1.226803e-01    1.549248e+00   6.708953e-02
  1.248908e-01    1.577022e+00   6.708578e-02
  1.271012e-01    1.586356e+00   6.669505e-02
  1.293117e-01    1.699915e+00   6.844748e-02
  1.315222e-01    1.714015e+00   6.814916e-02
  1.337326e-01    1.611807e+00   6.553634e-02
  1.359431e-01    1.562672e+00   6.456748e-02
  1.381535e-01    1.559730e+00   6.537252e-02
  1.403640e-01    1.584297e+00   6.616984e-02
  1.425744e-01    1.603103e+00   6.666772e-02
  1.447849e-01    1.513963e+00   6.480265e-02
  1.469953e-01    1.510881e+00   6.469606e-02
  1.492058e-01    1.607495e+00   6.665500e-02
  1.514163e-01    1.634309e+00   6.709702e-02
  1.536267e-01    1.587865e+00   6.600764e-02
  1.558372e-01    1.621921e+00   6.656444e-02
  1.580476e-01    1.609782e+00   6.615397e-02
  1.602581e-01    1.702845e+00   6.786651e-02
  1.624685e-01    1.631937e+00   6.625660e-02
  1.646790e-01    1.691621e+00   6.726357e-02
  1.668895e-01    1.760192e+00   6.841517e-02
  1.690999e-01    1.710196e+00   6.723404e-02
  1.713104e-01    1.762377e+00   6.804022e-02
  1.735208e-01    1.849648e+00   6.948776e-02
  1.757313e-01    1.808054e+00   6.848672e-02
  1.779417e-01    1.748677e+00   6.713309e-02
  1.801522e-01    1.796470e+00   6.782760e-02
  1.823626e-01    1.803916e+00   6.774175e-02
  1.845731e-01    1.860793e+00   6.857853e-02
  1.867836e-01    1.910748e+00   6.925844e-02
  1.889940e-01    1.885756e+00   6.857920e-02
  1.912045e-01    1.883979e+00   6.831797e-02
  1.934149e-01    1.945019e+00   6.918352e-02
  1.956254e-01    2.067874e+00   7.109978e-02
  1.978358e-01    1.987355e+00   6.946293e-02
  2.000463e-01    1.874514e+00   6.723850e-02
  2.022568e-01    1.963176e+00   6.858443e-02
  2.044672e-01    1.953670e+00   6.818378e-02
  2.066777e-01    2.071619e+00   6.997883e-02
  2.088881e-01    1.938507e+00   6.747182e-02
  2.110986e-01    1.938165e+00   6.723446e-02
  2.133090e-01    1.940613e+00   6.705822e-02
  2.155195e-01    1.978188e+00   6.747972e-02
  2.177300e-01    2.027746e+00   6.778304e-02
  2.199404e-01    1.931381e+00   6.440973e-02
  2.221509e-01    1.919983e+00   6.316482e-02
  2.243613e-01    2.047566e+00   6.440280e-02
  2.265718e-01    2.027357e+00   6.337785e-02
  2.287822e-01    2.057565e+00   6.321631e-02
  2.309927e-01    2.111580e+00   6.345731e-02
  2.332031e-01    2.202405e+00   6.425299e-02
  2.354136e-01    2.209140e+00   6.382963e-02
  2.376241e-01    2.145897e+00   6.242103e-02
  2.398345e-01    2.160488e+00   6.216935e-02
  2.420450e-01    2.195491e+00   6.222306e-02
  2.442554e-01    2.096591e+00   6.038655e-02
  2.464659e-01    2.000068e+00   5.858415e-02
  2.486763e-01    2.119345e+00   5.990929e-02
  2.508868e-01    2.168152e+00   6.021297e-02
  2.530973e-01    2.097550e+00   5.885731e-02
  2.553077e-01    2.103544e+00   5.858383e-02
  2.575182e-01    2.122380e+00   5.849735e-02
  2.597286e-01    2.127321e+00   5.822498e-02
  2.619391e-01    2.052240e+00   5.685902e-02
  2.641495e-01    1.968010e+00   5.537179e-02
  2.663600e-01    2.036315e+00   5.601475e-02
  2.685704e-01    2.160131e+00   5.737986e-02
  2.707809e-01    2.067465e+00   5.583766e-02
  2.729914e-01    2.043255e+00   5.522047e-02
  2.752018e-01    2.077387e+00   5.538999e-02
  2.774123e-01    2.068463e+00   5.498857e-02
  2.796227e-01    1.995269e+00   5.373975e-02
  2.818332e-01    2.030042e+00   5.393558e-02
  2.840436e-01    2.001004e+00   5.328889e-02
  2.862541e-01    1.969094e+00   5.260817e-02
  2.884646e-01    1.995989e+00   5.271484e-02
  2.906750e-01    1.947545e+00   5.182434e-02
  2.928855e-01    1.909646e+00   5.107981e-02
  2.950959e-01    1.940337e+00   5.125212e-02
  2.973064e-01    1.945580e+00   5.109068e-02
  2.995168e-01    1.955462e+00   5.098827e-02
  3.017273e-01    1.961890e+00   5.084683e-02
  3.039377e-01    1.941488e+00   5.036029e-02
  3.061482e-01    1.882176e+00   4.937056e-02
  3.083587e-01    1.901929e+00   4.941414e-02
  3.105691e-01    1.907330e+00   4.927288e-02
  3.127796e-01    1.930923e+00   4.936826e-02
  3.149900e-01    1.961246e+00   4.954709e-02
  3.172005e-01    1.914004e+00   4.874657e-02
  3.194109e-01    1.816898e+00   4.729787e-02
  3.216214e-01    1.831487e+00   4.729357e-02
  3.238319e-01    1.889973e+00   4.785244e-02
  3.260423e-01    1.918203e+00   4.801647e-02
  3.282528e-01    1.885245e+00   4.741269e-02
  3.304632e-01    1.886449e+00   4.724407e-02
  3.326737e-01    1.890692e+00   4.711265e-02
  3.348841e-01    1.799940e+00   4.578981e-02
  3.370946e-01    1.770816e+00   4.524695e-02
  3.393050e-01    1.795082e+00   4.538334e-02
  3.415155e-01    1.870038e+00   4.614700e-02
  3.437260e-01    1.912486e+00   4.649486e-02
  3.459364e-01    1.894426e+00   4.610362e-02
  3.481469e-01    1.823254e+00   4.506419e-02
  3.503573e-01    1.806910e+00   4.469835e-02
  3.525678e-01    1.826593e+00   4.478095e-02
  3.547782e-01    1.845888e+00   4.485418e-02
  3.569887e-01    1.847210e+00   4.471123e-02
  3.591992e-01    1.849132e+00   4.457621e-02
  3.614096e-01    1.798121e+00   4.380465e-02
  3.636201e-01    1.803040e+00   4.371035e-02
  3.658305e-01    1.822106e+00   4.379100e-02
  3.680410e-01    1.746106e+00   4.272057e-02
  3.702514e-01    1.796091e+00   4.318200e-02
  3.724619e-01    1.750810e+00   4.248903e-02
  3.746724e-01    1.762892e+00   4.249310e-02
  3.768828e-01    1.824535e+00   4.308420e-02
  3.790933e-01    1.830624e+00   4.301540e-02
  3.813037e-01    1.779566e+00   4.227254e-02
  3.835142e-01    1.744281e+00   4.171388e-02
  3.857246e-01    1.823232e+00   4.250946e-02
  3.879351e-01    1.820015e+00   4.233447e-02
  3.901455e-01    1.787263e+00   4.181827e-02
  3.923560e-01    1.771103e+00   4.149649e-02
  3.945665e-01    1.763176e+00   4.127220e-02
  3.967769e-01    1.807898e+00   4.166148e-02
  3.989874e-01    1.800488e+00   4.144619e-02
  4.011978e-01    1.817755e+00   4.151639e-02
  4.034083e-01    1.760350e+00   4.073017e-02
  4.056187e-01    1.796989e+00   4.102508e-02
  4.078292e-01    1.777498e+00   4.067851e-02
  4.100397e-01    1.798597e+00   4.079428e-02
  4.122501e-01    1.746623e+00   4.008028e-02
  4.144606e-01    1.787196e+00   4.042289e-02
  4.166710e-01    1.792253e+00   4.035968e-02
  4.188815e-01    1.822418e+00   4.057769e-02
  4.210919e-01    1.852095e+00   4.078687e-02
  4.233024e-01    1.845841e+00   4.059817e-02
  4.255128e-01    1.821888e+00   4.021732e-02
  4.277233e-01    1.790657e+00   3.975656e-02
  4.299338e-01    1.768861e+00   3.940016e-02
  4.321442e-01    1.817454e+00   3.982339e-02
  4.343547e-01    1.808307e+00   3.961075e-02
  4.365651e-01    1.772388e+00   3.910394e-02
  4.387756e-01    1.792114e+00   3.921086e-02
  4.409860e-01    1.784720e+00   3.902145e-02
  4.431965e-01    1.818704e+00   3.928231e-02
  4.454070e-01    1.752185e+00   3.844999e-02
  4.476174e-01    1.723053e+00   3.802430e-02
  4.498279e-01    1.769351e+00   3.842694e-02
  4.520383e-01    1.660879e+00   3.712823e-02
  4.542488e-01    1.711096e+00   3.758372e-02
  4.564592e-01    1.711827e+00   3.749090e-02
  4.586697e-01    1.679763e+00   3.703956e-02
  4.608801e-01    1.749487e+00   3.769920e-02
  4.630906e-01    1.735984e+00   3.745400e-02
  4.653011e-01    1.748143e+00   3.748611e-02
  4.675115e-01    1.758298e+00   3.749581e-02
  4.697220e-01    1.709758e+00   3.687783e-02
  4.719324e-01    1.748190e+00   3.719353e-02
  4.741429e-01    1.690858e+00   3.648432e-02
  4.763533e-01    1.688704e+00   3.636760e-02
  4.785638e-01    1.701909e+00   3.641519e-02
  4.807743e-01    1.707580e+00   3.638306e-02
  4.829847e-01    1.680690e+00   3.600427e-02
  4.851952e-01    1.699268e+00   3.611110e-02
  4.874056e-01    1.673477e+00   3.574565e-02
  4.896161e-01    1.687472e+00   3.580580e-02
  4.918265e-01    1.712205e+00   3.597767e-02
  4.940370e-01    1.737210e+00   3.614995e-02
  4.962475e-01    1.709637e+00   3.577337e-02
  4.984579e-01    1.664486e+00   3.521083e-02
  5.006684e-01    1.689744e+00   3.539048e-02
  5.028788e-01    1.695601e+00   3.536585e-02
  5.050893e-01    1.693782e+00   3.526092e-02
  5.072997e-01    1.669106e+00   3.491858e-02
  5.095102e-01    1.686763e+00   3.501872e-02
  5.117206e-01    1.689113e+00   3.495977e-02
  5.139311e-01    1.670330e+00   3.468258e-02
  5.161416e-01    1.689859e+00   3.480229e-02
  5.183520e-01    1.682255e+00   3.464141e-02
  5.205625e-01    1.655265e+00   3.428187e-02
  5.227729e-01    1.679347e+00   3.444983e-02
  5.249834e-01    1.693962e+00   3.451907e-02
  5.271938e-01    1.761363e+00   3.511699e-02
  5.294043e-01    1.807793e+00   3.549471e-02
  5.316148e-01    1.780233e+00   3.514246e-02
  5.338252e-01    1.829352e+00   3.554254e-02
  5.360357e-01    1.753798e+00   3.472165e-02
  5.382461e-01    1.684571e+00   3.395250e-02
  5.404566e-01    1.759371e+00   3.461915e-02
  5.426670e-01    1.761753e+00   3.456454e-02
  5.448775e-01    1.746552e+00   3.433820e-02
  5.470879e-01    1.773983e+00   3.452963e-02
  5.492984e-01    1.755443e+00   3.427234e-02
  5.515089e-01    1.794154e+00   3.457132e-02
  5.537193e-01    1.771660e+00   3.427824e-02
  5.559298e-01    1.809174e+00   3.456326e-02
  5.581402e-01    1.787060e+00   3.427634e-02
  5.603507e-01    1.804109e+00   3.436448e-02
  5.625611e-01    1.796083e+00   3.421356e-02
  5.647716e-01    1.789953e+00   3.408096e-02
  5.669821e-01    1.784861e+00   3.395909e-02
  5.691925e-01    1.762203e+00   3.367043e-02
  5.714030e-01    1.768360e+00   3.365727e-02
  5.736134e-01    1.778634e+00   3.368312e-02
  5.758239e-01    1.711625e+00   3.297201e-02
  5.780343e-01    1.683808e+00   3.263379e-02
  5.802448e-01    1.696106e+00   3.268418e-02
  5.824552e-01    1.680220e+00   3.246252e-02
  5.846657e-01    1.614459e+00   3.175459e-02
  5.868762e-01    1.606416e+00   3.160942e-02
  5.890866e-01    1.647909e+00   3.194863e-02
  5.912971e-01    1.627682e+00   3.168622e-02
  5.935075e-01    1.646662e+00   3.180453e-02
  5.957180e-01    1.666188e+00   3.192694e-02
  5.979284e-01    1.617229e+00   3.139016e-02
  6.001389e-01    1.641999e+00   3.156522e-02
  6.023494e-01    1.650797e+00   3.158541e-02
  6.045598e-01    1.649081e+00   3.150472e-02
  6.067703e-01    1.644603e+00   3.139865e-02
  6.089807e-01    1.683721e+00   3.170599e-02
  6.111912e-01    1.682758e+00   3.163363e-02
  6.134016e-01    1.708838e+00   3.181425e-02
  6.156121e-01    1.719922e+00   3.185381e-02
  6.178226e-01    1.704982e+00   3.165238e-02
  6.200330e-01    1.707998e+00   3.161786e-02
  6.222435e-01    1.711185e+00   3.158465e-02
  6.244539e-01    1.708038e+00   3.149382e-02
  6.266644e-01    1.724004e+00   3.157895e-02
  6.288748e-01    1.689243e+00   3.119813e-02
  6.310853e-01    1.746138e+00   3.165757e-02
  6.332957e-01    1.739468e+00   3.153607e-02
  6.355062e-01    1.679939e+00   3.093153e-02
  6.377167e-01    1.665958e+00   3.074343e-02
  6.399271e-01    1.707765e+00   3.106716e-02
  6.421376e-01    1.696987e+00   3.090986e-02
  6.443480e-01    1.677826e+00   3.067639e-02
  6.465585e-01    1.679032e+00   3.062927e-02
  6.487689e-01    1.685315e+00   3.062859e-02
  6.509794e-01    1.650173e+00   3.025041e-02
  6.531899e-01    1.626606e+00   2.997715e-02
  6.554003e-01    1.633188e+00   2.998126e-02
  6.576108e-01    1.642907e+00   3.001433e-02
  6.598212e-01    1.621522e+00   2.976298e-02
  6.620317e-01    1.620587e+00   2.969922e-02
  6.642421e-01    1.616484e+00   2.960673e-02
  6.664526e-01    1.635005e+00   2.972100e-02
  6.686630e-01    1.627004e+00   2.959337e-02
  6.708735e-01    1.627928e+00   2.954748e-02
  6.730840e-01    1.605415e+00   2.928896e-02
  6.752944e-01    1.638286e+00   2.953347e-02
  6.775049e-01    1.690933e+00   2.994979e-02
  6.797153e-01    1.641751e+00   2.945759e-02
  6.819258e-01    1.583727e+00   2.888017e-02
  6.841362e-01    1.625792e+00   2.920856e-02
  6.863467e-01    1.584910e+00   2.878735e-02
  6.885572e-01    1.616911e+00   2.902439e-02
  6.907676e-01    1.606493e+00   2.887893e-02
  6.929781e-01    1.599379e+00   2.876368e-02
  6.951885e-01    1.590095e+00   2.862929e-02
  6.973990e-01    1.555754e+00   2.826838e-02
  6.996094e-01    1.600328e+00   2.862003e-02
  7.018199e-01    1.605331e+00   2.861443e-02
  7.040303e-01    1.594233e+00   2.846525e-02
  7.062408e-01    1.589487e+00   2.837308e-02
  7.084513e-01    1.556204e+00   2.802560e-02
  7.106617e-01    1.589947e+00   2.827859e-02
  7.128722e-01    1.569828e+00   2.805049e-02
  7.150826e-01    1.578942e+00   2.808330e-02
  7.172931e-01    1.561372e+00   2.787848e-02
  7.195035e-01    1.568403e+00   2.789313e-02
  7.217140e-01    1.591985e+00   2.815178e-02
  7.239245e-01    1.547036e+00   2.797625e-02
  7.261349e-01    1.545105e+00   2.806637e-02
  7.283454e-01    1.559994e+00   2.827333e-02
  7.305558e-01    1.625057e+00   2.891175e-02
  7.327663e-01    1.620631e+00   2.891550e-02
  7.349767e-01    1.549762e+00   2.829245e-02
  7.371872e-01    1.549523e+00   2.827915e-02
  7.393976e-01    1.507017e+00   2.787466e-02
  7.416081e-01    1.524452e+00   2.801949e-02
  7.438186e-01    1.580718e+00   2.838731e-02
  7.460290e-01    1.531108e+00   2.764816e-02
  7.482395e-01    1.578743e+00   2.790354e-02
  7.504499e-01    1.561483e+00   2.761491e-02
  7.526604e-01    1.564800e+00   2.752803e-02
  7.548708e-01    1.590786e+00   2.766577e-02
  7.570813e-01    1.580594e+00   2.752596e-02
  7.592918e-01    1.529651e+00   2.704407e-02
  7.615022e-01    1.531155e+00   2.702402e-02
  7.637127e-01    1.562821e+00   2.726937e-02
  7.659231e-01    1.579361e+00   2.738124e-02
  7.681336e-01    1.600387e+00   2.753107e-02
  7.703440e-01    1.594052e+00   2.744510e-02
  7.725545e-01    1.578431e+00   2.727937e-02
  7.747650e-01    1.623152e+00   2.762434e-02
  7.769754e-01    1.600004e+00   2.737355e-02
  7.791859e-01    1.566954e+00   2.703601e-02
  7.813963e-01    1.649485e+00   2.768509e-02
  7.836068e-01    1.684433e+00   2.792324e-02
  7.858172e-01    1.649357e+00   2.757934e-02
  7.880277e-01    1.595757e+00   2.707590e-02
  7.902381e-01    1.597063e+00   2.703774e-02
  7.924486e-01    1.613538e+00   2.712651e-02
  7.946591e-01    1.658463e+00   2.745237e-02
  7.968695e-01    1.657540e+00   2.739566e-02
  7.990800e-01    1.621833e+00   2.705053e-02
  8.012904e-01    1.619933e+00   2.698791e-02
  8.035009e-01    1.637945e+00   2.708925e-02
  8.057113e-01    1.647670e+00   2.712256e-02
  8.079218e-01    1.678495e+00   2.732785e-02
  8.101323e-01    1.692178e+00   2.739243e-02
  8.123427e-01    1.736179e+00   2.769897e-02
  8.145532e-01    1.699574e+00   2.735856e-02
  8.167636e-01    1.645286e+00   2.687278e-02
  8.189741e-01    1.633746e+00   2.673374e-02
  8.211845e-01    1.630876e+00   2.666545e-02
  8.233950e-01    1.658524e+00   2.684684e-02
  8.256054e-01    1.648793e+00   2.672356e-02
  8.278159e-01    1.681920e+00   2.694616e-02
  8.300264e-01    1.676688e+00   2.686063e-02
  8.322368e-01    1.698502e+00   2.699087e-02
  8.344473e-01    1.723679e+00   2.714570e-02
  8.366577e-01    1.779696e+00   2.753891e-02
  8.388682e-01    1.735627e+00   2.715236e-02
  8.410786e-01    1.847706e+00   2.797059e-02
  8.432891e-01    2.284237e+00   3.105023e-02
  8.454996e-01    2.397637e+00   3.176150e-02
  8.477100e-01    1.967173e+00   2.872371e-02
  8.499205e-01    1.678032e+00   2.648721e-02
  8.521309e-01    1.620267e+00   2.598670e-02
  8.543414e-01    1.667430e+00   2.632106e-02
  8.565518e-01    1.664382e+00   2.625608e-02
  8.587623e-01    1.676945e+00   2.631392e-02
  8.609727e-01    1.682225e+00   2.631448e-02
  8.631832e-01    1.618338e+00   2.577017e-02
  8.653937e-01    1.612211e+00   2.568179e-02
  8.676041e-01    1.640735e+00   2.586889e-02
  8.698146e-01    1.790498e+00   2.698240e-02
  8.720250e-01    1.922717e+00   2.791834e-02
  8.742355e-01    2.072630e+00   2.894221e-02
  8.764459e-01    1.835610e+00   2.719556e-02
  8.786564e-01    1.622686e+00   2.553153e-02
  8.808669e-01    1.607797e+00   2.537560e-02
  8.830773e-01    1.591275e+00   2.520686e-02
  8.852878e-01    1.637049e+00   2.552849e-02
  8.874982e-01    1.711033e+00   2.606113e-02
  8.897087e-01    1.661557e+00   2.564318e-02
  8.919191e-01    1.623097e+00   2.530664e-02
  8.941296e-01    1.609925e+00   2.516634e-02
  8.963401e-01    1.607282e+00   2.510918e-02
  8.985505e-01    1.564812e+00   2.473867e-02
  9.007610e-01    1.607098e+00   2.503385e-02
  9.029714e-01    1.598521e+00   2.493116e-02
  9.051819e-01    1.587517e+00   2.480811e-02
  9.073923e-01    1.586271e+00   2.476197e-02
  9.096028e-01    1.588684e+00   2.474601e-02
  9.118132e-01    1.574545e+00   2.459970e-02
  9.140237e-01    1.577108e+00   2.458336e-02
  9.162342e-01    1.618538e+00   2.486939e-02
  9.184446e-01    1.584651e+00   2.457211e-02
  9.206551e-01    1.602494e+00   2.467442e-02
  9.228655e-01    1.602852e+00   2.464192e-02
  9.250760e-01    1.624475e+00   2.477196e-02
  9.272864e-01    1.598131e+00   2.453608e-02
  9.294969e-01    1.612722e+00   2.461190e-02
  9.317074e-01    1.596253e+00   2.445132e-02
  9.339178e-01    1.598947e+00   2.443850e-02
  9.361283e-01    1.598823e+00   2.440155e-02
  9.383387e-01    1.637492e+00   2.466126e-02
  9.405492e-01    1.656283e+00   2.476775e-02
  9.427596e-01    1.643382e+00   2.463557e-02
  9.449701e-01    1.655941e+00   2.469593e-02
  9.471805e-01    1.677017e+00   2.481739e-02
  9.493910e-01    1.674165e+00   2.476225e-02
  9.516015e-01    1.667993e+00   2.468205e-02
  9.538119e-01    1.682036e+00   2.475176e-02
  9.560224e-01    1.710706e+00   2.492668e-02
  9.582328e-01    1.732694e+00   2.505271e-02
  9.604433e-01    1.776841e+00   2.533394e-02
  9.626537e-01    1.761223e+00   2.518845e-02
  9.648642e-01    1.741466e+00   2.501245e-02
  9.670747e-01    1.784545e+00   2.528501e-02
  9.692851e-01    1.799547e+00   2.535733e-02
  9.714956e-01    1.803691e+00   2.535072e-02
  9.737060e-01    1.790432e+00   2.522418e-02
  9.759165e-01    1.822704e+00   2.541461e-02
  9.781269e-01    1.819007e+00   2.535561e-02
  9.803374e-01    1.819362e+00   2.532301e-02
  9.825478e-01    1.825355e+00   2.533122e-02
  9.847583e-01    1.805825e+00   2.516115e-02
  9.869688e-01    1.759450e+00   2.480272e-02
  9.891792e-01    1.761971e+00   2.478749e-02
  9.913897e-01    1.759309e+00   2.473531e-02
  9.936001e-01    1.778614e+00   2.483813e-02
  9.958106e-01    1.722039e+00   2.440668e-02
  9.980210e-01    1.663747e+00   2.395890e-02
  1.000231e+00    1.630897e+00   2.385112e-02
  1.002442e+00    1.648760e+00   2.410882e-02
  1.004652e+00    1.652501e+00   2.420347e-02
  1.006863e+00    1.685653e+00   2.449579e-02
  1.009073e+00    1.637020e+00   2.417679e-02
  1.011284e+00    1.615738e+00   2.405121e-02
  1.013494e+00    1.608945e+00   2.402443e-02
  1.015705e+00    1.550588e+00   2.360700e-02
  1.017915e+00    1.548268e+00   2.360557e-02
  1.020126e+00    1.556507e+00   2.368431e-02
  1.022336e+00    1.521542e+00   2.342832e-02
  1.024547e+00    1.514723e+00   2.338682e-02
  1.026757e+00    1.530963e+00   2.352019e-02
  1.028967e+00    1.494035e+00   2.324237e-02
  1.031178e+00    1.495982e+00   2.326357e-02
  1.033388e+00    1.496288e+00   2.327096e-02
  1.035599e+00    1.482291e+00   2.316523e-02
  1.037809e+00    1.495761e+00   2.327347e-02
  1.040020e+00    1.483496e+00   2.317911e-02
  1.042230e+00    1.510495e+00   2.339101e-02
  1.044441e+00    1.507379e+00   2.336667e-02
  1.046651e+00    1.496997e+00   2.328622e-02
  1.048862e+00    1.484892e+00   2.319110e-02
  1.051072e+00    1.489527e+00   2.322491e-02
  1.053282e+00    1.470705e+00   2.307679e-02
  1.055493e+00    1.438889e+00   2.282158e-02
  1.057703e+00    1.468874e+00   2.305661e-02
  1.059914e+00    1.498452e+00   2.328335e-02
  1.062124e+00    1.476378e+00   2.310719e-02
  1.064335e+00    1.445369e+00   2.285984e-02
  1.066545e+00    1.402792e+00   2.251478e-02
  1.068756e+00    1.444696e+00   2.284488e-02
  1.070966e+00    1.447989e+00   2.286446e-02
  1.073177e+00    1.425243e+00   2.267819e-02
  1.075387e+00    1.435179e+00   2.275193e-02
  1.077597e+00    1.455703e+00   2.290683e-02
  1.079808e+00    1.432604e+00   2.259306e-02
  1.082018e+00    1.408358e+00   2.221555e-02
  1.084229e+00    1.401834e+00   2.205619e-02
  1.086439e+00    1.458465e+00   2.240977e-02
  1.088650e+00    1.431063e+00   2.212321e-02
  1.090860e+00    1.470060e+00   2.235459e-02
  1.093071e+00    1.455297e+00   2.217981e-02
  1.095281e+00    1.443060e+00   2.202916e-02
  1.097492e+00    1.425058e+00   2.183680e-02
  1.099702e+00    1.398541e+00   2.158203e-02
  1.101912e+00    1.452655e+00   2.194652e-02
  1.104123e+00    1.437005e+00   2.177977e-02
  1.106333e+00    1.406293e+00   2.150176e-02
  1.108544e+00    1.400580e+00   2.141423e-02
  1.110754e+00    1.389940e+00   2.129028e-02
  1.112965e+00    1.363520e+00   2.104727e-02
  1.115175e+00    1.372423e+00   2.107538e-02
  1.117386e+00    1.399900e+00   2.124626e-02
  1.119596e+00    1.396707e+00   2.118434e-02
  1.121807e+00    1.407311e+00   2.122582e-02
  1.124017e+00    1.434433e+00   2.139238e-02
  1.126228e+00    1.395714e+00   2.106607e-02
  1.128438e+00    1.373614e+00   2.086220e-02
  1.130648e+00    1.380819e+00   2.088274e-02
  1.132859e+00    1.432443e+00   2.123473e-02
  1.135069e+00    1.449114e+00   2.132251e-02
  1.137280e+00    1.495131e+00   2.162421e-02
  1.139490e+00    1.467703e+00   2.139094e-02
  1.141701e+00    1.423677e+00   2.103409e-02
  1.143911e+00    1.371518e+00   2.061346e-02
  1.146122e+00    1.383628e+00   2.067219e-02
  1.148332e+00    1.395058e+00   2.072537e-02
  1.150543e+00    1.345009e+00   2.031972e-02
  1.152753e+00    1.378454e+00   2.053995e-02
  1.154963e+00    1.361985e+00   2.038595e-02
  1.157174e+00    1.391940e+00   2.057856e-02
  1.159384e+00    1.390488e+00   2.053777e-02
  1.161595e+00    1.382952e+00   2.045208e-02
  1.163805e+00    1.339042e+00   2.009581e-02
  1.166016e+00    1.378905e+00   2.036320e-02
  1.168226e+00    1.386226e+00   2.038800e-02
  1.170437e+00    1.436532e+00   2.072528e-02
  1.172647e+00    1.472460e+00   2.095287e-02
  1.174858e+00    1.472884e+00   2.092670e-02
  1.177068e+00    1.450618e+00   2.073879e-02
  1.179278e+00    1.385376e+00   2.023823e-02
  1.181489e+00    1.360608e+00   2.002945e-02
  1.183699e+00    1.362132e+00   2.001308e-02
  1.185910e+00    1.369997e+00   2.004287e-02
  1.188120e+00    1.362530e+00   1.996143e-02
  1.190331e+00    1.346753e+00   1.981884e-02
  1.192541e+00    1.365099e+00   1.992589e-02
  1.194752e+00    1.370391e+00   1.993725e-02
  1.196962e+00    1.371698e+00   1.992082e-02
  1.199173e+00    1.385553e+00   1.999435e-02
  1.201383e+00    1.356533e+00   1.975663e-02
  1.203593e+00    1.356852e+00   1.973404e-02
  1.205804e+00    1.367550e+00   1.978562e-02
  1.208014e+00    1.355685e+00   1.967270e-02
  1.210225e+00    1.349862e+00   1.960507e-02
  1.212435e+00    1.341199e+00   1.951735e-02
  1.214646e+00    1.332773e+00   1.943000e-02
  1.216856e+00    1.363796e+00   1.962923e-02
  1.219067e+00    1.355163e+00   1.954251e-02
  1.221277e+00    1.337417e+00   1.938921e-02
  1.223488e+00    1.354382e+00   1.948599e-02
  1.225698e+00    1.424385e+00   1.995559e-02
  1.227909e+00    1.466908e+00   2.021983e-02
  1.230119e+00    1.448929e+00   2.006258e-02
  1.232329e+00    1.400185e+00   1.969094e-02
  1.234540e+00    1.344798e+00   1.926731e-02
  1.236750e+00    1.372625e+00   1.943509e-02
  1.238961e+00    1.414982e+00   1.970507e-02
  1.241171e+00    1.406199e+00   1.961916e-02
  1.243382e+00    1.392592e+00   1.950013e-02
  1.245592e+00    1.389503e+00   1.945402e-02
  1.247803e+00    1.386191e+00   1.940688e-02
  1.250013e+00    1.363211e+00   1.922168e-02
  1.252224e+00    1.344287e+00   1.906459e-02
  1.254434e+00    1.347842e+00   1.906606e-02
  1.256644e+00    1.342518e+00   1.900520e-02
  1.258855e+00    1.353091e+00   1.905662e-02
  1.261065e+00    1.341510e+00   1.895159e-02
  1.263276e+00    1.377682e+00   1.918220e-02
  1.265486e+00    1.368299e+00   1.909376e-02
  1.267697e+00    1.352063e+00   1.895710e-02
  1.269907e+00    1.369858e+00   1.905857e-02
  1.272118e+00    1.344103e+00   1.885606e-02
  1.274328e+00    1.343440e+00   1.882869e-02
  1.276539e+00    1.379110e+00   1.905401e-02
  1.278749e+00    1.373544e+00   1.899302e-02
  1.280959e+00    1.399565e+00   1.914915e-02
  1.283170e+00    1.379611e+00   1.898949e-02
  1.285380e+00    1.355078e+00   1.879739e-02
  1.287591e+00    1.349815e+00   1.873882e-02
  1.289801e+00    1.329347e+00   1.857515e-02
  1.292012e+00    1.338072e+00   1.861896e-02
  1.294222e+00    1.370994e+00   1.883029e-02
  1.296433e+00    1.341097e+00   1.860829e-02
  1.298643e+00    1.351537e+00   1.866407e-02
  1.300854e+00    1.352914e+00   1.865718e-02
  1.303064e+00    1.364420e+00   1.871700e-02
  1.305274e+00    1.368268e+00   1.872181e-02
  1.307485e+00    1.352289e+00   1.859059e-02
  1.309695e+00    1.344894e+00   1.851749e-02
  1.311906e+00    1.367444e+00   1.865025e-02
  1.314116e+00    1.349348e+00   1.850564e-02
  1.316327e+00    1.375768e+00   1.866403e-02
  1.318537e+00    1.350939e+00   1.847298e-02
  1.320748e+00    1.338319e+00   1.836500e-02
  1.322958e+00    1.366868e+00   1.853921e-02
  1.325169e+00    1.374038e+00   1.856657e-02
  1.327379e+00    1.381167e+00   1.859260e-02
  1.329589e+00    1.373582e+00   1.852024e-02
  1.331800e+00    1.386588e+00   1.858674e-02
  1.334010e+00    1.372175e+00   1.846906e-02
  1.336221e+00    1.369148e+00   1.842678e-02
  1.338431e+00    1.370879e+00   1.841739e-02
  1.340642e+00    1.362637e+00   1.842641e-02
  1.342852e+00    1.320370e+00   1.823794e-02
  1.345063e+00    1.346249e+00   1.846520e-02
  1.347273e+00    1.348987e+00   1.851923e-02
  1.349484e+00    1.323855e+00   1.837330e-02
  1.351694e+00    1.361319e+00   1.865425e-02
  1.353905e+00    1.340705e+00   1.853044e-02
  1.356115e+00    1.320096e+00   1.840232e-02
  1.358325e+00    1.327270e+00   1.846547e-02
  1.360536e+00    1.318871e+00   1.841844e-02
  1.362746e+00    1.318880e+00   1.842795e-02
  1.364957e+00    1.312008e+00   1.838745e-02
  1.367167e+00    1.299433e+00   1.830612e-02
  1.369378e+00    1.337737e+00   1.857998e-02
  1.371588e+00    1.330268e+00   1.853315e-02
  1.373799e+00    1.321310e+00   1.847431e-02
  1.376009e+00    1.292423e+00   1.827456e-02
  1.378220e+00    1.280676e+00   1.819380e-02
  1.380430e+00    1.283051e+00   1.821333e-02
  1.382640e+00    1.300405e+00   1.833696e-02
  1.384851e+00    1.287510e+00   1.824672e-02
  1.387061e+00    1.265775e+00   1.809232e-02
  1.389272e+00    1.295357e+00   1.830271e-02
  1.391482e+00    1.320994e+00   1.848227e-02
  1.393693e+00    1.303198e+00   1.835648e-02
  1.395903e+00    1.302480e+00   1.834993e-02
  1.398114e+00    1.278133e+00   1.817623e-02
  1.400324e+00    1.262745e+00   1.806437e-02
  1.402535e+00    1.277998e+00   1.817081e-02
  1.404745e+00    1.289042e+00   1.824677e-02
  1.406955e+00    1.281865e+00   1.819323e-02
  1.409166e+00    1.270625e+00   1.810996e-02
  1.411376e+00    1.286650e+00   1.822068e-02
  1.413587e+00    1.284545e+00   1.820193e-02
  1.415797e+00    1.290217e+00   1.823853e-02
  1.418008e+00    1.264595e+00   1.801472e-02
  1.420218e+00    1.279085e+00   1.796737e-02
  1.422429e+00    1.266487e+00   1.779347e-02
  1.424639e+00    1.294712e+00   1.792534e-02
  1.426850e+00    1.292251e+00   1.785312e-02
  1.429060e+00    1.299602e+00   1.785427e-02
  1.431270e+00    1.267136e+00   1.758561e-02
  1.433481e+00    1.253597e+00   1.745070e-02
  1.435691e+00    1.271436e+00   1.753597e-02
  1.437902e+00    1.295116e+00   1.766169e-02
  1.440112e+00    1.308838e+00   1.771913e-02
  1.442323e+00    1.291307e+00   1.756675e-02
  1.444533e+00    1.272034e+00   1.740259e-02
  1.446744e+00    1.291417e+00   1.750327e-02
  1.448954e+00    1.286339e+00   1.743846e-02
  1.451165e+00    1.258682e+00   1.722035e-02
  1.453375e+00    1.265059e+00   1.723590e-02
  1.455586e+00    1.299752e+00   1.744216e-02
  1.457796e+00    1.286015e+00   1.732207e-02
  1.460006e+00    1.255527e+00   1.708841e-02
  1.462217e+00    1.250296e+00   1.702674e-02
  1.464427e+00    1.269709e+00   1.713281e-02
  1.466638e+00    1.278701e+00   1.716796e-02
  1.468848e+00    1.247161e+00   1.692980e-02
  1.471059e+00    1.261871e+00   1.700432e-02
  1.473269e+00    1.257797e+00   1.695260e-02
  1.475480e+00    1.239913e+00   1.680814e-02
  1.477690e+00    1.272491e+00   1.700364e-02
  1.479901e+00    1.271759e+00   1.697488e-02
  1.482111e+00    1.273116e+00   1.696056e-02
  1.484321e+00    1.256912e+00   1.682925e-02
  1.486532e+00    1.258502e+00   1.681763e-02
  1.488742e+00    1.303481e+00   1.709251e-02
  1.490953e+00    1.318302e+00   1.716637e-02
  1.493163e+00    1.265382e+00   1.679598e-02
  1.495374e+00    1.249315e+00   1.666762e-02
  1.497584e+00    1.282440e+00   1.686530e-02
  1.499795e+00    1.299016e+00   1.695200e-02
  1.502005e+00    1.259847e+00   1.667279e-02
  1.504216e+00    1.267263e+00   1.670066e-02
  1.506426e+00    1.286921e+00   1.680864e-02
  1.508636e+00    1.283774e+00   1.676744e-02
  1.510847e+00    1.275127e+00   1.668887e-02
  1.513057e+00    1.275788e+00   1.666792e-02
  1.515268e+00    1.275778e+00   1.664192e-02
  1.517478e+00    1.289716e+00   1.670707e-02
  1.519689e+00    1.276084e+00   1.659338e-02
  1.521899e+00    1.268813e+00   1.652277e-02
  1.524110e+00    1.265363e+00   1.647988e-02
  1.526320e+00    1.268044e+00   1.647760e-02
  1.528531e+00    1.261566e+00   1.641564e-02
  1.530741e+00    1.251338e+00   1.632977e-02
  1.532951e+00    1.256151e+00   1.634153e-02
  1.535162e+00    1.231532e+00   1.626657e-02
  1.537372e+00    1.235239e+00   1.635755e-02
  1.539583e+00    1.238029e+00   1.641012e-02
  1.541793e+00    1.255697e+00   1.653376e-02
  1.544004e+00    1.246650e+00   1.647436e-02
  1.546214e+00    1.233168e+00   1.638355e-02
  1.548425e+00    1.214177e+00   1.625714e-02
  1.550635e+00    1.208295e+00   1.622725e-02
  1.552846e+00    1.222651e+00   1.633293e-02
  1.555056e+00    1.218370e+00   1.626330e-02
  1.557266e+00    1.237903e+00   1.628296e-02
  1.559477e+00    1.241991e+00   1.625079e-02
  1.561687e+00    1.221362e+00   1.608487e-02
  1.563898e+00    1.223783e+00   1.608377e-02
  1.566108e+00    1.256675e+00   1.628246e-02
  1.568319e+00    1.265461e+00   1.632353e-02
  1.570529e+00    1.234947e+00   1.610050e-02
  1.572740e+00    1.231737e+00   1.605208e-02
  1.574950e+00    1.232424e+00   1.603035e-02
  1.577161e+00    1.261582e+00   1.619323e-02
  1.579371e+00    1.248932e+00   1.608814e-02
  1.581582e+00    1.251678e+00   1.608599e-02
  1.583792e+00    1.246246e+00   1.603302e-02
  1.586002e+00    1.256767e+00   1.608283e-02
  1.588213e+00    1.251301e+00   1.603055e-02
  1.590423e+00    1.246956e+00   1.598259e-02
  1.592634e+00    1.221366e+00   1.579633e-02
  1.594844e+00    1.234355e+00   1.585876e-02
  1.597055e+00    1.234163e+00   1.583711e-02
  1.599265e+00    1.238524e+00   1.584437e-02
  1.601476e+00    1.245232e+00   1.586687e-02
  1.603686e+00    1.233025e+00   1.576921e-02
  1.605897e+00    1.213167e+00   1.562177e-02
  1.608107e+00    1.195473e+00   1.548818e-02
  1.610317e+00    1.229103e+00   1.568529e-02
  1.612528e+00    1.229454e+00   1.566841e-02
  1.614738e+00    1.208850e+00   1.551777e-02
  1.616949e+00    1.222284e+00   1.558483e-02
  1.619159e+00    1.208819e+00   1.548013e-02
  1.621370e+00    1.189260e+00   1.533615e-02
  1.623580e+00    1.179811e+00   1.525704e-02
  1.625791e+00    1.186792e+00   1.528398e-02
  1.628001e+00    1.201445e+00   1.535984e-02
  1.630212e+00    1.177546e+00   1.518864e-02
  1.632422e+00    1.150894e+00   1.499818e-02
  1.634632e+00    1.146273e+00   1.495095e-02
  1.636843e+00    1.172036e+00   1.510055e-02
  1.639053e+00    1.132385e+00   1.482595e-02
  1.641264e+00    1.142596e+00   1.487572e-02
  1.643474e+00    1.128095e+00   1.476392e-02
  1.645685e+00    1.113915e+00   1.465447e-02
  1.647895e+00    1.118838e+00   1.467050e-02
  1.650106e+00    1.092173e+00   1.447807e-02
  1.652316e+00    1.104190e+00   1.454132e-02
  1.654527e+00    1.096794e+00   1.447622e-02
  1.656737e+00    1.082495e+00   1.436536e-02
  1.658947e+00    1.093403e+00   1.442158e-02
  1.661158e+00    1.091699e+00   1.439432e-02
  1.663368e+00    1.094019e+00   1.439379e-02
  1.665579e+00    1.093187e+00   1.437236e-02
  1.667789e+00    1.095716e+00   1.437289e-02
  1.670000e+00    1.080949e+00   1.426044e-02
  1.672210e+00    1.064401e+00   1.413531e-02
  1.674421e+00    1.067888e+00   1.414338e-02
  1.676631e+00    1.050603e+00   1.401296e-02
  1.678842e+00    1.047678e+00   1.397801e-02
  1.681052e+00    1.079176e+00   1.417131e-02
  1.683263e+00    1.047431e+00   1.394649e-02
  1.685473e+00    1.055667e+00   1.398625e-02
  1.687683e+00    1.068291e+00   1.405434e-02
  1.689894e+00    1.065658e+00   1.402133e-02
  1.692104e+00    1.038303e+00   1.382557e-02
  1.694315e+00    1.033868e+00   1.378174e-02
  1.696525e+00    1.058232e+00   1.392812e-02
  1.698736e+00    1.051914e+00   1.387177e-02
  1.700946e+00    1.027664e+00   1.369603e-02
  1.703157e+00    1.038938e+00   1.375643e-02
  1.705367e+00    1.042204e+00   1.376361e-02
  1.707578e+00    1.036703e+00   1.371277e-02
  1.709788e+00    1.020648e+00   1.359222e-02
  1.711998e+00    1.005270e+00   1.347469e-02
  1.714209e+00    1.018111e+00   1.354618e-02
  1.716419e+00    1.017900e+00   1.353063e-02
  1.718630e+00    1.010860e+00   1.346963e-02
  1.720840e+00    1.022256e+00   1.353120e-02
  1.723051e+00    9.952918e-01   1.333790e-02
  1.725261e+00    9.895720e-01   1.328505e-02
  1.727472e+00    1.004050e+00   1.336781e-02
  1.729682e+00    9.904023e-01   1.326337e-02
  1.731893e+00    9.809339e-01   1.318612e-02
  1.734103e+00    9.743701e-01   1.312836e-02
  1.736313e+00    9.884663e-01   1.320911e-02
  1.738524e+00    9.862608e-01   1.318064e-02
  1.740734e+00    9.740548e-01   1.308531e-02
  1.742945e+00    9.624351e-01   1.299380e-02
  1.745155e+00    9.501830e-01   1.289766e-02
  1.747366e+00    9.485954e-01   1.287335e-02
  1.749576e+00    9.775668e-01   1.305484e-02
  1.751787e+00    9.801691e-01   1.305889e-02
  1.753997e+00    9.554089e-01   1.287969e-02
  1.756208e+00    9.378859e-01   1.274808e-02
  1.758418e+00    9.422295e-01   1.276463e-02
  1.760628e+00    9.548563e-01   1.283664e-02
  1.762839e+00    9.483058e-01   1.277943e-02
  1.765049e+00    9.528544e-01   1.279697e-02
  1.767260e+00    9.567068e-01   1.281005e-02
  1.769470e+00    9.336729e-01   1.264207e-02
  1.771681e+00    9.262840e-01   1.257896e-02
  1.773891e+00    9.319105e-01   1.260419e-02
  1.776102e+00    9.501423e-01   1.271399e-02
  1.778312e+00    9.368894e-01   1.261234e-02
  1.780523e+00    9.438179e-01   1.264614e-02
  1.782733e+00    9.547858e-01   1.270660e-02
  1.784944e+00    1.002376e+00   1.300607e-02
  1.787154e+00    1.038895e+00   1.322767e-02
  1.789364e+00    9.931346e-01   1.292020e-02
  1.791575e+00    9.566943e-01   1.266822e-02
  1.793785e+00    9.380666e-01   1.253175e-02
  1.795996e+00    9.187199e-01   1.238936e-02
  1.798206e+00    9.081643e-01   1.230553e-02
  1.800417e+00    8.992338e-01   1.223230e-02
  1.802627e+00    9.103069e-01   1.229548e-02
  1.804838e+00    9.176610e-01   1.233289e-02
  1.807048e+00    9.306434e-01   1.240684e-02
  1.809259e+00    9.310971e-01   1.239609e-02
  1.811469e+00    9.146981e-01   1.227140e-02
  1.813679e+00    8.789652e-01   1.201453e-02
  1.815890e+00    8.549725e-01   1.183503e-02
  1.818100e+00    8.723454e-01   1.193974e-02
  1.820311e+00    8.770723e-01   1.195745e-02
  1.822521e+00    8.885199e-01   1.202038e-02
  1.824732e+00    8.576021e-01   1.179489e-02
  1.826942e+00    8.463915e-01   1.170545e-02
  1.829153e+00    8.740644e-01   1.188367e-02
  1.831363e+00    8.953184e-01   1.201515e-02
  1.833574e+00    9.307330e-01   1.223849e-02
  1.835784e+00    9.099223e-01   1.208930e-02
  1.837994e+00    9.094070e-01   1.207392e-02
  1.840205e+00    8.999357e-01   1.199957e-02
  1.842415e+00    8.860755e-01   1.189494e-02
  1.844626e+00    8.663212e-01   1.175007e-02
  1.846836e+00    8.522617e-01   1.164301e-02
  1.849047e+00    8.419675e-01   1.156103e-02
  1.851257e+00    8.314776e-01   1.147940e-02
  1.853468e+00    8.461999e-01   1.157185e-02
  1.855678e+00    8.276258e-01   1.143545e-02
  1.857889e+00    8.326206e-01   1.146153e-02
  1.860099e+00    8.291765e-01   1.142930e-02
  1.862309e+00    8.489437e-01   1.155626e-02
  1.864520e+00    8.474070e-01   1.153727e-02
  1.866730e+00    8.504839e-01   1.154884e-02
  1.868941e+00    8.412698e-01   1.147524e-02
  1.871151e+00    8.077348e-01   1.123311e-02
  1.873362e+00    8.266799e-01   1.135287e-02
  1.875572e+00    8.317252e-01   1.137665e-02
  1.877783e+00    8.491421e-01   1.148372e-02
  1.879993e+00    8.444353e-01   1.144070e-02
  1.882204e+00    8.468950e-01   1.144644e-02
  1.884414e+00    8.549983e-01   1.148993e-02
  1.886624e+00    8.433695e-01   1.140047e-02
  1.888835e+00    8.215309e-01   1.124104e-02
  1.891045e+00    8.507314e-01   1.142810e-02
  1.893256e+00    8.608010e-01   1.148433e-02
  1.895466e+00    8.520997e-01   1.141486e-02
  1.897677e+00    8.532254e-01   1.141137e-02
  1.899887e+00    8.745317e-01   1.154171e-02
  1.902098e+00    9.160490e-01   1.180111e-02
  1.904308e+00    9.492335e-01   1.200166e-02
  1.906519e+00    9.146005e-01   1.176934e-02
  1.908729e+00    8.684964e-01   1.145800e-02
  1.910940e+00    8.379642e-01   1.124358e-02
  1.913150e+00    8.356155e-01   1.121717e-02
  1.915360e+00    8.288201e-01   1.116081e-02
  1.917571e+00    8.305904e-01   1.116179e-02
  1.919781e+00    8.228132e-01   1.109873e-02
  1.921992e+00    8.101346e-01   1.100234e-02
  1.924202e+00    7.803249e-01   1.078750e-02
  1.926413e+00    8.026819e-01   1.093071e-02
  1.928623e+00    8.148124e-01   1.100246e-02
  1.930834e+00    8.070598e-01   1.093961e-02
  1.933044e+00    8.028275e-01   1.090028e-02
  1.935255e+00    7.897982e-01   1.080126e-02
  1.937465e+00    8.022145e-01   1.087547e-02
  1.939675e+00    8.133222e-01   1.093961e-02
  1.941886e+00    8.152046e-01   1.094194e-02
  1.944096e+00    8.226581e-01   1.098151e-02
  1.946307e+00    8.068276e-01   1.086501e-02
  1.948517e+00    7.860324e-01   1.071370e-02
  1.950728e+00    7.825433e-01   1.067975e-02
  1.952938e+00    7.855513e-01   1.069025e-02
  1.955149e+00    7.938647e-01   1.073643e-02
  1.957359e+00    8.070825e-01   1.081535e-02
  1.959570e+00    8.003235e-01   1.075906e-02
  1.961780e+00    7.863200e-01   1.065464e-02
  1.963990e+00    7.960116e-01   1.070995e-02
  1.966201e+00    7.890099e-01   1.065270e-02
  1.968411e+00    8.099519e-01   1.078286e-02
  1.970622e+00    8.000767e-01   1.070677e-02
  1.972832e+00    7.867754e-01   1.060743e-02
  1.975043e+00    7.834921e-01   1.057522e-02
  1.977253e+00    7.789795e-01   1.053484e-02
  1.979464e+00    7.889850e-01   1.059217e-02
  1.981674e+00    8.035370e-01   1.067904e-02
  1.983885e+00    7.903953e-01   1.058127e-02
  1.986095e+00    7.943446e-01   1.059788e-02
  1.988305e+00    7.820994e-01   1.050597e-02
  1.990516e+00    7.737394e-01   1.043980e-02
  1.992726e+00    7.568370e-01   1.031558e-02
  1.994937e+00    7.663109e-01   1.036989e-02
  1.997147e+00    7.653353e-01   1.035362e-02
  1.999358e+00    7.570194e-01   1.028749e-02
  2.001568e+00    7.501985e-01   1.023038e-02
  2.003779e+00    7.495975e-01   1.021454e-02
  2.005989e+00    7.637007e-01   1.029823e-02
  2.008200e+00    7.720041e-01   1.034251e-02
  2.010410e+00    7.802144e-01   1.038555e-02
  2.012621e+00    7.795617e-01   1.036940e-02
  2.014831e+00    7.876588e-01   1.041150e-02
  2.017041e+00    7.685677e-01   1.027416e-02
  2.019252e+00    7.557243e-01   1.017806e-02
  2.021462e+00    7.684066e-01   1.025357e-02
  2.023673e+00    7.744335e-01   1.028426e-02
  2.025883e+00    7.678935e-01   1.023118e-02
  2.028094e+00    7.857335e-01   1.033957e-02
  2.030304e+00    7.659439e-01   1.019899e-02
  2.032515e+00    7.510877e-01   1.009033e-02
  2.034725e+00    7.644520e-01   1.017024e-02
  2.036936e+00    7.496898e-01   1.006227e-02
  2.039146e+00    7.496352e-01   1.005239e-02
  2.041356e+00    7.450399e-01   1.001195e-02
  2.043567e+00    7.454154e-01   1.000523e-02
  2.045777e+00    7.503358e-01   1.002897e-02
  2.047988e+00    7.581297e-01   1.007155e-02
  2.050198e+00    7.647209e-01   1.010673e-02
  2.052409e+00    7.700579e-01   1.013421e-02
  2.054619e+00    7.445958e-01   9.957911e-03
  2.056830e+00    7.581598e-01   1.004098e-02
  2.059040e+00    7.591607e-01   1.004007e-02
  2.061251e+00    7.426710e-01   9.923213e-03
  2.063461e+00    7.529057e-01   9.983741e-03
  2.065671e+00    7.473199e-01   9.937922e-03
  2.067882e+00    7.482831e-01   9.935324e-03
  2.070092e+00    7.391139e-01   9.865139e-03
  2.072303e+00    7.311743e-01   9.802948e-03
  2.074513e+00    7.280334e-01   9.772654e-03
  2.076724e+00    7.402630e-01   9.844964e-03
  2.078934e+00    7.365531e-01   9.811305e-03
  2.081145e+00    7.127236e-01   9.642391e-03
  2.083355e+00    7.320604e-01   9.763192e-03
  2.085566e+00    7.467864e-01   9.851961e-03
  2.087776e+00    7.576006e-01   9.913418e-03
  2.089986e+00    7.399934e-01   9.788775e-03
  2.092197e+00    7.292036e-01   9.708218e-03
  2.094407e+00    7.299755e-01   9.704171e-03
  2.096618e+00    7.280556e-01   9.682540e-03
  2.098828e+00    7.167978e-01   9.598215e-03
  2.101039e+00    7.200305e-01   9.610902e-03
  2.103249e+00    7.260088e-01   9.642098e-03
  2.105460e+00    7.175770e-01   9.577002e-03
  2.107670e+00    7.162210e-01   9.559285e-03
  2.109881e+00    7.173551e-01   9.557757e-03
  2.112091e+00    7.147457e-01   9.531435e-03
  2.114301e+00    7.125483e-01   9.508065e-03
  2.116512e+00    6.988212e-01   9.407396e-03
  2.118722e+00    6.971478e-01   9.387435e-03
  2.120933e+00    7.180660e-01   9.518398e-03
  2.123143e+00    7.136092e-01   9.479924e-03
  2.125354e+00    7.307081e-01   9.584238e-03
  2.127564e+00    7.103305e-01   9.440955e-03
  2.129775e+00    7.139760e-01   9.456441e-03
  2.131985e+00    6.994355e-01   9.350677e-03
  2.134196e+00    7.045655e-01   9.376371e-03
  2.136406e+00    7.020078e-01   9.350665e-03
  2.138617e+00    7.136344e-01   9.419298e-03
  2.140827e+00    7.027827e-01   9.363393e-03
  2.143037e+00    7.093685e-01   9.452714e-03
  2.145248e+00    7.109534e-01   9.485370e-03
  2.147458e+00    6.879673e-01   9.345713e-03
  2.149669e+00    6.936842e-01   9.396248e-03
  2.151879e+00    6.844229e-01   9.342404e-03
  2.154090e+00    7.013898e-01   9.464822e-03
  2.156300e+00    6.841617e-01   9.354383e-03
  2.158511e+00    6.981260e-01   9.454660e-03
  2.160721e+00    6.974484e-01   9.454888e-03
  2.162932e+00    6.790512e-01   9.333052e-03
  2.165142e+00    6.842819e-01   9.371905e-03
  2.167352e+00    6.876841e-01   9.398091e-03
  2.169563e+00    6.700298e-01   9.278573e-03
  2.171773e+00    6.724070e-01   9.297431e-03
  2.173984e+00    6.978299e-01   9.472959e-03
  2.176194e+00    6.939098e-01   9.447554e-03
  2.178405e+00    6.846513e-01   9.384983e-03
  2.180615e+00    6.892170e-01   9.416914e-03
  2.182826e+00    6.647548e-01   9.248962e-03
  2.185036e+00    6.685823e-01   9.275591e-03
  2.187247e+00    6.655756e-01   9.254658e-03
  2.189457e+00    6.787239e-01   9.345221e-03
  2.191667e+00    6.662583e-01   9.258836e-03
  2.193878e+00    6.743746e-01   9.314494e-03
  2.196088e+00    6.921612e-01   9.435832e-03
  2.198299e+00    6.767651e-01   9.329242e-03
  2.200509e+00    6.728439e-01   9.301111e-03
  2.202720e+00    6.783810e-01   9.338151e-03
  2.204930e+00    6.748296e-01   9.312452e-03
  2.207141e+00    6.632116e-01   9.230843e-03
  2.209351e+00    6.752986e-01   9.312688e-03
  2.211562e+00    6.804510e-01   9.346528e-03
  2.213772e+00    6.697333e-01   9.217451e-03
  2.215982e+00    6.826519e-01   9.261476e-03
  2.218193e+00    6.785266e-01   9.203787e-03
  2.220403e+00    6.697379e-01   9.119456e-03
  2.222614e+00    6.777674e-01   9.152981e-03
  2.224824e+00    6.599007e-01   9.012328e-03
  2.227035e+00    6.728696e-01   9.083008e-03
  2.229245e+00    6.834337e-01   9.136920e-03
  2.231456e+00    6.783190e-01   9.086972e-03
  2.233666e+00    7.014840e-01   9.225394e-03
  2.235877e+00    7.451242e-01   9.492958e-03
  2.238087e+00    7.539873e-01   9.535013e-03
  2.240298e+00    6.959922e-01   9.146930e-03
  2.242508e+00    6.726914e-01   8.977308e-03
  2.244718e+00    6.867008e-01   9.054296e-03
  2.246929e+00    6.853319e-01   9.030659e-03
  2.249139e+00    6.796411e-01   8.980603e-03
  2.251350e+00    6.674470e-01   8.887962e-03
  2.253560e+00    6.613164e-01   8.835521e-03
  2.255771e+00    6.545895e-01   8.779163e-03
  2.257981e+00    6.515522e-01   8.747701e-03
  2.260192e+00    6.501892e-01   8.727558e-03
  2.262402e+00    6.463093e-01   8.690774e-03
  2.264613e+00    6.561483e-01   8.745898e-03
  2.266823e+00    6.459959e-01   8.667717e-03
  2.269033e+00    6.570517e-01   8.731224e-03
  2.271244e+00    6.585675e-01   8.730948e-03
  2.273454e+00    6.600674e-01   8.730624e-03
  2.275665e+00    6.638288e-01   8.745172e-03
  2.277875e+00    6.327702e-01   8.528415e-03
  2.280086e+00    6.567839e-01   8.678693e-03
  2.282296e+00    6.561954e-01   8.665460e-03
  2.284507e+00    6.431229e-01   8.568683e-03
  2.286717e+00    6.502338e-01   8.606505e-03
  2.288928e+00    6.641643e-01   8.688287e-03
  2.291138e+00    6.841389e-01   8.808361e-03
  2.293348e+00    6.667470e-01   8.686072e-03
  2.295559e+00    6.543702e-01   8.595760e-03
  2.297769e+00    6.300442e-01   8.425411e-03
  2.299980e+00    6.448905e-01   8.514802e-03
  2.302190e+00    6.584056e-01   8.594409e-03
  2.304401e+00    6.433295e-01   8.486207e-03
  2.306611e+00    6.394365e-01   8.451361e-03
  2.308822e+00    6.481901e-01   8.500647e-03
  2.311032e+00    6.488041e-01   8.498239e-03
  2.313243e+00    6.391734e-01   8.428704e-03
  2.315453e+00    6.386020e-01   8.417431e-03
  2.317663e+00    6.485190e-01   8.473382e-03
  2.319874e+00    6.536266e-01   8.497928e-03
  2.322084e+00    6.434625e-01   8.422644e-03
  2.324295e+00    6.526793e-01   8.474482e-03
  2.326505e+00    6.335109e-01   8.340131e-03
  2.328716e+00    6.568028e-01   8.483430e-03
  2.330926e+00    6.372353e-01   8.347355e-03
  2.333137e+00    6.314424e-01   8.301018e-03
  2.335347e+00    6.307470e-01   8.287638e-03
  2.337558e+00    6.311695e-01   8.282260e-03
  2.339768e+00    6.358343e-01   8.304253e-03
  2.341979e+00    6.305687e-01   8.261484e-03
  2.344189e+00    6.343842e-01   8.278074e-03
  2.346399e+00    6.393670e-01   8.301998e-03
  2.348610e+00    6.273080e-01   8.214948e-03
  2.350820e+00    6.125013e-01   8.109366e-03
  2.353031e+00    6.165913e-01   8.128227e-03
  2.355241e+00    6.232937e-01   8.164292e-03
  2.357452e+00    6.205682e-01   8.138095e-03
  2.359662e+00    6.227069e-01   8.143923e-03
  2.361873e+00    6.217794e-01   8.129700e-03
  2.364083e+00    6.242844e-01   8.138088e-03
  2.366294e+00    6.175337e-01   8.085934e-03
  2.368504e+00    6.237106e-01   8.118209e-03
  2.370714e+00    6.333725e-01   8.172733e-03
  2.372925e+00    6.367064e-01   8.186117e-03
  2.375135e+00    6.246256e-01   8.099996e-03
  2.377346e+00    6.156929e-01   8.034001e-03
  2.379556e+00    6.231569e-01   8.074631e-03
  2.381767e+00    6.118278e-01   7.993105e-03
  2.383977e+00    6.209304e-01   8.044403e-03
  2.386188e+00    6.115845e-01   7.975776e-03
  2.388398e+00    6.085095e-01   7.947809e-03
  2.390609e+00    6.013086e-01   7.893004e-03
  2.392819e+00    6.299378e-01   8.070858e-03
  2.395029e+00    6.271126e-01   8.045023e-03
  2.397240e+00    6.143003e-01   7.954546e-03
  2.399450e+00    5.877455e-01   7.773081e-03
  2.401661e+00    5.942641e-01   7.808484e-03
  2.403871e+00    6.070970e-01   7.884620e-03
  2.406082e+00    5.968085e-01   7.810173e-03
  2.408292e+00    5.956976e-01   7.795190e-03
  2.410503e+00    5.979135e-01   7.802268e-03
  2.412713e+00    5.692967e-01   7.605701e-03
  2.414924e+00    5.946288e-01   7.765650e-03
  2.417134e+00    5.978847e-01   7.779317e-03
  2.419344e+00    5.794276e-01   7.651024e-03
  2.421555e+00    6.003019e-01   7.780116e-03
  2.423765e+00    6.116588e-01   7.845890e-03
  2.425976e+00    6.086365e-01   7.818638e-03
  2.428186e+00    5.936855e-01   7.714819e-03
  2.430397e+00    5.778235e-01   7.603703e-03
  2.432607e+00    5.884179e-01   7.665847e-03
  2.434818e+00    5.916193e-01   7.679160e-03
  2.437028e+00    5.855992e-01   7.632898e-03
  2.439239e+00    5.871471e-01   7.635362e-03
  2.441449e+00    5.777464e-01   7.566877e-03
  2.443659e+00    5.832738e-01   7.595696e-03
  2.445870e+00    5.704946e-01   7.524078e-03
  2.448080e+00    5.651562e-01   7.523038e-03
  2.450291e+00    5.855232e-01   7.674141e-03
  2.452501e+00    5.653287e-01   7.551693e-03
  2.454712e+00    5.705307e-01   7.594764e-03
  2.456922e+00    5.551969e-01   7.498548e-03
  2.459133e+00    5.430128e-01   7.421114e-03
  2.461343e+00    5.543936e-01   7.502785e-03
  2.463554e+00    5.445576e-01   7.439339e-03
  2.465764e+00    5.468830e-01   7.458303e-03
  2.467975e+00    5.426519e-01   7.431638e-03
  2.470185e+00    5.389426e-01   7.408410e-03
  2.472395e+00    5.396263e-01   7.414313e-03
  2.474606e+00    5.377679e-01   7.403077e-03
  2.476816e+00    5.339783e-01   7.377667e-03
  2.479027e+00    5.480762e-01   7.475259e-03
  2.481237e+00    5.445198e-01   7.451263e-03
  2.483448e+00    5.419189e-01   7.433738e-03
  2.485658e+00    5.357409e-01   7.391106e-03
  2.487869e+00    5.336918e-01   7.376993e-03
  2.490079e+00    5.224521e-01   7.298396e-03
  2.492290e+00    5.381427e-01   7.406723e-03
  2.494500e+00    5.277684e-01   7.334291e-03
  2.496710e+00    5.102724e-01   7.211008e-03
  2.498921e+00    5.169097e-01   7.256767e-03
  2.501131e+00    5.289192e-01   7.339638e-03
  2.503342e+00    5.278344e-01   7.330860e-03
  2.505552e+00    5.214428e-01   7.285206e-03
  2.507763e+00    5.203372e-01   7.276101e-03
  2.509973e+00    5.131348e-01   7.224176e-03
  2.512184e+00    5.140277e-01   7.228862e-03
  2.514394e+00    5.144905e-01   7.222869e-03
  2.516605e+00    5.273341e-01   7.265371e-03
  2.518815e+00    5.186197e-01   7.176969e-03
  2.521025e+00    5.118436e-01   7.109229e-03
  2.523236e+00    5.243188e-01   7.177396e-03
  2.525446e+00    5.089200e-01   7.055843e-03
  2.527657e+00    5.096051e-01   7.046215e-03
  2.529867e+00    5.250630e-01   7.138086e-03
  2.532078e+00    5.240232e-01   7.116020e-03
  2.534288e+00    5.210893e-01   7.082216e-03
  2.536499e+00    5.229639e-01   7.083033e-03
  2.538709e+00    5.205288e-01   7.055556e-03
  2.540920e+00    5.237386e-01   7.066646e-03
  2.543130e+00    5.029048e-01   6.914524e-03
  2.545340e+00    5.114458e-01   6.963026e-03
  2.547551e+00    5.036125e-01   6.899762e-03
  2.549761e+00    5.054470e-01   6.902872e-03
  2.551972e+00    5.085565e-01   6.914844e-03
  2.554182e+00    5.007081e-01   6.852297e-03
  2.556393e+00    5.093463e-01   6.902138e-03
  2.558603e+00    5.116847e-01   6.908978e-03
  2.560814e+00    5.277467e-01   7.007806e-03
  2.563024e+00    5.221151e-01   6.961714e-03
  2.565235e+00    5.236487e-01   6.962392e-03
  2.567445e+00    5.148954e-01   6.894433e-03
  2.569656e+00    5.206794e-01   6.923271e-03
  2.571866e+00    5.058647e-01   6.814842e-03
  2.574076e+00    5.097795e-01   6.831923e-03
  2.576287e+00    5.119141e-01   6.837944e-03
  2.578497e+00    5.134885e-01   6.840620e-03
  2.580708e+00    5.165169e-01   6.852669e-03
  2.582918e+00    5.124317e-01   6.817768e-03
  2.585129e+00    5.138195e-01   6.819248e-03
  2.587339e+00    5.060874e-01   6.760136e-03
  2.589550e+00    5.082488e-01   6.767024e-03
  2.591760e+00    5.066202e-01   6.748482e-03
  2.593971e+00    5.145848e-01   6.793782e-03
  2.596181e+00    5.010751e-01   6.697847e-03
  2.598391e+00    5.036616e-01   6.709952e-03
  2.600602e+00    5.067873e-01   6.724853e-03
  2.602812e+00    4.948404e-01   6.637682e-03
  2.605023e+00    5.085510e-01   6.721832e-03
  2.607233e+00    5.133259e-01   6.746154e-03
  2.609444e+00    5.027047e-01   6.668789e-03
  2.611654e+00    5.084068e-01   6.699180e-03
  2.613865e+00    5.065869e-01   6.680146e-03
  2.616075e+00    4.871868e-01   6.543969e-03
  2.618286e+00    5.094728e-01   6.684947e-03
  2.620496e+00    5.082961e-01   6.670514e-03
  2.622706e+00    4.968295e-01   6.589143e-03
  2.624917e+00    5.110347e-01   6.676788e-03
  2.627127e+00    4.982853e-01   6.587284e-03
  2.629338e+00    4.852533e-01   6.494688e-03
  2.631548e+00    4.951226e-01   6.554281e-03
  2.633759e+00    4.970350e-01   6.559827e-03
  2.635969e+00    4.988293e-01   6.564985e-03
  2.638180e+00    5.029042e-01   6.584751e-03
  2.640390e+00    4.986604e-01   6.550334e-03
  2.642601e+00    4.877467e-01   6.471662e-03
  2.644811e+00    4.983037e-01   6.534274e-03
  2.647021e+00    4.968747e-01   6.518352e-03
  2.649232e+00    4.985016e-01   6.522302e-03
  2.651442e+00    4.959694e-01   6.499242e-03
  2.653653e+00    4.979308e-01   6.505284e-03
  2.655863e+00    5.027813e-01   6.530179e-03
  2.658074e+00    4.863849e-01   6.416307e-03
  2.660284e+00    4.807821e-01   6.372972e-03
  2.662495e+00    4.848981e-01   6.393523e-03
  2.664705e+00    4.955968e-01   6.457116e-03
  2.666916e+00    4.998460e-01   6.478252e-03
  2.669126e+00    4.979391e-01   6.459415e-03
  2.671337e+00    4.882383e-01   6.389667e-03
  2.673547e+00    4.812391e-01   6.337387e-03
  2.675757e+00    4.971721e-01   6.434985e-03
  2.677968e+00    4.981263e-01   6.434618e-03
  2.680178e+00    4.827057e-01   6.327902e-03
  2.682389e+00    4.926723e-01   6.386501e-03
  2.684599e+00    4.901233e-01   6.363793e-03
  2.686810e+00    5.007121e-01   6.425500e-03
  2.689020e+00    4.880243e-01   6.337318e-03
  2.691231e+00    4.777313e-01   6.263911e-03
  2.693441e+00    4.755141e-01   6.243303e-03
  2.695652e+00    4.920881e-01   6.344656e-03
  2.697862e+00    4.851906e-01   6.293723e-03
  2.700072e+00    4.832251e-01   6.274922e-03
  2.702283e+00    4.961821e-01   6.352209e-03
  2.704493e+00    4.958120e-01   6.343544e-03
  2.706704e+00    4.762691e-01   6.210934e-03
  2.708914e+00    4.730205e-01   6.183843e-03
  2.711125e+00    4.772950e-01   6.205527e-03
  2.713335e+00    4.892842e-01   6.276882e-03
  2.715546e+00    4.898424e-01   6.273991e-03
  2.717756e+00    4.826314e-01   6.221782e-03
  2.719967e+00    4.801864e-01   6.199817e-03
  2.722177e+00    4.751241e-01   6.161009e-03
  2.724387e+00    4.635523e-01   6.079538e-03
  2.726598e+00    4.644715e-01   6.079633e-03
  2.728808e+00    4.805762e-01   6.178018e-03
  2.731019e+00    4.810238e-01   6.174796e-03
  2.733229e+00    4.724160e-01   6.113566e-03
  2.735440e+00    4.755592e-01   6.127663e-03
  2.737650e+00    4.624605e-01   6.036790e-03
  2.739861e+00    4.840401e-01   6.169961e-03
  2.742071e+00    4.692882e-01   6.069556e-03
  2.744282e+00    4.682570e-01   6.056725e-03
  2.746492e+00    4.692030e-01   6.056885e-03
  2.748702e+00    4.898450e-01   6.182731e-03
  2.750913e+00    4.769905e-01   6.095319e-03
  2.753123e+00    4.752903e-01   6.078352e-03
  2.755334e+00    4.777198e-01   6.087822e-03
  2.757544e+00    4.833433e-01   6.117782e-03
  2.759755e+00    4.836006e-01   6.113517e-03
  2.761965e+00    4.734748e-01   6.043249e-03
  2.764176e+00    4.765930e-01   6.057112e-03
  2.766386e+00    4.886335e-01   6.127325e-03
  2.768597e+00    4.896626e-01   6.127867e-03
  2.770807e+00    4.716527e-01   6.008264e-03
  2.773017e+00    4.725426e-01   6.008017e-03
  2.775228e+00    4.759138e-01   6.023626e-03
  2.777438e+00    4.835819e-01   6.066138e-03
  2.779649e+00    4.733695e-01   5.995868e-03
  2.781859e+00    4.697235e-01   5.967034e-03
  2.784070e+00    4.685824e-01   5.953945e-03
  2.786280e+00    4.847940e-01   6.050279e-03
  2.788491e+00    4.807809e-01   6.019315e-03
  2.790701e+00    4.725077e-01   5.961683e-03
  2.792912e+00    4.787965e-01   5.995234e-03
  2.795122e+00    4.837994e-01   6.020714e-03
  2.797333e+00    4.662617e-01   5.905065e-03
  2.799543e+00    4.652363e-01   5.892762e-03
  2.801753e+00    4.702062e-01   5.918337e-03
  2.803964e+00    4.738837e-01   5.935783e-03
  2.806174e+00    4.782956e-01   5.957165e-03
  2.808385e+00    4.692620e-01   5.893928e-03
  2.810595e+00    4.690172e-01   5.885523e-03
  2.812806e+00    4.741715e-01   5.911179e-03
  2.815016e+00    4.761446e-01   5.918717e-03
  2.817227e+00    4.844109e-01   5.996067e-03
  2.819437e+00    4.903346e-01   6.043912e-03
  2.821648e+00    4.767018e-01   5.961595e-03
  2.823858e+00    4.677283e-01   5.910523e-03
  2.826068e+00    4.641115e-01   5.892559e-03
  2.828279e+00    4.634407e-01   5.892285e-03
  2.830489e+00    4.708079e-01   5.942286e-03
  2.832700e+00    4.693892e-01   5.935862e-03
  2.834910e+00    4.763751e-01   5.981942e-03
  2.837121e+00    4.816012e-01   6.016416e-03
  2.839331e+00    4.757059e-01   5.980697e-03
  2.841542e+00    4.727898e-01   5.963359e-03
  2.843752e+00    4.757797e-01   5.982977e-03
  2.845963e+00    4.623455e-01   5.898305e-03
  2.848173e+00    4.597093e-01   5.881537e-03
  2.850383e+00    4.789898e-01   6.003908e-03
  2.852594e+00    4.679320e-01   5.934136e-03
  2.854804e+00    4.597439e-01   5.881472e-03
  2.857015e+00    4.673959e-01   5.929789e-03
  2.859225e+00    4.720025e-01   5.958679e-03
  2.861436e+00    4.676675e-01   5.930610e-03
  2.863646e+00    4.511128e-01   5.824738e-03
  2.865857e+00    4.531786e-01   5.838378e-03
  2.868067e+00    4.593756e-01   5.878382e-03
  2.870278e+00    4.699631e-01   5.945391e-03
  2.872488e+00    4.585563e-01   5.871654e-03
  2.874698e+00    4.517137e-01   5.826629e-03
  2.876909e+00    4.568834e-01   5.858566e-03
  2.879119e+00    4.586408e-01   5.868201e-03
  2.881330e+00    4.662133e-01   5.914977e-03
  2.883540e+00    4.537039e-01   5.833715e-03
  2.885751e+00    4.424518e-01   5.759303e-03
  2.887961e+00    4.524791e-01   5.822333e-03
  2.890172e+00    4.611511e-01   5.876255e-03
  2.892382e+00    4.557368e-01   5.839874e-03
  2.894593e+00    4.623262e-01   5.880105e-03
  2.896803e+00    4.619278e-01   5.875612e-03
  2.899014e+00    4.531066e-01   5.817332e-03
  2.901224e+00    4.569699e-01   5.840078e-03
  2.903434e+00    4.608672e-01   5.863012e-03
  2.905645e+00    4.547059e-01   5.821466e-03
  2.907855e+00    4.565108e-01   5.830904e-03
  2.910066e+00    4.568080e-01   5.830737e-03
  2.912276e+00    4.619847e-01   5.861550e-03
  2.914487e+00    4.615916e-01   5.856604e-03
  2.916697e+00    4.495136e-01   5.777260e-03
  2.918908e+00    4.486815e-01   5.769928e-03
  2.921118e+00    4.641416e-01   5.865783e-03
  2.923329e+00    4.396143e-01   5.706425e-03
  2.925539e+00    4.539690e-01   5.796567e-03
  2.927749e+00    4.674385e-01   5.879588e-03
  2.929960e+00    4.623869e-01   5.844957e-03
  2.932170e+00    4.537138e-01   5.787554e-03
  2.934381e+00    4.517178e-01   5.772377e-03
  2.936591e+00    4.512760e-01   5.766986e-03
  2.938802e+00    4.551445e-01   5.788960e-03
  2.941012e+00    4.517128e-01   5.764746e-03
  2.943223e+00    4.535674e-01   5.773902e-03
  2.945433e+00    4.453780e-01   5.717834e-03
  2.947644e+00    4.515111e-01   5.752953e-03
  2.949854e+00    4.599909e-01   5.802427e-03
  2.952064e+00    4.767942e-01   5.903142e-03
  2.954275e+00    4.508893e-01   5.736168e-03
  2.956485e+00    4.454377e-01   5.697216e-03
  2.958696e+00    4.542392e-01   5.748861e-03
  2.960906e+00    4.503146e-01   5.719821e-03
  2.963117e+00    4.499107e-01   5.712789e-03
  2.965327e+00    4.461869e-01   5.685239e-03
  2.967538e+00    4.496139e-01   5.704113e-03
  2.969748e+00    4.527939e-01   5.721454e-03
  2.971959e+00    4.484982e-01   5.691131e-03
  2.974169e+00    4.536987e-01   5.721442e-03
  2.976379e+00    4.618655e-01   5.769773e-03
  2.978590e+00    4.542412e-01   5.718810e-03
  2.980800e+00    4.607262e-01   5.756680e-03
  2.983011e+00    4.529472e-01   5.705071e-03
  2.985221e+00    4.526959e-01   5.700344e-03
  2.987432e+00    4.501514e-01   5.681206e-03
  2.989642e+00    4.593257e-01   5.736160e-03
  2.991853e+00    4.422985e-01   5.625602e-03
  2.994063e+00    4.472924e-01   5.654384e-03
  2.996274e+00    4.528900e-01   5.686483e-03
  2.998484e+00    4.402654e-01   5.604007e-03
  3.000694e+00    4.446799e-01   5.628594e-03
  3.002905e+00    4.500669e-01   5.659666e-03
  3.005115e+00    4.647502e-01   5.748225e-03
  3.007326e+00    4.636122e-01   5.738010e-03
  3.009536e+00    4.398106e-01   5.585575e-03
  3.011747e+00    4.388950e-01   5.576876e-03
  3.013957e+00    4.398620e-01   5.579880e-03
  3.016168e+00    4.405443e-01   5.580990e-03
  3.018378e+00    4.482849e-01   5.626791e-03
  3.020589e+00    4.476716e-01   5.619738e-03
  3.022799e+00    4.612783e-01   5.701315e-03
  3.025010e+00    4.418809e-01   5.576966e-03
  3.027220e+00    4.557362e-01   5.660574e-03
  3.029430e+00    4.545739e-01   5.650123e-03
  3.031641e+00    4.539222e-01   5.642911e-03
  3.033851e+00    4.526536e-01   5.631513e-03
  3.036062e+00    4.533850e-01   5.633257e-03
  3.038272e+00    4.473692e-01   5.592229e-03
  3.040483e+00    4.516195e-01   5.615478e-03
  3.042693e+00    4.441434e-01   5.565590e-03
  3.044904e+00    4.376633e-01   5.520869e-03
  3.047114e+00    4.294139e-01   5.463904e-03
  3.049325e+00    4.434299e-01   5.547972e-03
  3.051535e+00    4.523889e-01   5.599362e-03
  3.053745e+00    4.595930e-01   5.638965e-03
  3.055956e+00    4.585882e-01   5.628201e-03
  3.058166e+00    4.434119e-01   5.530041e-03
  3.060377e+00    4.510007e-01   5.572394e-03
  3.062587e+00    4.489140e-01   5.554867e-03
  3.064798e+00    4.402865e-01   5.497024e-03
  3.067008e+00    4.398097e-01   5.489363e-03
  3.069219e+00    4.486708e-01   5.539878e-03
  3.071429e+00    4.435500e-01   5.504693e-03
  3.073640e+00    4.511231e-01   5.548143e-03
  3.075850e+00    4.474402e-01   5.521868e-03
  3.078060e+00    4.630548e-01   5.614246e-03
  3.080271e+00    4.485489e-01   5.522144e-03
  3.082481e+00    4.394188e-01   5.462237e-03
  3.084692e+00    4.377541e-01   5.448538e-03
  3.086902e+00    4.423395e-01   5.473785e-03
  3.089113e+00    4.404450e-01   5.458508e-03
  3.091323e+00    4.434634e-01   5.473816e-03
  3.093534e+00    4.460127e-01   5.486161e-03
  3.095744e+00    4.510661e-01   5.513769e-03
  3.097955e+00    4.441745e-01   5.467961e-03
  3.100165e+00    4.361991e-01   5.415351e-03
  3.102375e+00    4.312457e-01   5.381154e-03
  3.104586e+00    4.500268e-01   5.493563e-03
  3.106796e+00    4.521867e-01   5.503199e-03
  3.109007e+00    4.543629e-01   5.513182e-03
  3.111217e+00    4.456144e-01   5.456171e-03
  3.113428e+00    4.487702e-01   5.471992e-03
  3.115638e+00    4.543215e-01   5.502503e-03
  3.117849e+00    4.420546e-01   5.423991e-03
  3.120059e+00    4.497668e-01   5.467597e-03
  3.122270e+00    4.547217e-01   5.494364e-03
  3.124480e+00    4.422335e-01   5.414722e-03
  3.126691e+00    4.364636e-01   5.375731e-03
  3.128901e+00    4.450726e-01   5.425372e-03
  3.131111e+00    4.447424e-01   5.419519e-03
  3.133322e+00    4.558190e-01   5.483096e-03
  3.135532e+00    4.403169e-01   5.385671e-03
  3.137743e+00    4.506648e-01   5.445091e-03
  3.139953e+00    4.378484e-01   5.363433e-03
  3.142164e+00    4.469562e-01   5.430999e-03
  3.144374e+00    4.403962e-01   5.419348e-03
  3.146585e+00    4.254752e-01   5.341028e-03
  3.148795e+00    4.457711e-01   5.477744e-03
  3.151006e+00    4.327287e-01   5.405486e-03
  3.153216e+00    4.313447e-01   5.403887e-03
  3.155426e+00    4.287353e-01   5.393722e-03
  3.157637e+00    4.325372e-01   5.423065e-03
  3.159847e+00    4.337147e-01   5.435274e-03
  3.162058e+00    4.371034e-01   5.460890e-03
  3.164268e+00    4.252713e-01   5.390462e-03
  3.166479e+00    4.283496e-01   5.413532e-03
  3.168689e+00    4.337129e-01   5.450676e-03
  3.170900e+00    4.362730e-01   5.469878e-03
  3.173110e+00    4.561288e-01   5.595918e-03
  3.175321e+00    4.398531e-01   5.497676e-03
  3.177531e+00    4.277804e-01   5.424405e-03
  3.179741e+00    4.315841e-01   5.450503e-03
  3.181952e+00    4.368858e-01   5.486018e-03
  3.184162e+00    4.299065e-01   5.444181e-03
  3.186373e+00    4.259850e-01   5.420877e-03
  3.188583e+00    4.228189e-01   5.402434e-03
  3.190794e+00    4.330971e-01   5.469458e-03
  3.193004e+00    4.409825e-01   5.520293e-03
  3.195215e+00    4.402331e-01   5.517091e-03
  3.197425e+00    4.300375e-01   5.454059e-03
  3.199636e+00    4.375769e-01   5.500846e-03
  3.201846e+00    4.326137e-01   5.469007e-03
  3.204056e+00    4.204009e-01   5.392102e-03
  3.206267e+00    4.317715e-01   5.465395e-03
  3.208477e+00    4.135062e-01   5.349447e-03
  3.210688e+00    4.234479e-01   5.414191e-03
  3.212898e+00    4.179571e-01   5.379552e-03
  3.215109e+00    4.267117e-01   5.436335e-03
  3.217319e+00    4.266192e-01   5.436402e-03
  3.219530e+00    4.248530e-01   5.425501e-03
  3.221740e+00    4.286012e-01   5.449960e-03
  3.223951e+00    4.312484e-01   5.467224e-03
  3.226161e+00    4.228897e-01   5.414177e-03
  3.228372e+00    4.378628e-01   5.509710e-03
  3.230582e+00    4.244532e-01   5.424845e-03
  3.232792e+00    4.220001e-01   5.409366e-03
  3.235003e+00    4.184958e-01   5.387072e-03
  3.237213e+00    4.128960e-01   5.351054e-03
  3.239424e+00    4.156303e-01   5.368704e-03
  3.241634e+00    4.342574e-01   5.487821e-03
  3.243845e+00    4.435658e-01   5.546408e-03
  3.246055e+00    4.261137e-01   5.435938e-03
  3.248266e+00    4.235838e-01   5.419967e-03
  3.250476e+00    4.326467e-01   5.477331e-03
  3.252687e+00    4.376749e-01   5.508997e-03
  3.254897e+00    4.326230e-01   5.476980e-03
  3.257107e+00    4.178367e-01   5.382281e-03
  3.259318e+00    4.162230e-01   5.371628e-03
  3.261528e+00    4.228915e-01   5.414346e-03
  3.263739e+00    4.354767e-01   5.493759e-03
  3.265949e+00    4.304214e-01   5.461654e-03
  3.268160e+00    4.286222e-01   5.449832e-03
  3.270370e+00    4.168722e-01   5.374092e-03
  3.272581e+00    4.113043e-01   5.337805e-03
  3.274791e+00    4.250371e-01   5.425655e-03
  3.277002e+00    4.179107e-01   5.379416e-03
  3.279212e+00    4.211470e-01   5.399860e-03
  3.281422e+00    4.138048e-01   5.351968e-03
  3.283633e+00    4.212397e-01   5.399174e-03
  3.285843e+00    4.252971e-01   5.424779e-03
  3.288054e+00    4.222172e-01   5.404179e-03
  3.290264e+00    4.184308e-01   5.379544e-03
  3.292475e+00    4.333598e-01   5.473858e-03
  3.294685e+00    4.169540e-01   5.368622e-03
  3.296896e+00    4.184771e-01   5.377633e-03
  3.299106e+00    4.387988e-01   5.506117e-03
  3.301317e+00    4.169714e-01   5.366405e-03
  3.303527e+00    4.196549e-01   5.383187e-03
  3.305737e+00    4.184223e-01   5.374212e-03
  3.307948e+00    4.264234e-01   5.424697e-03
  3.310158e+00    4.254243e-01   5.417485e-03
  3.312369e+00    4.100961e-01   5.318126e-03
  3.314579e+00    4.171295e-01   5.362613e-03
  3.316790e+00    4.245332e-01   5.409298e-03
  3.319000e+00    4.255104e-01   5.414334e-03
  3.321211e+00    4.311269e-01   5.449332e-03
  3.323421e+00    4.217963e-01   5.388837e-03
  3.325632e+00    4.280895e-01   5.428006e-03
  3.327842e+00    4.263951e-01   5.416322e-03
  3.330052e+00    4.212000e-01   5.382173e-03
  3.332263e+00    4.083494e-01   5.298411e-03
  3.334473e+00    4.267119e-01   5.415326e-03
  3.336684e+00    4.271486e-01   5.416811e-03
  3.338894e+00    4.212110e-01   5.378204e-03
  3.341105e+00    4.314169e-01   5.441735e-03
  3.343315e+00    4.194023e-01   5.364301e-03
  3.345526e+00    4.152500e-01   5.336785e-03
  3.347736e+00    4.097780e-01   5.300108e-03
  3.349947e+00    4.168277e-01   5.344575e-03
  3.352157e+00    4.158331e-01   5.337031e-03
  3.354368e+00    4.101275e-01   5.299008e-03
  3.356578e+00    4.236907e-01   5.384871e-03
  3.358788e+00    4.124545e-01   5.311710e-03
  3.360999e+00    4.064421e-01   5.271587e-03
  3.363209e+00    4.183269e-01   5.347119e-03
  3.365420e+00    4.022244e-01   5.241681e-03
  3.367630e+00    4.315060e-01   5.428114e-03
  3.369841e+00    4.213586e-01   5.362466e-03
  3.372051e+00    4.320855e-01   5.428294e-03
  3.374262e+00    4.079714e-01   5.272225e-03
  3.376472e+00    4.173522e-01   5.330042e-03
  3.378683e+00    4.210734e-01   5.351238e-03
  3.380893e+00    4.131370e-01   5.298253e-03
  3.383103e+00    4.070512e-01   5.256379e-03
  3.385314e+00    4.202522e-01   5.338704e-03
  3.387524e+00    3.995236e-01   5.202708e-03
  3.389735e+00    4.129059e-01   5.286476e-03
  3.391945e+00    4.114269e-01   5.273334e-03
  3.394156e+00    4.121608e-01   5.273832e-03
  3.396366e+00    4.112525e-01   5.264605e-03
  3.398577e+00    3.983358e-01   5.178276e-03
  3.400787e+00    4.174192e-01   5.312847e-03
  3.402998e+00    4.118048e-01   5.315185e-03
  3.405208e+00    3.945271e-01   5.222853e-03
  3.407418e+00    4.025480e-01   5.291460e-03
  3.409629e+00    4.059437e-01   5.327823e-03
  3.411839e+00    3.927642e-01   5.252274e-03
  3.414050e+00    4.106925e-01   5.382000e-03
  3.416260e+00    3.932770e-01   5.276287e-03
  3.418471e+00    3.928133e-01   5.282567e-03
  3.420681e+00    4.016820e-01   5.350464e-03
  3.422892e+00    3.781778e-01   5.199455e-03
  3.425102e+00    3.908138e-01   5.293406e-03
  3.427313e+00    3.706492e-01   5.162069e-03
  3.429523e+00    3.862633e-01   5.276721e-03
  3.431733e+00    3.899785e-01   5.308750e-03
  3.433944e+00    3.827659e-01   5.265910e-03
  3.436154e+00    3.890386e-01   5.315148e-03
  3.438365e+00    3.787641e-01   5.250419e-03
  3.440575e+00    3.701975e-01   5.196537e-03
  3.442786e+00    3.836720e-01   5.295909e-03
  3.444996e+00    3.696217e-01   5.203497e-03
  3.447207e+00    3.609981e-01   5.147595e-03
  3.449417e+00    3.724512e-01   5.269508e-03
  3.451628e+00    3.695736e-01   5.278555e-03
  3.453838e+00    3.858313e-01   5.415122e-03
  3.456049e+00    3.508243e-01   5.186978e-03
  3.458259e+00    3.680947e-01   5.335073e-03
  3.460469e+00    3.662618e-01   5.341587e-03
  3.462680e+00    3.808171e-01   5.466110e-03
  3.464890e+00    3.690349e-01   5.398768e-03
  3.467101e+00    3.643253e-01   5.381580e-03
  3.469311e+00    3.706782e-01   5.444856e-03
  3.471522e+00    3.871654e-01   5.581295e-03
  3.473732e+00    3.861210e-01   5.589867e-03
  3.475943e+00    3.973674e-01   5.686674e-03
  3.478153e+00    4.018920e-01   5.734703e-03
  3.480364e+00    4.102695e-01   5.809610e-03
  3.482574e+00    4.166513e-01   5.870225e-03
  3.484784e+00    4.224574e-01   5.926058e-03
  3.486995e+00    4.229606e-01   5.944801e-03
  3.489205e+00    4.288129e-01   6.000575e-03
  3.491416e+00    4.352646e-01   6.060583e-03
  3.493626e+00    4.441377e-01   6.136806e-03
  3.495837e+00    4.563978e-01   6.235938e-03
  3.498047e+00    4.623058e-01   6.290955e-03
  3.500258e+00    4.758524e-01   6.397407e-03
  3.502468e+00    4.622895e-01   6.320176e-03
  3.504679e+00    4.549278e-01   6.283983e-03
  3.506889e+00    4.747354e-01   6.433940e-03
  3.509099e+00    4.744909e-01   6.446666e-03
  3.511310e+00    4.706974e-01   6.435258e-03
  3.513520e+00    4.855230e-01   6.550269e-03
  3.515731e+00    4.745761e-01   6.490219e-03
  3.517941e+00    4.793369e-01   6.536888e-03
  3.520152e+00    4.878199e-01   6.608689e-03
  3.522362e+00    4.965529e-01   6.682016e-03
  3.524573e+00    5.175460e-01   6.836224e-03
  3.526783e+00    5.130779e-01   6.820058e-03
  3.528994e+00    5.158753e-01   6.850838e-03
  3.531204e+00    5.137941e-01   6.849396e-03
  3.533414e+00    5.123012e-01   6.851329e-03
  3.535625e+00    5.332813e-01   7.002655e-03
  3.537835e+00    5.559567e-01   7.162364e-03
  3.540046e+00    5.411098e-01   7.075079e-03
  3.542256e+00    5.287418e-01   7.001227e-03
  3.544467e+00    5.366581e-01   7.061052e-03
  3.546677e+00    5.429282e-01   7.109846e-03
  3.548888e+00    5.325718e-01   7.049136e-03
  3.551098e+00    5.419451e-01   7.118272e-03
  3.553309e+00    5.402871e-01   7.115545e-03
  3.555519e+00    5.369473e-01   7.104831e-03
  3.557729e+00    5.329292e-01   7.089886e-03
  3.559940e+00    5.333392e-01   7.104126e-03
  3.562150e+00    5.229627e-01   7.046255e-03
  3.564361e+00    5.232245e-01   7.061184e-03
  3.566571e+00    5.465862e-01   7.231036e-03
  3.568782e+00    5.411876e-01   7.209464e-03
  3.570992e+00    5.324044e-01   7.164392e-03
  3.573203e+00    5.373137e-01   7.211538e-03
  3.575413e+00    5.416995e-01   7.254749e-03
  3.577624e+00    5.220948e-01   7.136220e-03
  3.579834e+00    5.182159e-01   7.123265e-03
  3.582045e+00    5.398343e-01   7.284451e-03
  3.584255e+00    5.219570e-01   7.176666e-03
  3.586465e+00    5.190627e-01   7.170470e-03
  3.588676e+00    5.299958e-01   7.259707e-03
  3.590886e+00    5.280467e-01   7.259911e-03
  3.593097e+00    5.327630e-01   7.306769e-03
  3.595307e+00    5.485570e-01   7.428315e-03
  3.597518e+00    5.327592e-01   7.334817e-03
  3.599728e+00    5.460709e-01   7.440103e-03
  3.601939e+00    5.320203e-01   7.357752e-03
  3.604149e+00    5.439194e-01   7.454117e-03
  3.606360e+00    5.421345e-01   7.456115e-03
  3.608570e+00    5.287747e-01   7.377726e-03
  3.610780e+00    5.351499e-01   7.433166e-03
  3.612991e+00    5.453215e-01   7.513542e-03
  3.615201e+00    5.289906e-01   7.409950e-03
  3.617412e+00    5.361243e-01   7.467022e-03
  3.619622e+00    5.314362e-01   7.440239e-03
  3.621833e+00    5.421610e-01   7.521698e-03
  3.624043e+00    5.213400e-01   7.385251e-03
  3.626254e+00    5.192471e-01   7.379991e-03
  3.628464e+00    5.152583e-01   7.362339e-03
  3.630675e+00    5.268372e-01   7.458626e-03
  3.632885e+00    5.322439e-01   7.511230e-03
  3.635095e+00    5.442525e-01   7.610032e-03
  3.637306e+00    5.377694e-01   7.579016e-03
  3.639516e+00    5.282235e-01   7.525906e-03
  3.641727e+00    5.291880e-01   7.547271e-03
  3.643937e+00    5.292869e-01   7.562465e-03
  3.646148e+00    5.570183e-01   7.772978e-03
  3.648358e+00    5.352407e-01   7.634454e-03
  3.650569e+00    5.492650e-01   7.748725e-03
  3.652779e+00    5.337071e-01   7.653025e-03
  3.654990e+00    5.230385e-01   7.590874e-03
  3.657200e+00    5.283437e-01   7.644117e-03
  3.659410e+00    5.531873e-01   7.837028e-03
  3.661621e+00    5.366117e-01   7.733935e-03
  3.663831e+00    5.067579e-01   7.530454e-03
  3.666042e+00    5.389760e-01   7.781395e-03
  3.668252e+00    5.203475e-01   7.660846e-03
  3.670463e+00    5.171232e-01   7.652093e-03
  3.672673e+00    5.332683e-01   7.786063e-03
  3.674884e+00    5.271994e-01   7.757035e-03
  3.677094e+00    5.190166e-01   7.711882e-03
  3.679305e+00    5.304750e-01   7.812149e-03
  3.681515e+00    5.175639e-01   7.731917e-03
  3.683726e+00    5.083318e-01   7.678122e-03
  3.685936e+00    5.119444e-01   7.720823e-03
  3.688146e+00    5.162839e-01   7.769038e-03
  3.690357e+00    5.160164e-01   7.782837e-03
  3.692567e+00    5.244427e-01   7.862149e-03
  3.694778e+00    5.400830e-01   7.994832e-03
  3.696988e+00    5.304100e-01   7.938943e-03
  3.699199e+00    5.180082e-01   7.861696e-03
  3.701409e+00    5.357631e-01   8.011869e-03
  3.703620e+00    5.118846e-01   7.847379e-03
  3.705830e+00    5.098069e-01   7.847633e-03
  3.708041e+00    5.051287e-01   7.827769e-03
  3.710251e+00    5.256715e-01   8.002154e-03
  3.712461e+00    5.038493e-01   7.850726e-03
  3.714672e+00    5.031410e-01   7.861605e-03
  3.716882e+00    5.182222e-01   7.995254e-03
  3.719093e+00    5.134344e-01   7.975259e-03
  3.721303e+00    5.249857e-01   8.081502e-03
  3.723514e+00    5.256178e-01   8.103763e-03
  3.725724e+00    5.289267e-01   8.146536e-03
  3.727935e+00    5.085921e-01   8.005736e-03
  3.730145e+00    5.284687e-01   8.178143e-03
  3.732356e+00    5.238661e-01   8.160179e-03
  3.734566e+00    5.028851e-01   8.012387e-03
  3.736776e+00    5.128642e-01   8.109252e-03
  3.738987e+00    5.013251e-01   8.034986e-03
  3.741197e+00    5.075749e-01   8.102817e-03
  3.743408e+00    5.423595e-01   8.394456e-03
  3.745618e+00    5.028821e-01   8.101284e-03
  3.747829e+00    5.092328e-01   8.170344e-03
  3.750039e+00    5.079879e-01   8.178649e-03
  3.752250e+00    4.890619e-01   8.042954e-03
  3.754460e+00    4.802139e-01   7.987794e-03
  3.756671e+00    5.024311e-01   8.189199e-03
  3.758881e+00    5.029419e-01   8.211875e-03
  3.761091e+00    4.995404e-01   8.203045e-03
  3.763302e+00    5.087762e-01   8.297611e-03
  3.765512e+00    5.039139e-01   8.277042e-03
  3.767723e+00    5.165457e-01   8.399661e-03
  3.769933e+00    4.967139e-01   8.256028e-03
  3.772144e+00    4.975339e-01   8.282250e-03
  3.774354e+00    4.937025e-01   8.269858e-03
  3.776565e+00    5.024500e-01   8.362653e-03
  3.778775e+00    4.943093e-01   8.314344e-03
  3.780986e+00    5.016860e-01   8.396425e-03
  3.783196e+00    4.815219e-01   8.245759e-03
  3.785407e+00    4.915982e-01   8.351791e-03
  3.787617e+00    4.880394e-01   8.341933e-03
  3.789827e+00    5.109505e-01   8.556178e-03
  3.792038e+00    5.247150e-01   8.691972e-03
  3.794248e+00    5.234548e-01   8.703183e-03
  3.796459e+00    5.092089e-01   8.605455e-03
  3.798669e+00    5.145938e-01   8.672488e-03
  3.800880e+00    5.048985e-01   8.611951e-03
  3.803090e+00    5.326565e-01   8.868035e-03
  3.805301e+00    5.155207e-01   8.746697e-03
  3.807511e+00    5.007510e-01   8.642434e-03
  3.809722e+00    5.144900e-01   8.782796e-03
  3.811932e+00    5.218645e-01   8.868193e-03
  3.814142e+00    5.075729e-01   8.769026e-03
  3.816353e+00    4.950260e-01   8.682723e-03
  3.818563e+00    4.964078e-01   8.717821e-03
  3.820774e+00    5.397886e-01   9.114886e-03
  3.822984e+00    4.891990e-01   8.700478e-03
  3.825195e+00    4.888299e-01   8.720693e-03
  3.827405e+00    4.904968e-01   8.759202e-03
  3.829616e+00    4.728403e-01   8.623659e-03
  3.831826e+00    4.885966e-01   8.789985e-03
  3.834037e+00    5.006304e-01   8.922243e-03
  3.836247e+00    4.868799e-01   8.823279e-03
  3.838457e+00    4.968680e-01   8.938383e-03
  3.840668e+00    4.981527e-01   8.975152e-03
  3.842878e+00    5.071688e-01   9.081793e-03
  3.845089e+00    5.210325e-01   9.231308e-03
  3.847299e+00    5.068335e-01   9.130810e-03
  3.849510e+00    4.955761e-01   9.054614e-03
  3.851720e+00    5.226200e-01   9.320416e-03
  3.853931e+00    5.145604e-01   9.267732e-03
  3.856141e+00    4.903055e-01   9.065463e-03
  3.858352e+00    4.959457e-01   9.136828e-03
  3.860562e+00    4.807816e-01   9.015076e-03
  3.862772e+00    5.021677e-01   9.233126e-03
  3.864983e+00    5.008227e-01   9.240565e-03
  3.867193e+00    5.083107e-01   9.329482e-03
  3.869404e+00    5.056794e-01   9.325366e-03
  3.871614e+00    4.813656e-01   9.118157e-03
  3.873825e+00    4.767708e-01   9.094490e-03
  3.876035e+00    4.849031e-01   9.192124e-03
  3.878246e+00    5.073398e-01   9.428483e-03
  3.880456e+00    4.988650e-01   9.378680e-03
  3.882667e+00    4.979308e-01   9.399338e-03
  3.884877e+00    5.049075e-01   9.495155e-03
  3.887087e+00    4.792520e-01   9.280314e-03
  3.889298e+00    5.014936e-01   9.523849e-03
  3.891508e+00    5.145230e-01   9.678090e-03
  3.893719e+00    4.820212e-01   9.398148e-03
  3.895929e+00    4.949581e-01   9.554947e-03
  3.898140e+00    4.991729e-01   9.627565e-03
  3.900350e+00    5.014142e-01   9.681593e-03
  3.902561e+00    4.970696e-01   9.672252e-03
  3.904771e+00    4.910212e-01   9.645952e-03
  3.906982e+00    5.010452e-01   9.777507e-03
  3.909192e+00    5.275308e-01   1.006738e-02
  3.911403e+00    4.786594e-01   9.623457e-03
  3.913613e+00    4.520165e-01   9.384641e-03
  3.915823e+00    4.748982e-01   9.653599e-03
  3.918034e+00    4.720414e-01   9.659165e-03
  3.920244e+00    4.905588e-01   9.882553e-03
  3.922455e+00    4.740846e-01   9.750894e-03
  3.924665e+00    4.835612e-01   9.884037e-03
  3.926876e+00    4.553348e-01   9.627084e-03
  3.929086e+00    4.824346e-01   9.946566e-03
  3.931297e+00    4.627040e-01   9.775010e-03
  3.933507e+00    4.994585e-01   1.018505e-02
  3.935718e+00    4.965875e-01   1.018479e-02
  3.937928e+00    4.829658e-01   1.007350e-02
  3.940138e+00    4.746827e-01   1.001554e-02
  3.942349e+00    5.025378e-01   1.033567e-02
  3.944559e+00    4.948678e-01   1.028673e-02
  3.946770e+00    5.092543e-01   1.046598e-02
  3.948980e+00    5.112531e-01   1.051812e-02
  3.951191e+00    4.600378e-01   1.000725e-02
  3.953401e+00    4.835699e-01   1.029135e-02
  3.955612e+00    4.387797e-01   9.833219e-03
  3.957822e+00    4.936953e-01   1.046224e-02
  3.960033e+00    5.032263e-01   1.059610e-02
  3.962243e+00    4.843536e-01   1.042820e-02
  3.964453e+00    5.019901e-01   1.065006e-02
  3.966664e+00    4.972289e-01   1.063330e-02
  3.968874e+00    4.914896e-01   1.060022e-02
  3.971085e+00    4.773454e-01   1.046836e-02
  3.973295e+00    5.028613e-01   1.076632e-02
  3.975506e+00    4.864176e-01   1.061050e-02
  3.977716e+00    4.973765e-01   1.075156e-02
  3.979927e+00    4.789925e-01   1.057310e-02
  3.982137e+00    4.955487e-01   1.077666e-02
  3.984348e+00    4.694957e-01   1.051179e-02
  3.986558e+00    4.810258e-01   1.066228e-02
  3.988768e+00    5.003560e-01   1.089779e-02
  3.990979e+00    4.773408e-01   1.066681e-02
  3.993189e+00    4.776010e-01   1.069259e-02
  3.995400e+00    4.601350e-01   1.051813e-02
  3.997610e+00    4.954044e-01   1.094392e-02
  3.999821e+00    4.955963e-01   1.098406e-02
  4.002031e+00    5.053006e-01   1.113023e-02
  4.004242e+00    5.022973e-01   1.113632e-02
  4.006452e+00    4.907868e-01   1.104759e-02
  4.008663e+00    4.606522e-01   1.074210e-02
  4.010873e+00    4.607630e-01   1.078228e-02
  4.013084e+00    4.589895e-01   1.080136e-02
  4.015294e+00    5.154498e-01   1.148863e-02
  4.017504e+00    4.818990e-01   1.115039e-02
  4.019715e+00    4.722368e-01   1.107991e-02
  4.021925e+00    4.299003e-01   1.061214e-02
  4.024136e+00    4.655026e-01   1.108551e-02
  4.026346e+00    5.044895e-01   1.158551e-02
  4.028557e+00    4.872801e-01   1.143074e-02
  4.030767e+00    4.932537e-01   1.154676e-02
  4.032978e+00    4.562096e-01   1.114958e-02
  4.035188e+00    4.803457e-01   1.148669e-02
  4.037399e+00    4.771303e-01   1.149551e-02
  4.039609e+00    4.824015e-01   1.160649e-02
  4.041819e+00    4.609704e-01   1.139337e-02
  4.044030e+00    4.688631e-01   1.153964e-02
  4.046240e+00    4.847510e-01   1.178342e-02
  4.048451e+00    4.864164e-01   1.185486e-02
  4.050661e+00    5.096080e-01   1.218703e-02
  4.052872e+00    4.957465e-01   1.207344e-02
  4.055082e+00    4.861932e-01   1.201055e-02
  4.057293e+00    4.488592e-01   1.159173e-02
  4.059503e+00    4.898116e-01   1.216415e-02
  4.061714e+00    4.808232e-01   1.210846e-02
  4.063924e+00    5.218067e-01   1.267297e-02
  4.066134e+00    4.642498e-01   1.201004e-02
  4.068345e+00    5.028476e-01   1.255941e-02
  4.070555e+00    4.862119e-01   1.240955e-02
  4.072766e+00    4.847142e-01   1.245142e-02
  4.074976e+00    4.698544e-01   1.232028e-02
  4.077187e+00    4.885814e-01   1.262566e-02
  4.079397e+00    4.706067e-01   1.245469e-02
  4.081608e+00    5.029458e-01   1.294234e-02
  4.083818e+00    5.022528e-01   1.300072e-02
  4.086029e+00    4.983514e-01   1.301850e-02
  4.088239e+00    4.869480e-01   1.293794e-02
  4.090449e+00    4.766149e-01   1.286929e-02
  4.092660e+00    4.877219e-01   1.309010e-02
  4.094870e+00    4.963723e-01   1.327895e-02
  4.097081e+00    5.005796e-01   1.340838e-02
  4.099291e+00    4.810486e-01   1.319850e-02
  4.101502e+00    4.663367e-01   1.304356e-02
  4.103712e+00    4.894654e-01   1.341291e-02
  4.105923e+00    4.718953e-01   1.322102e-02
  4.108133e+00    4.611505e-01   1.311985e-02
  4.110344e+00    4.794642e-01   1.342922e-02
  4.112554e+00    4.748528e-01   1.341717e-02
  4.114764e+00    4.640002e-01   1.331623e-02
  4.116975e+00    4.700736e-01   1.345599e-02
  4.119185e+00    4.801516e-01   1.365460e-02
  4.121396e+00    4.731913e-01   1.361136e-02
  4.123606e+00    4.641126e-01   1.353538e-02
  4.125817e+00    4.711139e-01   1.369432e-02
  4.128027e+00    4.607276e-01   1.359948e-02
  4.130238e+00    4.799383e-01   1.393962e-02
  4.132448e+00    4.796170e-01   1.399539e-02
  4.134659e+00    4.753840e-01   1.399356e-02
  4.136869e+00    4.623975e-01   1.386264e-02
  4.139080e+00    4.891828e-01   1.432281e-02
  4.141290e+00    4.921488e-01   1.442968e-02
  4.143500e+00    4.943148e-01   1.452809e-02
  4.145711e+00    5.146332e-01   1.489286e-02
  4.147921e+00    4.834966e-01   1.450168e-02
  4.150132e+00    4.712288e-01   1.438492e-02
  4.152342e+00    4.441315e-01   1.403277e-02
  4.154553e+00    5.153149e-01   1.518723e-02
  4.156763e+00    5.113028e-01   1.520301e-02
  4.158974e+00    5.336507e-01   1.560967e-02
  4.161184e+00    4.745578e-01   1.479332e-02
  4.163395e+00    4.938254e-01   1.516762e-02
  4.165605e+00    4.393803e-01   1.438147e-02
  4.167815e+00    4.948094e-01   1.534121e-02
  4.170026e+00    4.301811e-01   1.437960e-02
  4.172236e+00    4.936237e-01   1.548695e-02
  4.174447e+00    4.705973e-01   1.520356e-02
  4.176657e+00    5.006641e-01   1.576747e-02
  4.178868e+00    4.857286e-01   1.561846e-02
  4.181078e+00    4.817090e-01   1.564134e-02
  4.183289e+00    4.754386e-01   1.562792e-02
  4.185499e+00    4.944139e-01   1.603100e-02
  4.187710e+00    5.042741e-01   1.628480e-02
  4.189920e+00    5.038862e-01   1.637675e-02
  4.192130e+00    4.689613e-01   1.589551e-02
  4.194341e+00    5.057452e-01   1.660813e-02
  4.196551e+00    5.253096e-01   1.703366e-02
  4.198762e+00    4.940816e-01   1.662459e-02
  4.200972e+00    4.665965e-01   1.626009e-02
  4.203183e+00    4.434217e-01   1.595553e-02
  4.205393e+00    5.239703e-01   1.745963e-02
  4.207604e+00    5.239944e-01   1.757946e-02
  4.209814e+00    5.216385e-01   1.765998e-02
  4.212025e+00    5.027518e-01   1.746038e-02
  4.214235e+00    4.574203e-01   1.677253e-02
  4.216445e+00    4.907345e-01   1.749817e-02
  4.218656e+00    5.079293e-01   1.793537e-02
  4.220866e+00    4.560010e-01   1.712026e-02
  4.223077e+00    4.693489e-01   1.750206e-02
  4.225287e+00    4.793503e-01   1.782676e-02
  4.227498e+00    4.439650e-01   1.729100e-02
  4.229708e+00    5.078322e-01   1.864272e-02
  4.231919e+00    5.449411e-01   1.947208e-02
  4.234129e+00    5.539443e-01   1.979664e-02
  4.236340e+00    5.073061e-01   1.910742e-02
  4.238550e+00    5.328339e-01   1.975497e-02
  4.240761e+00    4.915866e-01   1.914261e-02
  4.242971e+00    5.018246e-01   1.951781e-02
  4.245181e+00    5.395575e-01   2.042869e-02
  4.247392e+00    5.095854e-01   2.003860e-02
  4.249602e+00    5.328420e-01   2.069433e-02
  4.251813e+00    4.028862e-01   1.817242e-02
  4.254023e+00    3.922517e-01   1.811108e-02
  4.256234e+00    5.036826e-01   2.074254e-02
  4.258444e+00    4.839664e-01   2.054504e-02
  4.260655e+00    5.407318e-01   2.195561e-02
  4.262865e+00    4.718606e-01   2.074230e-02
  4.265076e+00    4.326255e-01   2.008685e-02
  4.267286e+00    5.048957e-01   2.195782e-02
  4.269496e+00    4.780011e-01   2.162559e-02
  4.271707e+00    4.002451e-01   2.003283e-02
  4.273917e+00    5.113604e-01   2.293594e-02
  4.276128e+00    5.051268e-01   2.309952e-02
  4.278338e+00    4.882993e-01   2.301392e-02
  4.280549e+00    4.134740e-01   2.148153e-02
  4.282759e+00    4.628364e-01   2.305359e-02
  4.284970e+00    4.684117e-01   2.353608e-02
  4.287180e+00    5.659975e-01   2.618113e-02
  4.289391e+00    4.953711e-01   2.467805e-02
  4.291601e+00    4.449746e-01   2.357563e-02
  4.293811e+00    4.609305e-01   2.418183e-02
  4.296022e+00    4.834907e-01   2.496552e-02
  4.298232e+00    5.684057e-01   2.729613e-02
  4.300443e+00    5.041218e-01   2.591855e-02
  4.302653e+00    4.141677e-01   2.369594e-02
  4.304864e+00    3.984681e-01   2.344391e-02
  4.307074e+00    4.221212e-01   2.434592e-02
  4.309285e+00    4.254767e-01   2.466484e-02
  4.311495e+00    5.769409e-01   2.898984e-02
  4.313706e+00    5.762015e-01   2.924445e-02
  4.315916e+00    4.244037e-01   2.534457e-02
  4.318126e+00    4.360032e-01   2.594314e-02
  4.320337e+00    3.758931e-01   2.433255e-02
  4.322547e+00    4.191242e-01   2.596502e-02
  4.324758e+00    4.993058e-01   2.863532e-02
  4.326968e+00    4.789791e-01   2.836306e-02
  4.329179e+00    5.107837e-01   2.961116e-02
  4.331389e+00    5.229318e-01   3.030764e-02
  4.333600e+00    4.212200e-01   2.752539e-02
  4.335810e+00    3.502474e-01   2.539812e-02
  4.338021e+00    5.426691e-01   3.201781e-02
  4.340231e+00    4.978622e-01   3.105418e-02
  4.342442e+00    4.808484e-01   3.092661e-02
  4.344652e+00    5.303818e-01   3.292239e-02
  4.346862e+00    4.301881e-01   3.006576e-02
  4.349073e+00    4.875393e-01   3.247265e-02
  4.351283e+00    4.820102e-01   3.277022e-02
  4.353494e+00    5.123959e-01   3.431049e-02
  4.355704e+00    3.035690e-01   2.683327e-02
  4.357915e+00    3.572201e-01   2.959173e-02
  4.360125e+00    3.779240e-01   3.095843e-02
  4.362336e+00    3.567303e-01   3.062540e-02
  4.364546e+00    3.949276e-01   3.280958e-02
  4.366757e+00    3.998205e-01   3.366957e-02
  4.368967e+00    4.825568e-01   3.772620e-02
  4.371177e+00    4.727154e-01   3.813488e-02
  4.373388e+00    4.909620e-01   3.973211e-02
  4.375598e+00    4.899448e-01   4.059464e-02
  4.377809e+00    5.726665e-01   4.500174e-02
  4.380019e+00    3.428540e-01   3.569661e-02
  4.382230e+00    3.004474e-01   3.434581e-02
  4.384440e+00    3.738388e-01   3.941784e-02
  4.386651e+00    3.986202e-01   4.195516e-02
  4.388861e+00    4.080434e-01   4.387290e-02
  4.391072e+00    4.798499e-01   4.925144e-02
  4.393282e+00    5.316175e-01   5.384091e-02
  4.395492e+00    5.258578e-01   5.577705e-02
  4.397703e+00    2.125440e-01   3.708075e-02
  4.399913e+00    2.228793e-01   3.989377e-02
  4.402124e+00    3.925493e-01   5.593811e-02
  4.404334e+00    6.095775e-01   7.410794e-02
  4.406545e+00    1.935771e-01   4.487472e-02
  4.408755e+00    5.909505e-01   8.501914e-02
  4.410966e+00    3.142606e-01   6.862509e-02
  4.413176e+00    2.709224e-01   7.211975e-02
  4.415387e+00   -4.153060e-01            nan
  4.417597e+00   -1.626529e+00            nan
  4.419807e+00   -3.766224e-01            nan
