# == pyFAI calibration ==
# Distance Sample to Detector: 0.216 m
# PONI: 1.166e-01, 1.308e-01 m
# Rotations: 0.000000 0.000000 0.000000 rad
# 
# == Fit2d calibration ==
# Distance Sample-beamCenter: 216.000 mm
# Center: x=1744.293, y=1555.000 pix
# Tilt: 0.000 deg  TiltPlanRot: 0.000 deg
# 
# Detector Eiger 9M	 PixelSize= 7.500e-05, 7.500e-05 m
#    Detector has a mask: True 
#    Detector has a dark current: False 
#    detector has a flat field: False 
# 
# Wavelength: 9.8e-11 m
# Mask applied: from detector
# Dark current applied: False
# Flat field applied: False
# Polarization factor: None
# Normalization factor: 1.0
# 
# Headers of the input frame:
# {
# "_array_data.header_convention": "SLS_1.0",
# "_array_data.header_contents": "# Detector: Dectris Eiger 9M, S/N E-18-0102\r\n# Pixel_size 75e-6 m x 75e-6 m\r\n# Silicon sensor, thickness 0.000450 m\r\n# Exposure_time 0.024997 s\r\n# Exposure_period 0.025000 s\r\n# Count_cutoff 62318 counts\r\n# Wavelength 0.980106 A\r\n# Detector_distance 0.215992 m\r\n# Beam_xy (1555, 1744) pixels\r\n# Start_angle 0.000000 deg.\r\n# Angle_increment 0.000000 deg.",
# "Content-Type": "application/octet-stream;",
# "conversions": "x-CBF_BYTE_OFFSET",
# "Content-Transfer-Encoding": "BINARY",
# "X-Binary-Size": "10166598",
# "X-Binary-ID": "1",
# "X-Binary-Element-Type": "signed 32-bit integer",
# "X-Binary-Element-Byte-Order": "LITTLE_ENDIAN",
# "Content-MD5": "2nXs0vhXk3WA9LVVPbJGmA==",
# "X-Binary-Number-of-Elements": "10166590",
# "X-Binary-Size-Fastest-Dimension": "3110",
# "X-Binary-Size-Second-Dimension": "3269",
# "X-Binary-Size-Padding": "4095"
# }
# --> H:/Proxima2a_2019-04-05/RAW_DATA/C5_gel17_position5/C5_mesh_1_data.cbf/C5_mesh_1_data.cbf000134.dat
#        q_A^-1              I           sigma 
  1.105228e-03    2.123711e+00   7.885599e-01
  3.315685e-03    1.622773e+00   4.190582e-01
  5.526141e-03    1.465350e+00   3.079235e-01
  7.736597e-03    1.389316e+00   2.532916e-01
  9.947054e-03    1.803894e+00   2.544380e-01
  1.215751e-02    1.490362e+00   2.091291e-01
  1.436797e-02    1.389694e+00   1.857528e-01
  1.657842e-02    1.494486e+00   1.793042e-01
  1.878888e-02    1.407398e+00   1.634451e-01
  2.099934e-02    1.233473e+00   1.447661e-01
  2.320979e-02    1.247690e+00   1.384797e-01
  2.542025e-02    1.380124e+00   1.391773e-01
  2.763070e-02    1.431777e+00   1.359653e-01
  2.984116e-02    1.466714e+00   1.324187e-01
  3.205162e-02    1.423029e+00   1.258616e-01
  3.426207e-02    1.315172e+00   1.170216e-01
  3.647253e-02    1.463276e+00   1.196335e-01
  3.868299e-02    1.485287e+00   1.170444e-01
  4.089344e-02    1.560087e+00   1.166689e-01
  4.310390e-02    1.491728e+00   1.111140e-01
  4.531436e-02    1.491752e+00   1.083713e-01
  4.752481e-02    1.346493e+00   1.005359e-01
  4.973527e-02    1.484024e+00   1.031745e-01
  5.194572e-02    1.432274e+00   9.917817e-02
  5.415618e-02    1.414360e+00   9.652031e-02
  5.636664e-02    1.351831e+00   9.249672e-02
  5.857709e-02    1.411206e+00   9.270642e-02
  6.078755e-02    1.563265e+00   9.577974e-02
  6.299801e-02    1.493343e+00   9.195520e-02
  6.520846e-02    1.430103e+00   8.844931e-02
  6.741892e-02    1.438103e+00   8.722575e-02
  6.962938e-02    1.506347e+00   8.784737e-02
  7.183983e-02    1.450158e+00   8.485544e-02
  7.405029e-02    1.431632e+00   8.304185e-02
  7.626074e-02    1.421982e+00   8.155254e-02
  7.847120e-02    1.488582e+00   8.225464e-02
  8.068166e-02    1.529826e+00   8.223549e-02
  8.289211e-02    1.441635e+00   7.875795e-02
  8.510257e-02    1.470459e+00   7.850110e-02
  8.731303e-02    1.540853e+00   7.933144e-02
  8.952348e-02    1.426719e+00   7.539053e-02
  9.173394e-02    1.501551e+00   7.640184e-02
  9.394439e-02    1.501872e+00   7.550327e-02
  9.615485e-02    1.539801e+00   7.556523e-02
  9.836531e-02    1.551352e+00   7.498900e-02
  1.005758e-01    1.591987e+00   7.512580e-02
  1.027862e-01    1.561018e+00   7.358545e-02
  1.049967e-01    1.507871e+00   7.155535e-02
  1.072071e-01    1.494846e+00   7.050648e-02
  1.094176e-01    1.477366e+00   6.938034e-02
  1.116280e-01    1.484005e+00   6.884262e-02
  1.138385e-01    1.419397e+00   6.666922e-02
  1.160490e-01    1.526740e+00   6.848170e-02
  1.182594e-01    1.587352e+00   6.917068e-02
  1.204699e-01    1.513709e+00   6.692401e-02
  1.226803e-01    1.463874e+00   6.521481e-02
  1.248908e-01    1.538762e+00   6.626700e-02
  1.271012e-01    1.544161e+00   6.580205e-02
  1.293117e-01    1.654836e+00   6.753382e-02
  1.315222e-01    1.550405e+00   6.481504e-02
  1.337326e-01    1.613700e+00   6.557479e-02
  1.359431e-01    1.673738e+00   6.682263e-02
  1.381535e-01    1.701630e+00   6.828152e-02
  1.403640e-01    1.656986e+00   6.767078e-02
  1.425744e-01    1.592625e+00   6.644951e-02
  1.447849e-01    1.614592e+00   6.692158e-02
  1.469953e-01    1.621243e+00   6.701732e-02
  1.492058e-01    1.546146e+00   6.537069e-02
  1.514163e-01    1.588088e+00   6.614142e-02
  1.536267e-01    1.610855e+00   6.648375e-02
  1.558372e-01    1.625718e+00   6.664233e-02
  1.580476e-01    1.622181e+00   6.640824e-02
  1.602581e-01    1.623502e+00   6.626655e-02
  1.624685e-01    1.658648e+00   6.679661e-02
  1.646790e-01    1.670580e+00   6.684393e-02
  1.668895e-01    1.740688e+00   6.803508e-02
  1.690999e-01    1.722741e+00   6.748018e-02
  1.713104e-01    1.802456e+00   6.880954e-02
  1.735208e-01    1.814276e+00   6.882012e-02
  1.757313e-01    1.841961e+00   6.912589e-02
  1.779417e-01    1.849909e+00   6.904895e-02
  1.801522e-01    1.812681e+00   6.813294e-02
  1.823626e-01    1.862803e+00   6.883856e-02
  1.845731e-01    1.867971e+00   6.871068e-02
  1.867836e-01    2.000182e+00   7.086075e-02
  1.889940e-01    1.998700e+00   7.060304e-02
  1.912045e-01    1.971178e+00   6.988111e-02
  1.934149e-01    1.989329e+00   6.996715e-02
  1.956254e-01    1.992265e+00   6.978785e-02
  1.978358e-01    1.898527e+00   6.789280e-02
  2.000463e-01    2.000705e+00   6.946488e-02
  2.022568e-01    1.962758e+00   6.857712e-02
  2.044672e-01    2.038615e+00   6.965034e-02
  2.066777e-01    1.979530e+00   6.840577e-02
  2.088881e-01    2.038194e+00   6.918490e-02
  2.110986e-01    1.957960e+00   6.757696e-02
  2.133090e-01    1.902107e+00   6.638959e-02
  2.155195e-01    1.978171e+00   6.747942e-02
  2.177300e-01    2.028533e+00   6.779619e-02
  2.199404e-01    1.861711e+00   6.323731e-02
  2.221509e-01    1.885671e+00   6.259787e-02
  2.243613e-01    2.006003e+00   6.374577e-02
  2.265718e-01    2.122138e+00   6.484242e-02
  2.287822e-01    2.161834e+00   6.479828e-02
  2.309927e-01    2.133137e+00   6.378043e-02
  2.332031e-01    2.180839e+00   6.393763e-02
  2.354136e-01    2.240108e+00   6.427543e-02
  2.376241e-01    2.187651e+00   6.302540e-02
  2.398345e-01    2.224694e+00   6.308638e-02
  2.420450e-01    2.171789e+00   6.188628e-02
  2.442554e-01    2.194346e+00   6.177828e-02
  2.464659e-01    2.066221e+00   5.954511e-02
  2.486763e-01    2.137461e+00   6.016481e-02
  2.508868e-01    2.171145e+00   6.025452e-02
  2.530973e-01    2.173596e+00   5.991471e-02
  2.553077e-01    2.197222e+00   5.987410e-02
  2.575182e-01    2.066440e+00   5.772130e-02
  2.597286e-01    2.093085e+00   5.775454e-02
  2.619391e-01    2.130569e+00   5.793395e-02
  2.641495e-01    2.018604e+00   5.607904e-02
  2.663600e-01    2.021625e+00   5.581234e-02
  2.685704e-01    2.066338e+00   5.612032e-02
  2.707809e-01    2.054632e+00   5.566410e-02
  2.729914e-01    2.053708e+00   5.536155e-02
  2.752018e-01    2.057887e+00   5.512941e-02
  2.774123e-01    2.063663e+00   5.492473e-02
  2.796227e-01    1.995005e+00   5.373620e-02
  2.818332e-01    1.989433e+00   5.339341e-02
  2.840436e-01    1.984325e+00   5.306632e-02
  2.862541e-01    1.983974e+00   5.280656e-02
  2.884646e-01    2.025491e+00   5.310300e-02
  2.906750e-01    1.953260e+00   5.190030e-02
  2.928855e-01    1.968820e+00   5.186518e-02
  2.950959e-01    1.937085e+00   5.120916e-02
  2.973064e-01    1.969068e+00   5.139813e-02
  2.995168e-01    1.986182e+00   5.138722e-02
  3.017273e-01    1.966785e+00   5.091022e-02
  3.039377e-01    1.935855e+00   5.028718e-02
  3.061482e-01    1.933389e+00   5.003773e-02
  3.083587e-01    1.894055e+00   4.931175e-02
  3.105691e-01    1.902273e+00   4.920752e-02
  3.127796e-01    1.931132e+00   4.937093e-02
  3.149900e-01    1.932106e+00   4.917762e-02
  3.172005e-01    1.946446e+00   4.915795e-02
  3.194109e-01    1.885902e+00   4.818764e-02
  3.216214e-01    1.892857e+00   4.807942e-02
  3.238319e-01    2.014342e+00   4.940179e-02
  3.260423e-01    1.989329e+00   4.889860e-02
  3.282528e-01    1.918907e+00   4.783410e-02
  3.304632e-01    1.820552e+00   4.641160e-02
  3.326737e-01    1.888091e+00   4.708020e-02
  3.348841e-01    1.904394e+00   4.709971e-02
  3.370946e-01    1.911982e+00   4.701587e-02
  3.393050e-01    1.926501e+00   4.701526e-02
  3.415155e-01    1.903150e+00   4.655379e-02
  3.437260e-01    1.840004e+00   4.560528e-02
  3.459364e-01    1.853335e+00   4.560088e-02
  3.481469e-01    1.825511e+00   4.509208e-02
  3.503573e-01    1.867648e+00   4.544337e-02
  3.525678e-01    1.842002e+00   4.496947e-02
  3.547782e-01    1.847682e+00   4.487596e-02
  3.569887e-01    1.813892e+00   4.430617e-02
  3.591992e-01    1.869745e+00   4.482398e-02
  3.614096e-01    1.843270e+00   4.435118e-02
  3.636201e-01    1.798960e+00   4.366089e-02
  3.658305e-01    1.808393e+00   4.362588e-02
  3.680410e-01    1.855032e+00   4.403291e-02
  3.702514e-01    1.811383e+00   4.336544e-02
  3.724619e-01    1.804265e+00   4.313278e-02
  3.746724e-01    1.791881e+00   4.284108e-02
  3.768828e-01    1.801100e+00   4.280661e-02
  3.790933e-01    1.803226e+00   4.269230e-02
  3.813037e-01    1.775745e+00   4.222713e-02
  3.835142e-01    1.771068e+00   4.203297e-02
  3.857246e-01    1.813926e+00   4.240082e-02
  3.879351e-01    1.803631e+00   4.214350e-02
  3.901455e-01    1.799361e+00   4.195957e-02
  3.923560e-01    1.825037e+00   4.212358e-02
  3.945665e-01    1.765952e+00   4.130469e-02
  3.967769e-01    1.788197e+00   4.143386e-02
  3.989874e-01    1.854770e+00   4.206631e-02
  4.011978e-01    1.777514e+00   4.105430e-02
  4.034083e-01    1.760340e+00   4.073003e-02
  4.056187e-01    1.780157e+00   4.083249e-02
  4.078292e-01    1.852929e+00   4.153265e-02
  4.100397e-01    1.868733e+00   4.158206e-02
  4.122501e-01    1.814062e+00   4.084673e-02
  4.144606e-01    1.830176e+00   4.090606e-02
  4.166710e-01    1.869122e+00   4.121610e-02
  4.188815e-01    1.832206e+00   4.068652e-02
  4.210919e-01    1.827994e+00   4.052061e-02
  4.233024e-01    1.878903e+00   4.096014e-02
  4.255128e-01    1.880741e+00   4.086173e-02
  4.277233e-01    1.821911e+00   4.010203e-02
  4.299338e-01    1.809965e+00   3.985531e-02
  4.321442e-01    1.839956e+00   4.006916e-02
  4.343547e-01    1.816260e+00   3.969776e-02
  4.365651e-01    1.799199e+00   3.939860e-02
  4.387756e-01    1.779528e+00   3.907292e-02
  4.409860e-01    1.779100e+00   3.895998e-02
  4.431965e-01    1.737547e+00   3.839585e-02
  4.454070e-01    1.764989e+00   3.859020e-02
  4.476174e-01    1.789227e+00   3.874758e-02
  4.498279e-01    1.768705e+00   3.841993e-02
  4.520383e-01    1.743386e+00   3.803926e-02
  4.542488e-01    1.769712e+00   3.822205e-02
  4.564592e-01    1.768593e+00   3.810746e-02
  4.586697e-01    1.737990e+00   3.767605e-02
  4.608801e-01    1.726824e+00   3.745424e-02
  4.630906e-01    1.714412e+00   3.722057e-02
  4.653011e-01    1.716025e+00   3.714014e-02
  4.675115e-01    1.730612e+00   3.719943e-02
  4.697220e-01    1.763913e+00   3.745731e-02
  4.719324e-01    1.770248e+00   3.742745e-02
  4.741429e-01    1.751405e+00   3.713180e-02
  4.763533e-01    1.733682e+00   3.684875e-02
  4.785638e-01    1.715747e+00   3.656293e-02
  4.807743e-01    1.743557e+00   3.676434e-02
  4.829847e-01    1.702349e+00   3.623553e-02
  4.851952e-01    1.722886e+00   3.636117e-02
  4.874056e-01    1.770017e+00   3.676224e-02
  4.896161e-01    1.733806e+00   3.629405e-02
  4.918265e-01    1.697945e+00   3.582754e-02
  4.940370e-01    1.665130e+00   3.539205e-02
  4.962475e-01    1.704797e+00   3.572268e-02
  4.984579e-01    1.700496e+00   3.558967e-02
  5.006684e-01    1.708206e+00   3.558329e-02
  5.028788e-01    1.715807e+00   3.557595e-02
  5.050893e-01    1.703461e+00   3.536152e-02
  5.072997e-01    1.719746e+00   3.544433e-02
  5.095102e-01    1.699622e+00   3.515196e-02
  5.117206e-01    1.698902e+00   3.506093e-02
  5.139311e-01    1.680897e+00   3.479212e-02
  5.161416e-01    1.680536e+00   3.470616e-02
  5.183520e-01    1.715788e+00   3.498494e-02
  5.205625e-01    1.676672e+00   3.450285e-02
  5.227729e-01    1.643199e+00   3.407703e-02
  5.249834e-01    1.680624e+00   3.438291e-02
  5.271938e-01    1.692272e+00   3.442135e-02
  5.294043e-01    1.744332e+00   3.486614e-02
  5.316148e-01    1.768665e+00   3.502810e-02
  5.338252e-01    1.727655e+00   3.454049e-02
  5.360357e-01    1.750986e+00   3.469376e-02
  5.382461e-01    1.776191e+00   3.486358e-02
  5.404566e-01    1.790137e+00   3.492054e-02
  5.426670e-01    1.788263e+00   3.482361e-02
  5.448775e-01    1.802480e+00   3.488367e-02
  5.470879e-01    1.834388e+00   3.511257e-02
  5.492984e-01    1.830126e+00   3.499380e-02
  5.515089e-01    1.763883e+00   3.427845e-02
  5.537193e-01    1.761792e+00   3.418263e-02
  5.559298e-01    1.809913e+00   3.457033e-02
  5.581402e-01    1.803616e+00   3.443473e-02
  5.603507e-01    1.797594e+00   3.430239e-02
  5.625611e-01    1.785036e+00   3.410817e-02
  5.647716e-01    1.825341e+00   3.441620e-02
  5.669821e-01    1.842868e+00   3.450650e-02
  5.691925e-01    1.765566e+00   3.370254e-02
  5.714030e-01    1.732412e+00   3.331342e-02
  5.736134e-01    1.736644e+00   3.328314e-02
  5.758239e-01    1.758863e+00   3.342390e-02
  5.780343e-01    1.726919e+00   3.304891e-02
  5.802448e-01    1.734483e+00   3.305189e-02
  5.824552e-01    1.693060e+00   3.258631e-02
  5.846657e-01    1.651178e+00   3.211368e-02
  5.868762e-01    1.574344e+00   3.129230e-02
  5.890866e-01    1.630498e+00   3.177939e-02
  5.912971e-01    1.678355e+00   3.217566e-02
  5.935075e-01    1.679844e+00   3.212340e-02
  5.957180e-01    1.722689e+00   3.246373e-02
  5.979284e-01    1.686330e+00   3.205377e-02
  6.001389e-01    1.683309e+00   3.195981e-02
  6.023494e-01    1.667895e+00   3.174857e-02
  6.045598e-01    1.628916e+00   3.131150e-02
  6.067703e-01    1.654312e+00   3.149121e-02
  6.089807e-01    1.621423e+00   3.111390e-02
  6.111912e-01    1.683789e+00   3.164332e-02
  6.134016e-01    1.693725e+00   3.167326e-02
  6.156121e-01    1.663972e+00   3.133142e-02
  6.178226e-01    1.654810e+00   3.118318e-02
  6.200330e-01    1.699103e+00   3.153541e-02
  6.222435e-01    1.701530e+00   3.149544e-02
  6.244539e-01    1.682760e+00   3.125989e-02
  6.266644e-01    1.694966e+00   3.131187e-02
  6.288748e-01    1.700496e+00   3.130186e-02
  6.310853e-01    1.718620e+00   3.140713e-02
  6.332957e-01    1.752849e+00   3.165712e-02
  6.355062e-01    1.696783e+00   3.108621e-02
  6.377167e-01    1.672864e+00   3.080710e-02
  6.399271e-01    1.695616e+00   3.095646e-02
  6.421376e-01    1.704077e+00   3.097436e-02
  6.443480e-01    1.706339e+00   3.093596e-02
  6.465585e-01    1.727762e+00   3.107057e-02
  6.487689e-01    1.720837e+00   3.094971e-02
  6.509794e-01    1.663701e+00   3.037415e-02
  6.531899e-01    1.678576e+00   3.045226e-02
  6.554003e-01    1.648865e+00   3.012481e-02
  6.576108e-01    1.652820e+00   3.010477e-02
  6.598212e-01    1.613646e+00   2.969060e-02
  6.620317e-01    1.613307e+00   2.963244e-02
  6.642421e-01    1.620322e+00   2.964186e-02
  6.664526e-01    1.598212e+00   2.938469e-02
  6.686630e-01    1.572809e+00   2.909634e-02
  6.708735e-01    1.626706e+00   2.953637e-02
  6.730840e-01    1.630185e+00   2.951406e-02
  6.752944e-01    1.619880e+00   2.936711e-02
  6.775049e-01    1.617087e+00   2.928850e-02
  6.797153e-01    1.650666e+00   2.953745e-02
  6.819258e-01    1.645242e+00   2.943570e-02
  6.841362e-01    1.626616e+00   2.921598e-02
  6.863467e-01    1.607475e+00   2.899154e-02
  6.885572e-01    1.633568e+00   2.917353e-02
  6.907676e-01    1.607683e+00   2.888962e-02
  6.929781e-01    1.615188e+00   2.890547e-02
  6.951885e-01    1.654424e+00   2.920265e-02
  6.973990e-01    1.644444e+00   2.906297e-02
  6.996094e-01    1.583859e+00   2.847239e-02
  7.018199e-01    1.618592e+00   2.873237e-02
  7.040303e-01    1.611954e+00   2.862301e-02
  7.062408e-01    1.630163e+00   2.873382e-02
  7.084513e-01    1.615220e+00   2.855207e-02
  7.106617e-01    1.613404e+00   2.848641e-02
  7.128722e-01    1.619283e+00   2.848891e-02
  7.150826e-01    1.618236e+00   2.843060e-02
  7.172931e-01    1.591580e+00   2.814688e-02
  7.195035e-01    1.579126e+00   2.798831e-02
  7.217140e-01    1.583801e+00   2.807933e-02
  7.239245e-01    1.568370e+00   2.816847e-02
  7.261349e-01    1.582568e+00   2.840458e-02
  7.283454e-01    1.580553e+00   2.845904e-02
  7.305558e-01    1.579257e+00   2.850142e-02
  7.327663e-01    1.597701e+00   2.871020e-02
  7.349767e-01    1.572414e+00   2.849845e-02
  7.371872e-01    1.569619e+00   2.846195e-02
  7.393976e-01    1.557144e+00   2.833443e-02
  7.416081e-01    1.544906e+00   2.820686e-02
  7.438186e-01    1.564643e+00   2.824258e-02
  7.460290e-01    1.606006e+00   2.831632e-02
  7.482395e-01    1.570890e+00   2.783408e-02
  7.504499e-01    1.607975e+00   2.802298e-02
  7.526604e-01    1.593122e+00   2.777604e-02
  7.548708e-01    1.577852e+00   2.755310e-02
  7.570813e-01    1.578031e+00   2.750362e-02
  7.592918e-01    1.584061e+00   2.752084e-02
  7.615022e-01    1.580397e+00   2.745514e-02
  7.637127e-01    1.583875e+00   2.745245e-02
  7.659231e-01    1.594926e+00   2.751585e-02
  7.681336e-01    1.574183e+00   2.730474e-02
  7.703440e-01    1.579917e+00   2.732313e-02
  7.725545e-01    1.592535e+00   2.740098e-02
  7.747650e-01    1.621428e+00   2.760966e-02
  7.769754e-01    1.605263e+00   2.741850e-02
  7.791859e-01    1.581600e+00   2.716206e-02
  7.813963e-01    1.571772e+00   2.702507e-02
  7.836068e-01    1.600308e+00   2.721702e-02
  7.858172e-01    1.614887e+00   2.728961e-02
  7.880277e-01    1.613273e+00   2.722408e-02
  7.902381e-01    1.647940e+00   2.746503e-02
  7.924486e-01    1.646003e+00   2.739806e-02
  7.946591e-01    1.608138e+00   2.703266e-02
  7.968695e-01    1.626527e+00   2.713814e-02
  7.990800e-01    1.641950e+00   2.721778e-02
  8.012904e-01    1.621434e+00   2.700041e-02
  8.035009e-01    1.657625e+00   2.725150e-02
  8.057113e-01    1.643258e+00   2.708623e-02
  8.079218e-01    1.638179e+00   2.699767e-02
  8.101323e-01    1.607308e+00   2.669667e-02
  8.123427e-01    1.610299e+00   2.667594e-02
  8.145532e-01    1.615715e+00   2.667504e-02
  8.167636e-01    1.661113e+00   2.700172e-02
  8.189741e-01    1.645917e+00   2.683313e-02
  8.211845e-01    1.647147e+00   2.679816e-02
  8.233950e-01    1.627451e+00   2.659414e-02
  8.256054e-01    1.658520e+00   2.680228e-02
  8.278159e-01    1.663024e+00   2.679437e-02
  8.300264e-01    1.646084e+00   2.661436e-02
  8.322368e-01    1.632057e+00   2.645767e-02
  8.344473e-01    1.678305e+00   2.678603e-02
  8.366577e-01    1.667206e+00   2.665438e-02
  8.388682e-01    1.646001e+00   2.644199e-02
  8.410786e-01    1.625666e+00   2.623626e-02
  8.432891e-01    1.636111e+00   2.627860e-02
  8.454996e-01    1.647515e+00   2.632829e-02
  8.477100e-01    1.619283e+00   2.606031e-02
  8.499205e-01    1.648381e+00   2.625211e-02
  8.521309e-01    1.659926e+00   2.630283e-02
  8.543414e-01    1.638668e+00   2.609307e-02
  8.565518e-01    1.655121e+00   2.618292e-02
  8.587623e-01    1.630896e+00   2.595014e-02
  8.609727e-01    1.638121e+00   2.596721e-02
  8.631832e-01    1.644193e+00   2.597520e-02
  8.653937e-01    1.616030e+00   2.571219e-02
  8.676041e-01    1.617144e+00   2.568226e-02
  8.698146e-01    1.599524e+00   2.550290e-02
  8.720250e-01    1.636215e+00   2.575443e-02
  8.742355e-01    1.657696e+00   2.588349e-02
  8.764459e-01    1.629451e+00   2.562289e-02
  8.786564e-01    1.615088e+00   2.547167e-02
  8.808669e-01    1.593198e+00   2.526012e-02
  8.830773e-01    1.616387e+00   2.540497e-02
  8.852878e-01    1.633461e+00   2.550051e-02
  8.874982e-01    1.618550e+00   2.534703e-02
  8.897087e-01    1.618258e+00   2.530685e-02
  8.919191e-01    1.646560e+00   2.548889e-02
  8.941296e-01    1.604663e+00   2.512520e-02
  8.963401e-01    1.577527e+00   2.487566e-02
  8.985505e-01    1.602871e+00   2.503770e-02
  9.007610e-01    1.600225e+00   2.498028e-02
  9.029714e-01    1.639635e+00   2.524971e-02
  9.051819e-01    1.643691e+00   2.524323e-02
  9.073923e-01    1.614664e+00   2.498259e-02
  9.096028e-01    1.613845e+00   2.494119e-02
  9.118132e-01    1.618133e+00   2.493787e-02
  9.140237e-01    1.582150e+00   2.462264e-02
  9.162342e-01    1.581960e+00   2.458676e-02
  9.184446e-01    1.611572e+00   2.477995e-02
  9.206551e-01    1.601643e+00   2.466787e-02
  9.228655e-01    1.605510e+00   2.466235e-02
  9.250760e-01    1.590315e+00   2.451013e-02
  9.272864e-01    1.631759e+00   2.479285e-02
  9.294969e-01    1.664034e+00   2.500039e-02
  9.317074e-01    1.622199e+00   2.464923e-02
  9.339178e-01    1.637681e+00   2.473275e-02
  9.361283e-01    1.635241e+00   2.467789e-02
  9.383387e-01    1.646585e+00   2.472964e-02
  9.405492e-01    1.661680e+00   2.480806e-02
  9.427596e-01    1.667926e+00   2.481887e-02
  9.449701e-01    1.622208e+00   2.444310e-02
  9.471805e-01    1.662216e+00   2.470761e-02
  9.493910e-01    1.681322e+00   2.481513e-02
  9.516015e-01    1.678103e+00   2.475674e-02
  9.538119e-01    1.679859e+00   2.473575e-02
  9.560224e-01    1.705136e+00   2.488605e-02
  9.582328e-01    1.767187e+00   2.530084e-02
  9.604433e-01    1.772621e+00   2.530385e-02
  9.626537e-01    1.761669e+00   2.519162e-02
  9.648642e-01    1.825371e+00   2.560792e-02
  9.670747e-01    1.844040e+00   2.570305e-02
  9.692851e-01    1.859372e+00   2.577537e-02
  9.714956e-01    1.869074e+00   2.580610e-02
  9.737060e-01    1.883022e+00   2.586818e-02
  9.759165e-01    1.862823e+00   2.569278e-02
  9.781269e-01    1.875744e+00   2.574801e-02
  9.803374e-01    1.869884e+00   2.567221e-02
  9.825478e-01    1.836884e+00   2.541110e-02
  9.847583e-01    1.851543e+00   2.547764e-02
  9.869688e-01    1.826325e+00   2.526969e-02
  9.891792e-01    1.766368e+00   2.481840e-02
  9.913897e-01    1.770031e+00   2.481059e-02
  9.936001e-01    1.736417e+00   2.454171e-02
  9.958106e-01    1.740274e+00   2.453556e-02
  9.980210e-01    1.683358e+00   2.409969e-02
  1.000231e+00    1.664124e+00   2.409287e-02
  1.002442e+00    1.660073e+00   2.419138e-02
  1.004652e+00    1.629380e+00   2.403357e-02
  1.006863e+00    1.608373e+00   2.392769e-02
  1.009073e+00    1.595251e+00   2.386634e-02
  1.011284e+00    1.581064e+00   2.379175e-02
  1.013494e+00    1.594613e+00   2.391717e-02
  1.015705e+00    1.575251e+00   2.379399e-02
  1.017915e+00    1.580621e+00   2.385094e-02
  1.020126e+00    1.539377e+00   2.355363e-02
  1.022336e+00    1.532681e+00   2.351389e-02
  1.024547e+00    1.622648e+00   2.420563e-02
  1.026757e+00    1.693849e+00   2.473979e-02
  1.028967e+00    1.650967e+00   2.443259e-02
  1.031178e+00    1.573220e+00   2.385657e-02
  1.033388e+00    1.596641e+00   2.403867e-02
  1.035599e+00    1.602836e+00   2.408874e-02
  1.037809e+00    1.719551e+00   2.495380e-02
  1.040020e+00    1.909020e+00   2.629410e-02
  1.042230e+00    1.949256e+00   2.657200e-02
  1.044441e+00    1.831109e+00   2.575391e-02
  1.046651e+00    1.810932e+00   2.561176e-02
  1.048862e+00    1.806813e+00   2.558178e-02
  1.051072e+00    1.700723e+00   2.481689e-02
  1.053282e+00    1.650230e+00   2.444469e-02
  1.055493e+00    1.627527e+00   2.427148e-02
  1.057703e+00    1.563915e+00   2.379087e-02
  1.059914e+00    1.569874e+00   2.383175e-02
  1.062124e+00    1.642106e+00   2.436958e-02
  1.064335e+00    1.753671e+00   2.518008e-02
  1.066545e+00    1.821090e+00   2.565292e-02
  1.068756e+00    1.698127e+00   2.476778e-02
  1.070966e+00    1.557719e+00   2.371499e-02
  1.073177e+00    1.520807e+00   2.342616e-02
  1.075387e+00    1.507782e+00   2.332033e-02
  1.077597e+00    1.458494e+00   2.292879e-02
  1.079808e+00    1.449129e+00   2.272298e-02
  1.082018e+00    1.433452e+00   2.241260e-02
  1.084229e+00    1.414633e+00   2.215666e-02
  1.086439e+00    1.453126e+00   2.236871e-02
  1.088650e+00    1.443528e+00   2.221935e-02
  1.090860e+00    1.441045e+00   2.213291e-02
  1.093071e+00    1.436992e+00   2.203986e-02
  1.095281e+00    1.395239e+00   2.166108e-02
  1.097492e+00    1.409723e+00   2.171899e-02
  1.099702e+00    1.407078e+00   2.164780e-02
  1.101912e+00    1.413721e+00   2.165044e-02
  1.104123e+00    1.407137e+00   2.155222e-02
  1.106333e+00    1.392668e+00   2.139733e-02
  1.108544e+00    1.422230e+00   2.157910e-02
  1.110754e+00    1.415267e+00   2.148337e-02
  1.112965e+00    1.420645e+00   2.148363e-02
  1.115175e+00    1.441196e+00   2.159698e-02
  1.117386e+00    1.416289e+00   2.137027e-02
  1.119596e+00    1.399281e+00   2.120386e-02
  1.121807e+00    1.390272e+00   2.109694e-02
  1.124017e+00    1.384878e+00   2.101962e-02
  1.126228e+00    1.420037e+00   2.124881e-02
  1.128438e+00    1.403682e+00   2.108931e-02
  1.130648e+00    1.413203e+00   2.112621e-02
  1.132859e+00    1.405140e+00   2.103139e-02
  1.135069e+00    1.391142e+00   2.089166e-02
  1.137280e+00    1.376424e+00   2.074803e-02
  1.139490e+00    1.360293e+00   2.059333e-02
  1.141701e+00    1.397912e+00   2.084287e-02
  1.143911e+00    1.374483e+00   2.063573e-02
  1.146122e+00    1.368477e+00   2.055870e-02
  1.148332e+00    1.392986e+00   2.070997e-02
  1.150543e+00    1.363888e+00   2.046184e-02
  1.152753e+00    1.355042e+00   2.036476e-02
  1.154963e+00    1.366148e+00   2.041709e-02
  1.157174e+00    1.370808e+00   2.042177e-02
  1.159384e+00    1.338405e+00   2.014947e-02
  1.161595e+00    1.355659e+00   2.024923e-02
  1.163805e+00    1.346669e+00   2.015296e-02
  1.166016e+00    1.371792e+00   2.031060e-02
  1.168226e+00    1.353150e+00   2.014332e-02
  1.170437e+00    1.333596e+00   1.996895e-02
  1.172647e+00    1.364251e+00   2.016827e-02
  1.174858e+00    1.367960e+00   2.016756e-02
  1.177068e+00    1.339908e+00   1.993168e-02
  1.179278e+00    1.381589e+00   2.021052e-02
  1.181489e+00    1.375516e+00   2.013889e-02
  1.183699e+00    1.369109e+00   2.006427e-02
  1.185910e+00    1.348147e+00   1.988239e-02
  1.188120e+00    1.339779e+00   1.979408e-02
  1.190331e+00    1.329286e+00   1.968990e-02
  1.192541e+00    1.333122e+00   1.969113e-02
  1.194752e+00    1.359459e+00   1.985757e-02
  1.196962e+00    1.365437e+00   1.987532e-02
  1.199173e+00    1.348303e+00   1.972373e-02
  1.201383e+00    1.366967e+00   1.983246e-02
  1.203593e+00    1.349489e+00   1.968043e-02
  1.205804e+00    1.360075e+00   1.973146e-02
  1.208014e+00    1.366401e+00   1.975029e-02
  1.210225e+00    1.342057e+00   1.954831e-02
  1.212435e+00    1.349688e+00   1.957901e-02
  1.214646e+00    1.349809e+00   1.955380e-02
  1.216856e+00    1.335437e+00   1.942409e-02
  1.219067e+00    1.315908e+00   1.925737e-02
  1.221277e+00    1.336694e+00   1.938396e-02
  1.223488e+00    1.345254e+00   1.942024e-02
  1.225698e+00    1.346287e+00   1.940082e-02
  1.227909e+00    1.354505e+00   1.942972e-02
  1.230119e+00    1.334923e+00   1.925711e-02
  1.232329e+00    1.317813e+00   1.910293e-02
  1.234540e+00    1.344961e+00   1.926846e-02
  1.236750e+00    1.343830e+00   1.923018e-02
  1.238961e+00    1.339480e+00   1.917214e-02
  1.241171e+00    1.337253e+00   1.913214e-02
  1.243382e+00    1.331630e+00   1.906852e-02
  1.245592e+00    1.335142e+00   1.906968e-02
  1.247803e+00    1.347399e+00   1.913338e-02
  1.250013e+00    1.369654e+00   1.926703e-02
  1.252224e+00    1.370206e+00   1.924749e-02
  1.254434e+00    1.381962e+00   1.930588e-02
  1.256644e+00    1.339330e+00   1.898263e-02
  1.258855e+00    1.361251e+00   1.911399e-02
  1.261065e+00    1.360950e+00   1.908840e-02
  1.263276e+00    1.366935e+00   1.910726e-02
  1.265486e+00    1.357534e+00   1.901848e-02
  1.267697e+00    1.355311e+00   1.897986e-02
  1.269907e+00    1.354730e+00   1.895304e-02
  1.272118e+00    1.373432e+00   1.906066e-02
  1.274328e+00    1.322045e+00   1.867819e-02
  1.276539e+00    1.331676e+00   1.872345e-02
  1.278749e+00    1.333321e+00   1.871288e-02
  1.280959e+00    1.354102e+00   1.883556e-02
  1.283170e+00    1.342200e+00   1.873025e-02
  1.285380e+00    1.352503e+00   1.877951e-02
  1.287591e+00    1.344606e+00   1.870263e-02
  1.289801e+00    1.350477e+00   1.872218e-02
  1.292012e+00    1.338335e+00   1.862082e-02
  1.294222e+00    1.328851e+00   1.853860e-02
  1.296433e+00    1.328675e+00   1.852190e-02
  1.298643e+00    1.349551e+00   1.865036e-02
  1.300854e+00    1.359502e+00   1.870253e-02
  1.303064e+00    1.377941e+00   1.880952e-02
  1.305274e+00    1.375378e+00   1.877038e-02
  1.307485e+00    1.353331e+00   1.859775e-02
  1.309695e+00    1.366266e+00   1.866405e-02
  1.311906e+00    1.348044e+00   1.851748e-02
  1.314116e+00    1.381753e+00   1.872652e-02
  1.316327e+00    1.377154e+00   1.867346e-02
  1.318537e+00    1.363079e+00   1.855576e-02
  1.320748e+00    1.394064e+00   1.874359e-02
  1.322958e+00    1.389886e+00   1.869467e-02
  1.325169e+00    1.351231e+00   1.841184e-02
  1.327379e+00    1.338390e+00   1.830241e-02
  1.329589e+00    1.357924e+00   1.841438e-02
  1.331800e+00    1.370826e+00   1.848078e-02
  1.334010e+00    1.357031e+00   1.836688e-02
  1.336221e+00    1.346662e+00   1.827483e-02
  1.338431e+00    1.336874e+00   1.818753e-02
  1.340642e+00    1.356066e+00   1.838193e-02
  1.342852e+00    1.335790e+00   1.834412e-02
  1.345063e+00    1.370581e+00   1.863134e-02
  1.347273e+00    1.348820e+00   1.851808e-02
  1.349484e+00    1.353254e+00   1.857619e-02
  1.351694e+00    1.344554e+00   1.853905e-02
  1.353905e+00    1.355731e+00   1.863396e-02
  1.356115e+00    1.364106e+00   1.870657e-02
  1.358325e+00    1.335135e+00   1.852010e-02
  1.360536e+00    1.330306e+00   1.849812e-02
  1.362746e+00    1.321845e+00   1.844865e-02
  1.364957e+00    1.330265e+00   1.851494e-02
  1.367167e+00    1.326751e+00   1.849756e-02
  1.369378e+00    1.331427e+00   1.853609e-02
  1.371588e+00    1.348326e+00   1.865852e-02
  1.373799e+00    1.355117e+00   1.870914e-02
  1.376009e+00    1.330789e+00   1.854383e-02
  1.378220e+00    1.324892e+00   1.850520e-02
  1.380430e+00    1.274130e+00   1.814992e-02
  1.382640e+00    1.279927e+00   1.819201e-02
  1.384851e+00    1.308840e+00   1.839723e-02
  1.387061e+00    1.311539e+00   1.841648e-02
  1.389272e+00    1.302226e+00   1.835118e-02
  1.391482e+00    1.302571e+00   1.835295e-02
  1.393693e+00    1.302698e+00   1.835295e-02
  1.395903e+00    1.290366e+00   1.826438e-02
  1.398114e+00    1.272418e+00   1.813555e-02
  1.400324e+00    1.279032e+00   1.818049e-02
  1.402535e+00    1.265679e+00   1.808304e-02
  1.404745e+00    1.240816e+00   1.790221e-02
  1.406955e+00    1.269504e+00   1.810526e-02
  1.409166e+00    1.286910e+00   1.822566e-02
  1.411376e+00    1.249483e+00   1.795560e-02
  1.413587e+00    1.261071e+00   1.803483e-02
  1.415797e+00    1.281819e+00   1.817907e-02
  1.418008e+00    1.250452e+00   1.791371e-02
  1.420218e+00    1.262093e+00   1.784762e-02
  1.422429e+00    1.285046e+00   1.792337e-02
  1.424639e+00    1.252395e+00   1.762998e-02
  1.426850e+00    1.247859e+00   1.754378e-02
  1.429060e+00    1.264435e+00   1.761105e-02
  1.431270e+00    1.263798e+00   1.756240e-02
  1.433481e+00    1.266558e+00   1.754067e-02
  1.435691e+00    1.272995e+00   1.754672e-02
  1.437902e+00    1.284022e+00   1.758589e-02
  1.440112e+00    1.272222e+00   1.746953e-02
  1.442323e+00    1.254719e+00   1.731609e-02
  1.444533e+00    1.258750e+00   1.731148e-02
  1.446744e+00    1.247735e+00   1.720472e-02
  1.448954e+00    1.257494e+00   1.724180e-02
  1.451165e+00    1.288011e+00   1.741981e-02
  1.453375e+00    1.284088e+00   1.736506e-02
  1.455586e+00    1.300169e+00   1.744496e-02
  1.457796e+00    1.287053e+00   1.732905e-02
  1.460006e+00    1.289639e+00   1.731898e-02
  1.462217e+00    1.281717e+00   1.723937e-02
  1.464427e+00    1.273553e+00   1.715874e-02
  1.466638e+00    1.246780e+00   1.695232e-02
  1.468848e+00    1.256657e+00   1.699412e-02
  1.471059e+00    1.259881e+00   1.699092e-02
  1.473269e+00    1.242804e+00   1.685125e-02
  1.475480e+00    1.249136e+00   1.687053e-02
  1.477690e+00    1.274090e+00   1.701432e-02
  1.479901e+00    1.270460e+00   1.696623e-02
  1.482111e+00    1.249630e+00   1.680338e-02
  1.484321e+00    1.276058e+00   1.695694e-02
  1.486532e+00    1.277255e+00   1.694247e-02
  1.488742e+00    1.266802e+00   1.685033e-02
  1.490953e+00    1.258393e+00   1.677177e-02
  1.493163e+00    1.250181e+00   1.669478e-02
  1.495374e+00    1.267264e+00   1.678693e-02
  1.497584e+00    1.269213e+00   1.677811e-02
  1.499795e+00    1.281274e+00   1.683582e-02
  1.502005e+00    1.272297e+00   1.675497e-02
  1.504216e+00    1.230997e+00   1.645996e-02
  1.506426e+00    1.253937e+00   1.659184e-02
  1.508636e+00    1.246952e+00   1.652521e-02
  1.510847e+00    1.265292e+00   1.662439e-02
  1.513057e+00    1.247977e+00   1.648526e-02
  1.515268e+00    1.244434e+00   1.643621e-02
  1.517478e+00    1.267268e+00   1.656104e-02
  1.519689e+00    1.230934e+00   1.629720e-02
  1.521899e+00    1.256452e+00   1.644208e-02
  1.524110e+00    1.266007e+00   1.648407e-02
  1.526320e+00    1.258174e+00   1.641335e-02
  1.528531e+00    1.275821e+00   1.650810e-02
  1.530741e+00    1.263697e+00   1.641024e-02
  1.532951e+00    1.240261e+00   1.623784e-02
  1.535162e+00    1.249175e+00   1.638265e-02
  1.537372e+00    1.272845e+00   1.660469e-02
  1.539583e+00    1.255080e+00   1.652274e-02
  1.541793e+00    1.235911e+00   1.640298e-02
  1.544004e+00    1.238920e+00   1.642320e-02
  1.546214e+00    1.238655e+00   1.641994e-02
  1.548425e+00    1.244519e+00   1.645903e-02
  1.550635e+00    1.268491e+00   1.662653e-02
  1.552846e+00    1.281882e+00   1.672390e-02
  1.555056e+00    1.237675e+00   1.639162e-02
  1.557266e+00    1.259260e+00   1.642283e-02
  1.559477e+00    1.242221e+00   1.625229e-02
  1.561687e+00    1.261012e+00   1.634387e-02
  1.563898e+00    1.254318e+00   1.628320e-02
  1.566108e+00    1.261477e+00   1.631354e-02
  1.568319e+00    1.260477e+00   1.629136e-02
  1.570529e+00    1.261958e+00   1.627561e-02
  1.572740e+00    1.257864e+00   1.622143e-02
  1.574950e+00    1.248059e+00   1.613173e-02
  1.577161e+00    1.255316e+00   1.615297e-02
  1.579371e+00    1.260264e+00   1.616096e-02
  1.581582e+00    1.249191e+00   1.607001e-02
  1.583792e+00    1.258016e+00   1.610855e-02
  1.586002e+00    1.234624e+00   1.594054e-02
  1.588213e+00    1.262403e+00   1.610149e-02
  1.590423e+00    1.267377e+00   1.611293e-02
  1.592634e+00    1.249308e+00   1.597598e-02
  1.594844e+00    1.271216e+00   1.609381e-02
  1.597055e+00    1.259964e+00   1.600180e-02
  1.599265e+00    1.240418e+00   1.585648e-02
  1.601476e+00    1.260215e+00   1.596203e-02
  1.603686e+00    1.253191e+00   1.589765e-02
  1.605897e+00    1.232006e+00   1.574258e-02
  1.608107e+00    1.261095e+00   1.590760e-02
  1.610317e+00    1.259145e+00   1.587583e-02
  1.612528e+00    1.250491e+00   1.580190e-02
  1.614738e+00    1.220236e+00   1.559068e-02
  1.616949e+00    1.229931e+00   1.563350e-02
  1.619159e+00    1.204679e+00   1.545359e-02
  1.621370e+00    1.211577e+00   1.547938e-02
  1.623580e+00    1.176524e+00   1.523577e-02
  1.625791e+00    1.173285e+00   1.519678e-02
  1.628001e+00    1.188984e+00   1.527996e-02
  1.630212e+00    1.184812e+00   1.523542e-02
  1.632422e+00    1.159110e+00   1.505162e-02
  1.634632e+00    1.155141e+00   1.500867e-02
  1.636843e+00    1.171455e+00   1.509681e-02
  1.639053e+00    1.150696e+00   1.494532e-02
  1.641264e+00    1.149336e+00   1.491955e-02
  1.643474e+00    1.133456e+00   1.479893e-02
  1.645685e+00    1.149367e+00   1.488586e-02
  1.647895e+00    1.135242e+00   1.477765e-02
  1.650106e+00    1.151504e+00   1.486610e-02
  1.652316e+00    1.138821e+00   1.476762e-02
  1.654527e+00    1.114894e+00   1.459517e-02
  1.656737e+00    1.120015e+00   1.461221e-02
  1.658947e+00    1.145888e+00   1.476364e-02
  1.661158e+00    1.181990e+00   1.497775e-02
  1.663368e+00    1.180668e+00   1.495294e-02
  1.665579e+00    1.150951e+00   1.474720e-02
  1.667789e+00    1.117514e+00   1.451516e-02
  1.670000e+00    1.111843e+00   1.446280e-02
  1.672210e+00    1.099070e+00   1.436367e-02
  1.674421e+00    1.092435e+00   1.430501e-02
  1.676631e+00    1.093836e+00   1.429835e-02
  1.678842e+00    1.112987e+00   1.440711e-02
  1.681052e+00    1.112392e+00   1.438775e-02
  1.683263e+00    1.088638e+00   1.421818e-02
  1.685473e+00    1.075395e+00   1.411635e-02
  1.687683e+00    1.080159e+00   1.413218e-02
  1.689894e+00    1.065703e+00   1.402164e-02
  1.692104e+00    1.059652e+00   1.396697e-02
  1.694315e+00    1.042427e+00   1.383869e-02
  1.696525e+00    1.038945e+00   1.380061e-02
  1.698736e+00    1.048591e+00   1.384982e-02
  1.700946e+00    1.032246e+00   1.372654e-02
  1.703157e+00    1.038630e+00   1.375438e-02
  1.705367e+00    1.038771e+00   1.374094e-02
  1.707578e+00    1.051154e+00   1.380799e-02
  1.709788e+00    1.024811e+00   1.361992e-02
  1.711998e+00    1.020548e+00   1.357669e-02
  1.714209e+00    1.013058e+00   1.351254e-02
  1.716419e+00    1.008586e+00   1.346858e-02
  1.718630e+00    1.017169e+00   1.351159e-02
  1.720840e+00    1.036229e+00   1.362337e-02
  1.723051e+00    1.015961e+00   1.347568e-02
  1.725261e+00    1.006627e+00   1.339905e-02
  1.727472e+00    9.919741e-01   1.328718e-02
  1.729682e+00    1.007937e+00   1.338026e-02
  1.731893e+00    9.965387e-01   1.329058e-02
  1.734103e+00    1.011922e+00   1.337895e-02
  1.736313e+00    1.010821e+00   1.335764e-02
  1.738524e+00    1.002951e+00   1.329170e-02
  1.740734e+00    9.887788e-01   1.318383e-02
  1.742945e+00    9.737870e-01   1.307021e-02
  1.745155e+00    9.673349e-01   1.301355e-02
  1.747366e+00    9.613392e-01   1.295955e-02
  1.749576e+00    9.719691e-01   1.301740e-02
  1.751787e+00    9.779300e-01   1.304397e-02
  1.753997e+00    9.393151e-01   1.277075e-02
  1.756208e+00    9.494444e-01   1.282637e-02
  1.758418e+00    9.567693e-01   1.286276e-02
  1.760628e+00    9.532941e-01   1.282613e-02
  1.762839e+00    9.440184e-01   1.275051e-02
  1.765049e+00    9.449996e-01   1.274413e-02
  1.767260e+00    9.520686e-01   1.277895e-02
  1.769470e+00    9.501445e-01   1.275309e-02
  1.771681e+00    9.339037e-01   1.263060e-02
  1.773891e+00    9.454007e-01   1.269509e-02
  1.776102e+00    9.469054e-01   1.269232e-02
  1.778312e+00    9.332902e-01   1.258810e-02
  1.780523e+00    9.194458e-01   1.248180e-02
  1.782733e+00    9.140491e-01   1.243259e-02
  1.784944e+00    9.212210e-01   1.246847e-02
  1.787154e+00    9.345267e-01   1.254567e-02
  1.789364e+00    9.271652e-01   1.248369e-02
  1.791575e+00    9.341196e-01   1.251783e-02
  1.793785e+00    9.280772e-01   1.246485e-02
  1.795996e+00    9.364411e-01   1.250825e-02
  1.798206e+00    9.841387e-01   1.280989e-02
  1.800417e+00    1.001977e+00   1.291222e-02
  1.802627e+00    9.846129e-01   1.278747e-02
  1.804838e+00    9.762151e-01   1.272029e-02
  1.807048e+00    9.569848e-01   1.258121e-02
  1.809259e+00    9.460133e-01   1.249499e-02
  1.811469e+00    9.426232e-01   1.245731e-02
  1.813679e+00    9.409660e-01   1.243105e-02
  1.815890e+00    9.470760e-01   1.245621e-02
  1.818100e+00    9.308345e-01   1.233354e-02
  1.820311e+00    9.049233e-01   1.214582e-02
  1.822521e+00    9.180349e-01   1.221839e-02
  1.824732e+00    9.124382e-01   1.216612e-02
  1.826942e+00    8.831637e-01   1.195705e-02
  1.829153e+00    8.702600e-01   1.185778e-02
  1.831363e+00    8.696908e-01   1.184196e-02
  1.833574e+00    8.663372e-01   1.180753e-02
  1.835784e+00    8.659474e-01   1.179354e-02
  1.837994e+00    8.588970e-01   1.173382e-02
  1.840205e+00    8.889882e-01   1.192635e-02
  1.842415e+00    8.634403e-01   1.174204e-02
  1.844626e+00    8.425249e-01   1.158757e-02
  1.846836e+00    8.516411e-01   1.163876e-02
  1.849047e+00    8.490828e-01   1.160978e-02
  1.851257e+00    8.565956e-01   1.165149e-02
  1.853468e+00    8.559331e-01   1.163821e-02
  1.855678e+00    8.631425e-01   1.167823e-02
  1.857889e+00    8.567914e-01   1.162671e-02
  1.860099e+00    8.424811e-01   1.152064e-02
  1.862309e+00    8.521033e-01   1.157774e-02
  1.864520e+00    8.555706e-01   1.159271e-02
  1.866730e+00    8.702769e-01   1.168244e-02
  1.868941e+00    8.674036e-01   1.165213e-02
  1.871151e+00    8.342476e-01   1.141596e-02
  1.873362e+00    8.614895e-01   1.158944e-02
  1.875572e+00    8.350255e-01   1.139921e-02
  1.877783e+00    8.189921e-01   1.127800e-02
  1.879993e+00    8.490923e-01   1.147220e-02
  1.882204e+00    8.481211e-01   1.145473e-02
  1.884414e+00    8.522819e-01   1.147167e-02
  1.886624e+00    8.512791e-01   1.145380e-02
  1.888835e+00    8.396008e-01   1.136400e-02
  1.891045e+00    8.417093e-01   1.136735e-02
  1.893256e+00    8.462383e-01   1.138678e-02
  1.895466e+00    8.319546e-01   1.127912e-02
  1.897677e+00    8.206099e-01   1.119114e-02
  1.899887e+00    8.418368e-01   1.132391e-02
  1.902098e+00    8.453535e-01   1.133662e-02
  1.904308e+00    8.451818e-01   1.132479e-02
  1.906519e+00    8.330734e-01   1.123251e-02
  1.908729e+00    8.401746e-01   1.126962e-02
  1.910940e+00    8.056934e-01   1.102496e-02
  1.913150e+00    8.173006e-01   1.109354e-02
  1.915360e+00    8.227206e-01   1.111968e-02
  1.917571e+00    8.008155e-01   1.095990e-02
  1.919781e+00    8.121918e-01   1.102685e-02
  1.921992e+00    8.137609e-01   1.102693e-02
  1.924202e+00    8.268993e-01   1.110476e-02
  1.926413e+00    8.086745e-01   1.097144e-02
  1.928623e+00    8.090552e-01   1.096354e-02
  1.930834e+00    7.851920e-01   1.079038e-02
  1.933044e+00    8.127814e-01   1.096763e-02
  1.935255e+00    8.168959e-01   1.098500e-02
  1.937465e+00    8.167682e-01   1.097368e-02
  1.939675e+00    8.031741e-01   1.087116e-02
  1.941886e+00    8.024625e-01   1.085608e-02
  1.944096e+00    7.786334e-01   1.068365e-02
  1.946307e+00    7.933047e-01   1.077354e-02
  1.948517e+00    7.934416e-01   1.076408e-02
  1.950728e+00    7.888777e-01   1.072288e-02
  1.952938e+00    8.038507e-01   1.081404e-02
  1.955149e+00    8.010964e-01   1.078524e-02
  1.957359e+00    8.028897e-01   1.078721e-02
  1.959570e+00    7.875324e-01   1.067275e-02
  1.961780e+00    7.866923e-01   1.065715e-02
  1.963990e+00    7.953771e-01   1.070570e-02
  1.966201e+00    7.800390e-01   1.059197e-02
  1.968411e+00    7.865110e-01   1.062567e-02
  1.970622e+00    7.811455e-01   1.057933e-02
  1.972832e+00    7.857901e-01   1.060077e-02
  1.975043e+00    7.911008e-01   1.062646e-02
  1.977253e+00    7.804157e-01   1.054454e-02
  1.979464e+00    7.813609e-01   1.054089e-02
  1.981674e+00    7.745865e-01   1.048490e-02
  1.983885e+00    7.771409e-01   1.049217e-02
  1.986095e+00    7.786461e-01   1.049264e-02
  1.988305e+00    7.774073e-01   1.047441e-02
  1.990516e+00    7.878653e-01   1.053465e-02
  1.992726e+00    7.711840e-01   1.041290e-02
  1.994937e+00    7.939826e-01   1.055545e-02
  1.997147e+00    7.857380e-01   1.049074e-02
  1.999358e+00    7.732124e-01   1.039692e-02
  2.001568e+00    7.769182e-01   1.041097e-02
  2.003779e+00    7.770680e-01   1.040003e-02
  2.005989e+00    7.804790e-01   1.041075e-02
  2.008200e+00    7.596629e-01   1.025952e-02
  2.010410e+00    7.667705e-01   1.029567e-02
  2.012621e+00    7.583509e-01   1.022737e-02
  2.014831e+00    7.632949e-01   1.024921e-02
  2.017041e+00    7.766056e-01   1.032775e-02
  2.019252e+00    7.552643e-01   1.017495e-02
  2.021462e+00    7.593260e-01   1.019282e-02
  2.023673e+00    7.618474e-01   1.020033e-02
  2.025883e+00    7.617025e-01   1.018987e-02
  2.028094e+00    7.653679e-01   1.020468e-02
  2.030304e+00    7.707016e-01   1.023060e-02
  2.032515e+00    7.685536e-01   1.020698e-02
  2.034725e+00    7.705405e-01   1.021066e-02
  2.036936e+00    7.554562e-01   1.010090e-02
  2.039146e+00    7.567924e-01   1.010025e-02
  2.041356e+00    7.508359e-01   1.005083e-02
  2.043567e+00    7.501417e-01   1.003689e-02
  2.045777e+00    7.527514e-01   1.004512e-02
  2.047988e+00    7.467473e-01   9.995648e-03
  2.050198e+00    7.723155e-01   1.015680e-02
  2.052409e+00    7.705137e-01   1.013720e-02
  2.054619e+00    7.615055e-01   1.007036e-02
  2.056830e+00    7.422088e-01   9.934803e-03
  2.059040e+00    7.553872e-01   1.001508e-02
  2.061251e+00    7.739726e-01   1.013017e-02
  2.063461e+00    7.568648e-01   1.000997e-02
  2.065671e+00    7.548832e-01   9.988082e-03
  2.067882e+00    7.575633e-01   9.996748e-03
  2.070092e+00    7.425730e-01   9.888186e-03
  2.072303e+00    7.788511e-01   1.011749e-02
  2.074513e+00    7.797659e-01   1.011392e-02
  2.076724e+00    7.576454e-01   9.959895e-03
  2.078934e+00    7.520836e-01   9.914190e-03
  2.081145e+00    7.527097e-01   9.909197e-03
  2.083355e+00    7.347885e-01   9.781368e-03
  2.085566e+00    7.694701e-01   1.000047e-02
  2.087776e+00    7.295646e-01   9.728272e-03
  2.089986e+00    7.734182e-01   1.000736e-02
  2.092197e+00    7.726375e-01   9.993187e-03
  2.094407e+00    7.510328e-01   9.843143e-03
  2.096618e+00    7.424006e-01   9.777482e-03
  2.098828e+00    7.257861e-01   9.658186e-03
  2.101039e+00    7.316102e-01   9.687892e-03
  2.103249e+00    7.179028e-01   9.588117e-03
  2.105460e+00    7.371889e-01   9.706987e-03
  2.107670e+00    7.287692e-01   9.642666e-03
  2.109881e+00    7.270935e-01   9.622416e-03
  2.112091e+00    7.248023e-01   9.598242e-03
  2.114301e+00    7.420127e-01   9.702656e-03
  2.116512e+00    7.315947e-01   9.625463e-03
  2.118722e+00    7.246901e-01   9.571080e-03
  2.120933e+00    7.111362e-01   9.472372e-03
  2.123143e+00    6.946679e-01   9.353280e-03
  2.125354e+00    6.853635e-01   9.282091e-03
  2.127564e+00    7.111266e-01   9.446227e-03
  2.129775e+00    7.043394e-01   9.392412e-03
  2.131985e+00    6.947225e-01   9.319115e-03
  2.134196e+00    7.164192e-01   9.454914e-03
  2.136406e+00    7.130376e-01   9.423838e-03
  2.138617e+00    7.010860e-01   9.336119e-03
  2.140827e+00    7.046148e-01   9.375596e-03
  2.143037e+00    6.939465e-01   9.349399e-03
  2.145248e+00    7.080122e-01   9.465714e-03
  2.147458e+00    6.950692e-01   9.393836e-03
  2.149669e+00    6.850923e-01   9.337869e-03
  2.151879e+00    6.867459e-01   9.358257e-03
  2.154090e+00    6.943083e-01   9.416906e-03
  2.156300e+00    7.101115e-01   9.530129e-03
  2.158511e+00    7.110021e-01   9.541454e-03
  2.160721e+00    7.038992e-01   9.498517e-03
  2.162932e+00    7.052951e-01   9.511683e-03
  2.165142e+00    7.041197e-01   9.506788e-03
  2.167352e+00    7.118544e-01   9.561811e-03
  2.169563e+00    7.065569e-01   9.528137e-03
  2.171773e+00    6.980268e-01   9.472899e-03
  2.173984e+00    7.126643e-01   9.573129e-03
  2.176194e+00    7.107387e-01   9.561423e-03
  2.178405e+00    6.907669e-01   9.426821e-03
  2.180615e+00    6.766692e-01   9.330795e-03
  2.182826e+00    6.943593e-01   9.452649e-03
  2.185036e+00    6.935875e-01   9.447464e-03
  2.187247e+00    6.864067e-01   9.398360e-03
  2.189457e+00    6.874596e-01   9.405174e-03
  2.191667e+00    6.829605e-01   9.374166e-03
  2.193878e+00    6.788762e-01   9.345541e-03
  2.196088e+00    6.865163e-01   9.397283e-03
  2.198299e+00    6.702179e-01   9.284001e-03
  2.200509e+00    6.738271e-01   9.307904e-03
  2.202720e+00    6.797166e-01   9.347336e-03
  2.204930e+00    6.903073e-01   9.418624e-03
  2.207141e+00    6.938866e-01   9.441908e-03
  2.209351e+00    6.782132e-01   9.332773e-03
  2.211562e+00    6.682377e-01   9.262276e-03
  2.213772e+00    6.796514e-01   9.285446e-03
  2.215982e+00    6.785697e-01   9.233746e-03
  2.218193e+00    6.838731e-01   9.239956e-03
  2.220403e+00    6.854802e-01   9.226032e-03
  2.222614e+00    6.730757e-01   9.121238e-03
  2.224824e+00    6.636069e-01   9.037599e-03
  2.227035e+00    6.798368e-01   9.129915e-03
  2.229245e+00    6.637729e-01   9.004551e-03
  2.231456e+00    6.724102e-01   9.047303e-03
  2.233666e+00    6.745868e-01   9.046805e-03
  2.235877e+00    6.657277e-01   8.972990e-03
  2.238087e+00    6.682286e-01   8.976376e-03
  2.240298e+00    6.597442e-01   8.905523e-03
  2.242508e+00    6.686014e-01   8.949979e-03
  2.244718e+00    6.735072e-01   8.966891e-03
  2.246929e+00    6.819128e-01   9.008106e-03
  2.249139e+00    6.583082e-01   8.838535e-03
  2.251350e+00    6.483790e-01   8.760078e-03
  2.253560e+00    6.619257e-01   8.839582e-03
  2.255771e+00    6.599962e-01   8.815349e-03
  2.257981e+00    6.589759e-01   8.797391e-03
  2.260192e+00    6.510074e-01   8.733056e-03
  2.262402e+00    6.497969e-01   8.714178e-03
  2.264613e+00    6.704909e-01   8.840968e-03
  2.266823e+00    6.717366e-01   8.838708e-03
  2.269033e+00    6.754295e-01   8.852508e-03
  2.271244e+00    6.730303e-01   8.826289e-03
  2.273454e+00    6.634749e-01   8.753144e-03
  2.275665e+00    6.655923e-01   8.756762e-03
  2.277875e+00    6.713197e-01   8.784352e-03
  2.280086e+00    6.589497e-01   8.693019e-03
  2.282296e+00    6.645369e-01   8.720335e-03
  2.284507e+00    6.804612e-01   8.813911e-03
  2.286717e+00    6.680176e-01   8.723428e-03
  2.288928e+00    6.500768e-01   8.595662e-03
  2.291138e+00    6.544217e-01   8.614929e-03
  2.293348e+00    6.775045e-01   8.755844e-03
  2.295559e+00    6.634274e-01   8.655046e-03
  2.297769e+00    6.505148e-01   8.561196e-03
  2.299980e+00    6.381755e-01   8.470365e-03
  2.302190e+00    6.576115e-01   8.589218e-03
  2.304401e+00    6.550169e-01   8.562934e-03
  2.306611e+00    6.587530e-01   8.578063e-03
  2.308822e+00    6.480064e-01   8.499463e-03
  2.311032e+00    6.440780e-01   8.467213e-03
  2.313243e+00    6.498410e-01   8.498752e-03
  2.315453e+00    6.449893e-01   8.459423e-03
  2.317663e+00    6.468381e-01   8.462399e-03
  2.319874e+00    6.550627e-01   8.507265e-03
  2.322084e+00    6.304525e-01   8.337061e-03
  2.324295e+00    6.514215e-01   8.466298e-03
  2.326505e+00    6.641956e-01   8.539724e-03
  2.328716e+00    6.549343e-01   8.471364e-03
  2.330926e+00    6.417528e-01   8.376881e-03
  2.333137e+00    6.508940e-01   8.427909e-03
  2.335347e+00    6.409838e-01   8.354615e-03
  2.337558e+00    6.524952e-01   8.421016e-03
  2.339768e+00    6.372606e-01   8.313573e-03
  2.341979e+00    6.280901e-01   8.245233e-03
  2.344189e+00    6.335201e-01   8.272428e-03
  2.346399e+00    6.368547e-01   8.285669e-03
  2.348610e+00    6.412363e-01   8.305632e-03
  2.350820e+00    6.453601e-01   8.324052e-03
  2.353031e+00    6.390943e-01   8.275220e-03
  2.355241e+00    6.412838e-01   8.281284e-03
  2.357452e+00    6.402427e-01   8.266086e-03
  2.359662e+00    6.390234e-01   8.249932e-03
  2.361873e+00    6.405821e-01   8.251714e-03
  2.364083e+00    6.283150e-01   8.164312e-03
  2.366294e+00    6.264041e-01   8.143800e-03
  2.368504e+00    6.308289e-01   8.164412e-03
  2.370714e+00    6.210315e-01   8.092725e-03
  2.372925e+00    6.250506e-01   8.110832e-03
  2.375135e+00    6.254673e-01   8.105456e-03
  2.377346e+00    6.153292e-01   8.031630e-03
  2.379556e+00    6.005059e-01   7.926523e-03
  2.381767e+00    6.121656e-01   7.995301e-03
  2.383977e+00    6.217946e-01   8.049996e-03
  2.386188e+00    6.240781e-01   8.056834e-03
  2.388398e+00    6.138273e-01   7.982451e-03
  2.390609e+00    6.192473e-01   8.009884e-03
  2.392819e+00    6.214023e-01   8.016004e-03
  2.395029e+00    6.129596e-01   7.953721e-03
  2.397240e+00    6.144013e-01   7.955191e-03
  2.399450e+00    6.124498e-01   7.934755e-03
  2.401661e+00    6.087157e-01   7.902867e-03
  2.403871e+00    6.142831e-01   7.931143e-03
  2.406082e+00    6.168754e-01   7.940381e-03
  2.408292e+00    6.220176e-01   7.965547e-03
  2.410503e+00    6.087331e-01   7.872535e-03
  2.412713e+00    6.057666e-01   7.845544e-03
  2.414924e+00    6.062423e-01   7.841117e-03
  2.417134e+00    6.315980e-01   7.995621e-03
  2.419344e+00    6.266227e-01   7.956521e-03
  2.421555e+00    6.071947e-01   7.824678e-03
  2.423765e+00    6.091520e-01   7.829791e-03
  2.425976e+00    6.040925e-01   7.789411e-03
  2.428186e+00    5.876024e-01   7.675178e-03
  2.430397e+00    5.820013e-01   7.631139e-03
  2.432607e+00    5.826159e-01   7.627961e-03
  2.434818e+00    5.965882e-01   7.711339e-03
  2.437028e+00    5.856361e-01   7.633136e-03
  2.439239e+00    5.928900e-01   7.672607e-03
  2.441449e+00    5.841969e-01   7.609011e-03
  2.443659e+00    5.705438e-01   7.512344e-03
  2.445870e+00    5.858862e-01   7.624891e-03
  2.448080e+00    5.725080e-01   7.571827e-03
  2.450291e+00    5.750631e-01   7.605287e-03
  2.452501e+00    5.614982e-01   7.526061e-03
  2.454712e+00    5.743778e-01   7.620322e-03
  2.456922e+00    5.664789e-01   7.574345e-03
  2.459133e+00    5.682275e-01   7.591470e-03
  2.461343e+00    5.535394e-01   7.497003e-03
  2.463554e+00    5.577047e-01   7.528602e-03
  2.465764e+00    5.569199e-01   7.526426e-03
  2.467975e+00    5.490667e-01   7.475442e-03
  2.470185e+00    5.612504e-01   7.560179e-03
  2.472395e+00    5.350136e-01   7.382566e-03
  2.474606e+00    5.429837e-01   7.438884e-03
  2.476816e+00    5.513305e-01   7.496576e-03
  2.479027e+00    5.511526e-01   7.496215e-03
  2.481237e+00    5.547106e-01   7.520669e-03
  2.483448e+00    5.396389e-01   7.418088e-03
  2.485658e+00    5.400939e-01   7.421065e-03
  2.487869e+00    5.389854e-01   7.413490e-03
  2.490079e+00    5.441340e-01   7.448277e-03
  2.492290e+00    5.459861e-01   7.460533e-03
  2.494500e+00    5.403271e-01   7.421020e-03
  2.496710e+00    5.347010e-01   7.381597e-03
  2.498921e+00    5.453362e-01   7.453626e-03
  2.501131e+00    5.247808e-01   7.310905e-03
  2.503342e+00    5.176523e-01   7.259790e-03
  2.505552e+00    5.278450e-01   7.329801e-03
  2.507763e+00    5.284727e-01   7.332739e-03
  2.509973e+00    5.221418e-01   7.287322e-03
  2.512184e+00    5.097467e-01   7.198691e-03
  2.514394e+00    5.330799e-01   7.352198e-03
  2.516605e+00    5.388438e-01   7.344229e-03
  2.518815e+00    5.245134e-01   7.217631e-03
  2.521025e+00    5.310587e-01   7.241439e-03
  2.523236e+00    5.414667e-01   7.293814e-03
  2.525446e+00    5.279672e-01   7.186680e-03
  2.527657e+00    5.224854e-01   7.134707e-03
  2.529867e+00    5.284402e-01   7.161019e-03
  2.532078e+00    5.149287e-01   7.053991e-03
  2.534288e+00    5.167651e-01   7.052768e-03
  2.536499e+00    5.241426e-01   7.091017e-03
  2.538709e+00    5.075821e-01   6.967262e-03
  2.540920e+00    5.133767e-01   6.996390e-03
  2.543130e+00    5.245196e-01   7.061533e-03
  2.545340e+00    5.225587e-01   7.038292e-03
  2.547551e+00    5.196789e-01   7.008928e-03
  2.549761e+00    5.212107e-01   7.009699e-03
  2.551972e+00    5.210294e-01   6.999135e-03
  2.554182e+00    5.212252e-01   6.991269e-03
  2.556393e+00    5.251111e-01   7.008150e-03
  2.558603e+00    5.170791e-01   6.945297e-03
  2.560814e+00    5.098955e-01   6.888280e-03
  2.563024e+00    5.177928e-01   6.932840e-03
  2.565235e+00    5.059659e-01   6.843827e-03
  2.567445e+00    5.197098e-01   6.926568e-03
  2.569656e+00    5.337136e-01   7.009407e-03
  2.571866e+00    5.173019e-01   6.891443e-03
  2.574076e+00    4.996637e-01   6.763814e-03
  2.576287e+00    5.206481e-01   6.896017e-03
  2.578497e+00    5.130498e-01   6.837699e-03
  2.580708e+00    5.091044e-01   6.803321e-03
  2.582918e+00    5.064520e-01   6.777871e-03
  2.585129e+00    5.112877e-01   6.802437e-03
  2.587339e+00    5.227322e-01   6.870384e-03
  2.589550e+00    5.210482e-01   6.851718e-03
  2.591760e+00    5.198015e-01   6.835695e-03
  2.593971e+00    5.136195e-01   6.787429e-03
  2.596181e+00    4.997095e-01   6.688697e-03
  2.598391e+00    5.040701e-01   6.712678e-03
  2.600602e+00    5.201184e-01   6.812723e-03
  2.602812e+00    5.130002e-01   6.758367e-03
  2.605023e+00    5.257667e-01   6.834677e-03
  2.607233e+00    4.942762e-01   6.619803e-03
  2.609444e+00    4.970724e-01   6.631323e-03
  2.611654e+00    4.953440e-01   6.612557e-03
  2.613865e+00    5.069553e-01   6.682569e-03
  2.616075e+00    5.077312e-01   6.680510e-03
  2.618286e+00    5.131367e-01   6.708964e-03
  2.620496e+00    4.927863e-01   6.567955e-03
  2.622706e+00    5.013682e-01   6.619164e-03
  2.624917e+00    5.110759e-01   6.677064e-03
  2.627127e+00    4.970861e-01   6.579345e-03
  2.629338e+00    5.069076e-01   6.638022e-03
  2.631548e+00    5.043311e-01   6.614952e-03
  2.633759e+00    5.032471e-01   6.600695e-03
  2.635969e+00    5.018547e-01   6.584860e-03
  2.638180e+00    5.012915e-01   6.574189e-03
  2.640390e+00    4.974237e-01   6.542196e-03
  2.642601e+00    4.997540e-01   6.550846e-03
  2.644811e+00    5.021824e-01   6.559651e-03
  2.647021e+00    5.028147e-01   6.557195e-03
  2.649232e+00    5.043920e-01   6.560738e-03
  2.651442e+00    4.850999e-01   6.427621e-03
  2.653653e+00    4.925795e-01   6.470239e-03
  2.655863e+00    4.974527e-01   6.495470e-03
  2.658074e+00    5.080175e-01   6.557424e-03
  2.660284e+00    5.112974e-01   6.572115e-03
  2.662495e+00    4.966867e-01   6.470791e-03
  2.664705e+00    5.056679e-01   6.522387e-03
  2.666916e+00    4.950241e-01   6.446939e-03
  2.669126e+00    4.929135e-01   6.426738e-03
  2.671337e+00    4.875600e-01   6.385212e-03
  2.673547e+00    4.929144e-01   6.413810e-03
  2.675757e+00    4.986945e-01   6.444831e-03
  2.677968e+00    5.055881e-01   6.482621e-03
  2.680178e+00    4.949365e-01   6.407582e-03
  2.682389e+00    4.933268e-01   6.390740e-03
  2.684599e+00    5.006123e-01   6.431528e-03
  2.686810e+00    4.947495e-01   6.387124e-03
  2.689020e+00    4.864904e-01   6.327355e-03
  2.691231e+00    4.840297e-01   6.305061e-03
  2.693441e+00    4.958609e-01   6.375486e-03
  2.695652e+00    4.849122e-01   6.298221e-03
  2.697862e+00    4.976903e-01   6.374276e-03
  2.700072e+00    4.934783e-01   6.341145e-03
  2.702283e+00    4.848060e-01   6.278994e-03
  2.704493e+00    4.845454e-01   6.271034e-03
  2.706704e+00    4.844823e-01   6.264253e-03
  2.708914e+00    4.898378e-01   6.292806e-03
  2.711125e+00    4.894781e-01   6.284233e-03
  2.713335e+00    4.906875e-01   6.285896e-03
  2.715546e+00    4.767983e-01   6.189886e-03
  2.717756e+00    4.854728e-01   6.240054e-03
  2.719967e+00    4.979390e-01   6.313395e-03
  2.722177e+00    4.691434e-01   6.122101e-03
  2.724387e+00    4.777855e-01   6.172164e-03
  2.726598e+00    4.902036e-01   6.245775e-03
  2.728808e+00    4.969404e-01   6.282324e-03
  2.731019e+00    4.874658e-01   6.216008e-03
  2.733229e+00    4.905757e-01   6.229955e-03
  2.735440e+00    4.815690e-01   6.166268e-03
  2.737650e+00    4.662941e-01   6.061759e-03
  2.739861e+00    4.821903e-01   6.158155e-03
  2.742071e+00    4.828899e-01   6.156879e-03
  2.744282e+00    4.851655e-01   6.165104e-03
  2.746492e+00    4.925693e-01   6.205881e-03
  2.748702e+00    4.843736e-01   6.148106e-03
  2.750913e+00    4.910263e-01   6.184334e-03
  2.753123e+00    4.868449e-01   6.151807e-03
  2.755334e+00    4.809023e-01   6.108058e-03
  2.757544e+00    4.895438e-01   6.156906e-03
  2.759755e+00    4.805679e-01   6.094315e-03
  2.761965e+00    4.905049e-01   6.150956e-03
  2.764176e+00    4.890843e-01   6.135999e-03
  2.766386e+00    4.871213e-01   6.117838e-03
  2.768597e+00    4.863307e-01   6.106969e-03
  2.770807e+00    4.768987e-01   6.041603e-03
  2.773017e+00    4.801739e-01   6.056313e-03
  2.775228e+00    4.935948e-01   6.134509e-03
  2.777438e+00    4.864529e-01   6.084125e-03
  2.779649e+00    4.586476e-01   5.901911e-03
  2.781859e+00    4.627724e-01   5.922692e-03
  2.784070e+00    4.719488e-01   5.975313e-03
  2.786280e+00    4.779167e-01   6.007193e-03
  2.788491e+00    4.967803e-01   6.118643e-03
  2.790701e+00    5.072989e-01   6.177268e-03
  2.792912e+00    4.953009e-01   6.097690e-03
  2.795122e+00    4.811399e-01   6.004150e-03
  2.797333e+00    4.745982e-01   5.957611e-03
  2.799543e+00    4.769058e-01   5.966225e-03
  2.801753e+00    4.732760e-01   5.937617e-03
  2.803964e+00    4.793901e-01   5.970168e-03
  2.806174e+00    4.877664e-01   6.015874e-03
  2.808385e+00    4.789121e-01   5.954203e-03
  2.810595e+00    4.696603e-01   5.889560e-03
  2.812806e+00    4.826417e-01   5.963757e-03
  2.815016e+00    4.685659e-01   5.871422e-03
  2.817227e+00    4.608615e-01   5.848513e-03
  2.819437e+00    4.857132e-01   6.015342e-03
  2.821648e+00    4.873644e-01   6.027907e-03
  2.823858e+00    4.737059e-01   5.948170e-03
  2.826068e+00    4.756600e-01   5.965408e-03
  2.828279e+00    4.790644e-01   5.990806e-03
  2.830489e+00    4.616123e-01   5.883960e-03
  2.832700e+00    4.758747e-01   5.976732e-03
  2.834910e+00    4.693249e-01   5.937516e-03
  2.837121e+00    4.750969e-01   5.975630e-03
  2.839331e+00    4.898992e-01   6.069270e-03
  2.841542e+00    4.657607e-01   5.918879e-03
  2.843752e+00    4.766525e-01   5.988447e-03
  2.845963e+00    4.731002e-01   5.966515e-03
  2.848173e+00    4.606912e-01   5.887822e-03
  2.850383e+00    4.633895e-01   5.905324e-03
  2.852594e+00    4.603721e-01   5.885995e-03
  2.854804e+00    4.666299e-01   5.925363e-03
  2.857015e+00    4.646348e-01   5.912243e-03
  2.859225e+00    4.711160e-01   5.953082e-03
  2.861436e+00    4.784153e-01   5.998362e-03
  2.863646e+00    4.824780e-01   6.023815e-03
  2.865857e+00    4.685053e-01   5.936304e-03
  2.868067e+00    4.772883e-01   5.991898e-03
  2.870278e+00    4.686332e-01   5.936974e-03
  2.872488e+00    4.744337e-01   5.972424e-03
  2.874698e+00    4.683860e-01   5.933200e-03
  2.876909e+00    4.714096e-01   5.950962e-03
  2.879119e+00    4.673286e-01   5.923533e-03
  2.881330e+00    4.758909e-01   5.976046e-03
  2.883540e+00    4.721111e-01   5.950871e-03
  2.885751e+00    4.642412e-01   5.899408e-03
  2.887961e+00    4.680271e-01   5.921534e-03
  2.890172e+00    4.857773e-01   6.031096e-03
  2.892382e+00    4.749139e-01   5.961492e-03
  2.894593e+00    4.585154e-01   5.855831e-03
  2.896803e+00    4.597364e-01   5.861651e-03
  2.899014e+00    4.690656e-01   5.918885e-03
  2.901224e+00    4.625333e-01   5.875536e-03
  2.903434e+00    4.493954e-01   5.789579e-03
  2.905645e+00    4.511415e-01   5.798591e-03
  2.907855e+00    4.522642e-01   5.803733e-03
  2.910066e+00    4.569812e-01   5.831826e-03
  2.912276e+00    4.759445e-01   5.949467e-03
  2.914487e+00    4.635047e-01   5.868723e-03
  2.916697e+00    4.525781e-01   5.796922e-03
  2.918908e+00    4.481988e-01   5.766830e-03
  2.921118e+00    4.555190e-01   5.811029e-03
  2.923329e+00    4.603108e-01   5.839218e-03
  2.925539e+00    4.610305e-01   5.841470e-03
  2.927749e+00    4.551596e-01   5.801860e-03
  2.929960e+00    4.570354e-01   5.811022e-03
  2.932170e+00    4.569739e-01   5.808313e-03
  2.934381e+00    4.435438e-01   5.719916e-03
  2.936591e+00    4.479246e-01   5.745536e-03
  2.938802e+00    4.542557e-01   5.783289e-03
  2.941012e+00    4.655308e-01   5.852265e-03
  2.943223e+00    4.765164e-01   5.918150e-03
  2.945433e+00    4.723690e-01   5.888552e-03
  2.947644e+00    4.710889e-01   5.876360e-03
  2.949854e+00    4.638283e-01   5.826592e-03
  2.952064e+00    4.617339e-01   5.809157e-03
  2.954275e+00    4.585581e-01   5.784729e-03
  2.956485e+00    4.647944e-01   5.819703e-03
  2.958696e+00    4.535775e-01   5.744671e-03
  2.960906e+00    4.592021e-01   5.775987e-03
  2.963117e+00    4.501502e-01   5.714301e-03
  2.965327e+00    4.647048e-01   5.802014e-03
  2.967538e+00    4.488080e-01   5.699006e-03
  2.969748e+00    4.652564e-01   5.799643e-03
  2.971959e+00    4.703309e-01   5.828009e-03
  2.974169e+00    4.698854e-01   5.822616e-03
  2.976379e+00    4.665313e-01   5.798846e-03
  2.978590e+00    4.621876e-01   5.768618e-03
  2.980800e+00    4.629717e-01   5.770694e-03
  2.983011e+00    4.470526e-01   5.667825e-03
  2.985221e+00    4.677827e-01   5.794545e-03
  2.987432e+00    4.637597e-01   5.766438e-03
  2.989642e+00    4.623685e-01   5.755127e-03
  2.991853e+00    4.593391e-01   5.732960e-03
  2.994063e+00    4.426721e-01   5.625111e-03
  2.996274e+00    4.427398e-01   5.622391e-03
  2.998484e+00    4.519786e-01   5.678046e-03
  3.000694e+00    4.633529e-01   5.745573e-03
  3.002905e+00    4.442338e-01   5.622886e-03
  3.005115e+00    4.438088e-01   5.617222e-03
  3.007326e+00    4.543734e-01   5.680546e-03
  3.009536e+00    4.511918e-01   5.657366e-03
  3.011747e+00    4.457963e-01   5.620574e-03
  3.013957e+00    4.527986e-01   5.661323e-03
  3.016168e+00    4.590863e-01   5.697237e-03
  3.018378e+00    4.612114e-01   5.707335e-03
  3.020589e+00    4.551235e-01   5.666329e-03
  3.022799e+00    4.470590e-01   5.612751e-03
  3.025010e+00    4.553457e-01   5.661290e-03
  3.027220e+00    4.521867e-01   5.638500e-03
  3.029430e+00    4.483533e-01   5.611332e-03
  3.031641e+00    4.454935e-01   5.590270e-03
  3.033851e+00    4.521953e-01   5.628660e-03
  3.036062e+00    4.511812e-01   5.619556e-03
  3.038272e+00    4.511018e-01   5.615490e-03
  3.040483e+00    4.486113e-01   5.596764e-03
  3.042693e+00    4.526464e-01   5.618596e-03
  3.044904e+00    4.581766e-01   5.648774e-03
  3.047114e+00    4.582869e-01   5.644594e-03
  3.049325e+00    4.608781e-01   5.656089e-03
  3.051535e+00    4.652680e-01   5.678502e-03
  3.053745e+00    4.565760e-01   5.620436e-03
  3.055956e+00    4.488582e-01   5.568157e-03
  3.058166e+00    4.555643e-01   5.605318e-03
  3.060377e+00    4.501901e-01   5.567380e-03
  3.062587e+00    4.537745e-01   5.584870e-03
  3.064798e+00    4.432238e-01   5.515319e-03
  3.067008e+00    4.475489e-01   5.537461e-03
  3.069219e+00    4.433801e-01   5.507109e-03
  3.071429e+00    4.506500e-01   5.548574e-03
  3.073640e+00    4.452571e-01   5.511954e-03
  3.075850e+00    4.471454e-01   5.520052e-03
  3.078060e+00    4.500165e-01   5.534647e-03
  3.080271e+00    4.386953e-01   5.461143e-03
  3.082481e+00    4.544597e-01   5.554917e-03
  3.084692e+00    4.609891e-01   5.591277e-03
  3.086902e+00    4.346265e-01   5.425855e-03
  3.089113e+00    4.422985e-01   5.469971e-03
  3.091323e+00    4.478708e-01   5.500956e-03
  3.093534e+00    4.401816e-01   5.450189e-03
  3.095744e+00    4.611357e-01   5.574957e-03
  3.097955e+00    4.602988e-01   5.566326e-03
  3.100165e+00    4.542718e-01   5.526391e-03
  3.102375e+00    4.464247e-01   5.475047e-03
  3.104586e+00    4.421759e-01   5.445438e-03
  3.106796e+00    4.450895e-01   5.459841e-03
  3.109007e+00    4.492408e-01   5.482021e-03
  3.111217e+00    4.505903e-01   5.486522e-03
  3.113428e+00    4.530604e-01   5.498120e-03
  3.115638e+00    4.501644e-01   5.477263e-03
  3.117849e+00    4.498606e-01   5.471667e-03
  3.120059e+00    4.407643e-01   5.412615e-03
  3.122270e+00    4.524370e-01   5.480525e-03
  3.124480e+00    4.578409e-01   5.509435e-03
  3.126691e+00    4.488043e-01   5.451208e-03
  3.128901e+00    4.540997e-01   5.480116e-03
  3.131111e+00    4.543535e-01   5.477760e-03
  3.133322e+00    4.504127e-01   5.450499e-03
  3.135532e+00    4.471213e-01   5.427123e-03
  3.137743e+00    4.434762e-01   5.401482e-03
  3.139953e+00    4.428445e-01   5.393961e-03
  3.142164e+00    4.362139e-01   5.365329e-03
  3.144374e+00    4.537849e-01   5.501098e-03
  3.146585e+00    4.482508e-01   5.482124e-03
  3.148795e+00    4.375019e-01   5.426703e-03
  3.151006e+00    4.448397e-01   5.480603e-03
  3.153216e+00    4.427603e-01   5.474915e-03
  3.155426e+00    4.537877e-01   5.549076e-03
  3.157637e+00    4.447512e-01   5.499095e-03
  3.159847e+00    4.470071e-01   5.517937e-03
  3.162058e+00    4.364041e-01   5.456527e-03
  3.164268e+00    4.395851e-01   5.480421e-03
  3.166479e+00    4.374975e-01   5.471040e-03
  3.168689e+00    4.501013e-01   5.552687e-03
  3.170900e+00    4.562756e-01   5.593887e-03
  3.173110e+00    4.489948e-01   5.551972e-03
  3.175321e+00    4.507179e-01   5.565156e-03
  3.177531e+00    4.460252e-01   5.538867e-03
  3.179741e+00    4.310688e-01   5.447278e-03
  3.181952e+00    4.403985e-01   5.507998e-03
  3.184162e+00    4.467107e-01   5.549576e-03
  3.186373e+00    4.316996e-01   5.457106e-03
  3.188583e+00    4.441380e-01   5.536970e-03
  3.190794e+00    4.497627e-01   5.573707e-03
  3.193004e+00    4.321224e-01   5.464543e-03
  3.195215e+00    4.433644e-01   5.536684e-03
  3.197425e+00    4.288242e-01   5.446353e-03
  3.199636e+00    4.250331e-01   5.421446e-03
  3.201846e+00    4.353938e-01   5.486521e-03
  3.204056e+00    4.394661e-01   5.513021e-03
  3.206267e+00    4.309327e-01   5.460088e-03
  3.208477e+00    4.343559e-01   5.482631e-03
  3.210688e+00    4.280615e-01   5.443625e-03
  3.212898e+00    4.268291e-01   5.436330e-03
  3.215109e+00    4.433074e-01   5.541057e-03
  3.217319e+00    4.375276e-01   5.505449e-03
  3.219530e+00    4.242745e-01   5.421831e-03
  3.221740e+00    4.336618e-01   5.482023e-03
  3.223951e+00    4.359567e-01   5.496996e-03
  3.226161e+00    4.360441e-01   5.497735e-03
  3.228372e+00    4.216619e-01   5.406827e-03
  3.230582e+00    4.286190e-01   5.451400e-03
  3.232792e+00    4.232411e-01   5.417300e-03
  3.235003e+00    4.369040e-01   5.504294e-03
  3.237213e+00    4.279826e-01   5.447919e-03
  3.239424e+00    4.221099e-01   5.410401e-03
  3.241634e+00    4.292379e-01   5.456011e-03
  3.243845e+00    4.331704e-01   5.481042e-03
  3.246055e+00    4.327278e-01   5.477954e-03
  3.248266e+00    4.206597e-01   5.401214e-03
  3.250476e+00    4.383994e-01   5.513628e-03
  3.252687e+00    4.333592e-01   5.481772e-03
  3.254897e+00    4.267504e-01   5.439684e-03
  3.257107e+00    4.246005e-01   5.425668e-03
  3.259318e+00    4.203047e-01   5.397902e-03
  3.261528e+00    4.205379e-01   5.399258e-03
  3.263739e+00    4.342099e-01   5.485761e-03
  3.265949e+00    4.309590e-01   5.465079e-03
  3.268160e+00    4.229461e-01   5.413604e-03
  3.270370e+00    4.215893e-01   5.404410e-03
  3.272581e+00    4.259137e-01   5.431773e-03
  3.274791e+00    4.366719e-01   5.499416e-03
  3.277002e+00    4.343161e-01   5.483995e-03
  3.279212e+00    4.400590e-01   5.519734e-03
  3.281422e+00    4.241657e-01   5.418608e-03
  3.283633e+00    4.156461e-01   5.363193e-03
  3.285843e+00    4.265678e-01   5.432873e-03
  3.288054e+00    4.272956e-01   5.436575e-03
  3.290264e+00    4.207325e-01   5.394343e-03
  3.292475e+00    4.090898e-01   5.318358e-03
  3.294685e+00    4.218629e-01   5.400119e-03
  3.296896e+00    4.228967e-01   5.405969e-03
  3.299106e+00    4.271979e-01   5.432838e-03
  3.301317e+00    4.361947e-01   5.488715e-03
  3.303527e+00    4.342810e-01   5.476177e-03
  3.305737e+00    4.328823e-01   5.466304e-03
  3.307948e+00    4.327932e-01   5.465071e-03
  3.310158e+00    4.269400e-01   5.427104e-03
  3.312369e+00    4.308993e-01   5.451354e-03
  3.314579e+00    4.193099e-01   5.376618e-03
  3.316790e+00    4.400719e-01   5.507399e-03
  3.319000e+00    4.331154e-01   5.462508e-03
  3.321211e+00    4.385698e-01   5.496162e-03
  3.323421e+00    4.303411e-01   5.443167e-03
  3.325632e+00    4.292782e-01   5.435520e-03
  3.327842e+00    4.267473e-01   5.418577e-03
  3.330052e+00    4.166528e-01   5.353031e-03
  3.332263e+00    4.120768e-01   5.322541e-03
  3.334473e+00    4.257229e-01   5.409047e-03
  3.336684e+00    4.302884e-01   5.436688e-03
  3.338894e+00    4.347306e-01   5.463828e-03
  3.341105e+00    4.253055e-01   5.403064e-03
  3.343315e+00    4.205518e-01   5.371639e-03
  3.345526e+00    4.272649e-01   5.413431e-03
  3.347736e+00    4.323128e-01   5.443892e-03
  3.349947e+00    4.222253e-01   5.379084e-03
  3.352157e+00    4.168590e-01   5.343589e-03
  3.354368e+00    4.358321e-01   5.462544e-03
  3.356578e+00    4.236320e-01   5.384504e-03
  3.358788e+00    4.282540e-01   5.412492e-03
  3.360999e+00    4.287665e-01   5.414419e-03
  3.363209e+00    4.272421e-01   5.403803e-03
  3.365420e+00    4.220763e-01   5.369481e-03
  3.367630e+00    4.204968e-01   5.358426e-03
  3.369841e+00    4.015288e-01   5.234779e-03
  3.372051e+00    4.093961e-01   5.283826e-03
  3.374262e+00    4.113316e-01   5.293899e-03
  3.376472e+00    3.978420e-01   5.203982e-03
  3.378683e+00    4.065852e-01   5.258356e-03
  3.380893e+00    4.035674e-01   5.236510e-03
  3.383103e+00    4.105734e-01   5.279091e-03
  3.385314e+00    4.160579e-01   5.311992e-03
  3.387524e+00    4.039288e-01   5.231300e-03
  3.389735e+00    4.105374e-01   5.271293e-03
  3.391945e+00    4.121884e-01   5.278230e-03
  3.394156e+00    4.186701e-01   5.315290e-03
  3.396366e+00    4.258913e-01   5.357495e-03
  3.398577e+00    4.062015e-01   5.229148e-03
  3.400787e+00    4.069244e-01   5.245654e-03
  3.402998e+00    3.990074e-01   5.231944e-03
  3.405208e+00    3.967291e-01   5.237377e-03
  3.407418e+00    4.192783e-01   5.400321e-03
  3.409629e+00    3.999420e-01   5.288298e-03
  3.411839e+00    3.976910e-01   5.285103e-03
  3.414050e+00    3.915465e-01   5.255066e-03
  3.416260e+00    3.956842e-01   5.292398e-03
  3.418471e+00    3.859946e-01   5.236511e-03
  3.420681e+00    3.990158e-01   5.332696e-03
  3.422892e+00    3.810299e-01   5.219007e-03
  3.425102e+00    3.843497e-01   5.249446e-03
  3.427313e+00    3.956178e-01   5.333102e-03
  3.429523e+00    3.960281e-01   5.343027e-03
  3.431733e+00    3.798068e-01   5.239055e-03
  3.433944e+00    3.828823e-01   5.266677e-03
  3.436154e+00    3.982719e-01   5.377882e-03
  3.438365e+00    3.754154e-01   5.227154e-03
  3.440575e+00    3.869176e-01   5.312573e-03
  3.442786e+00    3.814819e-01   5.280799e-03
  3.444996e+00    3.829217e-01   5.296261e-03
  3.447207e+00    3.675367e-01   5.194028e-03
  3.449417e+00    3.624884e-01   5.198546e-03
  3.451628e+00    3.563168e-01   5.183028e-03
  3.453838e+00    3.707147e-01   5.307952e-03
  3.456049e+00    3.900960e-01   5.469600e-03
  3.458259e+00    3.684145e-01   5.337419e-03
  3.460469e+00    3.662095e-01   5.341189e-03
  3.462680e+00    3.615963e-01   5.326401e-03
  3.464890e+00    3.672984e-01   5.386023e-03
  3.467101e+00    3.864092e-01   5.542290e-03
  3.469311e+00    3.901880e-01   5.586304e-03
  3.471522e+00    3.801229e-01   5.530311e-03
  3.473732e+00    4.077823e-01   5.744507e-03
  3.475943e+00    3.986461e-01   5.695835e-03
  3.478153e+00    3.925556e-01   5.667703e-03
  3.480364e+00    4.095696e-01   5.804656e-03
  3.482574e+00    4.059572e-01   5.794405e-03
  3.484784e+00    4.157140e-01   5.878549e-03
  3.486995e+00    4.241835e-01   5.953412e-03
  3.489205e+00    4.242831e-01   5.968789e-03
  3.491416e+00    4.288146e-01   6.015504e-03
  3.493626e+00    4.498972e-01   6.176468e-03
  3.495837e+00    4.527905e-01   6.211257e-03
  3.498047e+00    4.412168e-01   6.145783e-03
  3.500258e+00    4.636984e-01   6.315191e-03
  3.502468e+00    4.492333e-01   6.230264e-03
  3.504679e+00    4.642718e-01   6.348195e-03
  3.506889e+00    4.670953e-01   6.381947e-03
  3.509099e+00    4.906898e-01   6.555779e-03
  3.511310e+00    5.140782e-01   6.725260e-03
  3.513520e+00    4.875301e-01   6.563825e-03
  3.515731e+00    4.837345e-01   6.552535e-03
  3.517941e+00    4.861237e-01   6.582996e-03
  3.520152e+00    5.032613e-01   6.712463e-03
  3.522362e+00    5.115716e-01   6.782321e-03
  3.524573e+00    5.181064e-01   6.839924e-03
  3.526783e+00    5.396216e-01   6.994239e-03
  3.528994e+00    5.248881e-01   6.910439e-03
  3.531204e+00    5.398686e-01   7.021022e-03
  3.533414e+00    5.586574e-01   7.154624e-03
  3.535625e+00    5.446145e-01   7.076688e-03
  3.537835e+00    5.574703e-01   7.172085e-03
  3.540046e+00    5.591033e-01   7.191731e-03
  3.542256e+00    5.542910e-01   7.168413e-03
  3.544467e+00    5.327157e-01   7.035098e-03
  3.546677e+00    5.416564e-01   7.101466e-03
  3.548888e+00    5.595354e-01   7.225410e-03
  3.551098e+00    5.406089e-01   7.109472e-03
  3.553309e+00    5.496513e-01   7.176941e-03
  3.555519e+00    5.491689e-01   7.185236e-03
  3.557729e+00    5.561723e-01   7.242853e-03
  3.559940e+00    5.243242e-01   7.043838e-03
  3.562150e+00    5.380760e-01   7.147331e-03
  3.564361e+00    5.378886e-01   7.159454e-03
  3.566571e+00    5.438760e-01   7.213101e-03
  3.568782e+00    5.451293e-01   7.235659e-03
  3.570992e+00    5.270548e-01   7.128347e-03
  3.573203e+00    5.244853e-01   7.124887e-03
  3.575413e+00    5.431338e-01   7.264358e-03
  3.577624e+00    5.495470e-01   7.321410e-03
  3.579834e+00    5.472145e-01   7.319879e-03
  3.582045e+00    5.482410e-01   7.340925e-03
  3.584255e+00    5.559024e-01   7.406383e-03
  3.586465e+00    5.259246e-01   7.217714e-03
  3.588676e+00    5.195956e-01   7.188100e-03
  3.590886e+00    5.506137e-01   7.413443e-03
  3.593097e+00    5.546429e-01   7.455263e-03
  3.595307e+00    5.426171e-01   7.388043e-03
  3.597518e+00    5.569163e-01   7.499240e-03
  3.599728e+00    5.453105e-01   7.434908e-03
  3.601939e+00    5.474380e-01   7.463622e-03
  3.604149e+00    5.447519e-01   7.459826e-03
  3.606360e+00    5.380216e-01   7.427756e-03
  3.608570e+00    5.427826e-01   7.474837e-03
  3.610780e+00    5.370429e-01   7.446262e-03
  3.612991e+00    5.463740e-01   7.520806e-03
  3.615201e+00    5.353783e-01   7.454563e-03
  3.617412e+00    5.363284e-01   7.468435e-03
  3.619622e+00    5.369779e-01   7.478956e-03
  3.621833e+00    5.331876e-01   7.459163e-03
  3.624043e+00    5.340092e-01   7.474462e-03
  3.626254e+00    5.367376e-01   7.503234e-03
  3.628464e+00    5.425094e-01   7.554510e-03
  3.630675e+00    5.495265e-01   7.617557e-03
  3.632885e+00    5.502307e-01   7.637105e-03
  3.635095e+00    5.471781e-01   7.630468e-03
  3.637306e+00    5.531494e-01   7.686606e-03
  3.639516e+00    5.301129e-01   7.539377e-03
  3.641727e+00    5.236837e-01   7.507913e-03
  3.643937e+00    5.341710e-01   7.597276e-03
  3.646148e+00    5.504307e-01   7.726891e-03
  3.648358e+00    5.440115e-01   7.696755e-03
  3.650569e+00    5.148985e-01   7.502375e-03
  3.652779e+00    5.433637e-01   7.721950e-03
  3.654990e+00    5.401170e-01   7.713816e-03
  3.657200e+00    5.286226e-01   7.646149e-03
  3.659410e+00    5.286407e-01   7.661180e-03
  3.661621e+00    5.440537e-01   7.787343e-03
  3.663831e+00    5.281460e-01   7.687727e-03
  3.666042e+00    5.335788e-01   7.742352e-03
  3.668252e+00    5.560806e-01   7.919488e-03
  3.670463e+00    5.272955e-01   7.727019e-03
  3.672673e+00    5.245880e-01   7.722460e-03
  3.674884e+00    5.179582e-01   7.688721e-03
  3.677094e+00    5.146933e-01   7.679710e-03
  3.679305e+00    5.180148e-01   7.719826e-03
  3.681515e+00    5.423476e-01   7.914880e-03
  3.683726e+00    5.277249e-01   7.823207e-03
  3.685936e+00    5.370288e-01   7.907716e-03
  3.688146e+00    5.279842e-01   7.856581e-03
  3.690357e+00    5.322914e-01   7.904625e-03
  3.692567e+00    5.210032e-01   7.836327e-03
  3.694778e+00    5.472783e-01   8.047889e-03
  3.696988e+00    5.432945e-01   8.034798e-03
  3.699199e+00    5.243840e-01   7.909937e-03
  3.701409e+00    5.460676e-01   8.088530e-03
  3.703620e+00    5.367339e-01   8.035591e-03
  3.705830e+00    5.492234e-01   8.145310e-03
  3.708041e+00    5.366148e-01   8.068125e-03
  3.710251e+00    5.485348e-01   8.174296e-03
  3.712461e+00    5.254604e-01   8.017329e-03
  3.714672e+00    5.375360e-01   8.125872e-03
  3.716882e+00    5.260637e-01   8.055525e-03
  3.719093e+00    5.280474e-01   8.087938e-03
  3.721303e+00    5.133060e-01   7.991146e-03
  3.723514e+00    5.172622e-01   8.039080e-03
  3.725724e+00    5.124913e-01   8.018997e-03
  3.727935e+00    5.158916e-01   8.062941e-03
  3.730145e+00    5.225316e-01   8.132099e-03
  3.732356e+00    5.358949e-01   8.253310e-03
  3.734566e+00    5.234737e-01   8.174765e-03
  3.736776e+00    5.211942e-01   8.174825e-03
  3.738987e+00    5.041222e-01   8.057393e-03
  3.741197e+00    5.030438e-01   8.066613e-03
  3.743408e+00    5.055313e-01   8.104395e-03
  3.745618e+00    5.191990e-01   8.231681e-03
  3.747829e+00    5.040333e-01   8.128515e-03
  3.750039e+00    5.102788e-01   8.197080e-03
  3.752250e+00    5.017143e-01   8.146304e-03
  3.754460e+00    5.133874e-01   8.259119e-03
  3.756671e+00    5.225918e-01   8.351875e-03
  3.758881e+00    5.057061e-01   8.234413e-03
  3.761091e+00    5.029123e-01   8.230693e-03
  3.763302e+00    5.072295e-01   8.284975e-03
  3.765512e+00    5.376765e-01   8.549814e-03
  3.767723e+00    5.288966e-01   8.499542e-03
  3.769933e+00    5.054964e-01   8.328694e-03
  3.772144e+00    5.130020e-01   8.409958e-03
  3.774354e+00    5.156345e-01   8.451582e-03
  3.776565e+00    5.024430e-01   8.362588e-03
  3.778775e+00    5.019726e-01   8.378549e-03
  3.780986e+00    4.841745e-01   8.248552e-03
  3.783196e+00    5.272794e-01   8.628689e-03
  3.785407e+00    4.945144e-01   8.376488e-03
  3.787617e+00    5.162991e-01   8.580028e-03
  3.789827e+00    5.231085e-01   8.657413e-03
  3.792038e+00    5.277013e-01   8.716679e-03
  3.794248e+00    5.148090e-01   8.631059e-03
  3.796459e+00    5.029590e-01   8.552441e-03
  3.798669e+00    4.960456e-01   8.514815e-03
  3.800880e+00    4.840117e-01   8.431908e-03
  3.803090e+00    4.903381e-01   8.508475e-03
  3.805301e+00    4.819777e-01   8.457311e-03
  3.807511e+00    5.006934e-01   8.641940e-03
  3.809722e+00    5.240459e-01   8.863944e-03
  3.811932e+00    5.216594e-01   8.866499e-03
  3.814142e+00    5.299890e-01   8.960549e-03
  3.816353e+00    5.231521e-01   8.925971e-03
  3.818563e+00    4.862012e-01   8.627777e-03
  3.820774e+00    4.947835e-01   8.726658e-03
  3.822984e+00    4.841501e-01   8.655434e-03
  3.825195e+00    4.887657e-01   8.720089e-03
  3.827405e+00    4.995978e-01   8.840109e-03
  3.829616e+00    5.209930e-01   9.052044e-03
  3.831826e+00    4.969812e-01   8.865173e-03
  3.834037e+00    5.118625e-01   9.021751e-03
  3.836247e+00    4.999459e-01   8.940921e-03
  3.838457e+00    4.905443e-01   8.881277e-03
  3.840668e+00    4.856566e-01   8.861888e-03
  3.842878e+00    5.100132e-01   9.107240e-03
  3.845089e+00    5.061380e-01   9.098412e-03
  3.847299e+00    4.985116e-01   9.055497e-03
  3.849510e+00    5.021545e-01   9.114577e-03
  3.851720e+00    4.826074e-01   8.956506e-03
  3.853931e+00    5.063786e-01   9.193671e-03
  3.856141e+00    4.979360e-01   9.135815e-03
  3.858352e+00    4.756497e-01   8.947896e-03
  3.860562e+00    4.847626e-01   9.052315e-03
  3.862772e+00    5.077802e-01   9.284572e-03
  3.864983e+00    5.190300e-01   9.407049e-03
  3.867193e+00    5.002601e-01   9.255276e-03
  3.869404e+00    5.082077e-01   9.348673e-03
  3.871614e+00    4.946710e-01   9.243291e-03
  3.873825e+00    4.980689e-01   9.295379e-03
  3.876035e+00    5.007359e-01   9.341008e-03
  3.878246e+00    5.016451e-01   9.375458e-03
  3.880456e+00    5.023482e-01   9.411336e-03
  3.882667e+00    5.066643e-01   9.481405e-03
  3.884877e+00    5.119900e-01   9.561501e-03
  3.887087e+00    4.977799e-01   9.458003e-03
  3.889298e+00    4.890911e-01   9.405374e-03
  3.891508e+00    4.696890e-01   9.246787e-03
  3.893719e+00    5.102515e-01   9.669431e-03
  3.895929e+00    5.173979e-01   9.769120e-03
  3.898140e+00    5.074065e-01   9.706669e-03
  3.900350e+00    5.204826e-01   9.863978e-03
  3.902561e+00    5.356424e-01   1.004046e-02
  3.904771e+00    4.998078e-01   9.731974e-03
  3.906982e+00    5.073832e-01   9.839122e-03
  3.909192e+00    4.922181e-01   9.724577e-03
  3.911403e+00    4.883658e-01   9.720472e-03
  3.913613e+00    5.124286e-01   9.992110e-03
  3.915823e+00    5.028436e-01   9.933578e-03
  3.918034e+00    4.928825e-01   9.870081e-03
  3.920244e+00    4.848877e-01   9.825326e-03
  3.922455e+00    5.173887e-01   1.018640e-02
  3.924665e+00    4.632041e-01   9.673839e-03
  3.926876e+00    5.037629e-01   1.012598e-02
  3.929086e+00    5.092727e-01   1.021954e-02
  3.931297e+00    5.045797e-01   1.020781e-02
  3.933507e+00    4.821836e-01   1.000734e-02
  3.935718e+00    4.937965e-01   1.015610e-02
  3.937928e+00    5.365553e-01   1.061766e-02
  3.940138e+00    4.667944e-01   9.932057e-03
  3.942349e+00    4.919994e-01   1.022668e-02
  3.944559e+00    4.829822e-01   1.016247e-02
  3.946770e+00    4.836226e-01   1.019920e-02
  3.948980e+00    5.050821e-01   1.045442e-02
  3.951191e+00    5.006852e-01   1.044004e-02
  3.953401e+00    4.741408e-01   1.019048e-02
  3.955612e+00    4.756933e-01   1.023855e-02
  3.957822e+00    4.750266e-01   1.026254e-02
  3.960033e+00    5.115000e-01   1.068279e-02
  3.962243e+00    4.866267e-01   1.045269e-02
  3.964453e+00    4.753637e-01   1.036377e-02
  3.966664e+00    4.814662e-01   1.046332e-02
  3.968874e+00    5.122719e-01   1.082197e-02
  3.971085e+00    5.299037e-01   1.102966e-02
  3.973295e+00    4.749335e-01   1.046315e-02
  3.975506e+00    4.949726e-01   1.070332e-02
  3.977716e+00    5.262296e-01   1.105901e-02
  3.979927e+00    5.381845e-01   1.120733e-02
  3.982137e+00    5.194564e-01   1.103361e-02
  3.984348e+00    4.966108e-01   1.081112e-02
  3.986558e+00    4.868526e-01   1.072667e-02
  3.988768e+00    5.050296e-01   1.094861e-02
  3.990979e+00    4.846847e-01   1.074847e-02
  3.993189e+00    4.918540e-01   1.085096e-02
  3.995400e+00    4.897710e-01   1.085163e-02
  3.997610e+00    5.139908e-01   1.114732e-02
  3.999821e+00    5.373684e-01   1.143755e-02
  4.002031e+00    5.036790e-01   1.111244e-02
  4.004242e+00    4.884056e-01   1.098120e-02
  4.006452e+00    4.562003e-01   1.065125e-02
  4.008663e+00    4.873035e-01   1.104835e-02
  4.010873e+00    4.725218e-01   1.091902e-02
  4.013084e+00    4.980885e-01   1.125203e-02
  4.015294e+00    5.006543e-01   1.132268e-02
  4.017504e+00    4.884630e-01   1.122591e-02
  4.019715e+00    5.245200e-01   1.167714e-02
  4.021925e+00    4.895163e-01   1.132413e-02
  4.024136e+00    4.772381e-01   1.122442e-02
  4.026346e+00    5.003113e-01   1.153747e-02
  4.028557e+00    4.979545e-01   1.155526e-02
  4.030767e+00    4.794362e-01   1.138376e-02
  4.032978e+00    4.950615e-01   1.161463e-02
  4.035188e+00    4.843782e-01   1.153491e-02
  4.037399e+00    4.665759e-01   1.136755e-02
  4.039609e+00    5.094935e-01   1.192799e-02
  4.041819e+00    5.026180e-01   1.189690e-02
  4.044030e+00    4.812604e-01   1.169133e-02
  4.046240e+00    4.302129e-01   1.110086e-02
  4.048451e+00    4.635153e-01   1.157229e-02
  4.050661e+00    4.918661e-01   1.197300e-02
  4.052872e+00    4.785822e-01   1.186261e-02
  4.055082e+00    5.046099e-01   1.223579e-02
  4.057293e+00    4.762116e-01   1.193983e-02
  4.059503e+00    4.548828e-01   1.172244e-02
  4.061714e+00    5.081022e-01   1.244717e-02
  4.063924e+00    5.254400e-01   1.271697e-02
  4.066134e+00    5.180723e-01   1.268714e-02
  4.068345e+00    5.010132e-01   1.253647e-02
  4.070555e+00    5.198390e-01   1.283144e-02
  4.072766e+00    4.839163e-01   1.244124e-02
  4.074976e+00    4.782418e-01   1.242968e-02
  4.077187e+00    4.901809e-01   1.264641e-02
  4.079397e+00    4.950710e-01   1.277420e-02
  4.081608e+00    5.061132e-01   1.298320e-02
  4.083818e+00    4.702376e-01   1.257955e-02
  4.086029e+00    4.643817e-01   1.256695e-02
  4.088239e+00    4.628460e-01   1.261366e-02
  4.090449e+00    4.950831e-01   1.311624e-02
  4.092660e+00    4.698796e-01   1.284848e-02
  4.094870e+00    4.901844e-01   1.319605e-02
  4.097081e+00    4.609433e-01   1.286648e-02
  4.099291e+00    4.579750e-01   1.287806e-02
  4.101502e+00    4.622904e-01   1.298682e-02
  4.103712e+00    4.845204e-01   1.334497e-02
  4.105923e+00    4.386914e-01   1.274744e-02
  4.108133e+00    4.460942e-01   1.290378e-02
  4.110344e+00    5.115163e-01   1.387082e-02
  4.112554e+00    5.094923e-01   1.389785e-02
  4.114764e+00    4.681475e-01   1.337583e-02
  4.116975e+00    4.756565e-01   1.353544e-02
  4.119185e+00    4.878365e-01   1.376362e-02
  4.121396e+00    4.486583e-01   1.325376e-02
  4.123606e+00    5.391933e-01   1.458914e-02
  4.125817e+00    4.906881e-01   1.397599e-02
  4.128027e+00    4.691497e-01   1.372307e-02
  4.130238e+00    4.488931e-01   1.348140e-02
  4.132448e+00    4.664599e-01   1.380208e-02
  4.134659e+00    5.146859e-01   1.456049e-02
  4.136869e+00    4.790642e-01   1.411046e-02
  4.139080e+00    4.928854e-01   1.437661e-02
  4.141290e+00    5.041031e-01   1.460402e-02
  4.143500e+00    4.883376e-01   1.444000e-02
  4.145711e+00    4.912606e-01   1.455091e-02
  4.147921e+00    4.939078e-01   1.465682e-02
  4.150132e+00    4.956568e-01   1.475294e-02
  4.152342e+00    4.986715e-01   1.486937e-02
  4.154553e+00    4.976627e-01   1.492500e-02
  4.156763e+00    5.067168e-01   1.513480e-02
  4.158974e+00    4.720470e-01   1.468124e-02
  4.161184e+00    4.461032e-01   1.434274e-02
  4.163395e+00    5.397139e-01   1.585651e-02
  4.165605e+00    4.835369e-01   1.508685e-02
  4.167815e+00    5.052783e-01   1.550267e-02
  4.170026e+00    5.178404e-01   1.577686e-02
  4.172236e+00    4.813798e-01   1.529357e-02
  4.174447e+00    4.777914e-01   1.531944e-02
  4.176657e+00    4.347218e-01   1.469253e-02
  4.178868e+00    5.048229e-01   1.592222e-02
  4.181078e+00    5.366995e-01   1.651020e-02
  4.183289e+00    4.796387e-01   1.569680e-02
  4.185499e+00    4.767692e-01   1.574262e-02
  4.187710e+00    4.667242e-01   1.566651e-02
  4.189920e+00    5.065701e-01   1.642032e-02
  4.192130e+00    4.990202e-01   1.639695e-02
  4.194341e+00    4.873008e-01   1.630265e-02
  4.196551e+00    5.053909e-01   1.670742e-02
  4.198762e+00    5.364538e-01   1.732265e-02
  4.200972e+00    5.377818e-01   1.745654e-02
  4.203183e+00    4.722405e-01   1.646589e-02
  4.205393e+00    4.747745e-01   1.661993e-02
  4.207604e+00    5.156939e-01   1.743945e-02
  4.209814e+00    5.454358e-01   1.805842e-02
  4.212025e+00    4.624656e-01   1.674616e-02
  4.214235e+00    5.404559e-01   1.823144e-02
  4.216445e+00    5.159549e-01   1.794206e-02
  4.218656e+00    5.265638e-01   1.826176e-02
  4.220866e+00    5.107434e-01   1.811827e-02
  4.223077e+00    5.158964e-01   1.834957e-02
  4.225287e+00    5.018459e-01   1.824038e-02
  4.227498e+00    5.212808e-01   1.873584e-02
  4.229708e+00    5.210262e-01   1.888379e-02
  4.231919e+00    4.776272e-01   1.822971e-02
  4.234129e+00    5.479666e-01   1.968961e-02
  4.236340e+00    4.930389e-01   1.883681e-02
  4.238550e+00    4.506977e-01   1.816868e-02
  4.240761e+00    4.983659e-01   1.927426e-02
  4.242971e+00    4.709361e-01   1.890765e-02
  4.245181e+00    4.756218e-01   1.918018e-02
  4.247392e+00    5.353936e-01   2.053944e-02
  4.249602e+00    5.363595e-01   2.076292e-02
  4.251813e+00    5.084448e-01   2.041450e-02
  4.254023e+00    4.342280e-01   1.905553e-02
  4.256234e+00    4.769022e-01   2.018351e-02
  4.258444e+00    4.491762e-01   1.979316e-02
  4.260655e+00    4.675760e-01   2.041647e-02
  4.262865e+00    4.107690e-01   1.935312e-02
  4.265076e+00    4.479367e-01   2.043936e-02
  4.267286e+00    4.613046e-01   2.098790e-02
  4.269496e+00    5.042386e-01   2.221127e-02
  4.271707e+00    4.810579e-01   2.196251e-02
  4.273917e+00    4.507689e-01   2.153470e-02
  4.276128e+00    5.235065e-01   2.351511e-02
  4.278338e+00    5.222182e-01   2.380050e-02
  4.280549e+00    4.477881e-01   2.235486e-02
  4.282759e+00    5.159010e-01   2.433978e-02
  4.284970e+00    4.705410e-01   2.358896e-02
  4.287180e+00    4.393780e-01   2.306797e-02
  4.289391e+00    5.482811e-01   2.596197e-02
  4.291601e+00    5.319684e-01   2.577722e-02
  4.293811e+00    4.850794e-01   2.480717e-02
  4.296022e+00    4.010115e-01   2.273683e-02
  4.298232e+00    4.540369e-01   2.439602e-02
  4.300443e+00    4.070264e-01   2.328909e-02
  4.302653e+00    4.898355e-01   2.576916e-02
  4.304864e+00    5.217953e-01   2.682787e-02
  4.307074e+00    4.414789e-01   2.489826e-02
  4.309285e+00    5.342546e-01   2.763834e-02
  4.311495e+00    5.051837e-01   2.712756e-02
  4.313706e+00    5.168840e-01   2.769748e-02
  4.315916e+00    5.107142e-01   2.780341e-02
  4.318126e+00    4.888761e-01   2.747098e-02
  4.320337e+00    4.735818e-01   2.731158e-02
  4.322547e+00    5.534147e-01   2.983692e-02
  4.324758e+00    4.805470e-01   2.809265e-02
  4.326968e+00    4.909084e-01   2.871327e-02
  4.329179e+00    5.274308e-01   3.009055e-02
  4.331389e+00    4.897356e-01   2.932970e-02
  4.333600e+00    4.546939e-01   2.859771e-02
  4.335810e+00    5.410527e-01   3.156720e-02
  4.338021e+00    4.616809e-01   2.953340e-02
  4.340231e+00    4.914214e-01   3.085153e-02
  4.342442e+00    4.338016e-01   2.937610e-02
  4.344652e+00    4.291799e-01   2.961603e-02
  4.346862e+00    3.768007e-01   2.813705e-02
  4.349073e+00    5.382497e-01   3.412025e-02
  4.351283e+00    4.764415e-01   3.258044e-02
  4.353494e+00    5.050205e-01   3.406177e-02
  4.355704e+00    5.367271e-01   3.567934e-02
  4.357915e+00    5.134780e-01   3.548056e-02
  4.360125e+00    4.804247e-01   3.490417e-02
  4.362336e+00    4.958010e-01   3.610525e-02
  4.364546e+00    3.230070e-01   2.967320e-02
  4.366757e+00    3.284827e-01   3.051760e-02
  4.368967e+00    3.073060e-01   3.010622e-02
  4.371177e+00    3.489423e-01   3.276474e-02
  4.373388e+00    4.703543e-01   3.888806e-02
  4.375598e+00    5.300753e-01   4.222737e-02
  4.377809e+00    4.309595e-01   3.903767e-02
  4.380019e+00    4.119647e-01   3.912763e-02
  4.382230e+00    4.152620e-01   4.037895e-02
  4.384440e+00    4.645236e-01   4.393978e-02
  4.386651e+00    2.285369e-01   3.176974e-02
  4.388861e+00    3.874190e-01   4.274892e-02
  4.391072e+00    2.709623e-01   3.700971e-02
  4.393282e+00    2.861499e-01   3.950021e-02
  4.395492e+00    6.072303e-01   5.993528e-02
  4.397703e+00    4.120663e-01   5.163082e-02
  4.399913e+00    3.494286e-01   4.995167e-02
  4.402124e+00    2.768347e-01   4.697836e-02
  4.404334e+00    5.705025e-01   7.169088e-02
  4.406545e+00    5.337806e-01   7.450314e-02
  4.408755e+00    4.432765e-01   7.363665e-02
  4.410966e+00    3.794803e-01   7.540943e-02
  4.413176e+00   -4.367704e-02            nan
  4.415387e+00   -9.398333e-01            nan
  4.417597e+00   -2.044852e+00            nan
  4.419807e+00   -3.766224e-01            nan
