# == pyFAI calibration ==
# Distance Sample to Detector: 0.216 m
# PONI: 1.166e-01, 1.308e-01 m
# Rotations: 0.000000 0.000000 0.000000 rad
# 
# == Fit2d calibration ==
# Distance Sample-beamCenter: 216.000 mm
# Center: x=1744.293, y=1555.000 pix
# Tilt: 0.000 deg  TiltPlanRot: 0.000 deg
# 
# Detector Eiger 9M	 PixelSize= 7.500e-05, 7.500e-05 m
#    Detector has a mask: True 
#    Detector has a dark current: False 
#    detector has a flat field: False 
# 
# Wavelength: 9.8e-11 m
# Mask applied: from detector
# Dark current applied: False
# Flat field applied: False
# Polarization factor: None
# Normalization factor: 1.0
# 
# Headers of the input frame:
# {
# "_array_data.header_convention": "SLS_1.0",
# "_array_data.header_contents": "# Detector: Dectris Eiger 9M, S/N E-18-0102\r\n# Pixel_size 75e-6 m x 75e-6 m\r\n# Silicon sensor, thickness 0.000450 m\r\n# Exposure_time 0.024997 s\r\n# Exposure_period 0.025000 s\r\n# Count_cutoff 62318 counts\r\n# Wavelength 0.980106 A\r\n# Detector_distance 0.215992 m\r\n# Beam_xy (1555, 1744) pixels\r\n# Start_angle 0.000000 deg.\r\n# Angle_increment 0.000000 deg.",
# "Content-Type": "application/octet-stream;",
# "conversions": "x-CBF_BYTE_OFFSET",
# "Content-Transfer-Encoding": "BINARY",
# "X-Binary-Size": "10166662",
# "X-Binary-ID": "1",
# "X-Binary-Element-Type": "signed 32-bit integer",
# "X-Binary-Element-Byte-Order": "LITTLE_ENDIAN",
# "Content-MD5": "P/ca21FCWLCsPLcxtgL/Yg==",
# "X-Binary-Number-of-Elements": "10166590",
# "X-Binary-Size-Fastest-Dimension": "3110",
# "X-Binary-Size-Second-Dimension": "3269",
# "X-Binary-Size-Padding": "4095"
# }
# --> H:/Proxima2a_2019-04-05/RAW_DATA/C5_gel17_position5/C5_mesh_1_data.cbf/C5_mesh_1_data.cbf000048.dat
#        q_A^-1              I           sigma 
  1.105228e-03    1.125925e+00   5.741714e-01
  3.315685e-03    2.345639e+00   5.038207e-01
  5.526141e-03    1.564298e+00   3.181500e-01
  7.736597e-03    1.182944e+00   2.337234e-01
  9.947054e-03    1.063865e+00   1.953978e-01
  1.215751e-02    1.228092e+00   1.898384e-01
  1.436797e-02    1.501371e+00   1.930722e-01
  1.657842e-02    1.377274e+00   1.721292e-01
  1.878888e-02    1.427666e+00   1.646178e-01
  2.099934e-02    1.553909e+00   1.624856e-01
  2.320979e-02    1.617955e+00   1.576943e-01
  2.542025e-02    1.639619e+00   1.516984e-01
  2.763070e-02    1.533781e+00   1.407252e-01
  2.984116e-02    1.451918e+00   1.317491e-01
  3.205162e-02    1.311790e+00   1.208421e-01
  3.426207e-02    1.378559e+00   1.198085e-01
  3.647253e-02    1.393748e+00   1.167567e-01
  3.868299e-02    1.411531e+00   1.141014e-01
  4.089344e-02    1.351521e+00   1.085906e-01
  4.310390e-02    1.414389e+00   1.081953e-01
  4.531436e-02    1.514695e+00   1.092015e-01
  4.752481e-02    1.540941e+00   1.075504e-01
  4.973527e-02    1.425342e+00   1.011140e-01
  5.194572e-02    1.327710e+00   9.548926e-02
  5.415618e-02    1.406379e+00   9.624759e-02
  5.636664e-02    1.432887e+00   9.522942e-02
  5.857709e-02    1.365293e+00   9.118585e-02
  6.078755e-02    1.601040e+00   9.693002e-02
  6.299801e-02    1.523046e+00   9.286523e-02
  6.520846e-02    1.395288e+00   8.736601e-02
  6.741892e-02    1.524205e+00   8.979902e-02
  6.962938e-02    1.458778e+00   8.644921e-02
  7.183983e-02    1.418039e+00   8.391047e-02
  7.405029e-02    1.356664e+00   8.083834e-02
  7.626074e-02    1.403255e+00   8.101372e-02
  7.847120e-02    1.334288e+00   7.787512e-02
  8.068166e-02    1.429281e+00   7.948718e-02
  8.289211e-02    1.417041e+00   7.808326e-02
  8.510257e-02    1.455790e+00   7.810856e-02
  8.731303e-02    1.557099e+00   7.974856e-02
  8.952348e-02    1.578088e+00   7.928904e-02
  9.173394e-02    1.435400e+00   7.469997e-02
  9.394439e-02    1.423707e+00   7.351223e-02
  9.615485e-02    1.459988e+00   7.358077e-02
  9.836531e-02    1.475023e+00   7.312094e-02
  1.005758e-01    1.496254e+00   7.283197e-02
  1.027862e-01    1.527872e+00   7.280000e-02
  1.049967e-01    1.442023e+00   6.997550e-02
  1.072071e-01    1.562173e+00   7.207677e-02
  1.094176e-01    1.511767e+00   7.018348e-02
  1.116280e-01    1.533720e+00   6.998624e-02
  1.138385e-01    1.569453e+00   7.010478e-02
  1.160490e-01    1.488898e+00   6.762768e-02
  1.182594e-01    1.537467e+00   6.807509e-02
  1.204699e-01    1.551613e+00   6.775670e-02
  1.226803e-01    1.536825e+00   6.682003e-02
  1.248908e-01    1.601513e+00   6.760467e-02
  1.271012e-01    1.638807e+00   6.778867e-02
  1.293117e-01    1.655980e+00   6.755716e-02
  1.315222e-01    1.588136e+00   6.559898e-02
  1.337326e-01    1.525161e+00   6.375048e-02
  1.359431e-01    1.536091e+00   6.401596e-02
  1.381535e-01    1.475036e+00   6.357288e-02
  1.403640e-01    1.421904e+00   6.268690e-02
  1.425744e-01    1.623145e+00   6.708316e-02
  1.447849e-01    1.628315e+00   6.720539e-02
  1.469953e-01    1.535883e+00   6.522918e-02
  1.492058e-01    1.646170e+00   6.745204e-02
  1.514163e-01    1.627050e+00   6.694787e-02
  1.536267e-01    1.544669e+00   6.510361e-02
  1.558372e-01    1.626703e+00   6.666251e-02
  1.580476e-01    1.551581e+00   6.494709e-02
  1.602581e-01    1.656418e+00   6.693492e-02
  1.624685e-01    1.782843e+00   6.925224e-02
  1.646790e-01    1.728445e+00   6.799176e-02
  1.668895e-01    1.779772e+00   6.879463e-02
  1.690999e-01    1.739144e+00   6.780069e-02
  1.713104e-01    1.658736e+00   6.600931e-02
  1.735208e-01    1.654864e+00   6.572716e-02
  1.757313e-01    1.782423e+00   6.799953e-02
  1.779417e-01    1.817231e+00   6.843636e-02
  1.801522e-01    1.882242e+00   6.942791e-02
  1.823626e-01    1.807099e+00   6.780151e-02
  1.845731e-01    1.795428e+00   6.736325e-02
  1.867836e-01    1.917573e+00   6.938202e-02
  1.889940e-01    1.931272e+00   6.940189e-02
  1.912045e-01    1.965299e+00   6.977682e-02
  1.934149e-01    1.973544e+00   6.968903e-02
  1.956254e-01    2.038115e+00   7.058630e-02
  1.978358e-01    1.974779e+00   6.924282e-02
  2.000463e-01    1.977535e+00   6.906145e-02
  2.022568e-01    2.052342e+00   7.012466e-02
  2.044672e-01    2.019476e+00   6.932262e-02
  2.066777e-01    1.963098e+00   6.812129e-02
  2.088881e-01    1.930676e+00   6.733536e-02
  2.110986e-01    1.894863e+00   6.647917e-02
  2.133090e-01    1.940497e+00   6.705620e-02
  2.155195e-01    1.979164e+00   6.749637e-02
  2.177300e-01    1.959036e+00   6.662472e-02
  2.199404e-01    1.940928e+00   6.456871e-02
  2.221509e-01    1.887058e+00   6.262089e-02
  2.243613e-01    1.970266e+00   6.317542e-02
  2.265718e-01    1.948488e+00   6.213285e-02
  2.287822e-01    2.051344e+00   6.312066e-02
  2.309927e-01    2.086954e+00   6.308619e-02
  2.332031e-01    2.151293e+00   6.350306e-02
  2.354136e-01    2.117942e+00   6.249823e-02
  2.376241e-01    2.084109e+00   6.151581e-02
  2.398345e-01    2.147215e+00   6.197809e-02
  2.420450e-01    2.187294e+00   6.210678e-02
  2.442554e-01    2.176941e+00   6.153280e-02
  2.464659e-01    2.143686e+00   6.065105e-02
  2.486763e-01    2.144991e+00   6.027069e-02
  2.508868e-01    2.158320e+00   6.007629e-02
  2.530973e-01    2.116550e+00   5.912328e-02
  2.553077e-01    2.033250e+00   5.759667e-02
  2.575182e-01    2.016084e+00   5.701367e-02
  2.597286e-01    2.060813e+00   5.730758e-02
  2.619391e-01    2.083246e+00   5.728692e-02
  2.641495e-01    2.022253e+00   5.612970e-02
  2.663600e-01    2.045706e+00   5.614377e-02
  2.685704e-01    2.068610e+00   5.615116e-02
  2.707809e-01    2.068630e+00   5.585338e-02
  2.729914e-01    2.035768e+00   5.511923e-02
  2.752018e-01    1.943739e+00   5.357863e-02
  2.774123e-01    1.957146e+00   5.348846e-02
  2.796227e-01    2.007108e+00   5.389893e-02
  2.818332e-01    2.019426e+00   5.379438e-02
  2.840436e-01    1.988996e+00   5.312877e-02
  2.862541e-01    1.961652e+00   5.250864e-02
  2.884646e-01    2.007475e+00   5.286631e-02
  2.906750e-01    2.012546e+00   5.268205e-02
  2.928855e-01    2.020556e+00   5.254222e-02
  2.950959e-01    1.983051e+00   5.181318e-02
  2.973064e-01    1.935502e+00   5.095818e-02
  2.995168e-01    1.908023e+00   5.036599e-02
  3.017273e-01    1.941185e+00   5.057781e-02
  3.039377e-01    1.920087e+00   5.008197e-02
  3.061482e-01    1.846281e+00   4.889752e-02
  3.083587e-01    1.899043e+00   4.937661e-02
  3.105691e-01    1.919862e+00   4.943450e-02
  3.127796e-01    1.881318e+00   4.873001e-02
  3.149900e-01    1.946271e+00   4.935756e-02
  3.172005e-01    1.975589e+00   4.952460e-02
  3.194109e-01    1.948644e+00   4.898265e-02
  3.216214e-01    1.919040e+00   4.841083e-02
  3.238319e-01    1.830284e+00   4.709074e-02
  3.260423e-01    1.854112e+00   4.720749e-02
  3.282528e-01    1.889537e+00   4.746662e-02
  3.304632e-01    1.827551e+00   4.650072e-02
  3.326737e-01    1.843876e+00   4.652569e-02
  3.348841e-01    1.847861e+00   4.639533e-02
  3.370946e-01    1.821181e+00   4.588590e-02
  3.393050e-01    1.806746e+00   4.553055e-02
  3.415155e-01    1.868082e+00   4.612287e-02
  3.437260e-01    1.829653e+00   4.547684e-02
  3.459364e-01    1.762054e+00   4.446371e-02
  3.481469e-01    1.876404e+00   4.571630e-02
  3.503573e-01    1.890767e+00   4.572379e-02
  3.525678e-01    1.825008e+00   4.476155e-02
  3.547782e-01    1.802558e+00   4.432459e-02
  3.569887e-01    1.804693e+00   4.419367e-02
  3.591992e-01    1.806635e+00   4.406101e-02
  3.614096e-01    1.746321e+00   4.316907e-02
  3.636201e-01    1.790910e+00   4.356309e-02
  3.658305e-01    1.803709e+00   4.356937e-02
  3.680410e-01    1.784104e+00   4.318289e-02
  3.702514e-01    1.792523e+00   4.313909e-02
  3.724619e-01    1.823554e+00   4.336271e-02
  3.746724e-01    1.787069e+00   4.278353e-02
  3.768828e-01    1.733425e+00   4.199470e-02
  3.790933e-01    1.817324e+00   4.285883e-02
  3.813037e-01    1.860055e+00   4.321796e-02
  3.835142e-01    1.747914e+00   4.175731e-02
  3.857246e-01    1.760932e+00   4.177688e-02
  3.879351e-01    1.848211e+00   4.266112e-02
  3.901455e-01    1.821847e+00   4.222095e-02
  3.923560e-01    1.801697e+00   4.185336e-02
  3.945665e-01    1.742266e+00   4.102675e-02
  3.967769e-01    1.822652e+00   4.183112e-02
  3.989874e-01    1.791808e+00   4.134618e-02
  4.011978e-01    1.818460e+00   4.152443e-02
  4.034083e-01    1.800148e+00   4.118801e-02
  4.056187e-01    1.770864e+00   4.072578e-02
  4.078292e-01    1.743154e+00   4.028358e-02
  4.100397e-01    1.812611e+00   4.095289e-02
  4.122501e-01    1.749608e+00   4.011451e-02
  4.144606e-01    1.799795e+00   4.056511e-02
  4.166710e-01    1.802579e+00   4.047579e-02
  4.188815e-01    1.817270e+00   4.052031e-02
  4.210919e-01    1.848659e+00   4.074902e-02
  4.233024e-01    1.778812e+00   3.985424e-02
  4.255128e-01    1.801975e+00   3.999691e-02
  4.277233e-01    1.797257e+00   3.982976e-02
  4.299338e-01    1.741835e+00   3.909802e-02
  4.321442e-01    1.768025e+00   3.927813e-02
  4.343547e-01    1.774304e+00   3.923656e-02
  4.365651e-01    1.727837e+00   3.860936e-02
  4.387756e-01    1.771679e+00   3.898664e-02
  4.409860e-01    1.763043e+00   3.878378e-02
  4.431965e-01    1.732068e+00   3.833527e-02
  4.454070e-01    1.717402e+00   3.806641e-02
  4.476174e-01    1.743493e+00   3.824917e-02
  4.498279e-01    1.745031e+00   3.816194e-02
  4.520383e-01    1.667920e+00   3.720685e-02
  4.542488e-01    1.708231e+00   3.755223e-02
  4.564592e-01    1.727671e+00   3.766401e-02
  4.586697e-01    1.678251e+00   3.702287e-02
  4.608801e-01    1.712189e+00   3.729518e-02
  4.630906e-01    1.765682e+00   3.777301e-02
  4.653011e-01    1.750302e+00   3.750925e-02
  4.675115e-01    1.710294e+00   3.698043e-02
  4.697220e-01    1.666283e+00   3.640595e-02
  4.719324e-01    1.702196e+00   3.670100e-02
  4.741429e-01    1.678635e+00   3.635221e-02
  4.763533e-01    1.678110e+00   3.625335e-02
  4.785638e-01    1.716138e+00   3.656710e-02
  4.807743e-01    1.732210e+00   3.664451e-02
  4.829847e-01    1.743598e+00   3.667189e-02
  4.851952e-01    1.733027e+00   3.646804e-02
  4.874056e-01    1.694956e+00   3.597433e-02
  4.896161e-01    1.686062e+00   3.579082e-02
  4.918265e-01    1.683740e+00   3.567736e-02
  4.940370e-01    1.694599e+00   3.570385e-02
  4.962475e-01    1.695336e+00   3.562343e-02
  4.984579e-01    1.626183e+00   3.480333e-02
  5.006684e-01    1.674672e+00   3.523229e-02
  5.028788e-01    1.716756e+00   3.558578e-02
  5.050893e-01    1.723996e+00   3.557403e-02
  5.072997e-01    1.666559e+00   3.489193e-02
  5.095102e-01    1.677814e+00   3.492570e-02
  5.117206e-01    1.678268e+00   3.484737e-02
  5.139311e-01    1.631681e+00   3.427899e-02
  5.161416e-01    1.632301e+00   3.420446e-02
  5.183520e-01    1.670373e+00   3.451884e-02
  5.205625e-01    1.668107e+00   3.441460e-02
  5.227729e-01    1.640793e+00   3.405208e-02
  5.249834e-01    1.704448e+00   3.462575e-02
  5.271938e-01    1.687743e+00   3.437527e-02
  5.294043e-01    1.692963e+00   3.434892e-02
  5.316148e-01    1.753758e+00   3.488015e-02
  5.338252e-01    1.778172e+00   3.504182e-02
  5.360357e-01    1.824427e+00   3.541387e-02
  5.382461e-01    1.756685e+00   3.467165e-02
  5.404566e-01    1.730524e+00   3.433417e-02
  5.426670e-01    1.716494e+00   3.411767e-02
  5.448775e-01    1.765195e+00   3.452096e-02
  5.470879e-01    1.787024e+00   3.465633e-02
  5.492984e-01    1.768805e+00   3.440253e-02
  5.515089e-01    1.790578e+00   3.453685e-02
  5.537193e-01    1.818207e+00   3.472562e-02
  5.559298e-01    1.812751e+00   3.459742e-02
  5.581402e-01    1.785283e+00   3.425928e-02
  5.603507e-01    1.768284e+00   3.402159e-02
  5.625611e-01    1.814384e+00   3.438740e-02
  5.647716e-01    1.834132e+00   3.449900e-02
  5.669821e-01    1.820096e+00   3.429263e-02
  5.691925e-01    1.771252e+00   3.375677e-02
  5.714030e-01    1.764669e+00   3.362212e-02
  5.736134e-01    1.750172e+00   3.341253e-02
  5.758239e-01    1.718116e+00   3.303447e-02
  5.780343e-01    1.687459e+00   3.266915e-02
  5.802448e-01    1.687745e+00   3.260353e-02
  5.824552e-01    1.679577e+00   3.245630e-02
  5.846657e-01    1.663187e+00   3.223022e-02
  5.868762e-01    1.633157e+00   3.187144e-02
  5.890866e-01    1.616300e+00   3.164074e-02
  5.912971e-01    1.640932e+00   3.181491e-02
  5.935075e-01    1.659844e+00   3.193160e-02
  5.957180e-01    1.644735e+00   3.172074e-02
  5.979284e-01    1.589540e+00   3.112028e-02
  6.001389e-01    1.595618e+00   3.111621e-02
  6.023494e-01    1.656105e+00   3.163614e-02
  6.045598e-01    1.657910e+00   3.158895e-02
  6.067703e-01    1.672376e+00   3.166264e-02
  6.089807e-01    1.709932e+00   3.195183e-02
  6.111912e-01    1.722695e+00   3.200682e-02
  6.134016e-01    1.706456e+00   3.179207e-02
  6.156121e-01    1.665121e+00   3.134224e-02
  6.178226e-01    1.694157e+00   3.155173e-02
  6.200330e-01    1.672640e+00   3.128890e-02
  6.222435e-01    1.691310e+00   3.140070e-02
  6.244539e-01    1.634996e+00   3.081308e-02
  6.266644e-01    1.654012e+00   3.093126e-02
  6.288748e-01    1.690118e+00   3.120621e-02
  6.310853e-01    1.729322e+00   3.150476e-02
  6.332957e-01    1.752595e+00   3.165483e-02
  6.355062e-01    1.729177e+00   3.138154e-02
  6.377167e-01    1.693244e+00   3.099420e-02
  6.399271e-01    1.673335e+00   3.075240e-02
  6.421376e-01    1.697768e+00   3.091696e-02
  6.443480e-01    1.695027e+00   3.083325e-02
  6.465585e-01    1.698545e+00   3.080674e-02
  6.487689e-01    1.711404e+00   3.086474e-02
  6.509794e-01    1.713096e+00   3.082175e-02
  6.531899e-01    1.706775e+00   3.070701e-02
  6.554003e-01    1.591757e+00   2.959854e-02
  6.576108e-01    1.593387e+00   2.955855e-02
  6.598212e-01    1.566426e+00   2.925295e-02
  6.620317e-01    1.597502e+00   2.948693e-02
  6.642421e-01    1.640603e+00   2.982678e-02
  6.664526e-01    1.597809e+00   2.938100e-02
  6.686630e-01    1.563366e+00   2.900886e-02
  6.708735e-01    1.553839e+00   2.886728e-02
  6.730840e-01    1.560873e+00   2.887979e-02
  6.752944e-01    1.596701e+00   2.915624e-02
  6.775049e-01    1.638539e+00   2.948213e-02
  6.797153e-01    1.606907e+00   2.914331e-02
  6.819258e-01    1.611596e+00   2.913316e-02
  6.841362e-01    1.644439e+00   2.937558e-02
  6.863467e-01    1.577227e+00   2.871750e-02
  6.885572e-01    1.576587e+00   2.866018e-02
  6.907676e-01    1.627429e+00   2.906649e-02
  6.929781e-01    1.570262e+00   2.850066e-02
  6.951885e-01    1.623269e+00   2.892638e-02
  6.973990e-01    1.585810e+00   2.854014e-02
  6.996094e-01    1.583320e+00   2.846754e-02
  7.018199e-01    1.556239e+00   2.817351e-02
  7.040303e-01    1.604143e+00   2.855358e-02
  7.062408e-01    1.581112e+00   2.829823e-02
  7.084513e-01    1.612907e+00   2.853160e-02
  7.106617e-01    1.592509e+00   2.830137e-02
  7.128722e-01    1.599666e+00   2.831582e-02
  7.150826e-01    1.595789e+00   2.823273e-02
  7.172931e-01    1.572361e+00   2.797642e-02
  7.195035e-01    1.585276e+00   2.804278e-02
  7.217140e-01    1.555081e+00   2.782358e-02
  7.239245e-01    1.505523e+00   2.759834e-02
  7.261349e-01    1.553770e+00   2.814494e-02
  7.283454e-01    1.572084e+00   2.838270e-02
  7.305558e-01    1.540011e+00   2.814506e-02
  7.327663e-01    1.577239e+00   2.852575e-02
  7.349767e-01    1.543128e+00   2.823181e-02
  7.371872e-01    1.556640e+00   2.834401e-02
  7.393976e-01    1.573981e+00   2.848720e-02
  7.416081e-01    1.586967e+00   2.858824e-02
  7.438186e-01    1.540735e+00   2.802600e-02
  7.460290e-01    1.547601e+00   2.779666e-02
  7.482395e-01    1.582319e+00   2.793513e-02
  7.504499e-01    1.585597e+00   2.782732e-02
  7.526604e-01    1.555248e+00   2.744388e-02
  7.548708e-01    1.568959e+00   2.747532e-02
  7.570813e-01    1.569759e+00   2.743146e-02
  7.592918e-01    1.551645e+00   2.723778e-02
  7.615022e-01    1.581484e+00   2.746458e-02
  7.637127e-01    1.568546e+00   2.731928e-02
  7.659231e-01    1.572291e+00   2.731990e-02
  7.681336e-01    1.538650e+00   2.699482e-02
  7.703440e-01    1.556738e+00   2.712196e-02
  7.725545e-01    1.589755e+00   2.737704e-02
  7.747650e-01    1.605813e+00   2.747640e-02
  7.769754e-01    1.578020e+00   2.718483e-02
  7.791859e-01    1.577337e+00   2.712544e-02
  7.813963e-01    1.578389e+00   2.708189e-02
  7.836068e-01    1.546654e+00   2.675690e-02
  7.858172e-01    1.564784e+00   2.686290e-02
  7.880277e-01    1.643920e+00   2.748146e-02
  7.902381e-01    1.629858e+00   2.731394e-02
  7.924486e-01    1.644201e+00   2.738305e-02
  7.946591e-01    1.626962e+00   2.719043e-02
  7.968695e-01    1.600930e+00   2.692377e-02
  7.990800e-01    1.633077e+00   2.714411e-02
  8.012904e-01    1.706325e+00   2.769819e-02
  8.035009e-01    1.718311e+00   2.774587e-02
  8.057113e-01    1.691230e+00   2.747877e-02
  8.079218e-01    1.655211e+00   2.713764e-02
  8.101323e-01    1.703215e+00   2.748161e-02
  8.123427e-01    1.693463e+00   2.735611e-02
  8.145532e-01    1.709112e+00   2.743518e-02
  8.167636e-01    1.765433e+00   2.783668e-02
  8.189741e-01    1.742355e+00   2.760805e-02
  8.211845e-01    1.747533e+00   2.760268e-02
  8.233950e-01    1.889774e+00   2.865737e-02
  8.256054e-01    1.906250e+00   2.873439e-02
  8.278159e-01    1.763604e+00   2.759278e-02
  8.300264e-01    1.638132e+00   2.655001e-02
  8.322368e-01    1.610318e+00   2.628089e-02
  8.344473e-01    1.619489e+00   2.631248e-02
  8.366577e-01    1.631014e+00   2.636348e-02
  8.388682e-01    1.653812e+00   2.650465e-02
  8.410786e-01    1.649908e+00   2.643116e-02
  8.432891e-01    1.656767e+00   2.644396e-02
  8.454996e-01    1.690660e+00   2.667081e-02
  8.477100e-01    1.645655e+00   2.627168e-02
  8.499205e-01    1.644542e+00   2.622153e-02
  8.521309e-01    1.632851e+00   2.608743e-02
  8.543414e-01    1.624104e+00   2.597686e-02
  8.565518e-01    1.639644e+00   2.606021e-02
  8.587623e-01    1.627958e+00   2.592675e-02
  8.609727e-01    1.667718e+00   2.620074e-02
  8.631832e-01    1.711043e+00   2.649798e-02
  8.653937e-01    1.681644e+00   2.622901e-02
  8.676041e-01    1.630679e+00   2.578951e-02
  8.698146e-01    1.670470e+00   2.606234e-02
  8.720250e-01    1.737804e+00   2.654191e-02
  8.742355e-01    1.753490e+00   2.662086e-02
  8.764459e-01    1.666531e+00   2.591281e-02
  8.786564e-01    1.619519e+00   2.550660e-02
  8.808669e-01    1.642543e+00   2.564831e-02
  8.830773e-01    1.637283e+00   2.556867e-02
  8.852878e-01    1.628515e+00   2.546187e-02
  8.874982e-01    1.615863e+00   2.532599e-02
  8.897087e-01    1.583948e+00   2.503714e-02
  8.919191e-01    1.564241e+00   2.484356e-02
  8.941296e-01    1.592499e+00   2.502977e-02
  8.963401e-01    1.569311e+00   2.481081e-02
  8.985505e-01    1.588436e+00   2.492469e-02
  9.007610e-01    1.571444e+00   2.475463e-02
  9.029714e-01    1.544073e+00   2.450288e-02
  9.051819e-01    1.557990e+00   2.457633e-02
  9.073923e-01    1.596140e+00   2.483886e-02
  9.096028e-01    1.618150e+00   2.497443e-02
  9.118132e-01    1.608442e+00   2.486308e-02
  9.140237e-01    1.586424e+00   2.465586e-02
  9.162342e-01    1.597177e+00   2.470474e-02
  9.184446e-01    1.600034e+00   2.469109e-02
  9.206551e-01    1.581913e+00   2.451546e-02
  9.228655e-01    1.602306e+00   2.463773e-02
  9.250760e-01    1.584199e+00   2.446295e-02
  9.272864e-01    1.570644e+00   2.432416e-02
  9.294969e-01    1.603342e+00   2.454022e-02
  9.317074e-01    1.588270e+00   2.439010e-02
  9.339178e-01    1.570427e+00   2.421957e-02
  9.361283e-01    1.634203e+00   2.467003e-02
  9.383387e-01    1.670622e+00   2.490951e-02
  9.405492e-01    1.657624e+00   2.477776e-02
  9.427596e-01    1.662491e+00   2.477840e-02
  9.449701e-01    1.637538e+00   2.455832e-02
  9.471805e-01    1.629521e+00   2.446342e-02
  9.493910e-01    1.689881e+00   2.487819e-02
  9.516015e-01    1.665694e+00   2.466504e-02
  9.538119e-01    1.675021e+00   2.470009e-02
  9.560224e-01    1.716578e+00   2.496942e-02
  9.582328e-01    1.704783e+00   2.485013e-02
  9.604433e-01    1.713510e+00   2.487835e-02
  9.626537e-01    1.733536e+00   2.498967e-02
  9.648642e-01    1.741486e+00   2.501260e-02
  9.670747e-01    1.752623e+00   2.505785e-02
  9.692851e-01    1.744471e+00   2.496627e-02
  9.714956e-01    1.791647e+00   2.526593e-02
  9.737060e-01    1.788640e+00   2.521156e-02
  9.759165e-01    1.800483e+00   2.525921e-02
  9.781269e-01    1.817565e+00   2.534558e-02
  9.803374e-01    1.800609e+00   2.519216e-02
  9.825478e-01    1.782639e+00   2.503308e-02
  9.847583e-01    1.774871e+00   2.494456e-02
  9.869688e-01    1.757065e+00   2.478589e-02
  9.891792e-01    1.734821e+00   2.459578e-02
  9.913897e-01    1.739325e+00   2.459443e-02
  9.936001e-01    1.762016e+00   2.472194e-02
  9.958106e-01    1.891407e+00   2.557873e-02
  9.980210e-01    1.828844e+00   2.511955e-02
  1.000231e+00    1.699000e+00   2.434406e-02
  1.002442e+00    1.626284e+00   2.394394e-02
  1.004652e+00    1.604811e+00   2.385168e-02
  1.006863e+00    1.617106e+00   2.399255e-02
  1.009073e+00    1.564951e+00   2.363861e-02
  1.011284e+00    1.575189e+00   2.374750e-02
  1.013494e+00    1.583850e+00   2.383631e-02
  1.015705e+00    1.601256e+00   2.398959e-02
  1.017915e+00    1.545631e+00   2.358548e-02
  1.020126e+00    1.553339e+00   2.366017e-02
  1.022336e+00    1.528641e+00   2.348292e-02
  1.024547e+00    1.493317e+00   2.322100e-02
  1.026757e+00    1.500157e+00   2.328236e-02
  1.028967e+00    1.510316e+00   2.336865e-02
  1.031178e+00    1.498918e+00   2.328641e-02
  1.033388e+00    1.502996e+00   2.332305e-02
  1.035599e+00    1.574767e+00   2.387689e-02
  1.037809e+00    1.588836e+00   2.398665e-02
  1.040020e+00    1.567086e+00   2.382321e-02
  1.042230e+00    1.529152e+00   2.353503e-02
  1.044441e+00    1.506095e+00   2.335671e-02
  1.046651e+00    1.545354e+00   2.365931e-02
  1.048862e+00    1.598087e+00   2.405880e-02
  1.051072e+00    1.595600e+00   2.403765e-02
  1.053282e+00    1.661588e+00   2.452864e-02
  1.055493e+00    1.731337e+00   2.503355e-02
  1.057703e+00    1.762646e+00   2.525725e-02
  1.059914e+00    1.841583e+00   2.581184e-02
  1.062124e+00    1.862488e+00   2.595346e-02
  1.064335e+00    1.683817e+00   2.467357e-02
  1.066545e+00    1.542574e+00   2.360992e-02
  1.068756e+00    1.503577e+00   2.330579e-02
  1.070966e+00    1.491271e+00   2.320366e-02
  1.073177e+00    1.467842e+00   2.301461e-02
  1.075387e+00    1.468863e+00   2.301740e-02
  1.077597e+00    1.434228e+00   2.273725e-02
  1.079808e+00    1.420242e+00   2.249535e-02
  1.082018e+00    1.450846e+00   2.254815e-02
  1.084229e+00    1.486134e+00   2.270970e-02
  1.086439e+00    1.494187e+00   2.268256e-02
  1.088650e+00    1.515829e+00   2.276896e-02
  1.090860e+00    1.584048e+00   2.320510e-02
  1.093071e+00    1.602505e+00   2.327457e-02
  1.095281e+00    1.513574e+00   2.256099e-02
  1.097492e+00    1.434934e+00   2.191234e-02
  1.099702e+00    1.437953e+00   2.188402e-02
  1.101912e+00    1.425432e+00   2.173994e-02
  1.104123e+00    1.373907e+00   2.129623e-02
  1.106333e+00    1.387328e+00   2.135627e-02
  1.108544e+00    1.416757e+00   2.153754e-02
  1.110754e+00    1.409404e+00   2.143883e-02
  1.112965e+00    1.367747e+00   2.107987e-02
  1.115175e+00    1.386252e+00   2.118129e-02
  1.117386e+00    1.376133e+00   2.106514e-02
  1.119596e+00    1.379231e+00   2.105139e-02
  1.121807e+00    1.399125e+00   2.116401e-02
  1.124017e+00    1.396481e+00   2.110748e-02
  1.126228e+00    1.388629e+00   2.101251e-02
  1.128438e+00    1.469026e+00   2.157457e-02
  1.130648e+00    1.477188e+00   2.159919e-02
  1.132859e+00    1.430660e+00   2.122153e-02
  1.135069e+00    1.447871e+00   2.131337e-02
  1.137280e+00    1.423785e+00   2.110198e-02
  1.139490e+00    1.400443e+00   2.089504e-02
  1.141701e+00    1.377802e+00   2.069242e-02
  1.143911e+00    1.368908e+00   2.059383e-02
  1.146122e+00    1.377349e+00   2.062523e-02
  1.148332e+00    1.383126e+00   2.063655e-02
  1.150543e+00    1.348941e+00   2.034941e-02
  1.152753e+00    1.349149e+00   2.032044e-02
  1.154963e+00    1.387626e+00   2.057694e-02
  1.157174e+00    1.438163e+00   2.091745e-02
  1.159384e+00    1.439795e+00   2.089873e-02
  1.161595e+00    1.464469e+00   2.104619e-02
  1.163805e+00    1.465984e+00   2.102680e-02
  1.166016e+00    1.448807e+00   2.087298e-02
  1.168226e+00    1.411079e+00   2.056997e-02
  1.170437e+00    1.393319e+00   2.041121e-02
  1.172647e+00    1.371521e+00   2.022195e-02
  1.174858e+00    1.392375e+00   2.034670e-02
  1.177068e+00    1.498702e+00   2.107964e-02
  1.179278e+00    1.804362e+00   2.309657e-02
  1.181489e+00    2.216209e+00   2.556272e-02
  1.183699e+00    2.084669e+00   2.475853e-02
  1.185910e+00    1.649331e+00   2.199155e-02
  1.188120e+00    1.464413e+00   2.069431e-02
  1.190331e+00    1.412001e+00   2.029327e-02
  1.192541e+00    1.364562e+00   1.992199e-02
  1.194752e+00    1.364356e+00   1.989330e-02
  1.196962e+00    1.357033e+00   1.981406e-02
  1.199173e+00    1.332075e+00   1.960468e-02
  1.201383e+00    1.323648e+00   1.951568e-02
  1.203593e+00    1.338061e+00   1.959693e-02
  1.205804e+00    1.343532e+00   1.961110e-02
  1.208014e+00    1.348291e+00   1.961896e-02
  1.210225e+00    1.352678e+00   1.962550e-02
  1.212435e+00    1.377326e+00   1.977846e-02
  1.214646e+00    1.375531e+00   1.973922e-02
  1.216856e+00    1.399749e+00   1.988628e-02
  1.219067e+00    1.391922e+00   1.980578e-02
  1.221277e+00    1.343689e+00   1.943463e-02
  1.223488e+00    1.344534e+00   1.941503e-02
  1.225698e+00    1.369102e+00   1.956451e-02
  1.227909e+00    1.355082e+00   1.943387e-02
  1.230119e+00    1.387854e+00   1.963515e-02
  1.232329e+00    1.389639e+00   1.961662e-02
  1.234540e+00    1.379740e+00   1.951602e-02
  1.236750e+00    1.356270e+00   1.931897e-02
  1.238961e+00    1.354296e+00   1.927790e-02
  1.241171e+00    1.354115e+00   1.925237e-02
  1.243382e+00    1.354716e+00   1.923310e-02
  1.245592e+00    1.379088e+00   1.938098e-02
  1.247803e+00    1.371591e+00   1.930438e-02
  1.250013e+00    1.360248e+00   1.920079e-02
  1.252224e+00    1.309180e+00   1.881399e-02
  1.254434e+00    1.338140e+00   1.899731e-02
  1.256644e+00    1.347721e+00   1.904201e-02
  1.258855e+00    1.348861e+00   1.902681e-02
  1.261065e+00    1.334628e+00   1.890291e-02
  1.263276e+00    1.329009e+00   1.884032e-02
  1.265486e+00    1.341994e+00   1.890932e-02
  1.267697e+00    1.322815e+00   1.875094e-02
  1.269907e+00    1.328215e+00   1.876664e-02
  1.272118e+00    1.344611e+00   1.885960e-02
  1.274328e+00    1.341257e+00   1.881340e-02
  1.276539e+00    1.378006e+00   1.904638e-02
  1.278749e+00    1.362336e+00   1.891538e-02
  1.280959e+00    1.364173e+00   1.890549e-02
  1.283170e+00    1.370705e+00   1.892808e-02
  1.285380e+00    1.375105e+00   1.893578e-02
  1.287591e+00    1.340546e+00   1.867439e-02
  1.289801e+00    1.314128e+00   1.846849e-02
  1.292012e+00    1.326269e+00   1.853669e-02
  1.294222e+00    1.341560e+00   1.862704e-02
  1.296433e+00    1.334732e+00   1.856407e-02
  1.298643e+00    1.377484e+00   1.884239e-02
  1.300854e+00    1.370972e+00   1.878127e-02
  1.303064e+00    1.357534e+00   1.866971e-02
  1.305274e+00    1.344840e+00   1.856084e-02
  1.307485e+00    1.343659e+00   1.853115e-02
  1.309695e+00    1.363971e+00   1.864837e-02
  1.311906e+00    1.365687e+00   1.863826e-02
  1.314116e+00    1.380087e+00   1.871523e-02
  1.316327e+00    1.379502e+00   1.868936e-02
  1.318537e+00    1.363273e+00   1.855710e-02
  1.320748e+00    1.348089e+00   1.843193e-02
  1.322958e+00    1.351005e+00   1.843132e-02
  1.325169e+00    1.362059e+00   1.848545e-02
  1.327379e+00    1.362952e+00   1.846960e-02
  1.329589e+00    1.369009e+00   1.848938e-02
  1.331800e+00    1.380769e+00   1.854769e-02
  1.334010e+00    1.386871e+00   1.856770e-02
  1.336221e+00    1.400113e+00   1.863398e-02
  1.338431e+00    1.373924e+00   1.843784e-02
  1.340642e+00    1.355568e+00   1.837855e-02
  1.342852e+00    1.376608e+00   1.862228e-02
  1.345063e+00    1.366453e+00   1.860327e-02
  1.347273e+00    1.367482e+00   1.864573e-02
  1.349484e+00    1.408573e+00   1.895205e-02
  1.351694e+00    1.414588e+00   1.901575e-02
  1.353905e+00    1.434402e+00   1.916700e-02
  1.356115e+00    1.399280e+00   1.894622e-02
  1.358325e+00    1.377578e+00   1.881217e-02
  1.360536e+00    1.356637e+00   1.868029e-02
  1.362746e+00    1.343718e+00   1.860067e-02
  1.364957e+00    1.347204e+00   1.863246e-02
  1.367167e+00    1.330711e+00   1.852514e-02
  1.369378e+00    1.325411e+00   1.849419e-02
  1.371588e+00    1.311283e+00   1.840044e-02
  1.373799e+00    1.321306e+00   1.847425e-02
  1.376009e+00    1.355944e+00   1.871825e-02
  1.378220e+00    1.359192e+00   1.874323e-02
  1.380430e+00    1.310338e+00   1.840598e-02
  1.382640e+00    1.306489e+00   1.837983e-02
  1.384851e+00    1.304453e+00   1.836636e-02
  1.387061e+00    1.301348e+00   1.834479e-02
  1.389272e+00    1.305159e+00   1.837184e-02
  1.391482e+00    1.315130e+00   1.844120e-02
  1.393693e+00    1.322639e+00   1.849288e-02
  1.395903e+00    1.336782e+00   1.858998e-02
  1.398114e+00    1.332595e+00   1.855943e-02
  1.400324e+00    1.316596e+00   1.844554e-02
  1.402535e+00    1.282822e+00   1.820509e-02
  1.404745e+00    1.277738e+00   1.816661e-02
  1.406955e+00    1.282702e+00   1.819916e-02
  1.409166e+00    1.274572e+00   1.813807e-02
  1.411376e+00    1.306409e+00   1.836003e-02
  1.413587e+00    1.322272e+00   1.846730e-02
  1.415797e+00    1.331448e+00   1.852762e-02
  1.418008e+00    1.359218e+00   1.867655e-02
  1.420218e+00    1.305532e+00   1.815218e-02
  1.422429e+00    1.311374e+00   1.810604e-02
  1.424639e+00    1.310181e+00   1.803212e-02
  1.426850e+00    1.300973e+00   1.791327e-02
  1.429060e+00    1.284099e+00   1.774747e-02
  1.431270e+00    1.288487e+00   1.773312e-02
  1.433481e+00    1.282961e+00   1.765390e-02
  1.435691e+00    1.277085e+00   1.757490e-02
  1.437902e+00    1.266943e+00   1.746855e-02
  1.440112e+00    1.260483e+00   1.738874e-02
  1.442323e+00    1.247316e+00   1.726492e-02
  1.444533e+00    1.259673e+00   1.731782e-02
  1.446744e+00    1.284615e+00   1.745712e-02
  1.448954e+00    1.273068e+00   1.734826e-02
  1.451165e+00    1.265846e+00   1.726929e-02
  1.453375e+00    1.252001e+00   1.714672e-02
  1.455586e+00    1.292513e+00   1.739351e-02
  1.457796e+00    1.280282e+00   1.728342e-02
  1.460006e+00    1.257907e+00   1.710460e-02
  1.462217e+00    1.239073e+00   1.695016e-02
  1.464427e+00    1.241515e+00   1.694153e-02
  1.466638e+00    1.282318e+00   1.719221e-02
  1.468848e+00    1.291351e+00   1.722712e-02
  1.471059e+00    1.284569e+00   1.715659e-02
  1.473269e+00    1.262193e+00   1.698219e-02
  1.475480e+00    1.261078e+00   1.695099e-02
  1.477690e+00    1.270249e+00   1.698866e-02
  1.479901e+00    1.241863e+00   1.677419e-02
  1.482111e+00    1.241889e+00   1.675125e-02
  1.484321e+00    1.257856e+00   1.683557e-02
  1.486532e+00    1.272066e+00   1.690801e-02
  1.488742e+00    1.294517e+00   1.703365e-02
  1.490953e+00    1.302850e+00   1.706545e-02
  1.493163e+00    1.268922e+00   1.681947e-02
  1.495374e+00    1.259487e+00   1.673533e-02
  1.497584e+00    1.270950e+00   1.678961e-02
  1.499795e+00    1.245642e+00   1.660007e-02
  1.502005e+00    1.275895e+00   1.677861e-02
  1.504216e+00    1.303678e+00   1.693891e-02
  1.506426e+00    1.337272e+00   1.713430e-02
  1.508636e+00    1.389247e+00   1.744262e-02
  1.510847e+00    1.365125e+00   1.726782e-02
  1.513057e+00    1.291334e+00   1.676918e-02
  1.515268e+00    1.256836e+00   1.651793e-02
  1.517478e+00    1.248788e+00   1.643985e-02
  1.519689e+00    1.246742e+00   1.640149e-02
  1.521899e+00    1.247607e+00   1.638412e-02
  1.524110e+00    1.250326e+00   1.638167e-02
  1.526320e+00    1.246334e+00   1.633593e-02
  1.528531e+00    1.270535e+00   1.647387e-02
  1.530741e+00    1.253687e+00   1.634511e-02
  1.532951e+00    1.244363e+00   1.626465e-02
  1.535162e+00    1.262714e+00   1.647121e-02
  1.537372e+00    1.247487e+00   1.643847e-02
  1.539583e+00    1.225511e+00   1.632695e-02
  1.541793e+00    1.232655e+00   1.638136e-02
  1.544004e+00    1.234858e+00   1.639625e-02
  1.546214e+00    1.253336e+00   1.651696e-02
  1.548425e+00    1.238565e+00   1.641961e-02
  1.550635e+00    1.242338e+00   1.645426e-02
  1.552846e+00    1.214452e+00   1.627810e-02
  1.555056e+00    1.210988e+00   1.621393e-02
  1.557266e+00    1.226928e+00   1.621062e-02
  1.559477e+00    1.231708e+00   1.618336e-02
  1.561687e+00    1.263965e+00   1.636298e-02
  1.563898e+00    1.272317e+00   1.639962e-02
  1.566108e+00    1.265363e+00   1.633866e-02
  1.568319e+00    1.239670e+00   1.615633e-02
  1.570529e+00    1.231019e+00   1.607486e-02
  1.572740e+00    1.254837e+00   1.620188e-02
  1.574950e+00    1.289217e+00   1.639556e-02
  1.577161e+00    1.294431e+00   1.640269e-02
  1.579371e+00    1.286221e+00   1.632656e-02
  1.581582e+00    1.245557e+00   1.604662e-02
  1.583792e+00    1.239060e+00   1.598673e-02
  1.586002e+00    1.257570e+00   1.608798e-02
  1.588213e+00    1.248363e+00   1.601171e-02
  1.590423e+00    1.267630e+00   1.611452e-02
  1.592634e+00    1.316998e+00   1.640306e-02
  1.594844e+00    1.352688e+00   1.660153e-02
  1.597055e+00    1.310769e+00   1.632124e-02
  1.599265e+00    1.273745e+00   1.606809e-02
  1.601476e+00    1.234517e+00   1.579847e-02
  1.603686e+00    1.215071e+00   1.565399e-02
  1.605897e+00    1.224899e+00   1.569710e-02
  1.608107e+00    1.233876e+00   1.573500e-02
  1.610317e+00    1.225440e+00   1.566190e-02
  1.612528e+00    1.236365e+00   1.571237e-02
  1.614738e+00    1.236335e+00   1.569321e-02
  1.616949e+00    1.213053e+00   1.552586e-02
  1.619159e+00    1.190435e+00   1.536197e-02
  1.621370e+00    1.178309e+00   1.526539e-02
  1.623580e+00    1.166223e+00   1.516891e-02
  1.625791e+00    1.182604e+00   1.525702e-02
  1.628001e+00    1.180442e+00   1.522498e-02
  1.630212e+00    1.177786e+00   1.519020e-02
  1.632422e+00    1.157824e+00   1.504324e-02
  1.634632e+00    1.170785e+00   1.510997e-02
  1.636843e+00    1.157018e+00   1.500349e-02
  1.639053e+00    1.151179e+00   1.494847e-02
  1.641264e+00    1.125768e+00   1.476579e-02
  1.643474e+00    1.147602e+00   1.489099e-02
  1.645685e+00    1.159027e+00   1.494828e-02
  1.647895e+00    1.133333e+00   1.476523e-02
  1.650106e+00    1.111943e+00   1.460852e-02
  1.652316e+00    1.110930e+00   1.458563e-02
  1.654527e+00    1.128318e+00   1.468278e-02
  1.656737e+00    1.115024e+00   1.457962e-02
  1.658947e+00    1.119198e+00   1.459069e-02
  1.661158e+00    1.105162e+00   1.448282e-02
  1.663368e+00    1.097309e+00   1.441541e-02
  1.665579e+00    1.090715e+00   1.435611e-02
  1.667789e+00    1.084154e+00   1.429684e-02
  1.670000e+00    1.088636e+00   1.431108e-02
  1.672210e+00    1.067792e+00   1.415780e-02
  1.674421e+00    1.090640e+00   1.429325e-02
  1.676631e+00    1.091811e+00   1.428512e-02
  1.678842e+00    1.073919e+00   1.415201e-02
  1.681052e+00    1.081188e+00   1.418449e-02
  1.683263e+00    1.313059e+00   1.561496e-02
  1.685473e+00    1.416246e+00   1.619974e-02
  1.687683e+00    1.186164e+00   1.480951e-02
  1.689894e+00    1.072536e+00   1.406653e-02
  1.692104e+00    1.055814e+00   1.394164e-02
  1.694315e+00    1.052154e+00   1.390310e-02
  1.696525e+00    1.054049e+00   1.390058e-02
  1.698736e+00    1.053236e+00   1.388047e-02
  1.700946e+00    1.047151e+00   1.382527e-02
  1.703157e+00    1.040274e+00   1.376529e-02
  1.705367e+00    1.040233e+00   1.375059e-02
  1.707578e+00    1.034691e+00   1.369945e-02
  1.709788e+00    1.017184e+00   1.356914e-02
  1.711998e+00    1.004487e+00   1.346943e-02
  1.714209e+00    1.012864e+00   1.351123e-02
  1.716419e+00    1.034652e+00   1.364151e-02
  1.718630e+00    1.020730e+00   1.353524e-02
  1.720840e+00    1.005064e+00   1.341696e-02
  1.723051e+00    1.026113e+00   1.354281e-02
  1.725261e+00    1.296729e+00   1.520770e-02
  1.727472e+00    1.156924e+00   1.434948e-02
  1.729682e+00    1.005713e+00   1.336551e-02
  1.731893e+00    9.878780e-01   1.323269e-02
  1.734103e+00    9.903558e-01   1.323563e-02
  1.736313e+00    1.015894e+00   1.339110e-02
  1.738524e+00    1.035387e+00   1.350492e-02
  1.740734e+00    1.014348e+00   1.335321e-02
  1.742945e+00    9.802139e-01   1.311328e-02
  1.745155e+00    9.725317e-01   1.304845e-02
  1.747366e+00    9.731914e-01   1.303919e-02
  1.749576e+00    9.826257e-01   1.308858e-02
  1.751787e+00    1.048499e+00   1.350637e-02
  1.753997e+00    1.110786e+00   1.388753e-02
  1.756208e+00    1.150952e+00   1.412208e-02
  1.758418e+00    1.074205e+00   1.362934e-02
  1.760628e+00    9.716914e-01   1.294932e-02
  1.762839e+00    9.527726e-01   1.280950e-02
  1.765049e+00    9.526668e-01   1.279572e-02
  1.767260e+00    9.670785e-01   1.287929e-02
  1.769470e+00    9.217081e-01   1.256080e-02
  1.771681e+00    9.211907e-01   1.254433e-02
  1.773891e+00    9.432418e-01   1.268057e-02
  1.776102e+00    9.639861e-01   1.280629e-02
  1.778312e+00    9.583598e-01   1.275603e-02
  1.780523e+00    1.078680e+00   1.351939e-02
  1.782733e+00    1.294869e+00   1.479751e-02
  1.784944e+00    1.241561e+00   1.447501e-02
  1.787154e+00    9.787118e-01   1.283884e-02
  1.789364e+00    9.289206e-01   1.249551e-02
  1.791575e+00    9.203168e-01   1.242501e-02
  1.793785e+00    9.438363e-01   1.257022e-02
  1.795996e+00    9.443675e-01   1.256110e-02
  1.798206e+00    9.150744e-01   1.235226e-02
  1.800417e+00    8.983281e-01   1.222615e-02
  1.802627e+00    9.010316e-01   1.223268e-02
  1.804838e+00    9.086786e-01   1.227238e-02
  1.807048e+00    9.151440e-01   1.230309e-02
  1.809259e+00    9.970694e-01   1.282769e-02
  1.811469e+00    1.026037e+00   1.299682e-02
  1.813679e+00    9.763284e-01   1.266250e-02
  1.815890e+00    9.043956e-01   1.217231e-02
  1.818100e+00    8.764412e-01   1.196776e-02
  1.820311e+00    8.857518e-01   1.201646e-02
  1.822521e+00    8.755690e-01   1.193246e-02
  1.824732e+00    8.822820e-01   1.196337e-02
  1.826942e+00    8.772260e-01   1.191678e-02
  1.829153e+00    8.819452e-01   1.193713e-02
  1.831363e+00    8.784906e-01   1.190171e-02
  1.833574e+00    8.743795e-01   1.186221e-02
  1.835784e+00    8.728545e-01   1.184047e-02
  1.837994e+00    8.701679e-01   1.181058e-02
  1.840205e+00    8.656473e-01   1.176873e-02
  1.842415e+00    8.600304e-01   1.171882e-02
  1.844626e+00    8.730106e-01   1.179534e-02
  1.846836e+00    8.530688e-01   1.164852e-02
  1.849047e+00    8.582754e-01   1.167245e-02
  1.851257e+00    8.565817e-01   1.165141e-02
  1.853468e+00    8.466421e-01   1.157487e-02
  1.855678e+00    8.586982e-01   1.164813e-02
  1.857889e+00    8.456933e-01   1.155116e-02
  1.860099e+00    8.408973e-01   1.150980e-02
  1.862309e+00    8.399394e-01   1.149483e-02
  1.864520e+00    8.267281e-01   1.139564e-02
  1.866730e+00    8.299746e-01   1.140873e-02
  1.868941e+00    8.481060e-01   1.152175e-02
  1.871151e+00    8.878083e-01   1.177673e-02
  1.873362e+00    8.656594e-01   1.161747e-02
  1.875572e+00    8.634567e-01   1.159163e-02
  1.877783e+00    8.708948e-01   1.162986e-02
  1.879993e+00    9.103224e-01   1.187865e-02
  1.882204e+00    8.800650e-01   1.166847e-02
  1.884414e+00    8.349640e-01   1.135453e-02
  1.886624e+00    8.505186e-01   1.144866e-02
  1.888835e+00    8.636667e-01   1.152572e-02
  1.891045e+00    8.437728e-01   1.138129e-02
  1.893256e+00    8.300087e-01   1.127706e-02
  1.895466e+00    8.354419e-01   1.130273e-02
  1.897677e+00    8.311288e-01   1.126263e-02
  1.899887e+00    8.372661e-01   1.129313e-02
  1.902098e+00    8.267611e-01   1.121126e-02
  1.904308e+00    8.556789e-01   1.139488e-02
  1.906519e+00    8.828205e-01   1.156302e-02
  1.908729e+00    9.136589e-01   1.175211e-02
  1.910940e+00    9.086912e-01   1.170847e-02
  1.913150e+00    9.233794e-01   1.179150e-02
  1.915360e+00    9.862522e-01   1.217472e-02
  1.917571e+00    9.629408e-01   1.201827e-02
  1.919781e+00    8.911679e-01   1.155056e-02
  1.921992e+00    8.348644e-01   1.116902e-02
  1.924202e+00    7.998320e-01   1.092150e-02
  1.926413e+00    8.040199e-01   1.093983e-02
  1.928623e+00    8.065536e-01   1.094656e-02
  1.930834e+00    8.241584e-01   1.105488e-02
  1.933044e+00    7.936337e-01   1.083769e-02
  1.935255e+00    7.953212e-01   1.083896e-02
  1.937465e+00    7.956618e-01   1.083097e-02
  1.939675e+00    7.826680e-01   1.073149e-02
  1.941886e+00    7.752655e-01   1.067051e-02
  1.944096e+00    7.938567e-01   1.078758e-02
  1.946307e+00    7.755409e-01   1.065225e-02
  1.948517e+00    7.759694e-01   1.064489e-02
  1.950728e+00    7.908558e-01   1.073632e-02
  1.952938e+00    8.011703e-01   1.079600e-02
  1.955149e+00    7.968715e-01   1.075676e-02
  1.957359e+00    8.041025e-01   1.079536e-02
  1.959570e+00    7.871343e-01   1.067004e-02
  1.961780e+00    7.775978e-01   1.059539e-02
  1.963990e+00    7.740903e-01   1.056146e-02
  1.966201e+00    7.756813e-01   1.056233e-02
  1.968411e+00    8.010920e-01   1.072372e-02
  1.970622e+00    7.895650e-01   1.063619e-02
  1.972832e+00    7.928348e-01   1.064817e-02
  1.975043e+00    7.930996e-01   1.063989e-02
  1.977253e+00    7.820124e-01   1.055531e-02
  1.979464e+00    7.856373e-01   1.056969e-02
  1.981674e+00    7.979143e-01   1.064160e-02
  1.983885e+00    7.921105e-01   1.059275e-02
  1.986095e+00    7.560657e-01   1.033940e-02
  1.988305e+00    7.714066e-01   1.043390e-02
  1.990516e+00    7.776281e-01   1.046597e-02
  1.992726e+00    7.843657e-01   1.050152e-02
  1.994937e+00    7.591824e-01   1.032155e-02
  1.997147e+00    7.722012e-01   1.039996e-02
  1.999358e+00    7.512227e-01   1.024802e-02
  2.001568e+00    7.540277e-01   1.025645e-02
  2.003779e+00    7.729731e-01   1.037258e-02
  2.005989e+00    7.797486e-01   1.040586e-02
  2.008200e+00    7.603977e-01   1.026449e-02
  2.010410e+00    7.559384e-01   1.022269e-02
  2.012621e+00    7.768961e-01   1.035167e-02
  2.014831e+00    7.485254e-01   1.014957e-02
  2.017041e+00    7.657753e-01   1.025546e-02
  2.019252e+00    7.961444e-01   1.044669e-02
  2.021462e+00    7.747909e-01   1.029609e-02
  2.023673e+00    7.559096e-01   1.016053e-02
  2.025883e+00    7.374406e-01   1.002626e-02
  2.028094e+00    7.529122e-01   1.012130e-02
  2.030304e+00    7.628306e-01   1.017822e-02
  2.032515e+00    7.624529e-01   1.016639e-02
  2.034725e+00    7.568229e-01   1.011936e-02
  2.036936e+00    7.754085e-01   1.023341e-02
  2.039146e+00    7.668400e-01   1.016709e-02
  2.041356e+00    7.463667e-01   1.002087e-02
  2.043567e+00    7.509787e-01   1.004250e-02
  2.045777e+00    7.579501e-01   1.007973e-02
  2.047988e+00    7.465694e-01   9.994474e-03
  2.050198e+00    7.694899e-01   1.013819e-02
  2.052409e+00    7.640526e-01   1.009461e-02
  2.054619e+00    7.570295e-01   1.004073e-02
  2.056830e+00    7.464244e-01   9.962968e-03
  2.059040e+00    7.510457e-01   9.986271e-03
  2.061251e+00    7.248086e-01   9.803158e-03
  2.063461e+00    7.395097e-01   9.894509e-03
  2.065671e+00    7.520259e-01   9.969171e-03
  2.067882e+00    7.340583e-01   9.840439e-03
  2.070092e+00    7.451813e-01   9.905528e-03
  2.072303e+00    7.536859e-01   9.952716e-03
  2.074513e+00    7.513427e-01   9.927863e-03
  2.076724e+00    7.404875e-01   9.846473e-03
  2.078934e+00    7.472224e-01   9.882094e-03
  2.081145e+00    7.745160e-01   1.005169e-02
  2.083355e+00    7.683530e-01   1.000229e-02
  2.085566e+00    7.512636e-01   9.881459e-03
  2.087776e+00    7.431134e-01   9.818181e-03
  2.089986e+00    7.410774e-01   9.795931e-03
  2.092197e+00    7.278320e-01   9.699086e-03
  2.094407e+00    7.168536e-01   9.616551e-03
  2.096618e+00    7.366683e-01   9.739640e-03
  2.098828e+00    7.387949e-01   9.744363e-03
  2.101039e+00    7.395337e-01   9.740210e-03
  2.103249e+00    7.149871e-01   9.568635e-03
  2.105460e+00    7.144759e-01   9.556286e-03
  2.107670e+00    7.146013e-01   9.548469e-03
  2.109881e+00    7.331094e-01   9.662124e-03
  2.112091e+00    7.228934e-01   9.585616e-03
  2.114301e+00    7.176675e-01   9.542162e-03
  2.116512e+00    7.120711e-01   9.496155e-03
  2.118722e+00    7.021772e-01   9.421241e-03
  2.120933e+00    7.200224e-01   9.531347e-03
  2.123143e+00    7.110292e-01   9.462794e-03
  2.125354e+00    7.105696e-01   9.451230e-03
  2.127564e+00    7.091785e-01   9.433297e-03
  2.129775e+00    7.153550e-01   9.465561e-03
  2.131985e+00    7.202843e-01   9.489018e-03
  2.134196e+00    7.075495e-01   9.396216e-03
  2.136406e+00    6.959971e-01   9.310543e-03
  2.138617e+00    7.141420e-01   9.422634e-03
  2.140827e+00    7.114564e-01   9.421014e-03
  2.143037e+00    7.016662e-01   9.401252e-03
  2.145248e+00    7.141869e-01   9.506904e-03
  2.147458e+00    6.963938e-01   9.402781e-03
  2.149669e+00    7.067590e-01   9.484379e-03
  2.151879e+00    7.081105e-01   9.502701e-03
  2.154090e+00    6.996165e-01   9.452855e-03
  2.156300e+00    6.959325e-01   9.434515e-03
  2.158511e+00    6.829498e-01   9.351335e-03
  2.160721e+00    6.769640e-01   9.315002e-03
  2.162932e+00    6.892594e-01   9.402937e-03
  2.165142e+00    6.900594e-01   9.411384e-03
  2.167352e+00    7.006575e-01   9.486320e-03
  2.169563e+00    6.830027e-01   9.367971e-03
  2.171773e+00    6.975540e-01   9.469677e-03
  2.173984e+00    7.031794e-01   9.509226e-03
  2.176194e+00    6.867647e-01   9.398775e-03
  2.178405e+00    6.774875e-01   9.335772e-03
  2.180615e+00    6.879984e-01   9.408559e-03
  2.182826e+00    7.082516e-01   9.546758e-03
  2.185036e+00    6.908212e-01   9.428596e-03
  2.187247e+00    6.860068e-01   9.395639e-03
  2.189457e+00    6.900482e-01   9.422863e-03
  2.191667e+00    6.797504e-01   9.352108e-03
  2.193878e+00    6.735851e-01   9.309046e-03
  2.196088e+00    6.820375e-01   9.366588e-03
  2.198299e+00    6.750221e-01   9.317205e-03
  2.200509e+00    6.820903e-01   9.364800e-03
  2.202720e+00    6.963790e-01   9.461215e-03
  2.204930e+00    6.815712e-01   9.358849e-03
  2.207141e+00    6.832551e-01   9.369292e-03
  2.209351e+00    6.878188e-01   9.398623e-03
  2.211562e+00    6.670601e-01   9.254112e-03
  2.213772e+00    6.742759e-01   9.248659e-03
  2.215982e+00    6.696013e-01   9.172531e-03
  2.218193e+00    6.642982e-01   9.106754e-03
  2.220403e+00    6.821391e-01   9.203507e-03
  2.222614e+00    6.903641e-01   9.237637e-03
  2.224824e+00    6.773081e-01   9.130422e-03
  2.227035e+00    6.898067e-01   9.196620e-03
  2.229245e+00    6.787915e-01   9.105851e-03
  2.231456e+00    6.800838e-01   9.098781e-03
  2.233666e+00    6.865926e-01   9.126955e-03
  2.235877e+00    6.638486e-01   8.960322e-03
  2.238087e+00    6.728850e-01   9.007574e-03
  2.240298e+00    7.062969e-01   9.214357e-03
  2.242508e+00    7.021848e-01   9.172016e-03
  2.244718e+00    6.826893e-01   9.027808e-03
  2.246929e+00    6.732518e-01   8.950734e-03
  2.249139e+00    6.619322e-01   8.862819e-03
  2.251350e+00    6.729415e-01   8.924449e-03
  2.253560e+00    7.026643e-01   9.107532e-03
  2.255771e+00    7.494059e-01   9.393468e-03
  2.257981e+00    7.479585e-01   9.372566e-03
  2.260192e+00    7.351891e-01   9.280520e-03
  2.262402e+00    7.273639e-01   9.219653e-03
  2.264613e+00    7.135551e-01   9.120482e-03
  2.266823e+00    6.908224e-01   8.963407e-03
  2.269033e+00    6.915416e-01   8.957456e-03
  2.271244e+00    6.894196e-01   8.933113e-03
  2.273454e+00    7.017467e-01   9.002051e-03
  2.275665e+00    7.270221e-01   9.151932e-03
  2.277875e+00    7.119081e-01   9.046025e-03
  2.280086e+00    6.695207e-01   8.762488e-03
  2.282296e+00    6.635914e-01   8.714138e-03
  2.284507e+00    6.520055e-01   8.627658e-03
  2.286717e+00    6.546718e-01   8.635829e-03
  2.288928e+00    6.687316e-01   8.718121e-03
  2.291138e+00    6.644727e-01   8.680830e-03
  2.293348e+00    6.650898e-01   8.675263e-03
  2.295559e+00    6.642120e-01   8.660152e-03
  2.297769e+00    6.583562e-01   8.612635e-03
  2.299980e+00    6.527986e-01   8.566864e-03
  2.302190e+00    6.505890e-01   8.543248e-03
  2.304401e+00    6.506926e-01   8.534614e-03
  2.306611e+00    6.583133e-01   8.575202e-03
  2.308822e+00    6.393063e-01   8.442215e-03
  2.311032e+00    6.348128e-01   8.406091e-03
  2.313243e+00    6.600254e-01   8.565080e-03
  2.315453e+00    6.574095e-01   8.540485e-03
  2.317663e+00    6.498877e-01   8.482338e-03
  2.319874e+00    6.246809e-01   8.307638e-03
  2.322084e+00    6.340583e-01   8.360863e-03
  2.324295e+00    6.413057e-01   8.400311e-03
  2.326505e+00    6.455355e-01   8.418912e-03
  2.328716e+00    6.534026e-01   8.461441e-03
  2.330926e+00    6.552184e-01   8.464309e-03
  2.333137e+00    6.402634e-01   8.358809e-03
  2.335347e+00    6.409300e-01   8.354275e-03
  2.337558e+00    6.439619e-01   8.365760e-03
  2.339768e+00    6.372433e-01   8.313455e-03
  2.341979e+00    6.345913e-01   8.287796e-03
  2.344189e+00    6.428438e-01   8.333073e-03
  2.346399e+00    6.388661e-01   8.298763e-03
  2.348610e+00    6.285849e-01   8.223285e-03
  2.350820e+00    6.324252e-01   8.240212e-03
  2.353031e+00    6.416873e-01   8.291990e-03
  2.355241e+00    6.382020e-01   8.261361e-03
  2.357452e+00    6.283631e-01   8.189045e-03
  2.359662e+00    6.297925e-01   8.190127e-03
  2.361873e+00    6.313176e-01   8.191815e-03
  2.364083e+00    6.253337e-01   8.144933e-03
  2.366294e+00    6.221582e-01   8.116147e-03
  2.368504e+00    6.280941e-01   8.146689e-03
  2.370714e+00    6.209309e-01   8.092078e-03
  2.372925e+00    6.256366e-01   8.114630e-03
  2.375135e+00    6.176004e-01   8.054317e-03
  2.377346e+00    6.437125e-01   8.214761e-03
  2.379556e+00    6.372592e-01   8.165504e-03
  2.381767e+00    6.232184e-01   8.067153e-03
  2.383977e+00    6.287854e-01   8.095142e-03
  2.386188e+00    6.170251e-01   8.011159e-03
  2.388398e+00    6.266705e-01   8.065536e-03
  2.390609e+00    6.278658e-01   8.065430e-03
  2.392819e+00    6.134364e-01   7.964456e-03
  2.395029e+00    6.117454e-01   7.945841e-03
  2.397240e+00    6.075511e-01   7.910708e-03
  2.399450e+00    6.298535e-01   8.046705e-03
  2.401661e+00    6.119279e-01   7.923693e-03
  2.403871e+00    6.143022e-01   7.931271e-03
  2.406082e+00    6.045960e-01   7.860967e-03
  2.408292e+00    6.029159e-01   7.842271e-03
  2.410503e+00    6.025619e-01   7.832539e-03
  2.412713e+00    6.032472e-01   7.829184e-03
  2.414924e+00    6.141624e-01   7.892203e-03
  2.417134e+00    6.030396e-01   7.812763e-03
  2.419344e+00    6.099169e-01   7.849737e-03
  2.421555e+00    6.219904e-01   7.919424e-03
  2.423765e+00    6.071417e-01   7.816890e-03
  2.425976e+00    5.910135e-01   7.704591e-03
  2.428186e+00    6.047405e-01   7.786318e-03
  2.430397e+00    5.953019e-01   7.717837e-03
  2.432607e+00    5.925626e-01   7.692806e-03
  2.434818e+00    5.901456e-01   7.669596e-03
  2.437028e+00    5.980166e-01   7.713375e-03
  2.439239e+00    5.993514e-01   7.714321e-03
  2.441449e+00    5.828136e-01   7.599989e-03
  2.443659e+00    5.959747e-01   7.677936e-03
  2.445870e+00    6.061566e-01   7.755678e-03
  2.448080e+00    5.807224e-01   7.625963e-03
  2.450291e+00    5.734287e-01   7.594466e-03
  2.452501e+00    5.625446e-01   7.533075e-03
  2.454712e+00    5.731372e-01   7.612088e-03
  2.456922e+00    5.636824e-01   7.555632e-03
  2.459133e+00    5.557512e-01   7.507663e-03
  2.461343e+00    5.486493e-01   7.463806e-03
  2.463554e+00    5.647990e-01   7.576340e-03
  2.465764e+00    5.584439e-01   7.536718e-03
  2.467975e+00    5.615713e-01   7.560081e-03
  2.470185e+00    5.547230e-01   7.516083e-03
  2.472395e+00    5.612633e-01   7.561495e-03
  2.474606e+00    5.644495e-01   7.584491e-03
  2.476816e+00    5.811815e-01   7.696857e-03
  2.479027e+00    5.688218e-01   7.615431e-03
  2.481237e+00    5.561280e-01   7.530271e-03
  2.483448e+00    5.455329e-01   7.458490e-03
  2.485658e+00    5.390021e-01   7.413567e-03
  2.487869e+00    5.393769e-01   7.416179e-03
  2.490079e+00    5.496010e-01   7.485604e-03
  2.492290e+00    5.609905e-01   7.562337e-03
  2.494500e+00    5.478418e-01   7.472468e-03
  2.496710e+00    5.352435e-01   7.385324e-03
  2.498921e+00    5.433403e-01   7.439991e-03
  2.501131e+00    5.472497e-01   7.465737e-03
  2.503342e+00    5.423014e-01   7.430653e-03
  2.505552e+00    5.198379e-01   7.274000e-03
  2.507763e+00    5.376263e-01   7.395963e-03
  2.509973e+00    5.367313e-01   7.388426e-03
  2.512184e+00    5.276593e-01   7.324082e-03
  2.514394e+00    5.462195e-01   7.442260e-03
  2.516605e+00    5.194175e-01   7.210641e-03
  2.518815e+00    5.247522e-01   7.219266e-03
  2.521025e+00    5.384343e-01   7.291562e-03
  2.523236e+00    5.393087e-01   7.279254e-03
  2.525446e+00    5.442016e-01   7.296329e-03
  2.527657e+00    5.406418e-01   7.257618e-03
  2.529867e+00    5.319451e-01   7.184735e-03
  2.532078e+00    5.268400e-01   7.135103e-03
  2.534288e+00    5.274738e-01   7.125479e-03
  2.536499e+00    5.369673e-01   7.177222e-03
  2.538709e+00    5.329728e-01   7.139416e-03
  2.540920e+00    5.132976e-01   6.995854e-03
  2.543130e+00    5.134583e-01   6.986687e-03
  2.545340e+00    5.017385e-01   6.896636e-03
  2.547551e+00    5.213961e-01   7.020509e-03
  2.549761e+00    5.313042e-01   7.077232e-03
  2.551972e+00    5.338828e-01   7.084943e-03
  2.554182e+00    5.186368e-01   6.973896e-03
  2.556393e+00    5.212266e-01   6.982179e-03
  2.558603e+00    5.226544e-01   6.982635e-03
  2.560814e+00    5.337924e-01   7.047847e-03
  2.563024e+00    5.293373e-01   7.009694e-03
  2.565235e+00    5.369912e-01   7.050521e-03
  2.567445e+00    5.380132e-01   7.047516e-03
  2.569656e+00    5.133801e-01   6.874585e-03
  2.571866e+00    5.225616e-01   6.926375e-03
  2.574076e+00    5.264568e-01   6.942787e-03
  2.576287e+00    5.263680e-01   6.933804e-03
  2.578497e+00    5.160844e-01   6.857895e-03
  2.580708e+00    5.138705e-01   6.835086e-03
  2.582918e+00    5.198289e-01   6.866806e-03
  2.585129e+00    5.162250e-01   6.835193e-03
  2.587339e+00    5.117018e-01   6.797533e-03
  2.589550e+00    5.071862e-01   6.759940e-03
  2.591760e+00    5.058571e-01   6.743411e-03
  2.593971e+00    4.954664e-01   6.666365e-03
  2.596181e+00    5.284161e-01   6.878142e-03
  2.598391e+00    5.212839e-01   6.826344e-03
  2.600602e+00    5.084655e-01   6.735967e-03
  2.602812e+00    5.155999e-01   6.775491e-03
  2.605023e+00    5.082164e-01   6.719630e-03
  2.607233e+00    5.226386e-01   6.807053e-03
  2.609444e+00    5.191305e-01   6.776879e-03
  2.611654e+00    5.094821e-01   6.706259e-03
  2.613865e+00    5.197557e-01   6.766401e-03
  2.616075e+00    5.135248e-01   6.718542e-03
  2.618286e+00    5.087906e-01   6.680483e-03
  2.620496e+00    4.967910e-01   6.594581e-03
  2.622706e+00    5.068171e-01   6.655043e-03
  2.624917e+00    5.175977e-01   6.719527e-03
  2.627127e+00    5.082920e-01   6.653090e-03
  2.629338e+00    5.072358e-01   6.640174e-03
  2.631548e+00    4.954377e-01   6.556378e-03
  2.633759e+00    5.009553e-01   6.585644e-03
  2.635969e+00    4.937949e-01   6.531768e-03
  2.638180e+00    5.112802e-01   6.639363e-03
  2.640390e+00    4.940556e-01   6.520022e-03
  2.642601e+00    4.917224e-01   6.497975e-03
  2.644811e+00    5.110609e-01   6.617398e-03
  2.647021e+00    5.040191e-01   6.565047e-03
  2.649232e+00    4.987054e-01   6.523635e-03
  2.651442e+00    4.970894e-01   6.506573e-03
  2.653653e+00    4.921460e-01   6.467400e-03
  2.655863e+00    4.901730e-01   6.447767e-03
  2.658074e+00    5.026092e-01   6.522428e-03
  2.660284e+00    4.987713e-01   6.491111e-03
  2.662495e+00    4.949684e-01   6.459573e-03
  2.664705e+00    5.113988e-01   6.559248e-03
  2.666916e+00    5.086018e-01   6.534754e-03
  2.669126e+00    5.018268e-01   6.484577e-03
  2.671337e+00    5.114768e-01   6.539948e-03
  2.673547e+00    4.951005e-01   6.428038e-03
  2.675757e+00    4.889747e-01   6.381699e-03
  2.677968e+00    5.021814e-01   6.460761e-03
  2.680178e+00    4.919268e-01   6.388058e-03
  2.682389e+00    4.909728e-01   6.375467e-03
  2.684599e+00    5.039194e-01   6.452742e-03
  2.686810e+00    4.860489e-01   6.330728e-03
  2.689020e+00    4.827059e-01   6.302666e-03
  2.691231e+00    5.103658e-01   6.474323e-03
  2.693441e+00    5.010047e-01   6.408474e-03
  2.695652e+00    4.925883e-01   6.347888e-03
  2.697862e+00    4.944024e-01   6.353172e-03
  2.700072e+00    4.902389e-01   6.320308e-03
  2.702283e+00    4.837816e-01   6.272343e-03
  2.704493e+00    4.883607e-01   6.295681e-03
  2.706704e+00    5.044671e-01   6.392138e-03
  2.708914e+00    4.947148e-01   6.324064e-03
  2.711125e+00    4.967119e-01   6.330497e-03
  2.713335e+00    4.845754e-01   6.246627e-03
  2.715546e+00    4.778248e-01   6.196540e-03
  2.717756e+00    4.901768e-01   6.270225e-03
  2.719967e+00    4.744698e-01   6.162810e-03
  2.722177e+00    4.885956e-01   6.247718e-03
  2.724387e+00    4.912713e-01   6.258664e-03
  2.726598e+00    4.962009e-01   6.283874e-03
  2.728808e+00    4.841883e-01   6.201201e-03
  2.731019e+00    4.848971e-01   6.199599e-03
  2.733229e+00    4.776541e-01   6.147373e-03
  2.735440e+00    4.828004e-01   6.174125e-03
  2.737650e+00    4.971050e-01   6.258833e-03
  2.739861e+00    4.886441e-01   6.199233e-03
  2.742071e+00    4.926392e-01   6.218713e-03
  2.744282e+00    4.957154e-01   6.231791e-03
  2.746492e+00    4.850364e-01   6.158240e-03
  2.748702e+00    4.888673e-01   6.176563e-03
  2.750913e+00    4.758155e-01   6.087801e-03
  2.753123e+00    4.677160e-01   6.029727e-03
  2.755334e+00    4.816842e-01   6.113026e-03
  2.757544e+00    4.652909e-01   6.002458e-03
  2.759755e+00    4.893443e-01   6.149703e-03
  2.761965e+00    4.931276e-01   6.167377e-03
  2.764176e+00    4.994530e-01   6.200694e-03
  2.766386e+00    4.841741e-01   6.099316e-03
  2.768597e+00    4.828483e-01   6.085065e-03
  2.770807e+00    4.714911e-01   6.007243e-03
  2.773017e+00    4.670328e-01   5.972881e-03
  2.775228e+00    4.774178e-01   6.033136e-03
  2.777438e+00    4.772190e-01   6.026104e-03
  2.779649e+00    4.769659e-01   6.018599e-03
  2.781859e+00    4.828313e-01   6.049704e-03
  2.784070e+00    4.874143e-01   6.072422e-03
  2.786280e+00    4.902513e-01   6.084232e-03
  2.788491e+00    4.864946e-01   6.054987e-03
  2.790701e+00    4.660086e-01   5.920529e-03
  2.792912e+00    4.742808e-01   5.966902e-03
  2.795122e+00    4.762633e-01   5.973635e-03
  2.797333e+00    4.743501e-01   5.956061e-03
  2.799543e+00    4.769190e-01   5.966295e-03
  2.801753e+00    4.739464e-01   5.941837e-03
  2.803964e+00    4.681687e-01   5.899871e-03
  2.806174e+00    4.799942e-01   5.967747e-03
  2.808385e+00    4.757433e-01   5.934471e-03
  2.810595e+00    4.708058e-01   5.896754e-03
  2.812806e+00    4.637013e-01   5.845553e-03
  2.815016e+00    4.688872e-01   5.873443e-03
  2.817227e+00    4.645815e-01   5.872060e-03
  2.819437e+00    4.705087e-01   5.920462e-03
  2.821648e+00    4.771922e-01   5.964652e-03
  2.823858e+00    4.686153e-01   5.916132e-03
  2.826068e+00    4.698410e-01   5.928801e-03
  2.828279e+00    4.727126e-01   5.950953e-03
  2.830489e+00    4.755823e-01   5.972322e-03
  2.832700e+00    4.735503e-01   5.962128e-03
  2.834910e+00    4.670384e-01   5.923032e-03
  2.837121e+00    4.724703e-01   5.959096e-03
  2.839331e+00    4.864308e-01   6.047738e-03
  2.841542e+00    4.733981e-01   5.967211e-03
  2.843752e+00    4.661545e-01   5.922139e-03
  2.845963e+00    4.855912e-01   6.044755e-03
  2.848173e+00    4.639628e-01   5.908702e-03
  2.850383e+00    4.647730e-01   5.914134e-03
  2.852594e+00    4.790710e-01   6.004332e-03
  2.854804e+00    4.759853e-01   5.984469e-03
  2.857015e+00    4.613276e-01   5.891168e-03
  2.859225e+00    4.697987e-01   5.944761e-03
  2.861436e+00    4.640500e-01   5.907619e-03
  2.863646e+00    4.715870e-01   5.955444e-03
  2.865857e+00    4.558061e-01   5.855289e-03
  2.868067e+00    4.664977e-01   5.923771e-03
  2.870278e+00    4.727996e-01   5.963305e-03
  2.872488e+00    4.607998e-01   5.885994e-03
  2.874698e+00    4.539793e-01   5.841230e-03
  2.876909e+00    4.566607e-01   5.857131e-03
  2.879119e+00    4.711936e-01   5.947964e-03
  2.881330e+00    4.735229e-01   5.961169e-03
  2.883540e+00    4.665682e-01   5.915839e-03
  2.885751e+00    4.519535e-01   5.820817e-03
  2.887961e+00    4.599378e-01   5.870120e-03
  2.890172e+00    4.666153e-01   5.910975e-03
  2.892382e+00    4.601285e-01   5.867938e-03
  2.894593e+00    4.733800e-01   5.949975e-03
  2.896803e+00    4.641220e-01   5.889552e-03
  2.899014e+00    4.776648e-01   5.972890e-03
  2.901224e+00    4.640172e-01   5.884967e-03
  2.903434e+00    4.651065e-01   5.889901e-03
  2.905645e+00    4.588139e-01   5.847702e-03
  2.907855e+00    4.562498e-01   5.829248e-03
  2.910066e+00    4.585863e-01   5.842071e-03
  2.912276e+00    4.639838e-01   5.874215e-03
  2.914487e+00    4.707729e-01   5.914555e-03
  2.916697e+00    4.615070e-01   5.853835e-03
  2.918908e+00    4.580418e-01   5.829809e-03
  2.921118e+00    4.640227e-01   5.865027e-03
  2.923329e+00    4.549914e-01   5.805364e-03
  2.925539e+00    4.570314e-01   5.816090e-03
  2.927749e+00    4.733403e-01   5.916589e-03
  2.929960e+00    4.678611e-01   5.879457e-03
  2.932170e+00    4.597265e-01   5.825772e-03
  2.934381e+00    4.605302e-01   5.828416e-03
  2.936591e+00    4.510369e-01   5.765465e-03
  2.938802e+00    4.490504e-01   5.750069e-03
  2.941012e+00    4.513975e-01   5.762729e-03
  2.943223e+00    4.723669e-01   5.892335e-03
  2.945433e+00    4.665784e-01   5.852338e-03
  2.947644e+00    4.636106e-01   5.829533e-03
  2.949854e+00    4.622220e-01   5.816491e-03
  2.952064e+00    4.575015e-01   5.782487e-03
  2.954275e+00    4.572882e-01   5.776700e-03
  2.956485e+00    4.603565e-01   5.791850e-03
  2.958696e+00    4.515331e-01   5.731720e-03
  2.960906e+00    4.484651e-01   5.708071e-03
  2.963117e+00    4.389285e-01   5.642620e-03
  2.965327e+00    4.568878e-01   5.753002e-03
  2.967538e+00    4.579439e-01   5.756724e-03
  2.969748e+00    4.532521e-01   5.724346e-03
  2.971959e+00    4.580548e-01   5.751436e-03
  2.974169e+00    4.639998e-01   5.786033e-03
  2.976379e+00    4.587982e-01   5.750592e-03
  2.978590e+00    4.571680e-01   5.737200e-03
  2.980800e+00    4.674622e-01   5.798597e-03
  2.983011e+00    4.560427e-01   5.724545e-03
  2.985221e+00    4.521882e-01   5.697141e-03
  2.987432e+00    4.643069e-01   5.769830e-03
  2.989642e+00    4.719276e-01   5.814313e-03
  2.991853e+00    4.688992e-01   5.792300e-03
  2.994063e+00    4.588950e-01   5.727269e-03
  2.996274e+00    4.462908e-01   5.644884e-03
  2.998484e+00    4.506037e-01   5.669421e-03
  3.000694e+00    4.549135e-01   5.693004e-03
  3.002905e+00    4.637784e-01   5.745230e-03
  3.005115e+00    4.580465e-01   5.706627e-03
  3.007326e+00    4.442809e-01   5.617109e-03
  3.009536e+00    4.517165e-01   5.660649e-03
  3.011747e+00    4.503920e-01   5.649461e-03
  3.013957e+00    4.436895e-01   5.604099e-03
  3.016168e+00    4.594155e-01   5.699267e-03
  3.018378e+00    4.597924e-01   5.698575e-03
  3.020589e+00    4.488448e-01   5.627080e-03
  3.022799e+00    4.675612e-01   5.740011e-03
  3.025010e+00    4.653279e-01   5.723006e-03
  3.027220e+00    4.693639e-01   5.744592e-03
  3.029430e+00    4.720153e-01   5.757493e-03
  3.031641e+00    4.708669e-01   5.747271e-03
  3.033851e+00    4.649875e-01   5.707724e-03
  3.036062e+00    4.596434e-01   5.672015e-03
  3.038272e+00    4.619921e-01   5.682881e-03
  3.040483e+00    4.531706e-01   5.625114e-03
  3.042693e+00    4.610065e-01   5.670264e-03
  3.044904e+00    4.402910e-01   5.537411e-03
  3.047114e+00    4.575865e-01   5.640279e-03
  3.049325e+00    4.499558e-01   5.588679e-03
  3.051535e+00    4.545422e-01   5.612656e-03
  3.053745e+00    4.600438e-01   5.641735e-03
  3.055956e+00    4.614987e-01   5.646015e-03
  3.058166e+00    4.489717e-01   5.564621e-03
  3.060377e+00    4.417910e-01   5.515205e-03
  3.062587e+00    4.529147e-01   5.579554e-03
  3.064798e+00    4.556922e-01   5.592371e-03
  3.067008e+00    4.461590e-01   5.528847e-03
  3.069219e+00    4.497895e-01   5.546790e-03
  3.071429e+00    4.483437e-01   5.534336e-03
  3.073640e+00    4.499050e-01   5.540662e-03
  3.075850e+00    4.500003e-01   5.537644e-03
  3.078060e+00    4.404426e-01   5.475464e-03
  3.080271e+00    4.425208e-01   5.484888e-03
  3.082481e+00    4.418511e-01   5.477348e-03
  3.084692e+00    4.368629e-01   5.442983e-03
  3.086902e+00    4.547139e-01   5.549809e-03
  3.089113e+00    4.475326e-01   5.502254e-03
  3.091323e+00    4.658723e-01   5.610412e-03
  3.093534e+00    4.517079e-01   5.521085e-03
  3.095744e+00    4.546986e-01   5.535924e-03
  3.097955e+00    4.602882e-01   5.566251e-03
  3.100165e+00    4.526194e-01   5.516342e-03
  3.102375e+00    4.600204e-01   5.557766e-03
  3.104586e+00    4.677968e-01   5.600996e-03
  3.106796e+00    4.436646e-01   5.451112e-03
  3.109007e+00    4.399610e-01   5.425096e-03
  3.111217e+00    4.409534e-01   5.427540e-03
  3.113428e+00    4.451658e-01   5.449999e-03
  3.115638e+00    4.445084e-01   5.442745e-03
  3.117849e+00    4.471153e-01   5.454941e-03
  3.120059e+00    4.425564e-01   5.423619e-03
  3.122270e+00    4.419685e-01   5.416751e-03
  3.124480e+00    4.513009e-01   5.469934e-03
  3.126691e+00    4.470289e-01   5.440424e-03
  3.128901e+00    4.377524e-01   5.380571e-03
  3.131111e+00    4.331643e-01   5.348519e-03
  3.133322e+00    4.319111e-01   5.337368e-03
  3.135532e+00    4.436597e-01   5.406063e-03
  3.137743e+00    4.488758e-01   5.434267e-03
  3.139953e+00    4.461746e-01   5.414195e-03
  3.142164e+00    4.599940e-01   5.509633e-03
  3.144374e+00    4.420027e-01   5.429226e-03
  3.146585e+00    4.612234e-01   5.560874e-03
  3.148795e+00    4.481808e-01   5.492536e-03
  3.151006e+00    4.318019e-01   5.399694e-03
  3.153216e+00    4.390084e-01   5.451668e-03
  3.155426e+00    4.478188e-01   5.512457e-03
  3.157637e+00    4.395330e-01   5.466755e-03
  3.159847e+00    4.396944e-01   5.472608e-03
  3.162058e+00    4.484094e-01   5.531070e-03
  3.164268e+00    4.331906e-01   5.440418e-03
  3.166479e+00    4.410961e-01   5.493490e-03
  3.168689e+00    4.446780e-01   5.519145e-03
  3.170900e+00    4.471874e-01   5.537888e-03
  3.173110e+00    4.436901e-01   5.519092e-03
  3.175321e+00    4.341476e-01   5.461888e-03
  3.177531e+00    4.531141e-01   5.582698e-03
  3.179741e+00    4.387805e-01   5.495791e-03
  3.181952e+00    4.280714e-01   5.430382e-03
  3.184162e+00    4.333062e-01   5.465662e-03
  3.186373e+00    4.411797e-01   5.516703e-03
  3.188583e+00    4.419294e-01   5.523184e-03
  3.190794e+00    4.409482e-01   5.518811e-03
  3.193004e+00    4.509732e-01   5.582470e-03
  3.195215e+00    4.508810e-01   5.583412e-03
  3.197425e+00    4.472052e-01   5.561855e-03
  3.199636e+00    4.345844e-01   5.482033e-03
  3.201846e+00    4.383149e-01   5.504888e-03
  3.204056e+00    4.462745e-01   5.555570e-03
  3.206267e+00    4.433891e-01   5.538434e-03
  3.208477e+00    4.363464e-01   5.495188e-03
  3.210688e+00    4.416033e-01   5.529047e-03
  3.212898e+00    4.416837e-01   5.530138e-03
  3.215109e+00    4.456995e-01   5.555971e-03
  3.217319e+00    4.466903e-01   5.562808e-03
  3.219530e+00    4.360856e-01   5.496773e-03
  3.221740e+00    4.254445e-01   5.429853e-03
  3.223951e+00    4.363088e-01   5.499187e-03
  3.226161e+00    4.427028e-01   5.539568e-03
  3.228372e+00    4.338990e-01   5.484715e-03
  3.230582e+00    4.384547e-01   5.513593e-03
  3.232792e+00    4.332809e-01   5.481186e-03
  3.235003e+00    4.302713e-01   5.462362e-03
  3.237213e+00    4.264998e-01   5.438453e-03
  3.239424e+00    4.415805e-01   5.533777e-03
  3.241634e+00    4.452539e-01   5.556882e-03
  3.243845e+00    4.411342e-01   5.531189e-03
  3.246055e+00    4.325501e-01   5.476831e-03
  3.248266e+00    4.182461e-01   5.385717e-03
  3.250476e+00    4.230306e-01   5.416123e-03
  3.252687e+00    4.212117e-01   5.404384e-03
  3.254897e+00    4.153554e-01   5.366574e-03
  3.257107e+00    4.282330e-01   5.448811e-03
  3.259318e+00    4.343424e-01   5.487307e-03
  3.261528e+00    4.235715e-01   5.418715e-03
  3.263739e+00    4.281256e-01   5.447180e-03
  3.265949e+00    4.256660e-01   5.431426e-03
  3.268160e+00    4.152884e-01   5.364380e-03
  3.270370e+00    4.241163e-01   5.420561e-03
  3.272581e+00    4.382499e-01   5.509883e-03
  3.274791e+00    4.294818e-01   5.453957e-03
  3.277002e+00    4.356219e-01   5.492241e-03
  3.279212e+00    4.176634e-01   5.377460e-03
  3.281422e+00    4.243098e-01   5.419481e-03
  3.283633e+00    4.224280e-01   5.406788e-03
  3.285843e+00    4.256290e-01   5.426910e-03
  3.288054e+00    4.070054e-01   5.305915e-03
  3.290264e+00    4.256149e-01   5.425537e-03
  3.292475e+00    4.377401e-01   5.501444e-03
  3.294685e+00    4.336969e-01   5.475346e-03
  3.296896e+00    4.307558e-01   5.455962e-03
  3.299106e+00    4.292137e-01   5.445659e-03
  3.301317e+00    4.319341e-01   5.461820e-03
  3.303527e+00    4.376824e-01   5.497605e-03
  3.305737e+00    4.304617e-01   5.450987e-03
  3.307948e+00    4.386458e-01   5.501884e-03
  3.310158e+00    4.388820e-01   5.502498e-03
  3.312369e+00    4.315935e-01   5.455731e-03
  3.314579e+00    4.315713e-01   5.454668e-03
  3.316790e+00    4.401944e-01   5.508166e-03
  3.319000e+00    4.250866e-01   5.411658e-03
  3.321211e+00    4.102449e-01   5.315727e-03
  3.323421e+00    4.226360e-01   5.394197e-03
  3.325632e+00    4.171088e-01   5.357918e-03
  3.327842e+00    4.325114e-01   5.455038e-03
  3.330052e+00    4.240642e-01   5.400432e-03
  3.332263e+00    4.308759e-01   5.442596e-03
  3.334473e+00    4.256468e-01   5.408579e-03
  3.336684e+00    4.217359e-01   5.382382e-03
  3.338894e+00    4.228815e-01   5.388854e-03
  3.341105e+00    4.247161e-01   5.399320e-03
  3.343315e+00    4.255500e-01   5.403459e-03
  3.345526e+00    4.251963e-01   5.400299e-03
  3.347736e+00    4.312072e-01   5.436946e-03
  3.349947e+00    4.256816e-01   5.401034e-03
  3.352157e+00    4.102846e-01   5.301318e-03
  3.354368e+00    4.192766e-01   5.357772e-03
  3.356578e+00    4.334177e-01   5.446353e-03
  3.358788e+00    4.317882e-01   5.434755e-03
  3.360999e+00    4.377690e-01   5.470982e-03
  3.363209e+00    4.206392e-01   5.361886e-03
  3.365420e+00    4.059659e-01   5.266022e-03
  3.367630e+00    4.024040e-01   5.241865e-03
  3.369841e+00    4.151084e-01   5.322543e-03
  3.372051e+00    4.218175e-01   5.363393e-03
  3.374262e+00    4.102471e-01   5.286926e-03
  3.376472e+00    4.244258e-01   5.375012e-03
  3.378683e+00    4.152333e-01   5.314012e-03
  3.380893e+00    3.988283e-01   5.205664e-03
  3.383103e+00    4.116403e-01   5.285944e-03
  3.385314e+00    4.138328e-01   5.297774e-03
  3.387524e+00    4.235750e-01   5.357006e-03
  3.389735e+00    4.060450e-01   5.242387e-03
  3.391945e+00    4.045229e-01   5.228903e-03
  3.394156e+00    4.112709e-01   5.268118e-03
  3.396366e+00    4.287083e-01   5.375177e-03
  3.398577e+00    4.057619e-01   5.226328e-03
  3.400787e+00    4.101538e-01   5.266423e-03
  3.402998e+00    3.984911e-01   5.228546e-03
  3.405208e+00    3.977909e-01   5.244394e-03
  3.407418e+00    4.093362e-01   5.335907e-03
  3.409629e+00    4.101256e-01   5.355189e-03
  3.411839e+00    3.906625e-01   5.238218e-03
  3.414050e+00    3.872191e-01   5.225933e-03
  3.416260e+00    3.989665e-01   5.314295e-03
  3.418471e+00    3.998269e-01   5.329527e-03
  3.420681e+00    3.898660e-01   5.271205e-03
  3.422892e+00    3.827208e-01   5.230573e-03
  3.425102e+00    3.756685e-01   5.189825e-03
  3.427313e+00    3.777737e-01   5.211457e-03
  3.429523e+00    3.649149e-01   5.128845e-03
  3.431733e+00    3.711817e-01   5.179216e-03
  3.433944e+00    3.788630e-01   5.238961e-03
  3.436154e+00    3.850237e-01   5.287680e-03
  3.438365e+00    3.798525e-01   5.257926e-03
  3.440575e+00    3.885832e-01   5.324020e-03
  3.442786e+00    3.748643e-01   5.234797e-03
  3.444996e+00    3.603607e-01   5.137872e-03
  3.447207e+00    3.673927e-01   5.192993e-03
  3.449417e+00    3.682500e-01   5.239716e-03
  3.451628e+00    3.545145e-01   5.169895e-03
  3.453838e+00    3.624752e-01   5.248655e-03
  3.456049e+00    3.604117e-01   5.257369e-03
  3.458259e+00    3.642121e-01   5.306876e-03
  3.460469e+00    3.705047e-01   5.372434e-03
  3.462680e+00    3.647570e-01   5.349622e-03
  3.464890e+00    3.604925e-01   5.335903e-03
  3.467101e+00    3.747603e-01   5.458096e-03
  3.469311e+00    3.993199e-01   5.651292e-03
  3.471522e+00    4.046974e-01   5.706281e-03
  3.473732e+00    3.938336e-01   5.645409e-03
  3.475943e+00    3.955768e-01   5.673867e-03
  3.478153e+00    3.872356e-01   5.629150e-03
  3.480364e+00    4.035043e-01   5.761521e-03
  3.482574e+00    4.110754e-01   5.830796e-03
  3.484784e+00    4.352844e-01   6.015334e-03
  3.486995e+00    4.398390e-01   6.062290e-03
  3.489205e+00    4.255144e-01   5.977435e-03
  3.491416e+00    4.566325e-01   6.207559e-03
  3.493626e+00    4.629524e-01   6.265447e-03
  3.495837e+00    4.534778e-01   6.215958e-03
  3.498047e+00    4.408846e-01   6.143487e-03
  3.500258e+00    4.598910e-01   6.289198e-03
  3.502468e+00    4.698392e-01   6.371530e-03
  3.504679e+00    4.749482e-01   6.420800e-03
  3.506889e+00    4.652344e-01   6.369239e-03
  3.509099e+00    4.765733e-01   6.460800e-03
  3.511310e+00    4.930896e-01   6.586531e-03
  3.513520e+00    5.000191e-01   6.647337e-03
  3.515731e+00    5.006383e-01   6.666052e-03
  3.517941e+00    4.927502e-01   6.627724e-03
  3.520152e+00    4.966024e-01   6.667909e-03
  3.522362e+00    5.242141e-01   6.865597e-03
  3.524573e+00    5.013801e-01   6.728646e-03
  3.526783e+00    5.058017e-01   6.771519e-03
  3.528994e+00    5.240638e-01   6.904988e-03
  3.531204e+00    5.324323e-01   6.972512e-03
  3.533414e+00    5.226918e-01   6.920471e-03
  3.535625e+00    5.478190e-01   7.097470e-03
  3.537835e+00    5.453483e-01   7.093695e-03
  3.540046e+00    5.502266e-01   7.134424e-03
  3.542256e+00    5.377381e-01   7.060530e-03
  3.544467e+00    5.332251e-01   7.038474e-03
  3.546677e+00    5.227691e-01   6.976577e-03
  3.548888e+00    5.459370e-01   7.137046e-03
  3.551098e+00    5.415024e-01   7.115345e-03
  3.553309e+00    5.376638e-01   7.098254e-03
  3.555519e+00    5.391262e-01   7.119245e-03
  3.557729e+00    5.142950e-01   6.964844e-03
  3.559940e+00    5.288111e-01   7.073886e-03
  3.562150e+00    5.283728e-01   7.082619e-03
  3.564361e+00    5.236140e-01   7.063795e-03
  3.566571e+00    5.476464e-01   7.238055e-03
  3.568782e+00    5.456360e-01   7.239024e-03
  3.570992e+00    5.410024e-01   7.222026e-03
  3.573203e+00    5.233647e-01   7.117323e-03
  3.575413e+00    5.461180e-01   7.284251e-03
  3.577624e+00    5.335895e-01   7.214346e-03
  3.579834e+00    5.252945e-01   7.171755e-03
  3.582045e+00    5.421400e-01   7.299984e-03
  3.584255e+00    5.387024e-01   7.290901e-03
  3.586465e+00    5.389027e-01   7.306184e-03
  3.588676e+00    5.457895e-01   7.367077e-03
  3.590886e+00    5.251708e-01   7.240155e-03
  3.593097e+00    5.347848e-01   7.320595e-03
  3.595307e+00    5.110201e-01   7.169705e-03
  3.597518e+00    5.356948e-01   7.354958e-03
  3.599728e+00    5.311989e-01   7.338084e-03
  3.601939e+00    5.366074e-01   7.389401e-03
  3.604149e+00    5.580124e-01   7.550075e-03
  3.606360e+00    5.332155e-01   7.394519e-03
  3.608570e+00    5.463160e-01   7.499125e-03
  3.610780e+00    5.466565e-01   7.512617e-03
  3.612991e+00    5.236850e-01   7.363018e-03
  3.615201e+00    5.377526e-01   7.471039e-03
  3.617412e+00    5.448860e-01   7.527786e-03
  3.619622e+00    5.354065e-01   7.467994e-03
  3.621833e+00    5.336719e-01   7.462574e-03
  3.624043e+00    5.479853e-01   7.571596e-03
  3.626254e+00    5.486842e-01   7.586303e-03
  3.628464e+00    5.467583e-01   7.584038e-03
  3.630675e+00    5.393008e-01   7.546355e-03
  3.632885e+00    5.314746e-01   7.505812e-03
  3.635095e+00    5.377226e-01   7.564252e-03
  3.637306e+00    5.241933e-01   7.482736e-03
  3.639516e+00    5.226210e-01   7.485865e-03
  3.641727e+00    5.385207e-01   7.613542e-03
  3.643937e+00    5.281188e-01   7.554117e-03
  3.646148e+00    5.431044e-01   7.675292e-03
  3.648358e+00    5.371282e-01   7.647885e-03
  3.650569e+00    5.254676e-01   7.579035e-03
  3.652779e+00    5.391573e-01   7.691974e-03
  3.654990e+00    5.483447e-01   7.772331e-03
  3.657200e+00    5.452151e-01   7.765219e-03
  3.659410e+00    5.336844e-01   7.697655e-03
  3.661621e+00    5.331421e-01   7.708861e-03
  3.663831e+00    5.189224e-01   7.620319e-03
  3.666042e+00    5.385439e-01   7.778244e-03
  3.668252e+00    5.519048e-01   7.889750e-03
  3.670463e+00    5.140098e-01   7.629023e-03
  3.672673e+00    5.285285e-01   7.751397e-03
  3.674884e+00    5.395620e-01   7.847422e-03
  3.677094e+00    5.332448e-01   7.816920e-03
  3.679305e+00    5.165467e-01   7.708898e-03
  3.681515e+00    5.239698e-01   7.779598e-03
  3.683726e+00    5.359632e-01   7.884053e-03
  3.685936e+00    5.128384e-01   7.727555e-03
  3.688146e+00    5.109469e-01   7.728803e-03
  3.690357e+00    5.213567e-01   7.822968e-03
  3.692567e+00    5.070377e-01   7.730637e-03
  3.694778e+00    5.119762e-01   7.783994e-03
  3.696988e+00    5.087308e-01   7.775016e-03
  3.699199e+00    5.208464e-01   7.883191e-03
  3.701409e+00    5.523747e-01   8.135105e-03
  3.703620e+00    5.222109e-01   7.926139e-03
  3.705830e+00    5.501505e-01   8.152201e-03
  3.708041e+00    5.357727e-01   8.061780e-03
  3.710251e+00    5.203165e-01   7.961282e-03
  3.712461e+00    5.042053e-01   7.853487e-03
  3.714672e+00    5.169266e-01   7.968596e-03
  3.716882e+00    5.204111e-01   8.012114e-03
  3.719093e+00    5.259644e-01   8.071978e-03
  3.721303e+00    5.003889e-01   7.889946e-03
  3.723514e+00    5.181506e-01   8.045963e-03
  3.725724e+00    5.132650e-01   8.025032e-03
  3.727935e+00    5.040169e-01   7.969656e-03
  3.730145e+00    5.120023e-01   8.049724e-03
  3.732356e+00    5.163069e-01   8.101086e-03
  3.734566e+00    5.111243e-01   8.077761e-03
  3.736776e+00    5.064674e-01   8.058489e-03
  3.738987e+00    5.130289e-01   8.128253e-03
  3.741197e+00    5.063727e-01   8.093229e-03
  3.743408e+00    5.168967e-01   8.195000e-03
  3.745618e+00    5.435277e-01   8.422328e-03
  3.747829e+00    5.214294e-01   8.267645e-03
  3.750039e+00    4.972440e-01   8.091688e-03
  3.752250e+00    5.200933e-01   8.294150e-03
  3.754460e+00    5.133793e-01   8.259064e-03
  3.756671e+00    5.027982e-01   8.192196e-03
  3.758881e+00    5.016303e-01   8.201150e-03
  3.761091e+00    5.378681e-01   8.511912e-03
  3.763302e+00    5.055463e-01   8.271264e-03
  3.765512e+00    4.950285e-01   8.203739e-03
  3.767723e+00    4.990921e-01   8.256580e-03
  3.769933e+00    4.712990e-01   8.042009e-03
  3.772144e+00    4.982191e-01   8.287924e-03
  3.774354e+00    5.037064e-01   8.353232e-03
  3.776565e+00    4.925520e-01   8.279866e-03
  3.778775e+00    5.126091e-01   8.466847e-03
  3.780986e+00    5.173852e-01   8.526796e-03
  3.783196e+00    5.134945e-01   8.515116e-03
  3.785407e+00    5.046506e-01   8.461905e-03
  3.787617e+00    5.367607e-01   8.748421e-03
  3.789827e+00    5.042416e-01   8.499874e-03
  3.792038e+00    5.294482e-01   8.731080e-03
  3.794248e+00    5.200677e-01   8.674981e-03
  3.796459e+00    5.048392e-01   8.568457e-03
  3.798669e+00    5.130768e-01   8.659659e-03
  3.800880e+00    5.157817e-01   8.704299e-03
  3.803090e+00    5.179539e-01   8.744794e-03
  3.805301e+00    5.175034e-01   8.763478e-03
  3.807511e+00    4.997226e-01   8.633569e-03
  3.809722e+00    5.027779e-01   8.682234e-03
  3.811932e+00    5.126385e-01   8.789474e-03
  3.814142e+00    5.009135e-01   8.711302e-03
  3.816353e+00    5.311712e-01   8.994098e-03
  3.818563e+00    5.061947e-01   8.803376e-03
  3.820774e+00    5.061712e-01   8.826518e-03
  3.822984e+00    5.054327e-01   8.843580e-03
  3.825195e+00    5.196987e-01   8.991817e-03
  3.827405e+00    5.119296e-01   8.948536e-03
  3.829616e+00    5.149566e-01   8.999495e-03
  3.831826e+00    4.920122e-01   8.820734e-03
  3.834037e+00    5.115371e-01   9.018846e-03
  3.836247e+00    4.977475e-01   8.921264e-03
  3.838457e+00    4.842469e-01   8.824131e-03
  3.840668e+00    5.078176e-01   9.061799e-03
  3.842878e+00    5.182323e-01   9.180299e-03
  3.845089e+00    5.159109e-01   9.185849e-03
  3.847299e+00    5.159012e-01   9.212106e-03
  3.849510e+00    4.843500e-01   8.951527e-03
  3.851720e+00    5.019431e-01   9.134131e-03
  3.853931e+00    5.100906e-01   9.227352e-03
  3.856141e+00    5.011095e-01   9.164867e-03
  3.858352e+00    4.803258e-01   8.991756e-03
  3.860562e+00    4.732825e-01   8.944500e-03
  3.862772e+00    4.965267e-01   9.181111e-03
  3.864983e+00    5.011343e-01   9.243453e-03
  3.867193e+00    5.201663e-01   9.437655e-03
  3.869404e+00    4.787314e-01   9.073458e-03
  3.871614e+00    5.108631e-01   9.393361e-03
  3.873825e+00    4.806890e-01   9.131826e-03
  3.876035e+00    4.992709e-01   9.327262e-03
  3.878246e+00    5.029224e-01   9.387432e-03
  3.880456e+00    4.772321e-01   9.173070e-03
  3.882667e+00    4.811837e-01   9.239909e-03
  3.884877e+00    4.726635e-01   9.186974e-03
  3.887087e+00    4.881794e-01   9.366287e-03
  3.889298e+00    4.970177e-01   9.481298e-03
  3.891508e+00    5.128653e-01   9.662477e-03
  3.893719e+00    4.985293e-01   9.557704e-03
  3.895929e+00    4.970543e-01   9.575177e-03
  3.898140e+00    5.069500e-01   9.702271e-03
  3.900350e+00    4.969331e-01   9.638228e-03
  3.902561e+00    5.045855e-01   9.745067e-03
  3.904771e+00    5.032610e-01   9.765489e-03
  3.906982e+00    4.934289e-01   9.702921e-03
  3.909192e+00    5.046284e-01   9.846393e-03
  3.911403e+00    5.099245e-01   9.932699e-03
  3.913613e+00    5.214704e-01   1.007992e-02
  3.915823e+00    5.011226e-01   9.916539e-03
  3.918034e+00    4.838637e-01   9.779415e-03
  3.920244e+00    5.156589e-01   1.013227e-02
  3.922455e+00    4.950248e-01   9.963840e-03
  3.924665e+00    4.967675e-01   1.001812e-02
  3.926876e+00    4.803109e-01   9.887573e-03
  3.929086e+00    4.828337e-01   9.950723e-03
  3.931297e+00    4.765118e-01   9.919702e-03
  3.933507e+00    5.267413e-01   1.045954e-02
  3.935718e+00    5.158320e-01   1.038033e-02
  3.937928e+00    5.016892e-01   1.026685e-02
  3.940138e+00    5.133598e-01   1.041565e-02
  3.942349e+00    5.304802e-01   1.061906e-02
  3.944559e+00    5.036187e-01   1.037734e-02
  3.946770e+00    5.123854e-01   1.049809e-02
  3.948980e+00    5.124257e-01   1.053012e-02
  3.951191e+00    4.983439e-01   1.041563e-02
  3.953401e+00    4.738236e-01   1.018713e-02
  3.955612e+00    4.256437e-01   9.684915e-03
  3.957822e+00    4.642323e-01   1.014527e-02
  3.960033e+00    4.795133e-01   1.034336e-02
  3.962243e+00    4.886640e-01   1.047458e-02
  3.964453e+00    5.152211e-01   1.078938e-02
  3.966664e+00    5.357277e-01   1.103726e-02
  3.968874e+00    5.000471e-01   1.069214e-02
  3.971085e+00    4.880157e-01   1.058475e-02
  3.973295e+00    4.711840e-01   1.042169e-02
  3.975506e+00    5.241762e-01   1.101460e-02
  3.977716e+00    5.288137e-01   1.108613e-02
  3.979927e+00    5.254163e-01   1.107356e-02
  3.982137e+00    5.180151e-01   1.101831e-02
  3.984348e+00    4.999385e-01   1.084724e-02
  3.986558e+00    4.905208e-01   1.076706e-02
  3.988768e+00    5.009784e-01   1.090453e-02
  3.990979e+00    4.903881e-01   1.081161e-02
  3.993189e+00    4.718690e-01   1.062825e-02
  3.995400e+00    4.702958e-01   1.063362e-02
  3.997610e+00    4.820749e-01   1.079578e-02
  3.999821e+00    4.972070e-01   1.100187e-02
  4.002031e+00    4.715570e-01   1.075216e-02
  4.004242e+00    4.686673e-01   1.075707e-02
  4.006452e+00    4.508044e-01   1.058801e-02
  4.008663e+00    4.860153e-01   1.103378e-02
  4.010873e+00    4.722549e-01   1.091587e-02
  4.013084e+00    4.997791e-01   1.127115e-02
  4.015294e+00    4.903414e-01   1.120540e-02
  4.017504e+00    4.954059e-01   1.130550e-02
  4.019715e+00    4.683246e-01   1.103394e-02
  4.021925e+00    4.926141e-01   1.135976e-02
  4.024136e+00    4.861720e-01   1.132907e-02
  4.026346e+00    4.643687e-01   1.111536e-02
  4.028557e+00    4.802141e-01   1.134752e-02
  4.030767e+00    5.059891e-01   1.169475e-02
  4.032978e+00    4.992852e-01   1.166411e-02
  4.035188e+00    4.519837e-01   1.114252e-02
  4.037399e+00    4.690524e-01   1.139780e-02
  4.039609e+00    4.719671e-01   1.148023e-02
  4.041819e+00    4.832948e-01   1.166598e-02
  4.044030e+00    4.882295e-01   1.177553e-02
  4.046240e+00    5.146594e-01   1.214153e-02
  4.048451e+00    4.719481e-01   1.167731e-02
  4.050661e+00    4.857905e-01   1.189868e-02
  4.052872e+00    4.723107e-01   1.178478e-02
  4.055082e+00    4.583631e-01   1.166154e-02
  4.057293e+00    4.286346e-01   1.132771e-02
  4.059503e+00    4.439309e-01   1.158045e-02
  4.061714e+00    4.983436e-01   1.232702e-02
  4.063924e+00    4.716633e-01   1.204881e-02
  4.066134e+00    4.725748e-01   1.211711e-02
  4.068345e+00    4.916924e-01   1.241934e-02
  4.070555e+00    5.211701e-01   1.284790e-02
  4.072766e+00    5.052831e-01   1.271289e-02
  4.074976e+00    4.569140e-01   1.214936e-02
  4.077187e+00    4.313124e-01   1.186281e-02
  4.079397e+00    4.974491e-01   1.280482e-02
  4.081608e+00    4.728837e-01   1.254968e-02
  4.083818e+00    5.190164e-01   1.321585e-02
  4.086029e+00    4.776403e-01   1.274518e-02
  4.088239e+00    4.868585e-01   1.293668e-02
  4.090449e+00    4.861926e-01   1.299812e-02
  4.092660e+00    4.726598e-01   1.288620e-02
  4.094870e+00    4.859518e-01   1.313902e-02
  4.097081e+00    4.622013e-01   1.288400e-02
  4.099291e+00    4.988319e-01   1.344025e-02
  4.101502e+00    4.470427e-01   1.277089e-02
  4.103712e+00    4.807238e-01   1.329259e-02
  4.105923e+00    4.936403e-01   1.352210e-02
  4.108133e+00    4.543481e-01   1.302288e-02
  4.110344e+00    4.949563e-01   1.364432e-02
  4.112554e+00    4.880880e-01   1.360285e-02
  4.114764e+00    4.414273e-01   1.298844e-02
  4.116975e+00    4.425479e-01   1.305603e-02
  4.119185e+00    4.910277e-01   1.380830e-02
  4.121396e+00    4.549248e-01   1.334613e-02
  4.123606e+00    4.738035e-01   1.367597e-02
  4.125817e+00    4.716461e-01   1.370200e-02
  4.128027e+00    4.455453e-01   1.337362e-02
  4.130238e+00    4.638629e-01   1.370415e-02
  4.132448e+00    4.749441e-01   1.392710e-02
  4.134659e+00    4.726849e-01   1.395383e-02
  4.136869e+00    4.818551e-01   1.415123e-02
  4.139080e+00    4.665011e-01   1.398677e-02
  4.141290e+00    4.950909e-01   1.447285e-02
  4.143500e+00    4.866499e-01   1.441491e-02
  4.145711e+00    5.079244e-01   1.479565e-02
  4.147921e+00    4.869378e-01   1.455313e-02
  4.150132e+00    4.641324e-01   1.427602e-02
  4.152342e+00    4.709640e-01   1.445046e-02
  4.154553e+00    4.820694e-01   1.468926e-02
  4.156763e+00    5.081975e-01   1.515672e-02
  4.158974e+00    5.266719e-01   1.550746e-02
  4.161184e+00    4.911093e-01   1.504894e-02
  4.163395e+00    5.297886e-01   1.571011e-02
  4.165605e+00    5.072979e-01   1.545305e-02
  4.167815e+00    4.987015e-01   1.540147e-02
  4.170026e+00    4.918868e-01   1.537646e-02
  4.172236e+00    5.176323e-01   1.585902e-02
  4.174447e+00    5.027090e-01   1.571363e-02
  4.176657e+00    5.346062e-01   1.629320e-02
  4.178868e+00    5.305333e-01   1.632305e-02
  4.181078e+00    4.653469e-01   1.537338e-02
  4.183289e+00    4.545969e-01   1.528170e-02
  4.185499e+00    5.465555e-01   1.685511e-02
  4.187710e+00    4.970861e-01   1.616825e-02
  4.189920e+00    4.718102e-01   1.584694e-02
  4.192130e+00    5.005123e-01   1.642125e-02
  4.194341e+00    5.424269e-01   1.720018e-02
  4.196551e+00    5.094548e-01   1.677477e-02
  4.198762e+00    4.266406e-01   1.544831e-02
  4.200972e+00    5.095119e-01   1.699131e-02
  4.203183e+00    4.608082e-01   1.626530e-02
  4.205393e+00    5.007163e-01   1.706803e-02
  4.207604e+00    4.897219e-01   1.699483e-02
  4.209814e+00    4.730567e-01   1.681741e-02
  4.212025e+00    4.603775e-01   1.670814e-02
  4.214235e+00    5.215887e-01   1.791044e-02
  4.216445e+00    5.248985e-01   1.809698e-02
  4.218656e+00    3.978029e-01   1.587273e-02
  4.220866e+00    4.501448e-01   1.700942e-02
  4.223077e+00    4.955086e-01   1.798349e-02
  4.225287e+00    4.607149e-01   1.747684e-02
  4.227498e+00    4.984721e-01   1.832159e-02
  4.229708e+00    4.624472e-01   1.779052e-02
  4.231919e+00    4.667649e-01   1.802134e-02
  4.234129e+00    4.774250e-01   1.837856e-02
  4.236340e+00    4.458837e-01   1.791324e-02
  4.238550e+00    4.339322e-01   1.782769e-02
  4.240761e+00    4.470072e-01   1.825369e-02
  4.242971e+00    4.956535e-01   1.939780e-02
  4.245181e+00    4.822643e-01   1.931355e-02
  4.247392e+00    4.596450e-01   1.903151e-02
  4.249602e+00    4.959789e-01   1.996565e-02
  4.251813e+00    4.885879e-01   2.001169e-02
  4.254023e+00    5.329596e-01   2.111129e-02
  4.256234e+00    5.021652e-01   2.071147e-02
  4.258444e+00    4.891514e-01   2.065453e-02
  4.260655e+00    4.772899e-01   2.062787e-02
  4.262865e+00    4.341647e-01   1.989636e-02
  4.265076e+00    4.554220e-01   2.060965e-02
  4.267286e+00    4.168156e-01   1.995063e-02
  4.269496e+00    4.441504e-01   2.084552e-02
  4.271707e+00    4.592574e-01   2.145895e-02
  4.273917e+00    4.657086e-01   2.188841e-02
  4.276128e+00    4.443263e-01   2.166429e-02
  4.278338e+00    3.946238e-01   2.068943e-02
  4.280549e+00    4.523732e-01   2.246897e-02
  4.282759e+00    4.273248e-01   2.215212e-02
  4.284970e+00    4.358825e-01   2.270368e-02
  4.287180e+00    3.819017e-01   2.150590e-02
  4.289391e+00    5.582157e-01   2.619613e-02
  4.291601e+00    4.867740e-01   2.465800e-02
  4.293811e+00    4.262849e-01   2.325557e-02
  4.296022e+00    5.056270e-01   2.553046e-02
  4.298232e+00    5.148563e-01   2.597858e-02
  4.300443e+00    4.329029e-01   2.401789e-02
  4.302653e+00    5.268207e-01   2.672480e-02
  4.304864e+00    4.947409e-01   2.612231e-02
  4.307074e+00    5.162027e-01   2.692375e-02
  4.309285e+00    5.220179e-01   2.732034e-02
  4.311495e+00    3.224015e-01   2.167141e-02
  4.313706e+00    3.956619e-01   2.423301e-02
  4.315916e+00    3.860185e-01   2.417214e-02
  4.318126e+00    3.828393e-01   2.430926e-02
  4.320337e+00    4.945658e-01   2.791018e-02
  4.322547e+00    4.582422e-01   2.715041e-02
  4.324758e+00    5.066429e-01   2.884509e-02
  4.326968e+00    5.454619e-01   3.026678e-02
  4.329179e+00    4.552398e-01   2.795582e-02
  4.331389e+00    4.173248e-01   2.707430e-02
  4.333600e+00    4.889918e-01   2.965673e-02
  4.335810e+00    4.084297e-01   2.742681e-02
  4.338021e+00    4.646837e-01   2.962876e-02
  4.340231e+00    5.349072e-01   3.218786e-02
  4.342442e+00    4.623572e-01   3.032684e-02
  4.344652e+00    4.576155e-01   3.058088e-02
  4.346862e+00    5.054762e-01   3.259020e-02
  4.349073e+00    5.091625e-01   3.318535e-02
  4.351283e+00    5.073231e-01   3.362050e-02
  4.353494e+00    4.450608e-01   3.197437e-02
  4.355704e+00    5.380279e-01   3.572378e-02
  4.357915e+00    4.411423e-01   3.288636e-02
  4.360125e+00    3.514396e-01   2.985339e-02
  4.362336e+00    4.824950e-01   3.561639e-02
  4.364546e+00    3.962553e-01   3.286567e-02
  4.366757e+00    5.068376e-01   3.790802e-02
  4.368967e+00    4.762184e-01   3.747728e-02
  4.371177e+00    5.683949e-01   4.181673e-02
  4.373388e+00    4.745392e-01   3.906228e-02
  4.375598e+00    4.492236e-01   3.887248e-02
  4.377809e+00    4.357281e-01   3.925298e-02
  4.380019e+00    4.918759e-01   4.275394e-02
  4.382230e+00    4.146402e-01   4.035005e-02
  4.384440e+00    4.398247e-01   4.275248e-02
  4.386651e+00    5.593216e-01   4.969994e-02
  4.388861e+00    4.675357e-01   4.696255e-02
  4.391072e+00    6.062185e-01   5.535588e-02
  4.393282e+00    5.824534e-01   5.635844e-02
  4.395492e+00    5.928217e-01   5.921949e-02
  4.397703e+00    3.891812e-01   5.017708e-02
  4.399913e+00    3.248881e-01   4.816639e-02
  4.402124e+00    4.971350e-01   6.295687e-02
  4.404334e+00    5.867063e-01   7.270207e-02
  4.406545e+00    2.862693e-01   5.455866e-02
  4.408755e+00    5.723009e-01   8.367396e-02
  4.410966e+00    3.118463e-01   6.835654e-02
  4.413176e+00    1.412263e-01   5.207975e-02
  4.415387e+00   -4.635494e-01            nan
  4.417597e+00   -1.557149e+00            nan
  4.419807e+00    3.257673e-01   2.050554e-01
