# == pyFAI calibration ==
# Distance Sample to Detector: 0.216 m
# PONI: 1.166e-01, 1.308e-01 m
# Rotations: 0.000000 0.000000 0.000000 rad
# 
# == Fit2d calibration ==
# Distance Sample-beamCenter: 216.000 mm
# Center: x=1744.293, y=1555.000 pix
# Tilt: 0.000 deg  TiltPlanRot: 0.000 deg
# 
# Detector Eiger 9M	 PixelSize= 7.500e-05, 7.500e-05 m
#    Detector has a mask: True 
#    Detector has a dark current: False 
#    detector has a flat field: False 
# 
# Wavelength: 9.8e-11 m
# Mask applied: from detector
# Dark current applied: False
# Flat field applied: False
# Polarization factor: None
# Normalization factor: 1.0
# 
# Headers of the input frame:
# {
# "_array_data.header_convention": "SLS_1.0",
# "_array_data.header_contents": "# Detector: Dectris Eiger 9M, S/N E-18-0102\r\n# Pixel_size 75e-6 m x 75e-6 m\r\n# Silicon sensor, thickness 0.000450 m\r\n# Exposure_time 0.024997 s\r\n# Exposure_period 0.025000 s\r\n# Count_cutoff 62318 counts\r\n# Wavelength 0.980106 A\r\n# Detector_distance 0.215992 m\r\n# Beam_xy (1555, 1744) pixels\r\n# Start_angle 0.000000 deg.\r\n# Angle_increment 0.000000 deg.",
# "Content-Type": "application/octet-stream;",
# "conversions": "x-CBF_BYTE_OFFSET",
# "Content-Transfer-Encoding": "BINARY",
# "X-Binary-Size": "10166616",
# "X-Binary-ID": "1",
# "X-Binary-Element-Type": "signed 32-bit integer",
# "X-Binary-Element-Byte-Order": "LITTLE_ENDIAN",
# "Content-MD5": "cQ0piitBbm+CDE6GukoQQA==",
# "X-Binary-Number-of-Elements": "10166590",
# "X-Binary-Size-Fastest-Dimension": "3110",
# "X-Binary-Size-Second-Dimension": "3269",
# "X-Binary-Size-Padding": "4095"
# }
# --> H:/Proxima2a_2019-04-05/RAW_DATA/C5_gel17_position5/C5_mesh_1_data.cbf/C5_mesh_1_data.cbf000045.dat
#        q_A^-1              I           sigma 
  1.105228e-03    1.321277e+00   6.219907e-01
  3.315685e-03    1.583333e+00   4.139345e-01
  5.526141e-03    1.272841e+00   2.869850e-01
  7.736597e-03    1.177077e+00   2.331431e-01
  9.947054e-03    1.387208e+00   2.231245e-01
  1.215751e-02    1.328993e+00   1.974831e-01
  1.436797e-02    1.331815e+00   1.818435e-01
  1.657842e-02    1.328507e+00   1.690543e-01
  1.878888e-02    1.622374e+00   1.754846e-01
  2.099934e-02    1.504026e+00   1.598563e-01
  2.320979e-02    1.530518e+00   1.533741e-01
  2.542025e-02    1.479579e+00   1.441049e-01
  2.763070e-02    1.470936e+00   1.378120e-01
  2.984116e-02    1.476832e+00   1.328746e-01
  3.205162e-02    1.407029e+00   1.251520e-01
  3.426207e-02    1.519520e+00   1.257848e-01
  3.647253e-02    1.336640e+00   1.143397e-01
  3.868299e-02    1.367620e+00   1.123125e-01
  4.089344e-02    1.537408e+00   1.158178e-01
  4.310390e-02    1.508866e+00   1.117504e-01
  4.531436e-02    1.482170e+00   1.080226e-01
  4.752481e-02    1.616050e+00   1.101403e-01
  4.973527e-02    1.474104e+00   1.028291e-01
  5.194572e-02    1.551064e+00   1.032091e-01
  5.415618e-02    1.396397e+00   9.590545e-02
  5.636664e-02    1.435934e+00   9.533062e-02
  5.857709e-02    1.530325e+00   9.653979e-02
  6.078755e-02    1.537415e+00   9.498455e-02
  6.299801e-02    1.469315e+00   9.121241e-02
  6.520846e-02    1.483231e+00   9.007724e-02
  6.741892e-02    1.458557e+00   8.784391e-02
  6.962938e-02    1.378162e+00   8.402654e-02
  7.183983e-02    1.458648e+00   8.510347e-02
  7.405029e-02    1.403103e+00   8.221027e-02
  7.626074e-02    1.392801e+00   8.071138e-02
  7.847120e-02    1.430109e+00   8.062293e-02
  8.068166e-02    1.380634e+00   7.812277e-02
  8.289211e-02    1.302386e+00   7.485773e-02
  8.510257e-02    1.394188e+00   7.643810e-02
  8.731303e-02    1.498722e+00   7.823934e-02
  8.952348e-02    1.586584e+00   7.950220e-02
  9.173394e-02    1.546194e+00   7.752929e-02
  9.394439e-02    1.547635e+00   7.664498e-02
  9.615485e-02    1.359648e+00   7.100730e-02
  9.836531e-02    1.396495e+00   7.114787e-02
  1.005758e-01    1.448037e+00   7.164886e-02
  1.027862e-01    1.453873e+00   7.101516e-02
  1.049967e-01    1.522474e+00   7.190098e-02
  1.072071e-01    1.595774e+00   7.284781e-02
  1.094176e-01    1.468093e+00   6.916226e-02
  1.116280e-01    1.502510e+00   6.927051e-02
  1.138385e-01    1.532931e+00   6.928427e-02
  1.160490e-01    1.514459e+00   6.820573e-02
  1.182594e-01    1.483189e+00   6.686267e-02
  1.204699e-01    1.503242e+00   6.669219e-02
  1.226803e-01    1.504788e+00   6.611989e-02
  1.248908e-01    1.547755e+00   6.646036e-02
  1.271012e-01    1.571669e+00   6.638558e-02
  1.293117e-01    1.668918e+00   6.782056e-02
  1.315222e-01    1.523574e+00   6.425177e-02
  1.337326e-01    1.587992e+00   6.505036e-02
  1.359431e-01    1.634577e+00   6.603627e-02
  1.381535e-01    1.570000e+00   6.558740e-02
  1.403640e-01    1.549252e+00   6.543389e-02
  1.425744e-01    1.553098e+00   6.561972e-02
  1.447849e-01    1.600348e+00   6.662574e-02
  1.469953e-01    1.591017e+00   6.638966e-02
  1.492058e-01    1.524208e+00   6.490526e-02
  1.514163e-01    1.546427e+00   6.526808e-02
  1.536267e-01    1.610326e+00   6.647284e-02
  1.558372e-01    1.545815e+00   6.498399e-02
  1.580476e-01    1.587832e+00   6.570140e-02
  1.602581e-01    1.643904e+00   6.668162e-02
  1.624685e-01    1.619617e+00   6.600602e-02
  1.646790e-01    1.657635e+00   6.658448e-02
  1.668895e-01    1.696300e+00   6.716201e-02
  1.690999e-01    1.763833e+00   6.828023e-02
  1.713104e-01    1.733498e+00   6.748047e-02
  1.735208e-01    1.736417e+00   6.732724e-02
  1.757313e-01    1.815669e+00   6.863078e-02
  1.779417e-01    1.807673e+00   6.825613e-02
  1.801522e-01    1.856528e+00   6.895206e-02
  1.823626e-01    1.858338e+00   6.875600e-02
  1.845731e-01    1.899707e+00   6.929189e-02
  1.867836e-01    2.012404e+00   7.107691e-02
  1.889940e-01    2.046892e+00   7.144915e-02
  1.912045e-01    2.126302e+00   7.257874e-02
  1.934149e-01    2.012203e+00   7.036827e-02
  1.956254e-01    1.894285e+00   6.805013e-02
  1.978358e-01    1.931432e+00   6.847860e-02
  2.000463e-01    2.080498e+00   7.083654e-02
  2.022568e-01    2.019726e+00   6.956522e-02
  2.044672e-01    1.996839e+00   6.893298e-02
  2.066777e-01    1.945654e+00   6.781795e-02
  2.088881e-01    1.902345e+00   6.683950e-02
  2.110986e-01    1.904475e+00   6.664758e-02
  2.133090e-01    1.853670e+00   6.553883e-02
  2.155195e-01    2.001577e+00   6.787746e-02
  2.177300e-01    2.051628e+00   6.818104e-02
  2.199404e-01    2.014205e+00   6.577624e-02
  2.221509e-01    1.995861e+00   6.440090e-02
  2.243613e-01    1.946491e+00   6.279311e-02
  2.265718e-01    2.032116e+00   6.345218e-02
  2.287822e-01    2.063189e+00   6.330265e-02
  2.309927e-01    2.126029e+00   6.367406e-02
  2.332031e-01    2.162716e+00   6.367145e-02
  2.354136e-01    2.108056e+00   6.235218e-02
  2.376241e-01    2.124619e+00   6.211081e-02
  2.398345e-01    2.186079e+00   6.253648e-02
  2.420450e-01    2.152400e+00   6.160941e-02
  2.442554e-01    2.140533e+00   6.101607e-02
  2.464659e-01    2.102967e+00   6.007225e-02
  2.486763e-01    2.152144e+00   6.037110e-02
  2.508868e-01    2.150882e+00   5.997268e-02
  2.530973e-01    2.128205e+00   5.928585e-02
  2.553077e-01    2.098490e+00   5.851339e-02
  2.575182e-01    2.140102e+00   5.874109e-02
  2.597286e-01    2.154541e+00   5.859628e-02
  2.619391e-01    2.149503e+00   5.819082e-02
  2.641495e-01    2.052788e+00   5.655187e-02
  2.663600e-01    2.056757e+00   5.629523e-02
  2.685704e-01    2.062718e+00   5.607114e-02
  2.707809e-01    2.123195e+00   5.658523e-02
  2.729914e-01    2.076388e+00   5.566641e-02
  2.752018e-01    2.041988e+00   5.491604e-02
  2.774123e-01    2.022232e+00   5.437057e-02
  2.796227e-01    1.973275e+00   5.344274e-02
  2.818332e-01    1.984910e+00   5.333265e-02
  2.840436e-01    2.041209e+00   5.382159e-02
  2.862541e-01    1.951640e+00   5.237449e-02
  2.884646e-01    1.983625e+00   5.255134e-02
  2.906750e-01    2.017802e+00   5.275081e-02
  2.928855e-01    1.999721e+00   5.227060e-02
  2.950959e-01    1.992631e+00   5.193819e-02
  2.973064e-01    1.960101e+00   5.128098e-02
  2.995168e-01    1.987276e+00   5.140137e-02
  3.017273e-01    1.972337e+00   5.098205e-02
  3.039377e-01    1.918126e+00   5.005636e-02
  3.061482e-01    1.900500e+00   4.961031e-02
  3.083587e-01    1.906201e+00   4.946960e-02
  3.105691e-01    1.945073e+00   4.975800e-02
  3.127796e-01    1.955998e+00   4.968778e-02
  3.149900e-01    1.950461e+00   4.941066e-02
  3.172005e-01    1.958903e+00   4.931501e-02
  3.194109e-01    1.923614e+00   4.866706e-02
  3.216214e-01    1.883976e+00   4.796651e-02
  3.238319e-01    1.887641e+00   4.782292e-02
  3.260423e-01    1.835112e+00   4.696499e-02
  3.282528e-01    1.895404e+00   4.754025e-02
  3.304632e-01    1.849400e+00   4.677787e-02
  3.326737e-01    1.828303e+00   4.632881e-02
  3.348841e-01    1.863708e+00   4.659385e-02
  3.370946e-01    1.839990e+00   4.612224e-02
  3.393050e-01    1.805290e+00   4.551220e-02
  3.415155e-01    1.851729e+00   4.592055e-02
  3.437260e-01    1.832451e+00   4.551157e-02
  3.459364e-01    1.854190e+00   4.561141e-02
  3.481469e-01    1.829003e+00   4.513519e-02
  3.503573e-01    1.887343e+00   4.568235e-02
  3.525678e-01    1.826797e+00   4.478348e-02
  3.547782e-01    1.797046e+00   4.425677e-02
  3.569887e-01    1.795403e+00   4.407978e-02
  3.591992e-01    1.758775e+00   4.347348e-02
  3.614096e-01    1.743881e+00   4.313890e-02
  3.636201e-01    1.834328e+00   4.408799e-02
  3.658305e-01    1.727989e+00   4.264505e-02
  3.680410e-01    1.724429e+00   4.245455e-02
  3.702514e-01    1.766830e+00   4.282880e-02
  3.724619e-01    1.800138e+00   4.308341e-02
  3.746724e-01    1.822251e+00   4.320260e-02
  3.768828e-01    1.794944e+00   4.273339e-02
  3.790933e-01    1.811701e+00   4.279251e-02
  3.813037e-01    1.828381e+00   4.284839e-02
  3.835142e-01    1.767858e+00   4.199486e-02
  3.857246e-01    1.796356e+00   4.219499e-02
  3.879351e-01    1.772347e+00   4.177640e-02
  3.901455e-01    1.733243e+00   4.118145e-02
  3.923560e-01    1.761699e+00   4.138616e-02
  3.945665e-01    1.800353e+00   4.170505e-02
  3.967769e-01    1.762242e+00   4.113207e-02
  3.989874e-01    1.709639e+00   4.038702e-02
  4.011978e-01    1.729255e+00   4.049313e-02
  4.034083e-01    1.750327e+00   4.061405e-02
  4.056187e-01    1.745409e+00   4.043200e-02
  4.078292e-01    1.764309e+00   4.052730e-02
  4.100397e-01    1.784413e+00   4.063310e-02
  4.122501e-01    1.760708e+00   4.024157e-02
  4.144606e-01    1.740936e+00   3.989631e-02
  4.166710e-01    1.786287e+00   4.029244e-02
  4.188815e-01    1.824171e+00   4.059720e-02
  4.210919e-01    1.818612e+00   4.041650e-02
  4.233024e-01    1.796946e+00   4.005687e-02
  4.255128e-01    1.803571e+00   4.001462e-02
  4.277233e-01    1.778118e+00   3.961711e-02
  4.299338e-01    1.834935e+00   4.012929e-02
  4.321442e-01    1.859941e+00   4.028619e-02
  4.343547e-01    1.840239e+00   3.995894e-02
  4.365651e-01    1.787882e+00   3.927451e-02
  4.387756e-01    1.739916e+00   3.863558e-02
  4.409860e-01    1.753858e+00   3.868261e-02
  4.431965e-01    1.718090e+00   3.818028e-02
  4.454070e-01    1.716946e+00   3.806135e-02
  4.476174e-01    1.723659e+00   3.803100e-02
  4.498279e-01    1.753585e+00   3.825534e-02
  4.520383e-01    1.717031e+00   3.775065e-02
  4.542488e-01    1.732426e+00   3.781725e-02
  4.564592e-01    1.758406e+00   3.799755e-02
  4.586697e-01    1.751485e+00   3.782204e-02
  4.608801e-01    1.670955e+00   3.684337e-02
  4.630906e-01    1.678275e+00   3.682618e-02
  4.653011e-01    1.726693e+00   3.725543e-02
  4.675115e-01    1.729191e+00   3.718415e-02
  4.697220e-01    1.721399e+00   3.700317e-02
  4.719324e-01    1.731746e+00   3.701819e-02
  4.741429e-01    1.733123e+00   3.693748e-02
  4.763533e-01    1.756643e+00   3.709195e-02
  4.785638e-01    1.711046e+00   3.651283e-02
  4.807743e-01    1.685167e+00   3.614349e-02
  4.829847e-01    1.727213e+00   3.649918e-02
  4.851952e-01    1.677309e+00   3.587702e-02
  4.874056e-01    1.733356e+00   3.637953e-02
  4.896161e-01    1.742415e+00   3.638403e-02
  4.918265e-01    1.697411e+00   3.582191e-02
  4.940370e-01    1.651355e+00   3.524536e-02
  4.962475e-01    1.675460e+00   3.541397e-02
  4.984579e-01    1.712257e+00   3.571253e-02
  5.006684e-01    1.632467e+00   3.478550e-02
  5.028788e-01    1.688980e+00   3.529673e-02
  5.050893e-01    1.660843e+00   3.491637e-02
  5.072997e-01    1.666646e+00   3.489285e-02
  5.095102e-01    1.592932e+00   3.403078e-02
  5.117206e-01    1.681443e+00   3.488029e-02
  5.139311e-01    1.751133e+00   3.551156e-02
  5.161416e-01    1.676508e+00   3.466456e-02
  5.183520e-01    1.665385e+00   3.446726e-02
  5.205625e-01    1.699837e+00   3.474037e-02
  5.227729e-01    1.680474e+00   3.446138e-02
  5.249834e-01    1.675847e+00   3.433401e-02
  5.271938e-01    1.758262e+00   3.508606e-02
  5.294043e-01    1.714707e+00   3.456880e-02
  5.316148e-01    1.781130e+00   3.515130e-02
  5.338252e-01    1.730565e+00   3.456957e-02
  5.360357e-01    1.769740e+00   3.487906e-02
  5.382461e-01    1.762310e+00   3.472709e-02
  5.404566e-01    1.752161e+00   3.454815e-02
  5.426670e-01    1.722025e+00   3.417260e-02
  5.448775e-01    1.723032e+00   3.410621e-02
  5.470879e-01    1.759697e+00   3.439032e-02
  5.492984e-01    1.743473e+00   3.415529e-02
  5.515089e-01    1.817227e+00   3.479290e-02
  5.537193e-01    1.820178e+00   3.474444e-02
  5.559298e-01    1.749640e+00   3.398984e-02
  5.581402e-01    1.743107e+00   3.385219e-02
  5.603507e-01    1.757136e+00   3.391416e-02
  5.625611e-01    1.792650e+00   3.418084e-02
  5.647716e-01    1.817520e+00   3.434239e-02
  5.669821e-01    1.818832e+00   3.428073e-02
  5.691925e-01    1.826475e+00   3.427895e-02
  5.714030e-01    1.749823e+00   3.348041e-02
  5.736134e-01    1.740406e+00   3.331918e-02
  5.758239e-01    1.709071e+00   3.294740e-02
  5.780343e-01    1.714750e+00   3.293226e-02
  5.802448e-01    1.727671e+00   3.298691e-02
  5.824552e-01    1.731257e+00   3.295187e-02
  5.846657e-01    1.653045e+00   3.213182e-02
  5.868762e-01    1.670895e+00   3.223756e-02
  5.890866e-01    1.660527e+00   3.207072e-02
  5.912971e-01    1.606838e+00   3.148269e-02
  5.935075e-01    1.614347e+00   3.149093e-02
  5.957180e-01    1.628687e+00   3.156558e-02
  5.979284e-01    1.621201e+00   3.142869e-02
  6.001389e-01    1.591252e+00   3.107362e-02
  6.023494e-01    1.603880e+00   3.113334e-02
  6.045598e-01    1.628199e+00   3.130460e-02
  6.067703e-01    1.653043e+00   3.147911e-02
  6.089807e-01    1.671505e+00   3.159077e-02
  6.111912e-01    1.659752e+00   3.141665e-02
  6.134016e-01    1.667648e+00   3.142848e-02
  6.156121e-01    1.691100e+00   3.158579e-02
  6.178226e-01    1.671579e+00   3.134079e-02
  6.200330e-01    1.680442e+00   3.136177e-02
  6.222435e-01    1.684548e+00   3.133786e-02
  6.244539e-01    1.697338e+00   3.139501e-02
  6.266644e-01    1.694645e+00   3.130891e-02
  6.288748e-01    1.703322e+00   3.132786e-02
  6.310853e-01    1.716445e+00   3.138725e-02
  6.332957e-01    1.739194e+00   3.153357e-02
  6.355062e-01    1.727406e+00   3.136548e-02
  6.377167e-01    1.709893e+00   3.114620e-02
  6.399271e-01    1.684726e+00   3.085689e-02
  6.421376e-01    1.717406e+00   3.109526e-02
  6.443480e-01    1.700969e+00   3.088724e-02
  6.465585e-01    1.700772e+00   3.082693e-02
  6.487689e-01    1.699355e+00   3.075591e-02
  6.509794e-01    1.690322e+00   3.061620e-02
  6.531899e-01    1.694776e+00   3.059887e-02
  6.554003e-01    1.638011e+00   3.002551e-02
  6.576108e-01    1.614396e+00   2.975277e-02
  6.598212e-01    1.601903e+00   2.958238e-02
  6.620317e-01    1.585091e+00   2.937217e-02
  6.642421e-01    1.638242e+00   2.980532e-02
  6.664526e-01    1.628552e+00   2.966230e-02
  6.686630e-01    1.619856e+00   2.952829e-02
  6.708735e-01    1.622240e+00   2.949582e-02
  6.730840e-01    1.616398e+00   2.938897e-02
  6.752944e-01    1.634325e+00   2.949776e-02
  6.775049e-01    1.589709e+00   2.903952e-02
  6.797153e-01    1.608938e+00   2.916172e-02
  6.819258e-01    1.613480e+00   2.915018e-02
  6.841362e-01    1.633337e+00   2.927626e-02
  6.863467e-01    1.586767e+00   2.880422e-02
  6.885572e-01    1.575138e+00   2.864701e-02
  6.907676e-01    1.616971e+00   2.897294e-02
  6.929781e-01    1.562758e+00   2.843249e-02
  6.951885e-01    1.583814e+00   2.857267e-02
  6.973990e-01    1.567035e+00   2.837068e-02
  6.996094e-01    1.580480e+00   2.844199e-02
  7.018199e-01    1.579478e+00   2.838309e-02
  7.040303e-01    1.592287e+00   2.844788e-02
  7.062408e-01    1.596389e+00   2.843459e-02
  7.084513e-01    1.631883e+00   2.869897e-02
  7.106617e-01    1.601269e+00   2.837909e-02
  7.128722e-01    1.585377e+00   2.818906e-02
  7.150826e-01    1.597679e+00   2.824944e-02
  7.172931e-01    1.585249e+00   2.809085e-02
  7.195035e-01    1.549241e+00   2.772221e-02
  7.217140e-01    1.569827e+00   2.795519e-02
  7.239245e-01    1.542318e+00   2.793355e-02
  7.261349e-01    1.586677e+00   2.844141e-02
  7.283454e-01    1.599477e+00   2.862891e-02
  7.305558e-01    1.556051e+00   2.829124e-02
  7.327663e-01    1.569104e+00   2.845209e-02
  7.349767e-01    1.577068e+00   2.854059e-02
  7.371872e-01    1.581470e+00   2.856918e-02
  7.393976e-01    1.588786e+00   2.862087e-02
  7.416081e-01    1.581321e+00   2.853735e-02
  7.438186e-01    1.583078e+00   2.840849e-02
  7.460290e-01    1.592457e+00   2.819663e-02
  7.482395e-01    1.550725e+00   2.765485e-02
  7.504499e-01    1.545723e+00   2.747520e-02
  7.526604e-01    1.556314e+00   2.745327e-02
  7.548708e-01    1.579401e+00   2.756662e-02
  7.570813e-01    1.558525e+00   2.733312e-02
  7.592918e-01    1.552926e+00   2.724903e-02
  7.615022e-01    1.565668e+00   2.732689e-02
  7.637127e-01    1.523499e+00   2.692415e-02
  7.659231e-01    1.565212e+00   2.725830e-02
  7.681336e-01    1.584173e+00   2.739125e-02
  7.703440e-01    1.599041e+00   2.748800e-02
  7.725545e-01    1.595954e+00   2.743038e-02
  7.747650e-01    1.630888e+00   2.769008e-02
  7.769754e-01    1.646569e+00   2.776901e-02
  7.791859e-01    1.620999e+00   2.749831e-02
  7.813963e-01    1.605289e+00   2.731169e-02
  7.836068e-01    1.590450e+00   2.713308e-02
  7.858172e-01    1.577434e+00   2.697131e-02
  7.880277e-01    1.556641e+00   2.674196e-02
  7.902381e-01    1.605943e+00   2.711281e-02
  7.924486e-01    1.624868e+00   2.722158e-02
  7.946591e-01    1.608216e+00   2.703331e-02
  7.968695e-01    1.629926e+00   2.716650e-02
  7.990800e-01    1.638787e+00   2.719153e-02
  8.012904e-01    1.732277e+00   2.790803e-02
  8.035009e-01    1.837234e+00   2.868991e-02
  8.057113e-01    1.857376e+00   2.879691e-02
  8.079218e-01    1.727396e+00   2.772312e-02
  8.101323e-01    1.677929e+00   2.727685e-02
  8.123427e-01    1.722380e+00   2.758866e-02
  8.145532e-01    1.770098e+00   2.792039e-02
  8.167636e-01    1.734348e+00   2.759055e-02
  8.189741e-01    1.697369e+00   2.724931e-02
  8.211845e-01    1.675619e+00   2.702878e-02
  8.233950e-01    1.649099e+00   2.677044e-02
  8.256054e-01    1.644980e+00   2.669267e-02
  8.278159e-01    1.645875e+00   2.665585e-02
  8.300264e-01    1.677537e+00   2.686743e-02
  8.322368e-01    1.642219e+00   2.653993e-02
  8.344473e-01    1.633452e+00   2.642567e-02
  8.366577e-01    1.635424e+00   2.639910e-02
  8.388682e-01    1.642385e+00   2.641292e-02
  8.410786e-01    1.650200e+00   2.643349e-02
  8.432891e-01    1.668522e+00   2.653763e-02
  8.454996e-01    1.631111e+00   2.619688e-02
  8.477100e-01    1.641925e+00   2.624189e-02
  8.499205e-01    1.628000e+00   2.608932e-02
  8.521309e-01    1.622968e+00   2.600836e-02
  8.543414e-01    1.598567e+00   2.577183e-02
  8.565518e-01    1.622180e+00   2.592105e-02
  8.587623e-01    1.653932e+00   2.613275e-02
  8.609727e-01    1.699692e+00   2.645073e-02
  8.631832e-01    1.654016e+00   2.605267e-02
  8.653937e-01    1.663136e+00   2.608425e-02
  8.676041e-01    1.642471e+00   2.588259e-02
  8.698146e-01    1.654609e+00   2.593832e-02
  8.720250e-01    1.654346e+00   2.589675e-02
  8.742355e-01    1.611563e+00   2.552080e-02
  8.764459e-01    1.622080e+00   2.556486e-02
  8.786564e-01    1.625575e+00   2.555425e-02
  8.808669e-01    1.601969e+00   2.532956e-02
  8.830773e-01    1.604276e+00   2.530962e-02
  8.852878e-01    1.601957e+00   2.525340e-02
  8.874982e-01    1.591269e+00   2.513251e-02
  8.897087e-01    1.579433e+00   2.500142e-02
  8.919191e-01    1.604056e+00   2.515776e-02
  8.941296e-01    1.595280e+00   2.505163e-02
  8.963401e-01    1.594817e+00   2.501162e-02
  8.985505e-01    1.590968e+00   2.494455e-02
  9.007610e-01    1.592518e+00   2.492005e-02
  9.029714e-01    1.594869e+00   2.490266e-02
  9.051819e-01    1.596520e+00   2.487836e-02
  9.073923e-01    1.572549e+00   2.465463e-02
  9.096028e-01    1.578251e+00   2.466461e-02
  9.118132e-01    1.601041e+00   2.480582e-02
  9.140237e-01    1.607051e+00   2.481563e-02
  9.162342e-01    1.606410e+00   2.477606e-02
  9.184446e-01    1.604475e+00   2.472531e-02
  9.206551e-01    1.626576e+00   2.485914e-02
  9.228655e-01    1.628471e+00   2.483806e-02
  9.250760e-01    1.615342e+00   2.470224e-02
  9.272864e-01    1.613679e+00   2.465514e-02
  9.294969e-01    1.620306e+00   2.466970e-02
  9.317074e-01    1.612051e+00   2.457201e-02
  9.339178e-01    1.631159e+00   2.468345e-02
  9.361283e-01    1.656377e+00   2.483685e-02
  9.383387e-01    1.659433e+00   2.482596e-02
  9.405492e-01    1.647442e+00   2.470155e-02
  9.427596e-01    1.671052e+00   2.484210e-02
  9.449701e-01    1.685493e+00   2.491531e-02
  9.471805e-01    1.701916e+00   2.500095e-02
  9.493910e-01    1.679826e+00   2.480409e-02
  9.516015e-01    1.654491e+00   2.458195e-02
  9.538119e-01    1.692095e+00   2.482565e-02
  9.560224e-01    1.719391e+00   2.498989e-02
  9.582328e-01    1.671026e+00   2.460287e-02
  9.604433e-01    1.682551e+00   2.465257e-02
  9.626537e-01    1.738721e+00   2.502700e-02
  9.648642e-01    1.747920e+00   2.505877e-02
  9.670747e-01    1.742478e+00   2.498521e-02
  9.692851e-01    1.789582e+00   2.528701e-02
  9.714956e-01    1.798411e+00   2.531359e-02
  9.737060e-01    1.801490e+00   2.530196e-02
  9.759165e-01    1.818348e+00   2.538421e-02
  9.781269e-01    1.833235e+00   2.545459e-02
  9.803374e-01    1.813977e+00   2.528551e-02
  9.825478e-01    1.804476e+00   2.518594e-02
  9.847583e-01    1.835793e+00   2.536905e-02
  9.869688e-01    1.859102e+00   2.549543e-02
  9.891792e-01    1.799067e+00   2.504708e-02
  9.913897e-01    1.751516e+00   2.468050e-02
  9.936001e-01    1.750128e+00   2.463840e-02
  9.958106e-01    1.738197e+00   2.452092e-02
  9.980210e-01    1.695294e+00   2.418498e-02
  1.000231e+00    1.669278e+00   2.413015e-02
  1.002442e+00    1.622031e+00   2.391261e-02
  1.004652e+00    1.614208e+00   2.392140e-02
  1.006863e+00    1.601292e+00   2.387495e-02
  1.009073e+00    1.604733e+00   2.393717e-02
  1.011284e+00    1.592753e+00   2.387954e-02
  1.013494e+00    1.602094e+00   2.397320e-02
  1.015705e+00    1.634665e+00   2.423854e-02
  1.017915e+00    1.621278e+00   2.415576e-02
  1.020126e+00    1.552580e+00   2.365442e-02
  1.022336e+00    1.519899e+00   2.341565e-02
  1.024547e+00    1.512857e+00   2.337242e-02
  1.026757e+00    1.524825e+00   2.347300e-02
  1.028967e+00    1.525797e+00   2.348811e-02
  1.031178e+00    1.543369e+00   2.362916e-02
  1.033388e+00    1.515976e+00   2.342356e-02
  1.035599e+00    1.523274e+00   2.348328e-02
  1.037809e+00    1.555305e+00   2.373220e-02
  1.040020e+00    1.559819e+00   2.376789e-02
  1.042230e+00    1.559562e+00   2.376791e-02
  1.044441e+00    1.552965e+00   2.371735e-02
  1.046651e+00    1.572034e+00   2.386270e-02
  1.048862e+00    1.576077e+00   2.389256e-02
  1.051072e+00    1.592574e+00   2.401484e-02
  1.053282e+00    1.637061e+00   2.434694e-02
  1.055493e+00    1.652168e+00   2.445452e-02
  1.057703e+00    1.600449e+00   2.406716e-02
  1.059914e+00    1.591912e+00   2.399846e-02
  1.062124e+00    1.583338e+00   2.392959e-02
  1.064335e+00    1.504865e+00   2.332559e-02
  1.066545e+00    1.495913e+00   2.325006e-02
  1.068756e+00    1.503533e+00   2.330546e-02
  1.070966e+00    1.455320e+00   2.292226e-02
  1.073177e+00    1.476707e+00   2.308400e-02
  1.075387e+00    1.501256e+00   2.326980e-02
  1.077597e+00    1.472493e+00   2.303855e-02
  1.079808e+00    1.508769e+00   2.318584e-02
  1.082018e+00    1.605128e+00   2.371671e-02
  1.084229e+00    1.672247e+00   2.408978e-02
  1.086439e+00    1.585194e+00   2.336316e-02
  1.088650e+00    1.531859e+00   2.288905e-02
  1.090860e+00    1.559313e+00   2.302323e-02
  1.093071e+00    1.535285e+00   2.278120e-02
  1.095281e+00    1.465501e+00   2.219979e-02
  1.097492e+00    1.452280e+00   2.204438e-02
  1.099702e+00    1.446787e+00   2.195114e-02
  1.101912e+00    1.424260e+00   2.173099e-02
  1.104123e+00    1.423785e+00   2.167933e-02
  1.106333e+00    1.401449e+00   2.146470e-02
  1.108544e+00    1.397260e+00   2.138883e-02
  1.110754e+00    1.421939e+00   2.153394e-02
  1.112965e+00    1.437257e+00   2.160888e-02
  1.115175e+00    1.442233e+00   2.160474e-02
  1.117386e+00    1.429507e+00   2.146977e-02
  1.119596e+00    1.410232e+00   2.128667e-02
  1.121807e+00    1.397988e+00   2.115541e-02
  1.124017e+00    1.397992e+00   2.111891e-02
  1.126228e+00    1.401775e+00   2.111174e-02
  1.128438e+00    1.391003e+00   2.099384e-02
  1.130648e+00    1.389000e+00   2.094453e-02
  1.132859e+00    1.378283e+00   2.082941e-02
  1.135069e+00    1.411304e+00   2.104251e-02
  1.137280e+00    1.384325e+00   2.080750e-02
  1.139490e+00    1.363819e+00   2.062001e-02
  1.141701e+00    1.385769e+00   2.075216e-02
  1.143911e+00    1.366078e+00   2.057253e-02
  1.146122e+00    1.356049e+00   2.046514e-02
  1.148332e+00    1.347437e+00   2.036857e-02
  1.150543e+00    1.329278e+00   2.020053e-02
  1.152753e+00    1.375238e+00   2.051596e-02
  1.154963e+00    1.387472e+00   2.057582e-02
  1.157174e+00    1.359269e+00   2.033562e-02
  1.159384e+00    1.395385e+00   2.057390e-02
  1.161595e+00    1.376315e+00   2.040293e-02
  1.163805e+00    1.390694e+00   2.047974e-02
  1.166016e+00    1.364826e+00   2.025898e-02
  1.168226e+00    1.375374e+00   2.030805e-02
  1.170437e+00    1.353500e+00   2.011743e-02
  1.172647e+00    1.362585e+00   2.015595e-02
  1.174858e+00    1.435343e+00   2.065824e-02
  1.177068e+00    1.561778e+00   2.151865e-02
  1.179278e+00    1.768308e+00   2.286471e-02
  1.181489e+00    1.861859e+00   2.343023e-02
  1.183699e+00    1.708202e+00   2.241170e-02
  1.185910e+00    1.509962e+00   2.104187e-02
  1.188120e+00    1.423205e+00   2.040105e-02
  1.190331e+00    1.390288e+00   2.013664e-02
  1.192541e+00    1.396442e+00   2.015335e-02
  1.194752e+00    1.387314e+00   2.006000e-02
  1.196962e+00    1.339311e+00   1.968425e-02
  1.199173e+00    1.351460e+00   1.974680e-02
  1.201383e+00    1.376403e+00   1.990079e-02
  1.203593e+00    1.351959e+00   1.969845e-02
  1.205804e+00    1.372106e+00   1.981853e-02
  1.208014e+00    1.363343e+00   1.972819e-02
  1.210225e+00    1.329785e+00   1.945872e-02
  1.212435e+00    1.337120e+00   1.948764e-02
  1.214646e+00    1.372253e+00   1.971568e-02
  1.216856e+00    1.395963e+00   1.985937e-02
  1.219067e+00    1.390793e+00   1.979773e-02
  1.221277e+00    1.428302e+00   2.003718e-02
  1.223488e+00    1.392292e+00   1.975685e-02
  1.225698e+00    1.378002e+00   1.962802e-02
  1.227909e+00    1.379230e+00   1.960625e-02
  1.230119e+00    1.402888e+00   1.974122e-02
  1.232329e+00    1.400676e+00   1.969437e-02
  1.234540e+00    1.374299e+00   1.947750e-02
  1.236750e+00    1.378945e+00   1.947979e-02
  1.238961e+00    1.390857e+00   1.953638e-02
  1.241171e+00    1.376048e+00   1.940769e-02
  1.243382e+00    1.366763e+00   1.931843e-02
  1.245592e+00    1.393804e+00   1.948411e-02
  1.247803e+00    1.359207e+00   1.921706e-02
  1.250013e+00    1.346399e+00   1.910277e-02
  1.252224e+00    1.340687e+00   1.903905e-02
  1.254434e+00    1.341944e+00   1.902429e-02
  1.256644e+00    1.345365e+00   1.902535e-02
  1.258855e+00    1.341965e+00   1.897812e-02
  1.261065e+00    1.318341e+00   1.878722e-02
  1.263276e+00    1.318040e+00   1.876241e-02
  1.265486e+00    1.321763e+00   1.876624e-02
  1.267697e+00    1.349268e+00   1.893749e-02
  1.269907e+00    1.353980e+00   1.894779e-02
  1.272118e+00    1.372400e+00   1.905350e-02
  1.274328e+00    1.353348e+00   1.889801e-02
  1.276539e+00    1.361157e+00   1.892958e-02
  1.278749e+00    1.356089e+00   1.887197e-02
  1.280959e+00    1.318218e+00   1.858434e-02
  1.283170e+00    1.316220e+00   1.854806e-02
  1.285380e+00    1.346671e+00   1.873899e-02
  1.287591e+00    1.360936e+00   1.881585e-02
  1.289801e+00    1.359060e+00   1.878159e-02
  1.292012e+00    1.347547e+00   1.868479e-02
  1.294222e+00    1.339661e+00   1.861385e-02
  1.296433e+00    1.361258e+00   1.874763e-02
  1.298643e+00    1.335975e+00   1.855634e-02
  1.300854e+00    1.333591e+00   1.852344e-02
  1.303064e+00    1.356884e+00   1.866524e-02
  1.305274e+00    1.357860e+00   1.865046e-02
  1.307485e+00    1.360857e+00   1.864939e-02
  1.309695e+00    1.351603e+00   1.856362e-02
  1.311906e+00    1.354627e+00   1.856263e-02
  1.314116e+00    1.362020e+00   1.859234e-02
  1.316327e+00    1.331962e+00   1.836449e-02
  1.318537e+00    1.342556e+00   1.841554e-02
  1.320748e+00    1.357419e+00   1.849560e-02
  1.322958e+00    1.358016e+00   1.847908e-02
  1.325169e+00    1.365579e+00   1.850933e-02
  1.327379e+00    1.395228e+00   1.868699e-02
  1.329589e+00    1.437998e+00   1.894951e-02
  1.331800e+00    1.490802e+00   1.927256e-02
  1.334010e+00    1.432696e+00   1.887198e-02
  1.336221e+00    1.397045e+00   1.861357e-02
  1.338431e+00    1.377209e+00   1.845986e-02
  1.340642e+00    1.372084e+00   1.849017e-02
  1.342852e+00    1.363551e+00   1.853376e-02
  1.345063e+00    1.371303e+00   1.863624e-02
  1.347273e+00    1.375700e+00   1.870169e-02
  1.349484e+00    1.349749e+00   1.855212e-02
  1.351694e+00    1.382203e+00   1.879680e-02
  1.353905e+00    1.375385e+00   1.876856e-02
  1.356115e+00    1.367020e+00   1.872654e-02
  1.358325e+00    1.364985e+00   1.872598e-02
  1.360536e+00    1.358038e+00   1.868993e-02
  1.362746e+00    1.372201e+00   1.879677e-02
  1.364957e+00    1.357653e+00   1.870457e-02
  1.367167e+00    1.351818e+00   1.867148e-02
  1.369378e+00    1.315663e+00   1.842607e-02
  1.371588e+00    1.303306e+00   1.834437e-02
  1.373799e+00    1.318960e+00   1.845787e-02
  1.376009e+00    1.292809e+00   1.827730e-02
  1.378220e+00    1.288541e+00   1.824959e-02
  1.380430e+00    1.295660e+00   1.830259e-02
  1.382640e+00    1.297350e+00   1.831543e-02
  1.384851e+00    1.299975e+00   1.833480e-02
  1.387061e+00    1.312362e+00   1.842226e-02
  1.389272e+00    1.303933e+00   1.836320e-02
  1.391482e+00    1.297065e+00   1.831413e-02
  1.393693e+00    1.241333e+00   1.791549e-02
  1.395903e+00    1.254958e+00   1.801202e-02
  1.398114e+00    1.287180e+00   1.824043e-02
  1.400324e+00    1.276113e+00   1.815975e-02
  1.402535e+00    1.259051e+00   1.803561e-02
  1.404745e+00    1.276460e+00   1.815752e-02
  1.406955e+00    1.272699e+00   1.812806e-02
  1.409166e+00    1.284602e+00   1.820930e-02
  1.411376e+00    1.278782e+00   1.816489e-02
  1.413587e+00    1.292288e+00   1.825671e-02
  1.415797e+00    1.280145e+00   1.816719e-02
  1.418008e+00    1.279971e+00   1.812391e-02
  1.420218e+00    1.262837e+00   1.785289e-02
  1.422429e+00    1.257020e+00   1.772685e-02
  1.424639e+00    1.252206e+00   1.762864e-02
  1.426850e+00    1.241958e+00   1.750227e-02
  1.429060e+00    1.242051e+00   1.745447e-02
  1.431270e+00    1.272943e+00   1.762582e-02
  1.433481e+00    1.269260e+00   1.755939e-02
  1.435691e+00    1.268807e+00   1.751783e-02
  1.437902e+00    1.279343e+00   1.755382e-02
  1.440112e+00    1.274274e+00   1.748360e-02
  1.442323e+00    1.263323e+00   1.737536e-02
  1.444533e+00    1.255128e+00   1.728656e-02
  1.446744e+00    1.261714e+00   1.730081e-02
  1.448954e+00    1.278462e+00   1.738497e-02
  1.451165e+00    1.237727e+00   1.707641e-02
  1.453375e+00    1.246190e+00   1.710687e-02
  1.455586e+00    1.275153e+00   1.727632e-02
  1.457796e+00    1.257381e+00   1.712814e-02
  1.460006e+00    1.250523e+00   1.705432e-02
  1.462217e+00    1.247095e+00   1.700494e-02
  1.464427e+00    1.241826e+00   1.694365e-02
  1.466638e+00    1.284197e+00   1.720481e-02
  1.468848e+00    1.275288e+00   1.711965e-02
  1.471059e+00    1.265928e+00   1.703164e-02
  1.473269e+00    1.249177e+00   1.689440e-02
  1.475480e+00    1.242605e+00   1.682638e-02
  1.477690e+00    1.249379e+00   1.684852e-02
  1.479901e+00    1.243319e+00   1.678400e-02
  1.482111e+00    1.279117e+00   1.700047e-02
  1.484321e+00    1.275284e+00   1.695180e-02
  1.486532e+00    1.288317e+00   1.701569e-02
  1.488742e+00    1.231466e+00   1.661365e-02
  1.490953e+00    1.250564e+00   1.671951e-02
  1.493163e+00    1.248394e+00   1.668285e-02
  1.495374e+00    1.276207e+00   1.684604e-02
  1.497584e+00    1.304334e+00   1.700866e-02
  1.499795e+00    1.332467e+00   1.716886e-02
  1.502005e+00    1.325154e+00   1.709946e-02
  1.504216e+00    1.289157e+00   1.684433e-02
  1.506426e+00    1.286202e+00   1.680394e-02
  1.508636e+00    1.319116e+00   1.699665e-02
  1.510847e+00    1.324805e+00   1.701088e-02
  1.513057e+00    1.286964e+00   1.674077e-02
  1.515268e+00    1.272045e+00   1.661758e-02
  1.517478e+00    1.254225e+00   1.647560e-02
  1.519689e+00    1.253006e+00   1.644263e-02
  1.521899e+00    1.261180e+00   1.647302e-02
  1.524110e+00    1.251544e+00   1.638964e-02
  1.526320e+00    1.260852e+00   1.643080e-02
  1.528531e+00    1.261689e+00   1.641641e-02
  1.530741e+00    1.271970e+00   1.646387e-02
  1.532951e+00    1.238429e+00   1.622584e-02
  1.535162e+00    1.254138e+00   1.641517e-02
  1.537372e+00    1.249558e+00   1.645210e-02
  1.539583e+00    1.251362e+00   1.649825e-02
  1.541793e+00    1.231352e+00   1.637270e-02
  1.544004e+00    1.256989e+00   1.654252e-02
  1.546214e+00    1.243728e+00   1.645354e-02
  1.548425e+00    1.256911e+00   1.654076e-02
  1.550635e+00    1.253199e+00   1.652603e-02
  1.552846e+00    1.230736e+00   1.638687e-02
  1.555056e+00    1.213490e+00   1.623069e-02
  1.557266e+00    1.231337e+00   1.623971e-02
  1.559477e+00    1.246137e+00   1.627789e-02
  1.561687e+00    1.232341e+00   1.615700e-02
  1.563898e+00    1.240238e+00   1.619156e-02
  1.566108e+00    1.222140e+00   1.605717e-02
  1.568319e+00    1.244618e+00   1.618853e-02
  1.570529e+00    1.276947e+00   1.637198e-02
  1.572740e+00    1.277285e+00   1.634618e-02
  1.574950e+00    1.258339e+00   1.619802e-02
  1.577161e+00    1.258139e+00   1.617113e-02
  1.579371e+00    1.268227e+00   1.621194e-02
  1.581582e+00    1.261842e+00   1.615117e-02
  1.583792e+00    1.258403e+00   1.611103e-02
  1.586002e+00    1.235537e+00   1.594643e-02
  1.588213e+00    1.254351e+00   1.605006e-02
  1.590423e+00    1.257962e+00   1.605297e-02
  1.592634e+00    1.246133e+00   1.595569e-02
  1.594844e+00    1.222911e+00   1.578508e-02
  1.597055e+00    1.220024e+00   1.574613e-02
  1.599265e+00    1.233945e+00   1.581504e-02
  1.601476e+00    1.226694e+00   1.574833e-02
  1.603686e+00    1.224135e+00   1.571225e-02
  1.605897e+00    1.214635e+00   1.563122e-02
  1.608107e+00    1.226426e+00   1.568741e-02
  1.610317e+00    1.221757e+00   1.563835e-02
  1.612528e+00    1.225570e+00   1.564364e-02
  1.614738e+00    1.191913e+00   1.540869e-02
  1.616949e+00    1.202418e+00   1.545764e-02
  1.619159e+00    1.202258e+00   1.543806e-02
  1.621370e+00    1.214428e+00   1.549757e-02
  1.623580e+00    1.197636e+00   1.537187e-02
  1.625791e+00    1.160872e+00   1.511618e-02
  1.628001e+00    1.164238e+00   1.512011e-02
  1.630212e+00    1.189126e+00   1.526314e-02
  1.632422e+00    1.158116e+00   1.504515e-02
  1.634632e+00    1.134329e+00   1.487286e-02
  1.636843e+00    1.145782e+00   1.493047e-02
  1.639053e+00    1.126423e+00   1.478685e-02
  1.641264e+00    1.142844e+00   1.487733e-02
  1.643474e+00    1.154585e+00   1.493624e-02
  1.645685e+00    1.139030e+00   1.481877e-02
  1.647895e+00    1.123017e+00   1.469786e-02
  1.650106e+00    1.135131e+00   1.476004e-02
  1.652316e+00    1.120027e+00   1.464525e-02
  1.654527e+00    1.103947e+00   1.452334e-02
  1.656737e+00    1.122926e+00   1.463118e-02
  1.658947e+00    1.103480e+00   1.448789e-02
  1.661158e+00    1.115632e+00   1.455125e-02
  1.663368e+00    1.102408e+00   1.444887e-02
  1.665579e+00    1.082402e+00   1.430129e-02
  1.667789e+00    1.089007e+00   1.432881e-02
  1.670000e+00    1.098219e+00   1.437391e-02
  1.672210e+00    1.074272e+00   1.420071e-02
  1.674421e+00    1.062676e+00   1.410882e-02
  1.676631e+00    1.061950e+00   1.408842e-02
  1.678842e+00    1.029062e+00   1.385329e-02
  1.681052e+00    1.049801e+00   1.397710e-02
  1.683263e+00    1.064543e+00   1.405993e-02
  1.685473e+00    1.067667e+00   1.406554e-02
  1.687683e+00    1.069820e+00   1.406438e-02
  1.689894e+00    1.065236e+00   1.401856e-02
  1.692104e+00    1.063325e+00   1.399116e-02
  1.694315e+00    1.039783e+00   1.382112e-02
  1.696525e+00    1.030378e+00   1.374361e-02
  1.698736e+00    1.046018e+00   1.383280e-02
  1.700946e+00    1.038719e+00   1.376951e-02
  1.703157e+00    1.025952e+00   1.367019e-02
  1.705367e+00    1.028713e+00   1.367424e-02
  1.707578e+00    1.046518e+00   1.377751e-02
  1.709788e+00    1.054770e+00   1.381755e-02
  1.711998e+00    1.024278e+00   1.360150e-02
  1.714209e+00    1.016237e+00   1.353371e-02
  1.716419e+00    1.008977e+00   1.347120e-02
  1.718630e+00    1.015229e+00   1.349871e-02
  1.720840e+00    1.013564e+00   1.347356e-02
  1.723051e+00    1.010469e+00   1.343920e-02
  1.725261e+00    1.007693e+00   1.340615e-02
  1.727472e+00    9.938297e-01   1.329961e-02
  1.729682e+00    1.004036e+00   1.335433e-02
  1.731893e+00    1.005485e+00   1.335010e-02
  1.734103e+00    1.019392e+00   1.342824e-02
  1.736313e+00    1.015956e+00   1.339153e-02
  1.738524e+00    9.833055e-01   1.316089e-02
  1.740734e+00    9.731034e-01   1.307890e-02
  1.742945e+00    9.899552e-01   1.317825e-02
  1.745155e+00    9.879696e-01   1.315162e-02
  1.747366e+00    9.877847e-01   1.313658e-02
  1.749576e+00    1.010402e+00   1.327228e-02
  1.751787e+00    1.002010e+00   1.320359e-02
  1.753997e+00    9.955320e-01   1.314735e-02
  1.756208e+00    9.634672e-01   1.292077e-02
  1.758418e+00    9.539735e-01   1.284395e-02
  1.760628e+00    9.476200e-01   1.278792e-02
  1.762839e+00    9.332636e-01   1.267765e-02
  1.765049e+00    9.438437e-01   1.273634e-02
  1.767260e+00    9.731416e-01   1.291958e-02
  1.769470e+00    9.729857e-01   1.290547e-02
  1.771681e+00    9.338511e-01   1.263026e-02
  1.773891e+00    9.389719e-01   1.265184e-02
  1.776102e+00    9.599830e-01   1.277967e-02
  1.778312e+00    9.538162e-01   1.272578e-02
  1.780523e+00    9.838959e-01   1.291179e-02
  1.782733e+00    1.101459e+00   1.364774e-02
  1.784944e+00    1.052428e+00   1.332690e-02
  1.787154e+00    9.919382e-01   1.292528e-02
  1.789364e+00    9.548600e-01   1.266879e-02
  1.791575e+00    9.269663e-01   1.246980e-02
  1.793785e+00    9.607823e-01   1.268257e-02
  1.795996e+00    9.659243e-01   1.270365e-02
  1.798206e+00    9.663327e-01   1.269348e-02
  1.800417e+00    9.631554e-01   1.265962e-02
  1.802627e+00    9.461868e-01   1.253546e-02
  1.804838e+00    9.307566e-01   1.242060e-02
  1.807048e+00    9.249926e-01   1.236911e-02
  1.809259e+00    1.036815e+00   1.308083e-02
  1.811469e+00    1.225750e+00   1.420544e-02
  1.813679e+00    1.132797e+00   1.363954e-02
  1.815890e+00    9.395648e-01   1.240675e-02
  1.818100e+00    8.885786e-01   1.205034e-02
  1.820311e+00    8.878476e-01   1.203067e-02
  1.822521e+00    8.594863e-01   1.182238e-02
  1.824732e+00    8.602054e-01   1.181275e-02
  1.826942e+00    8.712214e-01   1.187592e-02
  1.829153e+00    8.799315e-01   1.192348e-02
  1.831363e+00    8.502759e-01   1.170904e-02
  1.833574e+00    8.730810e-01   1.185339e-02
  1.835784e+00    8.766813e-01   1.186640e-02
  1.837994e+00    8.895043e-01   1.194107e-02
  1.840205e+00    8.796189e-01   1.186335e-02
  1.842415e+00    8.577912e-01   1.170355e-02
  1.844626e+00    8.726260e-01   1.179273e-02
  1.846836e+00    8.671815e-01   1.174449e-02
  1.849047e+00    8.645712e-01   1.171518e-02
  1.851257e+00    8.699155e-01   1.174174e-02
  1.853468e+00    8.618695e-01   1.167851e-02
  1.855678e+00    8.618633e-01   1.166956e-02
  1.857889e+00    8.579821e-01   1.163479e-02
  1.860099e+00    8.435035e-01   1.152762e-02
  1.862309e+00    8.393579e-01   1.149084e-02
  1.864520e+00    8.514217e-01   1.156457e-02
  1.866730e+00    8.159280e-01   1.131179e-02
  1.868941e+00    8.413081e-01   1.147549e-02
  1.871151e+00    8.528240e-01   1.154236e-02
  1.873362e+00    8.696226e-01   1.164402e-02
  1.875572e+00    8.734265e-01   1.165837e-02
  1.877783e+00    9.022655e-01   1.183747e-02
  1.879993e+00    9.229818e-01   1.196096e-02
  1.882204e+00    9.119447e-01   1.187793e-02
  1.884414e+00    8.802647e-01   1.165849e-02
  1.886624e+00    8.356438e-01   1.134814e-02
  1.888835e+00    8.494679e-01   1.143055e-02
  1.891045e+00    8.508570e-01   1.142898e-02
  1.893256e+00    8.328139e-01   1.129609e-02
  1.895466e+00    8.292625e-01   1.126088e-02
  1.897677e+00    8.010725e-01   1.105710e-02
  1.899887e+00    8.265044e-01   1.122032e-02
  1.902098e+00    8.378492e-01   1.128618e-02
  1.904308e+00    8.440989e-01   1.131753e-02
  1.906519e+00    8.534536e-01   1.136908e-02
  1.908729e+00    8.917588e-01   1.161039e-02
  1.910940e+00    9.004654e-01   1.165537e-02
  1.913150e+00    8.608719e-01   1.138544e-02
  1.915360e+00    8.433554e-01   1.125825e-02
  1.917571e+00    8.556873e-01   1.132917e-02
  1.919781e+00    8.985734e-01   1.159840e-02
  1.921992e+00    9.145985e-01   1.169021e-02
  1.924202e+00    8.537908e-01   1.128391e-02
  1.926413e+00    7.997947e-01   1.091107e-02
  1.928623e+00    7.893209e-01   1.082899e-02
  1.930834e+00    7.916323e-01   1.083453e-02
  1.933044e+00    8.138606e-01   1.097491e-02
  1.935255e+00    8.085826e-01   1.092896e-02
  1.937465e+00    8.051018e-01   1.089503e-02
  1.939675e+00    8.093350e-01   1.091276e-02
  1.941886e+00    8.073608e-01   1.088917e-02
  1.944096e+00    8.165912e-01   1.094094e-02
  1.946307e+00    7.949600e-01   1.078480e-02
  1.948517e+00    7.936282e-01   1.076534e-02
  1.950728e+00    7.819866e-01   1.067596e-02
  1.952938e+00    7.968817e-01   1.076706e-02
  1.955149e+00    7.840757e-01   1.067004e-02
  1.957359e+00    7.954211e-01   1.073692e-02
  1.959570e+00    8.079917e-01   1.081047e-02
  1.961780e+00    7.860388e-01   1.065275e-02
  1.963990e+00    7.899888e-01   1.066936e-02
  1.966201e+00    7.913767e-01   1.066867e-02
  1.968411e+00    7.888034e-01   1.064115e-02
  1.970622e+00    7.883120e-01   1.062775e-02
  1.972832e+00    8.007990e-01   1.070153e-02
  1.975043e+00    7.965671e-01   1.066311e-02
  1.977253e+00    7.932578e-01   1.063094e-02
  1.979464e+00    7.866522e-01   1.057653e-02
  1.981674e+00    7.830966e-01   1.054233e-02
  1.983885e+00    7.967645e-01   1.062381e-02
  1.986095e+00    7.929209e-01   1.058839e-02
  1.988305e+00    7.720913e-01   1.043855e-02
  1.990516e+00    7.784181e-01   1.047129e-02
  1.992726e+00    7.732375e-01   1.042676e-02
  1.994937e+00    7.877458e-01   1.051392e-02
  1.997147e+00    7.638162e-01   1.034335e-02
  1.999358e+00    7.570853e-01   1.028793e-02
  2.001568e+00    7.750262e-01   1.039828e-02
  2.003779e+00    7.704142e-01   1.035541e-02
  2.005989e+00    7.675663e-01   1.032426e-02
  2.008200e+00    7.713709e-01   1.033827e-02
  2.010410e+00    7.666972e-01   1.029519e-02
  2.012621e+00    7.818570e-01   1.038466e-02
  2.014831e+00    7.712772e-01   1.030266e-02
  2.017041e+00    7.791239e-01   1.034447e-02
  2.019252e+00    7.770194e-01   1.032047e-02
  2.021462e+00    7.647094e-01   1.022887e-02
  2.023673e+00    7.654220e-01   1.022425e-02
  2.025883e+00    7.585861e-01   1.016899e-02
  2.028094e+00    7.660656e-01   1.020934e-02
  2.030304e+00    7.597075e-01   1.015737e-02
  2.032515e+00    7.747963e-01   1.024834e-02
  2.034725e+00    7.705504e-01   1.021073e-02
  2.036936e+00    7.579279e-01   1.011741e-02
  2.039146e+00    7.506077e-01   1.005890e-02
  2.041356e+00    7.469998e-01   1.002511e-02
  2.043567e+00    7.714984e-01   1.017877e-02
  2.045777e+00    7.556719e-01   1.006459e-02
  2.047988e+00    7.531522e-01   1.003843e-02
  2.050198e+00    7.458134e-01   9.981014e-03
  2.052409e+00    7.616562e-01   1.007876e-02
  2.054619e+00    7.595636e-01   1.005751e-02
  2.056830e+00    7.452986e-01   9.955466e-03
  2.059040e+00    7.458920e-01   9.951934e-03
  2.061251e+00    7.447721e-01   9.937244e-03
  2.063461e+00    7.331254e-01   9.851728e-03
  2.065671e+00    7.274462e-01   9.804891e-03
  2.067882e+00    7.441477e-01   9.907828e-03
  2.070092e+00    7.447205e-01   9.902473e-03
  2.072303e+00    7.452586e-01   9.896915e-03
  2.074513e+00    7.647417e-01   1.001598e-02
  2.076724e+00    7.678840e-01   1.002697e-02
  2.078934e+00    7.444655e-01   9.863867e-03
  2.081145e+00    7.427493e-01   9.843388e-03
  2.083355e+00    7.550699e-01   9.915458e-03
  2.085566e+00    7.420271e-01   9.820520e-03
  2.087776e+00    7.552709e-01   9.898166e-03
  2.089986e+00    7.598069e-01   9.918947e-03
  2.092197e+00    7.463813e-01   9.821902e-03
  2.094407e+00    7.401820e-01   9.771780e-03
  2.096618e+00    7.354142e-01   9.731358e-03
  2.098828e+00    7.152701e-01   9.587971e-03
  2.101039e+00    7.277154e-01   9.662062e-03
  2.103249e+00    7.233616e-01   9.624493e-03
  2.105460e+00    7.381228e-01   9.713138e-03
  2.107670e+00    7.261983e-01   9.625650e-03
  2.109881e+00    7.374817e-01   9.690885e-03
  2.112091e+00    7.319393e-01   9.645415e-03
  2.114301e+00    7.114408e-01   9.500673e-03
  2.116512e+00    7.121714e-01   9.496816e-03
  2.118722e+00    7.123133e-01   9.489002e-03
  2.120933e+00    7.092946e-01   9.460093e-03
  2.123143e+00    7.018709e-01   9.401632e-03
  2.125354e+00    7.134120e-01   9.470132e-03
  2.127564e+00    7.051274e-01   9.406301e-03
  2.129775e+00    7.165805e-01   9.473677e-03
  2.131985e+00    7.119327e-01   9.433838e-03
  2.134196e+00    7.116578e-01   9.423456e-03
  2.136406e+00    7.031474e-01   9.358246e-03
  2.138617e+00    7.116348e-01   9.406086e-03
  2.140827e+00    7.248945e-01   9.509567e-03
  2.143037e+00    7.113315e-01   9.465787e-03
  2.145248e+00    7.106228e-01   9.483149e-03
  2.147458e+00    7.202070e-01   9.562181e-03
  2.149669e+00    7.315534e-01   9.649314e-03
  2.151879e+00    7.178693e-01   9.567973e-03
  2.154090e+00    6.962674e-01   9.430200e-03
  2.156300e+00    7.104115e-01   9.532132e-03
  2.158511e+00    7.184374e-01   9.591226e-03
  2.160721e+00    6.910542e-01   9.411451e-03
  2.162932e+00    6.962957e-01   9.450805e-03
  2.165142e+00    7.115419e-01   9.556755e-03
  2.167352e+00    7.006801e-01   9.486479e-03
  2.169563e+00    6.810001e-01   9.354231e-03
  2.171773e+00    6.759602e-01   9.321969e-03
  2.173984e+00    6.923919e-01   9.435984e-03
  2.176194e+00    6.937478e-01   9.446436e-03
  2.178405e+00    7.065142e-01   9.533646e-03
  2.180615e+00    6.983535e-01   9.479133e-03
  2.182826e+00    6.963310e-01   9.466064e-03
  2.185036e+00    6.858177e-01   9.394402e-03
  2.187247e+00    6.788350e-01   9.346376e-03
  2.189457e+00    6.880001e-01   9.408877e-03
  2.191667e+00    6.921527e-01   9.437032e-03
  2.193878e+00    6.850911e-01   9.388214e-03
  2.196088e+00    6.953783e-01   9.457746e-03
  2.198299e+00    6.888335e-01   9.412041e-03
  2.200509e+00    6.885166e-01   9.408832e-03
  2.202720e+00    6.779305e-01   9.335036e-03
  2.204930e+00    6.863405e-01   9.391548e-03
  2.207141e+00    6.800287e-01   9.347136e-03
  2.209351e+00    6.850075e-01   9.379401e-03
  2.211562e+00    6.815998e-01   9.354420e-03
  2.213772e+00    6.693228e-01   9.214629e-03
  2.215982e+00    6.601950e-01   9.107879e-03
  2.218193e+00    6.695376e-01   9.142593e-03
  2.220403e+00    6.837956e-01   9.214681e-03
  2.222614e+00    6.764348e-01   9.143957e-03
  2.224824e+00    6.997222e-01   9.280264e-03
  2.227035e+00    6.807156e-01   9.135841e-03
  2.229245e+00    6.595218e-01   8.975658e-03
  2.231456e+00    6.660222e-01   9.004229e-03
  2.233666e+00    6.838081e-01   9.108420e-03
  2.235877e+00    6.727888e-01   9.020458e-03
  2.238087e+00    6.794053e-01   9.051123e-03
  2.240298e+00    6.693088e-01   8.969846e-03
  2.242508e+00    6.682086e-01   8.947349e-03
  2.244718e+00    6.737207e-01   8.968320e-03
  2.246929e+00    6.667160e-01   8.907172e-03
  2.249139e+00    6.797918e-01   8.981572e-03
  2.251350e+00    6.913629e-01   9.045786e-03
  2.253560e+00    7.037691e-01   9.114695e-03
  2.255771e+00    7.417901e-01   9.345611e-03
  2.257981e+00    7.603348e-01   9.449785e-03
  2.260192e+00    7.517415e-01   9.384411e-03
  2.262402e+00    7.423329e-01   9.314036e-03
  2.264613e+00    7.425360e-01   9.303834e-03
  2.266823e+00    7.567131e-01   9.381128e-03
  2.269033e+00    7.573975e-01   9.374293e-03
  2.271244e+00    7.161862e-01   9.104883e-03
  2.273454e+00    7.119486e-01   9.067257e-03
  2.275665e+00    7.203819e-01   9.110048e-03
  2.277875e+00    7.183121e-01   9.086614e-03
  2.280086e+00    6.950968e-01   8.928276e-03
  2.282296e+00    6.715812e-01   8.766450e-03
  2.284507e+00    6.658211e-01   8.718581e-03
  2.286717e+00    6.779107e-01   8.787769e-03
  2.288928e+00    6.493450e-01   8.590837e-03
  2.291138e+00    6.534314e-01   8.608406e-03
  2.293348e+00    6.484984e-01   8.566365e-03
  2.295559e+00    6.619817e-01   8.645604e-03
  2.297769e+00    6.676639e-01   8.673287e-03
  2.299980e+00    6.660739e-01   8.653544e-03
  2.302190e+00    6.577156e-01   8.589904e-03
  2.304401e+00    6.478198e-01   8.515763e-03
  2.306611e+00    6.572315e-01   8.568151e-03
  2.308822e+00    6.448050e-01   8.478435e-03
  2.311032e+00    6.421512e-01   8.454548e-03
  2.313243e+00    6.568902e-01   8.544709e-03
  2.315453e+00    6.534657e-01   8.514830e-03
  2.317663e+00    6.397827e-01   8.416139e-03
  2.319874e+00    6.372080e-01   8.390506e-03
  2.322084e+00    6.361893e-01   8.374914e-03
  2.324295e+00    6.262941e-01   8.301418e-03
  2.326505e+00    6.393852e-01   8.378712e-03
  2.328716e+00    6.479481e-01   8.426043e-03
  2.330926e+00    6.628757e-01   8.513622e-03
  2.333137e+00    6.480327e-01   8.409377e-03
  2.335347e+00    6.354572e-01   8.318529e-03
  2.337558e+00    6.559493e-01   8.443254e-03
  2.339768e+00    6.559289e-01   8.434466e-03
  2.341979e+00    6.460316e-01   8.362172e-03
  2.344189e+00    6.395423e-01   8.311659e-03
  2.346399e+00    6.348569e-01   8.272672e-03
  2.348610e+00    6.432759e-01   8.318830e-03
  2.350820e+00    6.312782e-01   8.232737e-03
  2.353031e+00    6.170604e-01   8.131319e-03
  2.355241e+00    6.386158e-01   8.264028e-03
  2.357452e+00    6.394220e-01   8.260795e-03
  2.359662e+00    6.376954e-01   8.241349e-03
  2.361873e+00    6.276923e-01   8.168264e-03
  2.364083e+00    6.355289e-01   8.211057e-03
  2.366294e+00    6.188378e-01   8.094466e-03
  2.368504e+00    6.259789e-01   8.132957e-03
  2.370714e+00    6.315465e-01   8.160949e-03
  2.372925e+00    6.400374e-01   8.207499e-03
  2.375135e+00    6.117949e-01   8.016379e-03
  2.377346e+00    6.235122e-01   8.084847e-03
  2.379556e+00    6.106262e-01   7.993045e-03
  2.381767e+00    6.174217e-01   8.029553e-03
  2.383977e+00    6.186448e-01   8.029584e-03
  2.386188e+00    6.227900e-01   8.048514e-03
  2.388398e+00    6.158125e-01   7.995351e-03
  2.390609e+00    6.060231e-01   7.923895e-03
  2.392819e+00    6.067637e-01   7.921020e-03
  2.395029e+00    6.129678e-01   7.953774e-03
  2.397240e+00    6.033677e-01   7.883429e-03
  2.399450e+00    6.250174e-01   8.015751e-03
  2.401661e+00    6.125305e-01   7.927596e-03
  2.403871e+00    6.183456e-01   7.957327e-03
  2.406082e+00    6.086193e-01   7.887080e-03
  2.408292e+00    5.968897e-01   7.802990e-03
  2.410503e+00    6.023328e-01   7.831031e-03
  2.412713e+00    6.028737e-01   7.826781e-03
  2.414924e+00    5.955624e-01   7.771761e-03
  2.417134e+00    5.979803e-01   7.779927e-03
  2.419344e+00    6.083117e-01   7.839405e-03
  2.421555e+00    5.743006e-01   7.609774e-03
  2.423765e+00    5.956430e-01   7.742495e-03
  2.425976e+00    5.790067e-01   7.625942e-03
  2.428186e+00    5.984231e-01   7.745527e-03
  2.430397e+00    5.971140e-01   7.729579e-03
  2.432607e+00    5.866351e-01   7.654235e-03
  2.434818e+00    5.996625e-01   7.731171e-03
  2.437028e+00    5.958188e-01   7.699221e-03
  2.439239e+00    5.962059e-01   7.694041e-03
  2.441449e+00    5.901706e-01   7.647801e-03
  2.443659e+00    5.834322e-01   7.596734e-03
  2.445870e+00    5.852488e-01   7.620733e-03
  2.448080e+00    5.895085e-01   7.683430e-03
  2.450291e+00    5.726302e-01   7.589178e-03
  2.452501e+00    5.644541e-01   7.545860e-03
  2.454712e+00    5.592570e-01   7.519338e-03
  2.456922e+00    5.703396e-01   7.600121e-03
  2.459133e+00    5.604960e-01   7.539635e-03
  2.461343e+00    5.581160e-01   7.527933e-03
  2.463554e+00    5.663785e-01   7.586913e-03
  2.465764e+00    5.698239e-01   7.613145e-03
  2.467975e+00    5.423450e-01   7.429533e-03
  2.470185e+00    5.506991e-01   7.488783e-03
  2.472395e+00    5.439668e-01   7.444076e-03
  2.474606e+00    5.451063e-01   7.453402e-03
  2.476816e+00    5.599669e-01   7.555075e-03
  2.479027e+00    5.408338e-01   7.425717e-03
  2.481237e+00    5.633640e-01   7.579084e-03
  2.483448e+00    5.534730e-01   7.512575e-03
  2.485658e+00    5.512205e-01   7.497116e-03
  2.487869e+00    5.474180e-01   7.471264e-03
  2.490079e+00    5.414835e-01   7.430129e-03
  2.492290e+00    5.453300e-01   7.456031e-03
  2.494500e+00    5.514113e-01   7.496757e-03
  2.496710e+00    5.394297e-01   7.414164e-03
  2.498921e+00    5.362690e-01   7.391414e-03
  2.501131e+00    5.519924e-01   7.498012e-03
  2.503342e+00    5.413636e-01   7.424222e-03
  2.505552e+00    5.448658e-01   7.447039e-03
  2.507763e+00    5.338001e-01   7.369613e-03
  2.509973e+00    5.395488e-01   7.407781e-03
  2.512184e+00    5.329557e-01   7.360762e-03
  2.514394e+00    5.283665e-01   7.319623e-03
  2.516605e+00    5.273002e-01   7.265143e-03
  2.518815e+00    5.195389e-01   7.183316e-03
  2.521025e+00    5.332484e-01   7.256368e-03
  2.523236e+00    5.234640e-01   7.171533e-03
  2.525446e+00    5.266015e-01   7.177370e-03
  2.527657e+00    5.308629e-01   7.191677e-03
  2.529867e+00    5.276010e-01   7.155332e-03
  2.532078e+00    5.258778e-01   7.128587e-03
  2.534288e+00    5.141541e-01   7.034933e-03
  2.536499e+00    5.295833e-01   7.127713e-03
  2.538709e+00    5.263206e-01   7.094712e-03
  2.540920e+00    5.111260e-01   6.981040e-03
  2.543130e+00    5.231478e-01   7.052290e-03
  2.545340e+00    5.339250e-01   7.114420e-03
  2.547551e+00    5.225282e-01   7.028123e-03
  2.549761e+00    5.297675e-01   7.067014e-03
  2.551972e+00    5.129554e-01   6.944684e-03
  2.554182e+00    5.204162e-01   6.985844e-03
  2.556393e+00    5.217146e-01   6.985441e-03
  2.558603e+00    5.148119e-01   6.930074e-03
  2.560814e+00    5.105266e-01   6.892521e-03
  2.563024e+00    5.293461e-01   7.009758e-03
  2.565235e+00    5.115882e-01   6.881742e-03
  2.567445e+00    5.163268e-01   6.904013e-03
  2.569656e+00    5.164017e-01   6.894776e-03
  2.571866e+00    5.161003e-01   6.883429e-03
  2.574076e+00    5.263329e-01   6.941965e-03
  2.576287e+00    5.376340e-01   7.007616e-03
  2.578497e+00    5.192639e-01   6.878983e-03
  2.580708e+00    5.162357e-01   6.850804e-03
  2.582918e+00    5.090528e-01   6.795249e-03
  2.585129e+00    5.148797e-01   6.826299e-03
  2.587339e+00    4.935249e-01   6.675689e-03
  2.589550e+00    4.972695e-01   6.693541e-03
  2.591760e+00    5.016636e-01   6.715395e-03
  2.593971e+00    5.080078e-01   6.750217e-03
  2.596181e+00    5.096689e-01   6.755028e-03
  2.598391e+00    5.208198e-01   6.823295e-03
  2.600602e+00    5.217648e-01   6.823492e-03
  2.602812e+00    5.174111e-01   6.787381e-03
  2.605023e+00    5.089169e-01   6.724258e-03
  2.607233e+00    5.091327e-01   6.718532e-03
  2.609444e+00    5.236666e-01   6.806408e-03
  2.611654e+00    5.259059e-01   6.813492e-03
  2.613865e+00    5.144204e-01   6.731595e-03
  2.616075e+00    5.206006e-01   6.764662e-03
  2.618286e+00    5.149848e-01   6.721019e-03
  2.620496e+00    5.097997e-01   6.680377e-03
  2.622706e+00    5.096962e-01   6.673916e-03
  2.624917e+00    5.078375e-01   6.655878e-03
  2.627127e+00    4.948215e-01   6.564331e-03
  2.629338e+00    5.124063e-01   6.673925e-03
  2.631548e+00    5.025401e-01   6.603204e-03
  2.633759e+00    5.123094e-01   6.659856e-03
  2.635969e+00    5.036000e-01   6.596307e-03
  2.638180e+00    5.041031e-01   6.592593e-03
  2.640390e+00    5.128927e-01   6.643139e-03
  2.642601e+00    4.992379e-01   6.547475e-03
  2.644811e+00    4.978933e-01   6.531579e-03
  2.647021e+00    5.075790e-01   6.588185e-03
  2.649232e+00    4.993574e-01   6.527901e-03
  2.651442e+00    5.103310e-01   6.592653e-03
  2.653653e+00    5.118918e-01   6.595860e-03
  2.655863e+00    5.128551e-01   6.595277e-03
  2.658074e+00    5.055867e-01   6.541716e-03
  2.660284e+00    5.071065e-01   6.545121e-03
  2.662495e+00    5.121096e-01   6.570484e-03
  2.664705e+00    5.034664e-01   6.508176e-03
  2.666916e+00    5.081925e-01   6.532121e-03
  2.669126e+00    4.884745e-01   6.397743e-03
  2.671337e+00    4.875954e-01   6.385432e-03
  2.673547e+00    4.941638e-01   6.421946e-03
  2.675757e+00    4.978596e-01   6.439426e-03
  2.677968e+00    5.049822e-01   6.478745e-03
  2.680178e+00    4.900046e-01   6.375573e-03
  2.682389e+00    4.927205e-01   6.386813e-03
  2.684599e+00    5.013257e-01   6.436104e-03
  2.686810e+00    4.880129e-01   6.343505e-03
  2.689020e+00    4.961117e-01   6.389584e-03
  2.691231e+00    5.037566e-01   6.432276e-03
  2.693441e+00    4.837883e-01   6.297406e-03
  2.695652e+00    4.861356e-01   6.306158e-03
  2.697862e+00    4.903552e-01   6.327127e-03
  2.700072e+00    4.847042e-01   6.284520e-03
  2.702283e+00    4.862566e-01   6.288365e-03
  2.704493e+00    4.974110e-01   6.353751e-03
  2.706704e+00    4.875973e-01   6.284358e-03
  2.708914e+00    4.869147e-01   6.274006e-03
  2.711125e+00    4.746495e-01   6.188319e-03
  2.713335e+00    4.711679e-01   6.159587e-03
  2.715546e+00    4.770522e-01   6.191527e-03
  2.717756e+00    4.759054e-01   6.178283e-03
  2.719967e+00    4.709437e-01   6.139856e-03
  2.722177e+00    4.831274e-01   6.212665e-03
  2.724387e+00    4.837398e-01   6.210514e-03
  2.726598e+00    4.967649e-01   6.287410e-03
  2.728808e+00    5.031429e-01   6.321431e-03
  2.731019e+00    4.780030e-01   6.155384e-03
  2.733229e+00    4.825114e-01   6.178534e-03
  2.735440e+00    4.799728e-01   6.156029e-03
  2.737650e+00    4.856558e-01   6.186330e-03
  2.739861e+00    4.986886e-01   6.262615e-03
  2.742071e+00    5.035186e-01   6.287023e-03
  2.744282e+00    4.821645e-01   6.146003e-03
  2.746492e+00    4.922034e-01   6.203583e-03
  2.748702e+00    4.860669e-01   6.158832e-03
  2.750913e+00    4.881865e-01   6.166448e-03
  2.753123e+00    4.780874e-01   6.096206e-03
  2.755334e+00    5.040273e-01   6.253189e-03
  2.757544e+00    5.010574e-01   6.228893e-03
  2.759755e+00    4.915734e-01   6.163706e-03
  2.761965e+00    4.780757e-01   6.072537e-03
  2.764176e+00    4.726264e-01   6.031868e-03
  2.766386e+00    4.716441e-01   6.019863e-03
  2.768597e+00    4.798917e-01   6.066402e-03
  2.770807e+00    4.868901e-01   6.104549e-03
  2.773017e+00    4.773650e-01   6.038595e-03
  2.775228e+00    4.814233e-01   6.058390e-03
  2.777438e+00    4.859894e-01   6.081226e-03
  2.779649e+00    4.854011e-01   6.071582e-03
  2.781859e+00    4.963360e-01   6.133726e-03
  2.784070e+00    4.937625e-01   6.111844e-03
  2.786280e+00    4.874979e-01   6.067126e-03
  2.788491e+00    4.743769e-01   5.979090e-03
  2.790701e+00    4.848670e-01   6.039148e-03
  2.792912e+00    4.854202e-01   6.036567e-03
  2.795122e+00    4.706053e-01   5.938041e-03
  2.797333e+00    4.711459e-01   5.935911e-03
  2.799543e+00    4.698043e-01   5.921627e-03
  2.801753e+00    4.823595e-01   5.994327e-03
  2.803964e+00    4.785977e-01   5.965234e-03
  2.806174e+00    4.678907e-01   5.892038e-03
  2.808385e+00    4.755774e-01   5.933421e-03
  2.810595e+00    4.808905e-01   5.959572e-03
  2.812806e+00    4.765506e-01   5.925985e-03
  2.815016e+00    4.845228e-01   5.970564e-03
  2.817227e+00    4.815431e-01   5.978304e-03
  2.819437e+00    4.851504e-01   6.011867e-03
  2.821648e+00    4.762151e-01   5.958557e-03
  2.823858e+00    4.718915e-01   5.936765e-03
  2.826068e+00    4.682660e-01   5.918863e-03
  2.828279e+00    4.759910e-01   5.971556e-03
  2.830489e+00    4.631447e-01   5.893711e-03
  2.832700e+00    4.749001e-01   5.970610e-03
  2.834910e+00    4.759792e-01   5.979466e-03
  2.837121e+00    4.718232e-01   5.955014e-03
  2.839331e+00    4.637313e-01   5.904947e-03
  2.841542e+00    4.792688e-01   6.004081e-03
  2.843752e+00    4.805071e-01   6.012616e-03
  2.845963e+00    4.802197e-01   6.011237e-03
  2.848173e+00    4.602877e-01   5.885251e-03
  2.850383e+00    4.651592e-01   5.916595e-03
  2.852594e+00    4.595450e-01   5.880701e-03
  2.854804e+00    4.724492e-01   5.962190e-03
  2.857015e+00    4.590557e-01   5.876645e-03
  2.859225e+00    4.754256e-01   5.980248e-03
  2.861436e+00    4.753630e-01   5.979190e-03
  2.863646e+00    4.803514e-01   6.010539e-03
  2.865857e+00    4.730939e-01   5.965297e-03
  2.868067e+00    4.628542e-01   5.900609e-03
  2.870278e+00    4.545299e-01   5.846951e-03
  2.872488e+00    4.641380e-01   5.907262e-03
  2.874698e+00    4.618190e-01   5.891457e-03
  2.876909e+00    4.631203e-01   5.898407e-03
  2.879119e+00    4.623675e-01   5.892002e-03
  2.881330e+00    4.622473e-01   5.889776e-03
  2.883540e+00    4.468770e-01   5.789647e-03
  2.885751e+00    4.626580e-01   5.889330e-03
  2.887961e+00    4.711247e-01   5.941081e-03
  2.890172e+00    4.716136e-01   5.942563e-03
  2.892382e+00    4.566965e-01   5.846010e-03
  2.894593e+00    4.522188e-01   5.815491e-03
  2.896803e+00    4.413655e-01   5.743338e-03
  2.899014e+00    4.474237e-01   5.780726e-03
  2.901224e+00    4.528505e-01   5.813716e-03
  2.903434e+00    4.523265e-01   5.808410e-03
  2.905645e+00    4.570682e-01   5.836575e-03
  2.907855e+00    4.487226e-01   5.780951e-03
  2.910066e+00    4.621013e-01   5.864426e-03
  2.912276e+00    4.537338e-01   5.808973e-03
  2.914487e+00    4.629631e-01   5.865283e-03
  2.916697e+00    4.520035e-01   5.793249e-03
  2.918908e+00    4.612324e-01   5.850075e-03
  2.921118e+00    4.660696e-01   5.877940e-03
  2.923329e+00    4.641790e-01   5.863703e-03
  2.925539e+00    4.694900e-01   5.894822e-03
  2.927749e+00    4.652490e-01   5.865807e-03
  2.929960e+00    4.607215e-01   5.834423e-03
  2.932170e+00    4.562924e-01   5.803964e-03
  2.934381e+00    4.584011e-01   5.814931e-03
  2.936591e+00    4.468460e-01   5.738623e-03
  2.938802e+00    4.471170e-01   5.737661e-03
  2.941012e+00    4.599770e-01   5.817260e-03
  2.943223e+00    4.559557e-01   5.789066e-03
  2.945433e+00    4.459241e-01   5.721357e-03
  2.947644e+00    4.595971e-01   5.804222e-03
  2.949854e+00    4.620368e-01   5.815338e-03
  2.952064e+00    4.524344e-01   5.750366e-03
  2.954275e+00    4.575568e-01   5.778396e-03
  2.956485e+00    4.670780e-01   5.833973e-03
  2.958696e+00    4.715145e-01   5.857156e-03
  2.960906e+00    4.732269e-01   5.863528e-03
  2.963117e+00    4.562031e-01   5.752610e-03
  2.965327e+00    4.441667e-01   5.672344e-03
  2.967538e+00    4.570878e-01   5.751337e-03
  2.969748e+00    4.588224e-01   5.759408e-03
  2.971959e+00    4.722988e-01   5.840172e-03
  2.974169e+00    4.797772e-01   5.883595e-03
  2.976379e+00    4.653508e-01   5.791503e-03
  2.978590e+00    4.609723e-01   5.761029e-03
  2.980800e+00    4.548652e-01   5.719952e-03
  2.983011e+00    4.481113e-01   5.674533e-03
  2.985221e+00    4.552397e-01   5.716324e-03
  2.987432e+00    4.543949e-01   5.707926e-03
  2.989642e+00    4.506853e-01   5.681956e-03
  2.991853e+00    4.494821e-01   5.671099e-03
  2.994063e+00    4.495155e-01   5.668415e-03
  2.996274e+00    4.600506e-01   5.731265e-03
  2.998484e+00    4.438151e-01   5.626538e-03
  3.000694e+00    4.607481e-01   5.729397e-03
  3.002905e+00    4.524926e-01   5.674899e-03
  3.005115e+00    4.556634e-01   5.691766e-03
  3.007326e+00    4.596415e-01   5.713368e-03
  3.009536e+00    4.571463e-01   5.694584e-03
  3.011747e+00    4.536060e-01   5.669568e-03
  3.013957e+00    4.666318e-01   5.747170e-03
  3.016168e+00    4.571105e-01   5.684962e-03
  3.018378e+00    4.517110e-01   5.648259e-03
  3.020589e+00    4.399490e-01   5.571062e-03
  3.022799e+00    4.403490e-01   5.570474e-03
  3.025010e+00    4.639131e-01   5.714274e-03
  3.027220e+00    4.526539e-01   5.641440e-03
  3.029430e+00    4.481560e-01   5.610073e-03
  3.031641e+00    4.483034e-01   5.607895e-03
  3.033851e+00    4.540166e-01   5.639970e-03
  3.036062e+00    4.550430e-01   5.643561e-03
  3.038272e+00    4.593939e-01   5.666866e-03
  3.040483e+00    4.507671e-01   5.610194e-03
  3.042693e+00    4.561397e-01   5.640241e-03
  3.044904e+00    4.515339e-01   5.607668e-03
  3.047114e+00    4.484944e-01   5.583973e-03
  3.049325e+00    4.366040e-01   5.505131e-03
  3.051535e+00    4.558768e-01   5.620894e-03
  3.053745e+00    4.560981e-01   5.617479e-03
  3.055956e+00    4.610835e-01   5.643480e-03
  3.058166e+00    4.577716e-01   5.618890e-03
  3.060377e+00    4.339168e-01   5.465831e-03
  3.062587e+00    4.477158e-01   5.547451e-03
  3.064798e+00    4.386185e-01   5.486605e-03
  3.067008e+00    4.474631e-01   5.536905e-03
  3.069219e+00    4.686996e-01   5.662169e-03
  3.071429e+00    4.700110e-01   5.666523e-03
  3.073640e+00    4.549484e-01   5.571614e-03
  3.075850e+00    4.579348e-01   5.586267e-03
  3.078060e+00    4.461823e-01   5.511012e-03
  3.080271e+00    4.619615e-01   5.604080e-03
  3.082481e+00    4.483370e-01   5.517387e-03
  3.084692e+00    4.555451e-01   5.558161e-03
  3.086902e+00    4.466754e-01   5.500535e-03
  3.089113e+00    4.646401e-01   5.606421e-03
  3.091323e+00    4.614504e-01   5.583741e-03
  3.093534e+00    4.487118e-01   5.502731e-03
  3.095744e+00    4.619145e-01   5.579686e-03
  3.097955e+00    4.465696e-01   5.482679e-03
  3.100165e+00    4.532127e-01   5.519941e-03
  3.102375e+00    4.439405e-01   5.459791e-03
  3.104586e+00    4.509345e-01   5.499102e-03
  3.106796e+00    4.522163e-01   5.503392e-03
  3.109007e+00    4.423969e-01   5.440101e-03
  3.111217e+00    4.424278e-01   5.436609e-03
  3.113428e+00    4.499598e-01   5.479256e-03
  3.115638e+00    4.539651e-01   5.500337e-03
  3.117849e+00    4.442737e-01   5.437588e-03
  3.120059e+00    4.478089e-01   5.455699e-03
  3.122270e+00    4.439164e-01   5.428683e-03
  3.124480e+00    4.520674e-01   5.474581e-03
  3.126691e+00    4.537958e-01   5.481438e-03
  3.128901e+00    4.330660e-01   5.351706e-03
  3.131111e+00    4.351940e-01   5.361026e-03
  3.133322e+00    4.338113e-01   5.349101e-03
  3.135532e+00    4.378422e-01   5.370501e-03
  3.137743e+00    4.474125e-01   5.425405e-03
  3.139953e+00    4.464488e-01   5.415847e-03
  3.142164e+00    4.503841e-01   5.451798e-03
  3.144374e+00    4.516933e-01   5.488397e-03
  3.146585e+00    4.495520e-01   5.490079e-03
  3.148795e+00    4.537590e-01   5.526610e-03
  3.151006e+00    4.439682e-01   5.475223e-03
  3.153216e+00    4.390249e-01   5.451788e-03
  3.155426e+00    4.422611e-01   5.478146e-03
  3.157637e+00    4.323506e-01   5.421895e-03
  3.159847e+00    4.327959e-01   5.429511e-03
  3.162058e+00    4.495717e-01   5.538228e-03
  3.164268e+00    4.362553e-01   5.459635e-03
  3.166479e+00    4.353367e-01   5.457502e-03
  3.168689e+00    4.531087e-01   5.571214e-03
  3.170900e+00    4.506558e-01   5.559324e-03
  3.173110e+00    4.467052e-01   5.537815e-03
  3.175321e+00    4.471712e-01   5.543213e-03
  3.177531e+00    4.399715e-01   5.501145e-03
  3.179741e+00    4.446812e-01   5.532607e-03
  3.181952e+00    4.393262e-01   5.501306e-03
  3.184162e+00    4.511856e-01   5.577290e-03
  3.186373e+00    4.488472e-01   5.564428e-03
  3.188583e+00    4.413200e-01   5.519385e-03
  3.190794e+00    4.313348e-01   5.458327e-03
  3.193004e+00    4.371793e-01   5.496435e-03
  3.195215e+00    4.357781e-01   5.489103e-03
  3.197425e+00    4.290266e-01   5.447636e-03
  3.199636e+00    4.323846e-01   5.468129e-03
  3.201846e+00    4.379731e-01   5.502756e-03
  3.204056e+00    4.274673e-01   5.437237e-03
  3.206267e+00    4.264944e-01   5.431904e-03
  3.208477e+00    4.278398e-01   5.441355e-03
  3.210688e+00    4.379734e-01   5.506276e-03
  3.212898e+00    4.374981e-01   5.503864e-03
  3.215109e+00    4.381446e-01   5.508707e-03
  3.217319e+00    4.287583e-01   5.449994e-03
  3.219530e+00    4.331446e-01   5.478207e-03
  3.221740e+00    4.254615e-01   5.429950e-03
  3.223951e+00    4.241474e-01   5.422040e-03
  3.226161e+00    4.306062e-01   5.463329e-03
  3.228372e+00    4.441950e-01   5.549412e-03
  3.230582e+00    4.407697e-01   5.528125e-03
  3.232792e+00    4.372043e-01   5.505946e-03
  3.235003e+00    4.300343e-01   5.460848e-03
  3.237213e+00    4.431330e-01   5.543497e-03
  3.239424e+00    4.396665e-01   5.521794e-03
  3.241634e+00    4.354683e-01   5.495463e-03
  3.243845e+00    4.250354e-01   5.429327e-03
  3.246055e+00    4.350749e-01   5.492785e-03
  3.248266e+00    4.362429e-01   5.500355e-03
  3.250476e+00    4.373901e-01   5.507280e-03
  3.252687e+00    4.252604e-01   5.430330e-03
  3.254897e+00    4.194494e-01   5.392923e-03
  3.257107e+00    4.345681e-01   5.488982e-03
  3.259318e+00    4.337739e-01   5.483713e-03
  3.261528e+00    4.336166e-01   5.482580e-03
  3.263739e+00    4.278544e-01   5.445471e-03
  3.265949e+00    4.234866e-01   5.417484e-03
  3.268160e+00    4.155907e-01   5.366331e-03
  3.270370e+00    4.131605e-01   5.350107e-03
  3.272581e+00    4.209349e-01   5.399935e-03
  3.274791e+00    4.356945e-01   5.493262e-03
  3.277002e+00    4.313909e-01   5.465497e-03
  3.279212e+00    4.126745e-01   5.345240e-03
  3.281422e+00    4.382584e-01   5.507844e-03
  3.283633e+00    4.333999e-01   5.476569e-03
  3.285843e+00    4.262894e-01   5.431092e-03
  3.288054e+00    4.314607e-01   5.463001e-03
  3.290264e+00    4.253166e-01   5.423660e-03
  3.292475e+00    4.313780e-01   5.461298e-03
  3.294685e+00    4.501322e-01   5.578123e-03
  3.296896e+00    4.248635e-01   5.418552e-03
  3.299106e+00    4.270626e-01   5.431959e-03
  3.301317e+00    4.449009e-01   5.543220e-03
  3.303527e+00    4.242460e-01   5.412563e-03
  3.305737e+00    4.204888e-01   5.387466e-03
  3.307948e+00    4.334818e-01   5.469398e-03
  3.310158e+00    4.279038e-01   5.433256e-03
  3.312369e+00    4.287408e-01   5.437671e-03
  3.314579e+00    4.132568e-01   5.337668e-03
  3.316790e+00    4.413647e-01   5.515484e-03
  3.319000e+00    4.196097e-01   5.376674e-03
  3.321211e+00    4.165160e-01   5.356202e-03
  3.323421e+00    4.216891e-01   5.388145e-03
  3.325632e+00    4.180353e-01   5.363879e-03
  3.327842e+00    4.344161e-01   5.467033e-03
  3.330052e+00    4.134658e-01   5.332521e-03
  3.332263e+00    4.271616e-01   5.419085e-03
  3.334473e+00    4.372882e-01   5.482019e-03
  3.336684e+00    4.338518e-01   5.459165e-03
  3.338894e+00    4.266250e-01   5.412652e-03
  3.341105e+00    4.237231e-01   5.393005e-03
  3.343315e+00    4.196619e-01   5.365943e-03
  3.345526e+00    4.375334e-01   5.478090e-03
  3.347736e+00    4.293141e-01   5.424992e-03
  3.349947e+00    4.092905e-01   5.296049e-03
  3.352157e+00    4.296747e-01   5.425104e-03
  3.354368e+00    4.458909e-01   5.525205e-03
  3.356578e+00    4.399643e-01   5.487356e-03
  3.358788e+00    4.138937e-01   5.320956e-03
  3.360999e+00    4.077166e-01   5.279861e-03
  3.363209e+00    4.142217e-01   5.320797e-03
  3.365420e+00    4.077482e-01   5.277572e-03
  3.367630e+00    4.184743e-01   5.345509e-03
  3.369841e+00    4.123272e-01   5.304681e-03
  3.372051e+00    4.322121e-01   5.429067e-03
  3.374262e+00    4.295168e-01   5.409664e-03
  3.376472e+00    4.211071e-01   5.353981e-03
  3.378683e+00    4.081522e-01   5.268485e-03
  3.380893e+00    4.276687e-01   5.390616e-03
  3.383103e+00    4.149965e-01   5.307443e-03
  3.385314e+00    4.243087e-01   5.364403e-03
  3.387524e+00    4.203533e-01   5.336598e-03
  3.389735e+00    4.311871e-01   5.402231e-03
  3.391945e+00    4.300369e-01   5.391295e-03
  3.394156e+00    4.331533e-01   5.406458e-03
  3.396366e+00    4.304035e-01   5.385776e-03
  3.398577e+00    4.495937e-01   5.501364e-03
  3.400787e+00    4.509047e-01   5.521852e-03
  3.402998e+00    4.550555e-01   5.587332e-03
  3.405208e+00    4.366426e-01   5.494550e-03
  3.407418e+00    4.237077e-01   5.428781e-03
  3.409629e+00    4.195769e-01   5.416525e-03
  3.411839e+00    4.073467e-01   5.348905e-03
  3.414050e+00    4.088627e-01   5.369999e-03
  3.416260e+00    3.929971e-01   5.274408e-03
  3.418471e+00    3.942085e-01   5.291946e-03
  3.420681e+00    3.934431e-01   5.295306e-03
  3.422892e+00    3.938673e-01   5.306195e-03
  3.425102e+00    3.982405e-01   5.343477e-03
  3.427313e+00    3.862619e-01   5.269671e-03
  3.429523e+00    3.923906e-01   5.318412e-03
  3.431733e+00    3.834463e-01   5.264107e-03
  3.433944e+00    3.830759e-01   5.268027e-03
  3.436154e+00    3.787946e-01   5.244727e-03
  3.438365e+00    3.825161e-01   5.276331e-03
  3.440575e+00    3.799262e-01   5.264386e-03
  3.442786e+00    3.655025e-01   5.168991e-03
  3.444996e+00    3.636821e-01   5.161519e-03
  3.447207e+00    3.527513e-01   5.088473e-03
  3.449417e+00    3.595185e-01   5.177184e-03
  3.451628e+00    3.739313e-01   5.309607e-03
  3.453838e+00    3.530157e-01   5.179707e-03
  3.456049e+00    3.683412e-01   5.314884e-03
  3.458259e+00    3.680132e-01   5.334499e-03
  3.460469e+00    3.737223e-01   5.395707e-03
  3.462680e+00    3.758247e-01   5.430176e-03
  3.464890e+00    3.720397e-01   5.420684e-03
  3.467101e+00    3.807922e-01   5.501861e-03
  3.469311e+00    3.756059e-01   5.480942e-03
  3.471522e+00    3.883879e-01   5.590085e-03
  3.473732e+00    3.893025e-01   5.612846e-03
  3.475943e+00    3.838958e-01   5.589474e-03
  3.478153e+00    4.154560e-01   5.830646e-03
  3.480364e+00    4.213275e-01   5.887386e-03
  3.482574e+00    4.155271e-01   5.862301e-03
  3.484784e+00    4.260071e-01   5.950894e-03
  3.486995e+00    4.290509e-01   5.987466e-03
  3.489205e+00    4.431762e-01   6.100227e-03
  3.491416e+00    4.439316e-01   6.120645e-03
  3.493626e+00    4.349176e-01   6.072755e-03
  3.495837e+00    4.553340e-01   6.228678e-03
  3.498047e+00    4.527993e-01   6.225939e-03
  3.500258e+00    4.692985e-01   6.353187e-03
  3.502468e+00    4.814681e-01   6.449925e-03
  3.504679e+00    4.668526e-01   6.365834e-03
  3.506889e+00    4.597444e-01   6.331547e-03
  3.509099e+00    4.652766e-01   6.383768e-03
  3.511310e+00    4.635634e-01   6.386309e-03
  3.513520e+00    4.753582e-01   6.481315e-03
  3.515731e+00    5.106523e-01   6.732360e-03
  3.517941e+00    5.151873e-01   6.776959e-03
  3.520152e+00    5.086832e-01   6.748532e-03
  3.522362e+00    5.013247e-01   6.714050e-03
  3.524573e+00    4.993107e-01   6.714734e-03
  3.526783e+00    4.947876e-01   6.697367e-03
  3.528994e+00    5.267699e-01   6.922805e-03
  3.531204e+00    5.243449e-01   6.919355e-03
  3.533414e+00    5.344549e-01   6.997928e-03
  3.535625e+00    5.365273e-01   7.023925e-03
  3.537835e+00    5.445259e-01   7.088352e-03
  3.540046e+00    5.496280e-01   7.130528e-03
  3.542256e+00    5.519429e-01   7.153199e-03
  3.544467e+00    5.515076e-01   7.158090e-03
  3.546677e+00    5.406853e-01   7.095124e-03
  3.548888e+00    5.343413e-01   7.060869e-03
  3.551098e+00    5.262948e-01   7.014714e-03
  3.553309e+00    5.228794e-01   6.999990e-03
  3.555519e+00    5.233690e-01   7.014414e-03
  3.557729e+00    5.387970e-01   7.128800e-03
  3.559940e+00    5.348674e-01   7.114309e-03
  3.562150e+00    5.326700e-01   7.111345e-03
  3.564361e+00    5.435397e-01   7.196940e-03
  3.566571e+00    5.495013e-01   7.250329e-03
  3.568782e+00    5.375089e-01   7.184895e-03
  3.570992e+00    5.266083e-01   7.125304e-03
  3.573203e+00    5.455937e-01   7.266880e-03
  3.575413e+00    5.213814e-01   7.117428e-03
  3.577624e+00    5.255535e-01   7.159777e-03
  3.579834e+00    5.336565e-01   7.228623e-03
  3.582045e+00    5.451526e-01   7.320233e-03
  3.584255e+00    5.253531e-01   7.199981e-03
  3.586465e+00    5.455177e-01   7.350924e-03
  3.588676e+00    5.210022e-01   7.197850e-03
  3.590886e+00    5.366906e-01   7.319116e-03
  3.593097e+00    5.343984e-01   7.317947e-03
  3.595307e+00    5.272527e-01   7.282689e-03
  3.597518e+00    5.216221e-01   7.257720e-03
  3.599728e+00    5.326362e-01   7.347995e-03
  3.601939e+00    5.399442e-01   7.412352e-03
  3.604149e+00    5.437266e-01   7.452779e-03
  3.606360e+00    5.483059e-01   7.498433e-03
  3.608570e+00    5.412838e-01   7.464497e-03
  3.610780e+00    5.320089e-01   7.411305e-03
  3.612991e+00    5.206819e-01   7.341850e-03
  3.615201e+00    5.352592e-01   7.453700e-03
  3.617412e+00    5.491366e-01   7.557100e-03
  3.619622e+00    5.319112e-01   7.443568e-03
  3.621833e+00    5.470471e-01   7.555504e-03
  3.624043e+00    5.378222e-01   7.501102e-03
  3.626254e+00    5.204673e-01   7.388642e-03
  3.628464e+00    5.348153e-01   7.500764e-03
  3.630675e+00    5.460923e-01   7.593694e-03
  3.632885e+00    5.394752e-01   7.562106e-03
  3.635095e+00    5.412521e-01   7.589025e-03
  3.637306e+00    5.311908e-01   7.532525e-03
  3.639516e+00    5.225664e-01   7.485480e-03
  3.641727e+00    5.393936e-01   7.619688e-03
  3.643937e+00    5.494108e-01   7.704921e-03
  3.646148e+00    5.452554e-01   7.690477e-03
  3.648358e+00    5.435522e-01   7.693468e-03
  3.650569e+00    5.403328e-01   7.685484e-03
  3.652779e+00    5.281712e-01   7.613209e-03
  3.654990e+00    5.429273e-01   7.733862e-03
  3.657200e+00    5.502735e-01   7.801119e-03
  3.659410e+00    5.601624e-01   7.886314e-03
  3.661621e+00    5.257677e-01   7.655379e-03
  3.663831e+00    5.255777e-01   7.668986e-03
  3.666042e+00    5.454797e-01   7.828206e-03
  3.668252e+00    5.577289e-01   7.931244e-03
  3.670463e+00    5.366882e-01   7.795529e-03
  3.672673e+00    5.434405e-01   7.860007e-03
  3.674884e+00    5.125961e-01   7.648805e-03
  3.677094e+00    5.249891e-01   7.756166e-03
  3.679305e+00    5.341992e-01   7.839488e-03
  3.681515e+00    5.385613e-01   7.887216e-03
  3.683726e+00    5.179954e-01   7.750743e-03
  3.685936e+00    5.401402e-01   7.930557e-03
  3.688146e+00    5.325102e-01   7.890222e-03
  3.690357e+00    5.306441e-01   7.892360e-03
  3.692567e+00    5.151175e-01   7.791976e-03
  3.694778e+00    5.274311e-01   7.900594e-03
  3.696988e+00    5.196251e-01   7.857865e-03
  3.699199e+00    5.158717e-01   7.845438e-03
  3.701409e+00    5.247452e-01   7.929047e-03
  3.703620e+00    5.125574e-01   7.852564e-03
  3.705830e+00    5.156041e-01   7.892052e-03
  3.708041e+00    5.050116e-01   7.826947e-03
  3.710251e+00    5.059436e-01   7.850545e-03
  3.712461e+00    5.150682e-01   7.937632e-03
  3.714672e+00    5.176390e-01   7.974077e-03
  3.716882e+00    5.309246e-01   8.092644e-03
  3.719093e+00    5.022579e-01   7.887998e-03
  3.721303e+00    5.085060e-01   7.953662e-03
  3.723514e+00    5.031375e-01   7.928551e-03
  3.725724e+00    4.949517e-01   7.880551e-03
  3.727935e+00    5.147712e-01   8.054201e-03
  3.730145e+00    5.124528e-01   8.053319e-03
  3.732356e+00    5.067501e-01   8.025733e-03
  3.734566e+00    5.054410e-01   8.032717e-03
  3.736776e+00    5.442999e-01   8.354040e-03
  3.738987e+00    5.434405e-01   8.365707e-03
  3.741197e+00    5.061235e-01   8.091283e-03
  3.743408e+00    5.091925e-01   8.133673e-03
  3.745618e+00    5.061265e-01   8.127413e-03
  3.747829e+00    5.063481e-01   8.147150e-03
  3.750039e+00    5.080082e-01   8.178826e-03
  3.752250e+00    5.084258e-01   8.200583e-03
  3.754460e+00    5.093611e-01   8.226668e-03
  3.756671e+00    5.320373e-01   8.427038e-03
  3.758881e+00    5.119131e-01   8.284770e-03
  3.761091e+00    5.013996e-01   8.218331e-03
  3.763302e+00    5.034332e-01   8.253923e-03
  3.765512e+00    4.908050e-01   8.168674e-03
  3.767723e+00    5.203869e-01   8.430831e-03
  3.769933e+00    5.287310e-01   8.517918e-03
  3.772144e+00    5.098171e-01   8.383855e-03
  3.774354e+00    5.047651e-01   8.362030e-03
  3.776565e+00    4.996304e-01   8.339137e-03
  3.778775e+00    5.121807e-01   8.463328e-03
  3.780986e+00    5.053830e-01   8.427291e-03
  3.783196e+00    5.334734e-01   8.679181e-03
  3.785407e+00    5.011445e-01   8.432512e-03
  3.787617e+00    5.022773e-01   8.462738e-03
  3.789827e+00    5.034932e-01   8.493550e-03
  3.792038e+00    4.871750e-01   8.375267e-03
  3.794248e+00    5.006971e-01   8.511893e-03
  3.796459e+00    5.129598e-01   8.637062e-03
  3.798669e+00    5.212131e-01   8.728121e-03
  3.800880e+00    5.003487e-01   8.573030e-03
  3.803090e+00    5.241485e-01   8.796937e-03
  3.805301e+00    4.911471e-01   8.537412e-03
  3.807511e+00    4.920622e-01   8.567136e-03
  3.809722e+00    5.081369e-01   8.728391e-03
  3.811932e+00    5.042738e-01   8.717491e-03
  3.814142e+00    5.042859e-01   8.740551e-03
  3.816353e+00    4.847575e-01   8.592184e-03
  3.818563e+00    4.921735e-01   8.680603e-03
  3.820774e+00    5.024529e-01   8.793997e-03
  3.822984e+00    4.959965e-01   8.760716e-03
  3.825195e+00    4.991254e-01   8.811994e-03
  3.827405e+00    5.246324e-01   9.058875e-03
  3.829616e+00    5.160323e-01   9.008871e-03
  3.831826e+00    5.147858e-01   9.022540e-03
  3.834037e+00    5.041392e-01   8.953476e-03
  3.836247e+00    4.616152e-01   8.591368e-03
  3.838457e+00    4.747576e-01   8.737179e-03
  3.840668e+00    4.918073e-01   8.917827e-03
  3.842878e+00    5.119668e-01   9.124616e-03
  3.845089e+00    4.995253e-01   9.038798e-03
  3.847299e+00    5.084736e-01   9.145556e-03
  3.849510e+00    4.706041e-01   8.823577e-03
  3.851720e+00    4.880299e-01   9.006676e-03
  3.853931e+00    4.962533e-01   9.101301e-03
  3.856141e+00    4.836782e-01   9.004077e-03
  3.858352e+00    4.973886e-01   9.150043e-03
  3.860562e+00    4.669317e-01   8.884306e-03
  3.862772e+00    5.106241e-01   9.310491e-03
  3.864983e+00    5.388311e-01   9.584845e-03
  3.867193e+00    4.813617e-01   9.078823e-03
  3.869404e+00    4.851072e-01   9.133654e-03
  3.871614e+00    4.899330e-01   9.198918e-03
  3.873825e+00    4.989321e-01   9.303457e-03
  3.876035e+00    4.941788e-01   9.279657e-03
  3.878246e+00    4.851653e-01   9.220116e-03
  3.880456e+00    5.166603e-01   9.544493e-03
  3.882667e+00    5.157726e-01   9.566238e-03
  3.884877e+00    5.427088e-01   9.844131e-03
  3.887087e+00    5.423224e-01   9.872074e-03
  3.889298e+00    5.445864e-01   9.924660e-03
  3.891508e+00    5.298561e-01   9.821249e-03
  3.893719e+00    5.186168e-01   9.748336e-03
  3.895929e+00    5.081516e-01   9.681476e-03
  3.898140e+00    5.042232e-01   9.676146e-03
  3.900350e+00    5.193014e-01   9.852741e-03
  3.902561e+00    5.220711e-01   9.912484e-03
  3.904771e+00    5.192656e-01   9.919561e-03
  3.906982e+00    5.219412e-01   9.979336e-03
  3.909192e+00    4.862333e-01   9.665330e-03
  3.911403e+00    4.930243e-01   9.766685e-03
  3.913613e+00    5.013869e-01   9.883899e-03
  3.915823e+00    4.860623e-01   9.766419e-03
  3.918034e+00    4.966050e-01   9.907245e-03
  3.920244e+00    4.836088e-01   9.812399e-03
  3.922455e+00    4.803496e-01   9.815088e-03
  3.924665e+00    4.846625e-01   9.895256e-03
  3.926876e+00    5.029823e-01   1.011825e-02
  3.929086e+00    4.992851e-01   1.011877e-02
  3.931297e+00    5.042927e-01   1.020487e-02
  3.933507e+00    4.885067e-01   1.007278e-02
  3.935718e+00    5.121044e-01   1.034266e-02
  3.937928e+00    5.008286e-01   1.025805e-02
  3.940138e+00    4.862801e-01   1.013719e-02
  3.942349e+00    4.997076e-01   1.030650e-02
  3.944559e+00    4.972116e-01   1.031108e-02
  3.946770e+00    5.190768e-01   1.056642e-02
  3.948980e+00    5.222958e-01   1.063106e-02
  3.951191e+00    5.110787e-01   1.054784e-02
  3.953401e+00    5.188762e-01   1.066036e-02
  3.955612e+00    4.964599e-01   1.045968e-02
  3.957822e+00    5.001110e-01   1.053004e-02
  3.960033e+00    4.856289e-01   1.040912e-02
  3.962243e+00    5.083682e-01   1.068361e-02
  3.964453e+00    4.916776e-01   1.054016e-02
  3.966664e+00    4.662616e-01   1.029682e-02
  3.968874e+00    4.932746e-01   1.061943e-02
  3.971085e+00    5.177274e-01   1.090210e-02
  3.973295e+00    5.278526e-01   1.103064e-02
  3.975506e+00    5.096200e-01   1.086062e-02
  3.977716e+00    5.199677e-01   1.099301e-02
  3.979927e+00    5.542502e-01   1.137331e-02
  3.982137e+00    5.123606e-01   1.095807e-02
  3.984348e+00    4.731136e-01   1.055216e-02
  3.986558e+00    5.073242e-01   1.094988e-02
  3.988768e+00    5.190135e-01   1.109913e-02
  3.990979e+00    5.242424e-01   1.117855e-02
  3.993189e+00    5.097913e-01   1.104706e-02
  3.995400e+00    5.247285e-01   1.123215e-02
  3.997610e+00    5.153176e-01   1.116174e-02
  3.999821e+00    4.940109e-01   1.096650e-02
  4.002031e+00    5.044065e-01   1.112039e-02
  4.004242e+00    4.769291e-01   1.085153e-02
  4.006452e+00    4.661611e-01   1.076674e-02
  4.008663e+00    5.192683e-01   1.140505e-02
  4.010873e+00    5.108559e-01   1.135326e-02
  4.013084e+00    4.789396e-01   1.103371e-02
  4.015294e+00    4.709231e-01   1.098130e-02
  4.017504e+00    4.901857e-01   1.124572e-02
  4.019715e+00    4.988942e-01   1.138828e-02
  4.021925e+00    5.038914e-01   1.148912e-02
  4.024136e+00    5.210109e-01   1.172799e-02
  4.026346e+00    4.839618e-01   1.134744e-02
  4.028557e+00    4.677194e-01   1.119892e-02
  4.030767e+00    4.780866e-01   1.136772e-02
  4.032978e+00    4.934666e-01   1.159596e-02
  4.035188e+00    4.837603e-01   1.152750e-02
  4.037399e+00    4.884985e-01   1.163164e-02
  4.039609e+00    4.525487e-01   1.124161e-02
  4.041819e+00    4.932624e-01   1.178568e-02
  4.044030e+00    4.764996e-01   1.163324e-02
  4.046240e+00    4.443668e-01   1.128199e-02
  4.048451e+00    4.726841e-01   1.168633e-02
  4.050661e+00    4.562253e-01   1.153105e-02
  4.052872e+00    4.865831e-01   1.196134e-02
  4.055082e+00    5.030707e-01   1.221709e-02
  4.057293e+00    5.016372e-01   1.225445e-02
  4.059503e+00    4.770848e-01   1.200512e-02
  4.061714e+00    4.549350e-01   1.177791e-02
  4.063924e+00    4.604852e-01   1.190509e-02
  4.066134e+00    4.686977e-01   1.206740e-02
  4.068345e+00    4.753167e-01   1.221073e-02
  4.070555e+00    4.568743e-01   1.202934e-02
  4.072766e+00    4.737771e-01   1.231015e-02
  4.074976e+00    4.569488e-01   1.214971e-02
  4.077187e+00    4.973798e-01   1.273893e-02
  4.079397e+00    5.050241e-01   1.290205e-02
  4.081608e+00    4.497375e-01   1.223882e-02
  4.083818e+00    4.519576e-01   1.233254e-02
  4.086029e+00    4.816068e-01   1.279788e-02
  4.088239e+00    4.532797e-01   1.248271e-02
  4.090449e+00    4.670182e-01   1.273908e-02
  4.092660e+00    4.795901e-01   1.298046e-02
  4.094870e+00    4.595224e-01   1.277668e-02
  4.097081e+00    4.693265e-01   1.298292e-02
  4.099291e+00    4.797844e-01   1.318117e-02
  4.101502e+00    4.431084e-01   1.271455e-02
  4.103712e+00    4.760875e-01   1.322827e-02
  4.105923e+00    4.925688e-01   1.350746e-02
  4.108133e+00    4.530725e-01   1.300458e-02
  4.110344e+00    4.482086e-01   1.298404e-02
  4.112554e+00    4.391997e-01   1.290366e-02
  4.114764e+00    4.812302e-01   1.356110e-02
  4.116975e+00    5.426208e-01   1.445711e-02
  4.119185e+00    5.070170e-01   1.403143e-02
  4.121396e+00    4.990275e-01   1.397809e-02
  4.123606e+00    4.840122e-01   1.382245e-02
  4.125817e+00    4.669791e-01   1.363411e-02
  4.128027e+00    4.863264e-01   1.397207e-02
  4.130238e+00    5.151317e-01   1.444176e-02
  4.132448e+00    5.345165e-01   1.477477e-02
  4.134659e+00    5.335518e-01   1.482495e-02
  4.136869e+00    5.012059e-01   1.443270e-02
  4.139080e+00    4.709333e-01   1.405302e-02
  4.141290e+00    4.934631e-01   1.444898e-02
  4.143500e+00    4.807418e-01   1.432729e-02
  4.145711e+00    4.722723e-01   1.426695e-02
  4.147921e+00    4.604865e-01   1.415216e-02
  4.150132e+00    5.144989e-01   1.503080e-02
  4.152342e+00    4.680742e-01   1.440605e-02
  4.154553e+00    5.208355e-01   1.526854e-02
  4.156763e+00    5.061142e-01   1.512563e-02
  4.158974e+00    5.229443e-01   1.545237e-02
  4.161184e+00    5.028605e-01   1.522795e-02
  4.163395e+00    5.192929e-01   1.555362e-02
  4.165605e+00    5.384992e-01   1.592128e-02
  4.167815e+00    5.085874e-01   1.555326e-02
  4.170026e+00    5.008504e-01   1.551618e-02
  4.172236e+00    4.672636e-01   1.506755e-02
  4.174447e+00    4.883618e-01   1.548793e-02
  4.176657e+00    4.693498e-01   1.526647e-02
  4.178868e+00    4.751337e-01   1.544704e-02
  4.181078e+00    4.790331e-01   1.559788e-02
  4.183289e+00    5.339164e-01   1.656102e-02
  4.185499e+00    5.143600e-01   1.635155e-02
  4.187710e+00    5.084836e-01   1.635235e-02
  4.189920e+00    4.992786e-01   1.630174e-02
  4.192130e+00    5.097671e-01   1.657252e-02
  4.194341e+00    4.815607e-01   1.620650e-02
  4.196551e+00    5.052864e-01   1.670580e-02
  4.198762e+00    4.829953e-01   1.643685e-02
  4.200972e+00    4.648323e-01   1.622931e-02
  4.203183e+00    4.384057e-01   1.586503e-02
  4.205393e+00    4.328741e-01   1.586982e-02
  4.207604e+00    4.346313e-01   1.601006e-02
  4.209814e+00    4.784920e-01   1.691388e-02
  4.212025e+00    5.159006e-01   1.768708e-02
  4.214235e+00    5.013815e-01   1.756010e-02
  4.216445e+00    5.062559e-01   1.777256e-02
  4.218656e+00    5.113176e-01   1.799539e-02
  4.220866e+00    4.997706e-01   1.792266e-02
  4.223077e+00    4.944127e-01   1.796350e-02
  4.225287e+00    4.698078e-01   1.764862e-02
  4.227498e+00    4.393463e-01   1.720053e-02
  4.229708e+00    4.751869e-01   1.803372e-02
  4.231919e+00    4.873389e-01   1.841417e-02
  4.234129e+00    4.401557e-01   1.764685e-02
  4.236340e+00    5.214943e-01   1.937252e-02
  4.238550e+00    5.237037e-01   1.958495e-02
  4.240761e+00    4.796149e-01   1.890818e-02
  4.242971e+00    4.594557e-01   1.867577e-02
  4.245181e+00    4.486291e-01   1.862800e-02
  4.247392e+00    4.811570e-01   1.947160e-02
  4.249602e+00    5.144733e-01   2.033472e-02
  4.251813e+00    4.988228e-01   2.022007e-02
  4.254023e+00    4.040464e-01   1.838169e-02
  4.256234e+00    4.400828e-01   1.938872e-02
  4.258444e+00    4.968163e-01   2.081625e-02
  4.260655e+00    4.789018e-01   2.066212e-02
  4.262865e+00    4.270226e-01   1.973229e-02
  4.265076e+00    4.733206e-01   2.101051e-02
  4.267286e+00    4.770848e-01   2.134429e-02
  4.269496e+00    4.174507e-01   2.020934e-02
  4.271707e+00    4.583137e-01   2.143700e-02
  4.273917e+00    5.383523e-01   2.353357e-02
  4.276128e+00    4.956168e-01   2.288087e-02
  4.278338e+00    4.874048e-01   2.299251e-02
  4.280549e+00    4.751185e-01   2.302785e-02
  4.282759e+00    3.418993e-01   1.981439e-02
  4.284970e+00    4.567091e-01   2.323962e-02
  4.287180e+00    4.136090e-01   2.238118e-02
  4.289391e+00    3.739325e-01   2.144089e-02
  4.291601e+00    4.208273e-01   2.292615e-02
  4.293811e+00    5.391306e-01   2.615256e-02
  4.296022e+00    4.811450e-01   2.490534e-02
  4.298232e+00    4.433743e-01   2.410790e-02
  4.300443e+00    4.505554e-01   2.450259e-02
  4.302653e+00    4.681292e-01   2.519282e-02
  4.304864e+00    4.307722e-01   2.437509e-02
  4.307074e+00    4.693238e-01   2.567163e-02
  4.309285e+00    5.375689e-01   2.772412e-02
  4.311495e+00    5.279936e-01   2.773310e-02
  4.313706e+00    5.279722e-01   2.799328e-02
  4.315916e+00    5.364898e-01   2.849649e-02
  4.318126e+00    3.534682e-01   2.335833e-02
  4.320337e+00    5.280192e-01   2.883855e-02
  4.322547e+00    4.749700e-01   2.764157e-02
  4.324758e+00    4.694733e-01   2.776719e-02
  4.326968e+00    3.858974e-01   2.545769e-02
  4.329179e+00    3.909920e-01   2.590736e-02
  4.331389e+00    5.062099e-01   2.981882e-02
  4.333600e+00    4.423176e-01   2.820611e-02
  4.335810e+00    3.870220e-01   2.669809e-02
  4.338021e+00    4.440448e-01   2.896317e-02
  4.340231e+00    4.469012e-01   2.942149e-02
  4.342442e+00    3.780946e-01   2.742449e-02
  4.344652e+00    4.028506e-01   2.869245e-02
  4.346862e+00    4.937735e-01   3.221057e-02
  4.349073e+00    5.619618e-01   3.486377e-02
  4.351283e+00    4.056531e-01   3.006279e-02
  4.353494e+00    3.791979e-01   2.951604e-02
  4.355704e+00    3.005871e-01   2.670114e-02
  4.357915e+00    4.424672e-01   3.293413e-02
  4.360125e+00    5.283156e-01   3.660173e-02
  4.362336e+00    5.952051e-01   3.955951e-02
  4.364546e+00    4.836094e-01   3.630750e-02
  4.366757e+00    6.420770e-01   4.266698e-02
  4.368967e+00    4.204017e-01   3.521553e-02
  4.371177e+00    4.065064e-01   3.536246e-02
  4.373388e+00    5.879235e-01   4.347869e-02
  4.375598e+00    3.908500e-01   3.625967e-02
  4.377809e+00    6.103137e-01   4.645480e-02
  4.380019e+00    4.235230e-01   3.967442e-02
  4.382230e+00    2.608622e-01   3.200474e-02
  4.384440e+00    3.530029e-01   3.830168e-02
  4.386651e+00    5.713921e-01   5.023287e-02
  4.388861e+00    3.542626e-01   4.088023e-02
  4.391072e+00    3.919917e-01   4.451436e-02
  4.393282e+00    2.963002e-01   4.019441e-02
  4.395492e+00    3.797897e-01   4.739926e-02
  4.397703e+00    3.984184e-01   5.076816e-02
  4.399913e+00    5.435780e-01   6.229860e-02
  4.402124e+00    6.648907e-01   7.280731e-02
  4.404334e+00    6.916513e-01   7.893965e-02
  4.406545e+00    2.517871e-01   5.117355e-02
  4.408755e+00    3.573954e-01   6.611486e-02
  4.410966e+00    5.403184e-01   8.998033e-02
  4.413176e+00    1.740309e-01   5.780277e-02
  4.415387e+00   -5.489005e-01            nan
  4.417597e+00   -1.755185e+00            nan
  4.419807e+00    4.748995e-01   2.475287e-01
