# == pyFAI calibration ==
# Distance Sample to Detector: 0.216 m
# PONI: 1.166e-01, 1.308e-01 m
# Rotations: 0.000000 0.000000 0.000000 rad
# 
# == Fit2d calibration ==
# Distance Sample-beamCenter: 216.000 mm
# Center: x=1744.293, y=1555.000 pix
# Tilt: 0.000 deg  TiltPlanRot: 0.000 deg
# 
# Detector Eiger 9M	 PixelSize= 7.500e-05, 7.500e-05 m
#    Detector has a mask: True 
#    Detector has a dark current: False 
#    detector has a flat field: False 
# 
# Wavelength: 9.8e-11 m
# Mask applied: from detector
# Dark current applied: False
# Flat field applied: False
# Polarization factor: None
# Normalization factor: 1.0
# 
# Headers of the input frame:
# {
# "_array_data.header_convention": "SLS_1.0",
# "_array_data.header_contents": "# Detector: Dectris Eiger 9M, S/N E-18-0102\r\n# Pixel_size 75e-6 m x 75e-6 m\r\n# Silicon sensor, thickness 0.000450 m\r\n# Exposure_time 0.024997 s\r\n# Exposure_period 0.025000 s\r\n# Count_cutoff 62318 counts\r\n# Wavelength 0.980106 A\r\n# Detector_distance 0.215992 m\r\n# Beam_xy (1555, 1744) pixels\r\n# Start_angle 0.000000 deg.\r\n# Angle_increment 0.000000 deg.",
# "Content-Type": "application/octet-stream;",
# "conversions": "x-CBF_BYTE_OFFSET",
# "Content-Transfer-Encoding": "BINARY",
# "X-Binary-Size": "10166594",
# "X-Binary-ID": "1",
# "X-Binary-Element-Type": "signed 32-bit integer",
# "X-Binary-Element-Byte-Order": "LITTLE_ENDIAN",
# "Content-MD5": "FFG/Vj0eiZojTL7OlbaVlQ==",
# "X-Binary-Number-of-Elements": "10166590",
# "X-Binary-Size-Fastest-Dimension": "3110",
# "X-Binary-Size-Second-Dimension": "3269",
# "X-Binary-Size-Padding": "4095"
# }
# --> H:/Proxima2a_2019-04-05/RAW_DATA/C5_gel17_position5/C5_mesh_1_data.cbf/C5_mesh_1_data.cbf000077.dat
#        q_A^-1              I           sigma 
  1.105228e-03    2.585191e+00   8.700281e-01
  3.315685e-03    2.055097e+00   4.715867e-01
  5.526141e-03    1.186058e+00   2.770289e-01
  7.736597e-03    1.310647e+00   2.460158e-01
  9.947054e-03    1.414020e+00   2.252705e-01
  1.215751e-02    1.582011e+00   2.154634e-01
  1.436797e-02    1.461897e+00   1.905172e-01
  1.657842e-02    1.498091e+00   1.795203e-01
  1.878888e-02    1.378927e+00   1.617835e-01
  2.099934e-02    1.641511e+00   1.670028e-01
  2.320979e-02    1.517988e+00   1.527450e-01
  2.542025e-02    1.513782e+00   1.457609e-01
  2.763070e-02    1.762718e+00   1.508626e-01
  2.984116e-02    1.572811e+00   1.371244e-01
  3.205162e-02    1.512175e+00   1.297440e-01
  3.426207e-02    1.483735e+00   1.242948e-01
  3.647253e-02    1.346217e+00   1.147486e-01
  3.868299e-02    1.409823e+00   1.140323e-01
  4.089344e-02    1.484206e+00   1.137962e-01
  4.310390e-02    1.521661e+00   1.122233e-01
  4.531436e-02    1.505723e+00   1.088775e-01
  4.752481e-02    1.605649e+00   1.097853e-01
  4.973527e-02    1.548358e+00   1.053871e-01
  5.194572e-02    1.284990e+00   9.394050e-02
  5.415618e-02    1.487208e+00   9.897479e-02
  5.636664e-02    1.410847e+00   9.449419e-02
  5.857709e-02    1.507399e+00   9.581394e-02
  6.078755e-02    1.481334e+00   9.323604e-02
  6.299801e-02    1.415527e+00   8.952732e-02
  6.520846e-02    1.494227e+00   9.041051e-02
  6.741892e-02    1.547982e+00   9.049671e-02
  6.962938e-02    1.518467e+00   8.820008e-02
  7.183983e-02    1.501045e+00   8.633144e-02
  7.405029e-02    1.454247e+00   8.369517e-02
  7.626074e-02    1.436541e+00   8.196893e-02
  7.847120e-02    1.563621e+00   8.430236e-02
  8.068166e-02    1.659953e+00   8.566161e-02
  8.289211e-02    1.542512e+00   8.146686e-02
  8.510257e-02    1.541286e+00   8.036944e-02
  8.731303e-02    1.627356e+00   8.152785e-02
  8.952348e-02    1.540350e+00   7.833528e-02
  9.173394e-02    1.497494e+00   7.629859e-02
  9.394439e-02    1.449315e+00   7.417041e-02
  9.615485e-02    1.597134e+00   7.695916e-02
  9.836531e-02    1.600713e+00   7.617268e-02
  1.005758e-01    1.583347e+00   7.492166e-02
  1.027862e-01    1.623221e+00   7.503722e-02
  1.049967e-01    1.556556e+00   7.270131e-02
  1.072071e-01    1.598183e+00   7.290278e-02
  1.094176e-01    1.568012e+00   7.147712e-02
  1.116280e-01    1.545830e+00   7.026201e-02
  1.138385e-01    1.491734e+00   6.834693e-02
  1.160490e-01    1.629116e+00   7.074048e-02
  1.182594e-01    1.567899e+00   6.874552e-02
  1.204699e-01    1.503479e+00   6.669746e-02
  1.226803e-01    1.572747e+00   6.759644e-02
  1.248908e-01    1.627633e+00   6.815376e-02
  1.271012e-01    1.600843e+00   6.699890e-02
  1.293117e-01    1.569498e+00   6.576945e-02
  1.315222e-01    1.589075e+00   6.561837e-02
  1.337326e-01    1.650507e+00   6.631843e-02
  1.359431e-01    1.635629e+00   6.605750e-02
  1.381535e-01    1.649855e+00   6.723469e-02
  1.403640e-01    1.708720e+00   6.871904e-02
  1.425744e-01    1.727432e+00   6.920469e-02
  1.447849e-01    1.602881e+00   6.667847e-02
  1.469953e-01    1.604568e+00   6.667177e-02
  1.492058e-01    1.494430e+00   6.426813e-02
  1.514163e-01    1.556834e+00   6.548733e-02
  1.536267e-01    1.624548e+00   6.676573e-02
  1.558372e-01    1.668341e+00   6.751027e-02
  1.580476e-01    1.713091e+00   6.824370e-02
  1.602581e-01    1.702162e+00   6.785290e-02
  1.624685e-01    1.638574e+00   6.639116e-02
  1.646790e-01    1.667269e+00   6.677769e-02
  1.668895e-01    1.654446e+00   6.632827e-02
  1.690999e-01    1.761990e+00   6.824455e-02
  1.713104e-01    1.787950e+00   6.853212e-02
  1.735208e-01    1.809434e+00   6.872822e-02
  1.757313e-01    1.847163e+00   6.922343e-02
  1.779417e-01    1.862756e+00   6.928830e-02
  1.801522e-01    1.880824e+00   6.940177e-02
  1.823626e-01    1.911847e+00   6.973886e-02
  1.845731e-01    2.015417e+00   7.137096e-02
  1.867836e-01    2.081341e+00   7.228410e-02
  1.889940e-01    1.958345e+00   6.988664e-02
  1.912045e-01    1.965317e+00   6.977715e-02
  1.934149e-01    2.032869e+00   7.072867e-02
  1.956254e-01    2.069456e+00   7.112698e-02
  1.978358e-01    1.930262e+00   6.845790e-02
  2.000463e-01    1.968601e+00   6.890529e-02
  2.022568e-01    1.997486e+00   6.918116e-02
  2.044672e-01    1.993389e+00   6.887341e-02
  2.066777e-01    2.003959e+00   6.882657e-02
  2.088881e-01    2.041969e+00   6.924893e-02
  2.110986e-01    2.029828e+00   6.880599e-02
  2.133090e-01    1.988393e+00   6.787874e-02
  2.155195e-01    1.947444e+00   6.695330e-02
  2.177300e-01    2.020402e+00   6.766018e-02
  2.199404e-01    1.975984e+00   6.514919e-02
  2.221509e-01    2.019701e+00   6.478435e-02
  2.243613e-01    2.075263e+00   6.483693e-02
  2.265718e-01    1.947139e+00   6.211133e-02
  2.287822e-01    2.111899e+00   6.404554e-02
  2.309927e-01    2.147571e+00   6.399583e-02
  2.332031e-01    2.199949e+00   6.421719e-02
  2.354136e-01    2.110677e+00   6.239092e-02
  2.376241e-01    2.161644e+00   6.264966e-02
  2.398345e-01    2.181728e+00   6.247421e-02
  2.420450e-01    2.236988e+00   6.280834e-02
  2.442554e-01    2.183686e+00   6.162804e-02
  2.464659e-01    2.194328e+00   6.136324e-02
  2.486763e-01    2.193119e+00   6.094312e-02
  2.508868e-01    2.134896e+00   5.974941e-02
  2.530973e-01    2.106689e+00   5.898539e-02
  2.553077e-01    2.231812e+00   6.034352e-02
  2.575182e-01    2.103858e+00   5.824157e-02
  2.597286e-01    2.086789e+00   5.766761e-02
  2.619391e-01    2.171020e+00   5.848133e-02
  2.641495e-01    2.146949e+00   5.783434e-02
  2.663600e-01    2.130605e+00   5.729697e-02
  2.685704e-01    2.036405e+00   5.571235e-02
  2.707809e-01    2.051387e+00   5.562011e-02
  2.729914e-01    2.051580e+00   5.533287e-02
  2.752018e-01    2.045704e+00   5.496598e-02
  2.774123e-01    1.999880e+00   5.406928e-02
  2.796227e-01    1.967520e+00   5.336475e-02
  2.818332e-01    2.009869e+00   5.366694e-02
  2.840436e-01    1.942610e+00   5.250559e-02
  2.862541e-01    1.893836e+00   5.159305e-02
  2.884646e-01    1.897527e+00   5.139818e-02
  2.906750e-01    2.042705e+00   5.307533e-02
  2.928855e-01    2.026117e+00   5.261446e-02
  2.950959e-01    1.986825e+00   5.186246e-02
  2.973064e-01    2.001679e+00   5.182201e-02
  2.995168e-01    1.944764e+00   5.084863e-02
  3.017273e-01    1.932978e+00   5.047078e-02
  3.039377e-01    1.979604e+00   5.085222e-02
  3.061482e-01    1.944494e+00   5.018124e-02
  3.083587e-01    1.965329e+00   5.023098e-02
  3.105691e-01    1.887826e+00   4.902033e-02
  3.127796e-01    1.837527e+00   4.815952e-02
  3.149900e-01    1.884671e+00   4.857018e-02
  3.172005e-01    1.936174e+00   4.902808e-02
  3.194109e-01    1.899047e+00   4.835527e-02
  3.216214e-01    1.919413e+00   4.841553e-02
  3.238319e-01    1.917158e+00   4.819537e-02
  3.260423e-01    1.882871e+00   4.757220e-02
  3.282528e-01    1.881102e+00   4.736056e-02
  3.304632e-01    1.856093e+00   4.686243e-02
  3.326737e-01    1.861823e+00   4.675157e-02
  3.348841e-01    1.852285e+00   4.645086e-02
  3.370946e-01    1.823731e+00   4.591799e-02
  3.393050e-01    1.893372e+00   4.660927e-02
  3.415155e-01    1.823688e+00   4.557153e-02
  3.437260e-01    1.884983e+00   4.615931e-02
  3.459364e-01    1.863213e+00   4.572224e-02
  3.481469e-01    1.822701e+00   4.505737e-02
  3.503573e-01    1.802593e+00   4.464491e-02
  3.525678e-01    1.775263e+00   4.414729e-02
  3.547782e-01    1.774219e+00   4.397476e-02
  3.569887e-01    1.804858e+00   4.419572e-02
  3.591992e-01    1.784387e+00   4.378885e-02
  3.614096e-01    1.807473e+00   4.391841e-02
  3.636201e-01    1.795615e+00   4.362027e-02
  3.658305e-01    1.807016e+00   4.360929e-02
  3.680410e-01    1.685416e+00   4.197158e-02
  3.702514e-01    1.807698e+00   4.332129e-02
  3.724619e-01    1.910672e+00   4.438644e-02
  3.746724e-01    1.816238e+00   4.313127e-02
  3.768828e-01    1.820599e+00   4.303769e-02
  3.790933e-01    1.839618e+00   4.312095e-02
  3.813037e-01    1.784917e+00   4.233605e-02
  3.835142e-01    1.723337e+00   4.146270e-02
  3.857246e-01    1.748442e+00   4.162844e-02
  3.879351e-01    1.779676e+00   4.186269e-02
  3.901455e-01    1.782438e+00   4.176179e-02
  3.923560e-01    1.719735e+00   4.089030e-02
  3.945665e-01    1.705588e+00   4.059261e-02
  3.967769e-01    1.736401e+00   4.082937e-02
  3.989874e-01    1.775969e+00   4.116300e-02
  4.011978e-01    1.857823e+00   4.197146e-02
  4.034083e-01    1.783621e+00   4.099851e-02
  4.056187e-01    1.801303e+00   4.107428e-02
  4.078292e-01    1.797373e+00   4.090530e-02
  4.100397e-01    1.846793e+00   4.133723e-02
  4.122501e-01    1.817053e+00   4.088040e-02
  4.144606e-01    1.806953e+00   4.064571e-02
  4.166710e-01    1.781570e+00   4.023922e-02
  4.188815e-01    1.791735e+00   4.023465e-02
  4.210919e-01    1.779572e+00   3.998032e-02
  4.233024e-01    1.827947e+00   4.040091e-02
  4.255128e-01    1.838591e+00   4.040126e-02
  4.277233e-01    1.813213e+00   4.000617e-02
  4.299338e-01    1.798222e+00   3.972582e-02
  4.321442e-01    1.762189e+00   3.921326e-02
  4.343547e-01    1.804739e+00   3.957164e-02
  4.365651e-01    1.771804e+00   3.909751e-02
  4.387756e-01    1.784451e+00   3.912692e-02
  4.409860e-01    1.750253e+00   3.864284e-02
  4.431965e-01    1.716736e+00   3.816522e-02
  4.454070e-01    1.735651e+00   3.826813e-02
  4.476174e-01    1.764897e+00   3.848324e-02
  4.498279e-01    1.763313e+00   3.836131e-02
  4.520383e-01    1.715529e+00   3.773414e-02
  4.542488e-01    1.730198e+00   3.779292e-02
  4.564592e-01    1.705618e+00   3.742285e-02
  4.586697e-01    1.737221e+00   3.766771e-02
  4.608801e-01    1.763531e+00   3.785023e-02
  4.630906e-01    1.730660e+00   3.739654e-02
  4.653011e-01    1.687912e+00   3.683466e-02
  4.675115e-01    1.750855e+00   3.741636e-02
  4.697220e-01    1.706622e+00   3.684400e-02
  4.719324e-01    1.714467e+00   3.683305e-02
  4.741429e-01    1.704353e+00   3.662962e-02
  4.763533e-01    1.702154e+00   3.651214e-02
  4.785638e-01    1.723850e+00   3.664917e-02
  4.807743e-01    1.759603e+00   3.693312e-02
  4.829847e-01    1.724990e+00   3.647568e-02
  4.851952e-01    1.687756e+00   3.598858e-02
  4.874056e-01    1.743618e+00   3.648706e-02
  4.896161e-01    1.748888e+00   3.645154e-02
  4.918265e-01    1.754474e+00   3.641906e-02
  4.940370e-01    1.704930e+00   3.581253e-02
  4.962475e-01    1.704843e+00   3.572317e-02
  4.984579e-01    1.663969e+00   3.520536e-02
  5.006684e-01    1.662387e+00   3.510281e-02
  5.028788e-01    1.686027e+00   3.526587e-02
  5.050893e-01    1.673717e+00   3.505144e-02
  5.072997e-01    1.690427e+00   3.514090e-02
  5.095102e-01    1.647154e+00   3.460512e-02
  5.117206e-01    1.630247e+00   3.434519e-02
  5.139311e-01    1.677188e+00   3.475370e-02
  5.161416e-01    1.687289e+00   3.477583e-02
  5.183520e-01    1.665022e+00   3.446351e-02
  5.205625e-01    1.645977e+00   3.418555e-02
  5.227729e-01    1.703056e+00   3.469213e-02
  5.249834e-01    1.720854e+00   3.479200e-02
  5.271938e-01    1.730332e+00   3.480628e-02
  5.294043e-01    1.694975e+00   3.436934e-02
  5.316148e-01    1.729432e+00   3.463740e-02
  5.338252e-01    1.745339e+00   3.471680e-02
  5.360357e-01    1.757526e+00   3.475850e-02
  5.382461e-01    1.743827e+00   3.454450e-02
  5.404566e-01    1.735814e+00   3.438661e-02
  5.426670e-01    1.756268e+00   3.451068e-02
  5.448775e-01    1.741987e+00   3.429331e-02
  5.470879e-01    1.814922e+00   3.492576e-02
  5.492984e-01    1.849002e+00   3.517379e-02
  5.515089e-01    1.782528e+00   3.445914e-02
  5.537193e-01    1.804805e+00   3.459739e-02
  5.559298e-01    1.820028e+00   3.466680e-02
  5.581402e-01    1.814598e+00   3.453941e-02
  5.603507e-01    1.748482e+00   3.383056e-02
  5.625611e-01    1.769290e+00   3.395739e-02
  5.647716e-01    1.788576e+00   3.406786e-02
  5.669821e-01    1.783527e+00   3.394639e-02
  5.691925e-01    1.771078e+00   3.375509e-02
  5.714030e-01    1.822428e+00   3.416793e-02
  5.736134e-01    1.773087e+00   3.363057e-02
  5.758239e-01    1.699047e+00   3.285063e-02
  5.780343e-01    1.694383e+00   3.273611e-02
  5.802448e-01    1.671852e+00   3.244966e-02
  5.824552e-01    1.669954e+00   3.236319e-02
  5.846657e-01    1.681074e+00   3.240307e-02
  5.868762e-01    1.670571e+00   3.223444e-02
  5.890866e-01    1.654644e+00   3.201385e-02
  5.912971e-01    1.648487e+00   3.188809e-02
  5.935075e-01    1.625161e+00   3.159624e-02
  5.957180e-01    1.641013e+00   3.168481e-02
  5.979284e-01    1.652672e+00   3.173225e-02
  6.001389e-01    1.650139e+00   3.164336e-02
  6.023494e-01    1.641327e+00   3.149469e-02
  6.045598e-01    1.639620e+00   3.141421e-02
  6.067703e-01    1.642727e+00   3.138074e-02
  6.089807e-01    1.695156e+00   3.181346e-02
  6.111912e-01    1.698408e+00   3.178040e-02
  6.134016e-01    1.698624e+00   3.171902e-02
  6.156121e-01    1.702524e+00   3.169230e-02
  6.178226e-01    1.692156e+00   3.153309e-02
  6.200330e-01    1.704808e+00   3.158833e-02
  6.222435e-01    1.705797e+00   3.153490e-02
  6.244539e-01    1.730089e+00   3.169646e-02
  6.266644e-01    1.722706e+00   3.156706e-02
  6.288748e-01    1.721092e+00   3.149085e-02
  6.310853e-01    1.728902e+00   3.150094e-02
  6.332957e-01    1.746226e+00   3.159726e-02
  6.355062e-01    1.708474e+00   3.119312e-02
  6.377167e-01    1.677205e+00   3.084704e-02
  6.399271e-01    1.678889e+00   3.080339e-02
  6.421376e-01    1.677414e+00   3.073107e-02
  6.443480e-01    1.690502e+00   3.079206e-02
  6.465585e-01    1.708007e+00   3.089243e-02
  6.487689e-01    1.712559e+00   3.087515e-02
  6.509794e-01    1.690490e+00   3.061774e-02
  6.531899e-01    1.681344e+00   3.047736e-02
  6.554003e-01    1.654234e+00   3.017384e-02
  6.576108e-01    1.563356e+00   2.927867e-02
  6.598212e-01    1.593212e+00   2.950200e-02
  6.620317e-01    1.643807e+00   2.991123e-02
  6.642421e-01    1.639014e+00   2.981235e-02
  6.664526e-01    1.641179e+00   2.977706e-02
  6.686630e-01    1.643978e+00   2.974734e-02
  6.708735e-01    1.642576e+00   2.968012e-02
  6.730840e-01    1.620948e+00   2.943031e-02
  6.752944e-01    1.598253e+00   2.917041e-02
  6.775049e-01    1.576523e+00   2.891882e-02
  6.797153e-01    1.651855e+00   2.954809e-02
  6.819258e-01    1.642795e+00   2.941381e-02
  6.841362e-01    1.638912e+00   2.932619e-02
  6.863467e-01    1.603181e+00   2.895280e-02
  6.885572e-01    1.610328e+00   2.896526e-02
  6.907676e-01    1.605238e+00   2.886762e-02
  6.929781e-01    1.618464e+00   2.893479e-02
  6.951885e-01    1.600258e+00   2.872063e-02
  6.973990e-01    1.618992e+00   2.883717e-02
  6.996094e-01    1.649481e+00   2.905623e-02
  7.018199e-01    1.643027e+00   2.894845e-02
  7.040303e-01    1.581685e+00   2.835301e-02
  7.062408e-01    1.572108e+00   2.821753e-02
  7.084513e-01    1.582325e+00   2.825982e-02
  7.106617e-01    1.597070e+00   2.834186e-02
  7.128722e-01    1.609292e+00   2.840088e-02
  7.150826e-01    1.603803e+00   2.830355e-02
  7.172931e-01    1.579610e+00   2.804083e-02
  7.195035e-01    1.586733e+00   2.805565e-02
  7.217140e-01    1.580321e+00   2.804847e-02
  7.239245e-01    1.560677e+00   2.809931e-02
  7.261349e-01    1.581653e+00   2.839637e-02
  7.283454e-01    1.561100e+00   2.828336e-02
  7.305558e-01    1.603800e+00   2.872204e-02
  7.327663e-01    1.580256e+00   2.855304e-02
  7.349767e-01    1.552493e+00   2.831735e-02
  7.371872e-01    1.591845e+00   2.866275e-02
  7.393976e-01    1.609765e+00   2.880919e-02
  7.416081e-01    1.618716e+00   2.887282e-02
  7.438186e-01    1.577510e+00   2.835849e-02
  7.460290e-01    1.559904e+00   2.790693e-02
  7.482395e-01    1.563703e+00   2.777032e-02
  7.504499e-01    1.558546e+00   2.758893e-02
  7.526604e-01    1.576356e+00   2.762948e-02
  7.548708e-01    1.582432e+00   2.759305e-02
  7.570813e-01    1.574239e+00   2.747056e-02
  7.592918e-01    1.566954e+00   2.737183e-02
  7.615022e-01    1.551484e+00   2.720283e-02
  7.637127e-01    1.591176e+00   2.751564e-02
  7.659231e-01    1.588806e+00   2.746301e-02
  7.681336e-01    1.590964e+00   2.744989e-02
  7.703440e-01    1.570489e+00   2.724151e-02
  7.725545e-01    1.564586e+00   2.715945e-02
  7.747650e-01    1.663187e+00   2.796294e-02
  7.769754e-01    1.567674e+00   2.709560e-02
  7.791859e-01    1.568079e+00   2.704570e-02
  7.813963e-01    1.571556e+00   2.702322e-02
  7.836068e-01    1.603912e+00   2.724765e-02
  7.858172e-01    1.649731e+00   2.758245e-02
  7.880277e-01    1.601229e+00   2.712229e-02
  7.902381e-01    1.584708e+00   2.693297e-02
  7.924486e-01    1.558422e+00   2.665918e-02
  7.946591e-01    1.597675e+00   2.694457e-02
  7.968695e-01    1.588946e+00   2.682281e-02
  7.990800e-01    1.607015e+00   2.692666e-02
  8.012904e-01    1.608625e+00   2.689356e-02
  8.035009e-01    1.613567e+00   2.688690e-02
  8.057113e-01    1.614668e+00   2.684957e-02
  8.079218e-01    1.601247e+00   2.669161e-02
  8.101323e-01    1.631815e+00   2.689941e-02
  8.123427e-01    1.669294e+00   2.716021e-02
  8.145532e-01    1.651996e+00   2.697287e-02
  8.167636e-01    1.687501e+00   2.721534e-02
  8.189741e-01    1.661763e+00   2.696199e-02
  8.211845e-01    1.627649e+00   2.663908e-02
  8.233950e-01    1.626110e+00   2.658318e-02
  8.256054e-01    1.627730e+00   2.655234e-02
  8.278159e-01    1.643771e+00   2.663880e-02
  8.300264e-01    1.625505e+00   2.644748e-02
  8.322368e-01    1.624928e+00   2.639982e-02
  8.344473e-01    1.647778e+00   2.654131e-02
  8.366577e-01    1.672312e+00   2.669515e-02
  8.388682e-01    1.661380e+00   2.656524e-02
  8.410786e-01    1.679129e+00   2.666417e-02
  8.432891e-01    1.690629e+00   2.671284e-02
  8.454996e-01    1.668553e+00   2.649586e-02
  8.477100e-01    1.671141e+00   2.647431e-02
  8.499205e-01    1.643758e+00   2.621529e-02
  8.521309e-01    1.624902e+00   2.602385e-02
  8.543414e-01    1.658904e+00   2.625369e-02
  8.565518e-01    1.624587e+00   2.594029e-02
  8.587623e-01    1.648247e+00   2.608779e-02
  8.609727e-01    1.682322e+00   2.631522e-02
  8.631832e-01    1.635387e+00   2.590556e-02
  8.653937e-01    1.601520e+00   2.559651e-02
  8.676041e-01    1.629084e+00   2.577688e-02
  8.698146e-01    1.627012e+00   2.572111e-02
  8.720250e-01    1.631020e+00   2.571352e-02
  8.742355e-01    1.581680e+00   2.528308e-02
  8.764459e-01    1.605383e+00   2.543294e-02
  8.786564e-01    1.634820e+00   2.562679e-02
  8.808669e-01    1.676931e+00   2.591542e-02
  8.830773e-01    1.624638e+00   2.546975e-02
  8.852878e-01    1.583943e+00   2.511103e-02
  8.874982e-01    1.580980e+00   2.505111e-02
  8.897087e-01    1.595010e+00   2.512442e-02
  8.919191e-01    1.601672e+00   2.513905e-02
  8.941296e-01    1.618546e+00   2.523364e-02
  8.963401e-01    1.594597e+00   2.500990e-02
  8.985505e-01    1.601568e+00   2.502751e-02
  9.007610e-01    1.632469e+00   2.523069e-02
  9.029714e-01    1.610666e+00   2.502569e-02
  9.051819e-01    1.623621e+00   2.508863e-02
  9.073923e-01    1.599558e+00   2.486545e-02
  9.096028e-01    1.597781e+00   2.481674e-02
  9.118132e-01    1.621386e+00   2.496293e-02
  9.140237e-01    1.586579e+00   2.465707e-02
  9.162342e-01    1.629394e+00   2.495265e-02
  9.184446e-01    1.603566e+00   2.471833e-02
  9.206551e-01    1.596154e+00   2.462557e-02
  9.228655e-01    1.627142e+00   2.482790e-02
  9.250760e-01    1.642621e+00   2.490995e-02
  9.272864e-01    1.610231e+00   2.462879e-02
  9.294969e-01    1.601067e+00   2.452280e-02
  9.317074e-01    1.622936e+00   2.465484e-02
  9.339178e-01    1.607045e+00   2.450032e-02
  9.361283e-01    1.613423e+00   2.451269e-02
  9.383387e-01    1.623963e+00   2.455919e-02
  9.405492e-01    1.631397e+00   2.458096e-02
  9.427596e-01    1.676309e+00   2.488114e-02
  9.449701e-01    1.659500e+00   2.472247e-02
  9.471805e-01    1.695112e+00   2.495090e-02
  9.493910e-01    1.701052e+00   2.496030e-02
  9.516015e-01    1.702381e+00   2.493518e-02
  9.538119e-01    1.689805e+00   2.480887e-02
  9.560224e-01    1.718300e+00   2.498194e-02
  9.582328e-01    1.742833e+00   2.512591e-02
  9.604433e-01    1.729005e+00   2.499060e-02
  9.626537e-01    1.784046e+00   2.535110e-02
  9.648642e-01    1.806364e+00   2.547425e-02
  9.670747e-01    1.832236e+00   2.562065e-02
  9.692851e-01    1.824645e+00   2.553355e-02
  9.714956e-01    1.830001e+00   2.553494e-02
  9.737060e-01    1.821317e+00   2.544081e-02
  9.759165e-01    1.845349e+00   2.557200e-02
  9.781269e-01    1.834562e+00   2.546379e-02
  9.803374e-01    1.885803e+00   2.578124e-02
  9.825478e-01    1.872406e+00   2.565563e-02
  9.847583e-01    1.875292e+00   2.564053e-02
  9.869688e-01    1.824308e+00   2.525574e-02
  9.891792e-01    1.759224e+00   2.476817e-02
  9.913897e-01    1.756965e+00   2.471884e-02
  9.936001e-01    1.728902e+00   2.448855e-02
  9.958106e-01    1.674611e+00   2.406823e-02
  9.980210e-01    1.671388e+00   2.401384e-02
  1.000231e+00    1.654905e+00   2.402605e-02
  1.002442e+00    1.641414e+00   2.405505e-02
  1.004652e+00    1.627866e+00   2.402240e-02
  1.006863e+00    1.619573e+00   2.401084e-02
  1.009073e+00    1.611566e+00   2.398809e-02
  1.011284e+00    1.601303e+00   2.394354e-02
  1.013494e+00    1.647840e+00   2.431306e-02
  1.015705e+00    1.649893e+00   2.435119e-02
  1.017915e+00    1.618402e+00   2.413431e-02
  1.020126e+00    1.609968e+00   2.408762e-02
  1.022336e+00    1.600611e+00   2.402934e-02
  1.024547e+00    1.573352e+00   2.383516e-02
  1.026757e+00    1.559464e+00   2.373811e-02
  1.028967e+00    1.585346e+00   2.394207e-02
  1.031178e+00    1.640562e+00   2.436180e-02
  1.033388e+00    1.656388e+00   2.448429e-02
  1.035599e+00    1.631374e+00   2.430229e-02
  1.037809e+00    1.589881e+00   2.399453e-02
  1.040020e+00    1.585372e+00   2.396180e-02
  1.042230e+00    1.557373e+00   2.375122e-02
  1.044441e+00    1.528609e+00   2.353065e-02
  1.046651e+00    1.535178e+00   2.358130e-02
  1.048862e+00    1.591541e+00   2.400946e-02
  1.051072e+00    1.622679e+00   2.424076e-02
  1.053282e+00    1.653328e+00   2.446761e-02
  1.055493e+00    1.659737e+00   2.451047e-02
  1.057703e+00    1.600848e+00   2.407016e-02
  1.059914e+00    1.589805e+00   2.398257e-02
  1.062124e+00    1.629167e+00   2.427341e-02
  1.064335e+00    1.680409e+00   2.464852e-02
  1.066545e+00    1.645737e+00   2.438663e-02
  1.068756e+00    1.646504e+00   2.438832e-02
  1.070966e+00    1.741514e+00   2.507501e-02
  1.073177e+00    1.729178e+00   2.497953e-02
  1.075387e+00    1.587864e+00   2.393166e-02
  1.077597e+00    1.526811e+00   2.345963e-02
  1.079808e+00    1.545512e+00   2.346648e-02
  1.082018e+00    1.508623e+00   2.299275e-02
  1.084229e+00    1.496214e+00   2.278659e-02
  1.086439e+00    1.503319e+00   2.275176e-02
  1.088650e+00    1.483224e+00   2.252279e-02
  1.090860e+00    1.468293e+00   2.234117e-02
  1.093071e+00    1.440338e+00   2.206552e-02
  1.095281e+00    1.441961e+00   2.202076e-02
  1.097492e+00    1.436755e+00   2.192624e-02
  1.099702e+00    1.409648e+00   2.166756e-02
  1.101912e+00    1.415363e+00   2.166302e-02
  1.104123e+00    1.417696e+00   2.163293e-02
  1.106333e+00    1.414220e+00   2.156227e-02
  1.108544e+00    1.438004e+00   2.169842e-02
  1.110754e+00    1.417632e+00   2.150133e-02
  1.112965e+00    1.414294e+00   2.143555e-02
  1.115175e+00    1.422919e+00   2.145961e-02
  1.117386e+00    1.382257e+00   2.111195e-02
  1.119596e+00    1.416255e+00   2.133208e-02
  1.121807e+00    1.416135e+00   2.129227e-02
  1.124017e+00    1.389709e+00   2.105626e-02
  1.126228e+00    1.383570e+00   2.097421e-02
  1.128438e+00    1.381193e+00   2.091967e-02
  1.130648e+00    1.394911e+00   2.098905e-02
  1.132859e+00    1.379722e+00   2.084029e-02
  1.135069e+00    1.387745e+00   2.086616e-02
  1.137280e+00    1.373088e+00   2.072285e-02
  1.139490e+00    1.396529e+00   2.086582e-02
  1.141701e+00    1.417948e+00   2.099171e-02
  1.143911e+00    1.397409e+00   2.080711e-02
  1.146122e+00    1.364429e+00   2.052830e-02
  1.148332e+00    1.387908e+00   2.067216e-02
  1.150543e+00    1.418250e+00   2.086564e-02
  1.152753e+00    1.400162e+00   2.070105e-02
  1.154963e+00    1.405935e+00   2.071227e-02
  1.157174e+00    1.381035e+00   2.049780e-02
  1.159384e+00    1.367152e+00   2.036470e-02
  1.161595e+00    1.393412e+00   2.052925e-02
  1.163805e+00    1.391953e+00   2.048900e-02
  1.166016e+00    1.375054e+00   2.033476e-02
  1.168226e+00    1.371050e+00   2.027611e-02
  1.170437e+00    1.377017e+00   2.029144e-02
  1.172647e+00    1.409235e+00   2.049808e-02
  1.174858e+00    1.390676e+00   2.033433e-02
  1.177068e+00    1.361816e+00   2.009397e-02
  1.179278e+00    1.359334e+00   2.004709e-02
  1.181489e+00    1.373901e+00   2.012706e-02
  1.183699e+00    1.365731e+00   2.003951e-02
  1.185910e+00    1.336233e+00   1.979434e-02
  1.188120e+00    1.363254e+00   1.996672e-02
  1.190331e+00    1.386774e+00   2.011117e-02
  1.192541e+00    1.374567e+00   1.999487e-02
  1.194752e+00    1.410043e+00   2.022363e-02
  1.196962e+00    1.379173e+00   1.997505e-02
  1.199173e+00    1.369891e+00   1.988101e-02
  1.201383e+00    1.367559e+00   1.983675e-02
  1.203593e+00    1.365384e+00   1.979600e-02
  1.205804e+00    1.333694e+00   1.953918e-02
  1.208014e+00    1.323308e+00   1.943635e-02
  1.210225e+00    1.370309e+00   1.975298e-02
  1.212435e+00    1.339578e+00   1.950556e-02
  1.214646e+00    1.332865e+00   1.943068e-02
  1.216856e+00    1.320660e+00   1.931631e-02
  1.219067e+00    1.327972e+00   1.934544e-02
  1.221277e+00    1.334199e+00   1.936588e-02
  1.223488e+00    1.324765e+00   1.927177e-02
  1.225698e+00    1.339380e+00   1.935099e-02
  1.227909e+00    1.349945e+00   1.939699e-02
  1.230119e+00    1.347010e+00   1.934408e-02
  1.232329e+00    1.341667e+00   1.927505e-02
  1.234540e+00    1.344493e+00   1.926512e-02
  1.236750e+00    1.362472e+00   1.936307e-02
  1.238961e+00    1.375044e+00   1.942502e-02
  1.241171e+00    1.351253e+00   1.923204e-02
  1.243382e+00    1.336120e+00   1.910063e-02
  1.245592e+00    1.367596e+00   1.930006e-02
  1.247803e+00    1.340130e+00   1.908172e-02
  1.250013e+00    1.326249e+00   1.895929e-02
  1.252224e+00    1.349704e+00   1.910295e-02
  1.254434e+00    1.356912e+00   1.913010e-02
  1.256644e+00    1.346208e+00   1.903133e-02
  1.258855e+00    1.327013e+00   1.887209e-02
  1.261065e+00    1.339132e+00   1.893477e-02
  1.263276e+00    1.351198e+00   1.899695e-02
  1.265486e+00    1.311758e+00   1.869508e-02
  1.267697e+00    1.350964e+00   1.894938e-02
  1.269907e+00    1.326476e+00   1.875438e-02
  1.272118e+00    1.334894e+00   1.879132e-02
  1.274328e+00    1.350501e+00   1.887814e-02
  1.276539e+00    1.355299e+00   1.888878e-02
  1.278749e+00    1.366951e+00   1.894740e-02
  1.280959e+00    1.361343e+00   1.888586e-02
  1.283170e+00    1.365295e+00   1.889071e-02
  1.285380e+00    1.340764e+00   1.869784e-02
  1.287591e+00    1.347838e+00   1.872509e-02
  1.289801e+00    1.341315e+00   1.865858e-02
  1.292012e+00    1.319739e+00   1.849099e-02
  1.294222e+00    1.350322e+00   1.868777e-02
  1.296433e+00    1.343740e+00   1.862660e-02
  1.298643e+00    1.341122e+00   1.859205e-02
  1.300854e+00    1.349897e+00   1.863634e-02
  1.303064e+00    1.368211e+00   1.874299e-02
  1.305274e+00    1.364444e+00   1.869562e-02
  1.307485e+00    1.343417e+00   1.852951e-02
  1.309695e+00    1.346619e+00   1.852937e-02
  1.311906e+00    1.352363e+00   1.854711e-02
  1.314116e+00    1.359188e+00   1.857300e-02
  1.316327e+00    1.363850e+00   1.858303e-02
  1.318537e+00    1.344304e+00   1.842753e-02
  1.320748e+00    1.370812e+00   1.858662e-02
  1.322958e+00    1.364992e+00   1.852648e-02
  1.325169e+00    1.360764e+00   1.847667e-02
  1.327379e+00    1.371645e+00   1.852841e-02
  1.329589e+00    1.377532e+00   1.854684e-02
  1.331800e+00    1.372291e+00   1.849067e-02
  1.334010e+00    1.360335e+00   1.838921e-02
  1.336221e+00    1.345481e+00   1.826682e-02
  1.338431e+00    1.333131e+00   1.816206e-02
  1.340642e+00    1.335223e+00   1.824011e-02
  1.342852e+00    1.356902e+00   1.848852e-02
  1.345063e+00    1.333260e+00   1.837594e-02
  1.347273e+00    1.332466e+00   1.840545e-02
  1.349484e+00    1.370933e+00   1.869714e-02
  1.351694e+00    1.347735e+00   1.856098e-02
  1.353905e+00    1.335526e+00   1.849460e-02
  1.356115e+00    1.322554e+00   1.841947e-02
  1.358325e+00    1.328607e+00   1.847475e-02
  1.360536e+00    1.343438e+00   1.858920e-02
  1.362746e+00    1.326850e+00   1.848356e-02
  1.364957e+00    1.309242e+00   1.836806e-02
  1.367167e+00    1.325731e+00   1.849043e-02
  1.369378e+00    1.330545e+00   1.852997e-02
  1.371588e+00    1.323783e+00   1.848794e-02
  1.373799e+00    1.314880e+00   1.842928e-02
  1.376009e+00    1.328195e+00   1.852574e-02
  1.378220e+00    1.333755e+00   1.856700e-02
  1.380430e+00    1.306936e+00   1.838208e-02
  1.382640e+00    1.284767e+00   1.822639e-02
  1.384851e+00    1.282837e+00   1.821356e-02
  1.387061e+00    1.275743e+00   1.816343e-02
  1.389272e+00    1.287703e+00   1.824857e-02
  1.391482e+00    1.287120e+00   1.824376e-02
  1.393693e+00    1.292551e+00   1.828135e-02
  1.395903e+00    1.261776e+00   1.806091e-02
  1.398114e+00    1.276672e+00   1.816583e-02
  1.400324e+00    1.293030e+00   1.827970e-02
  1.402535e+00    1.275798e+00   1.815518e-02
  1.404745e+00    1.270354e+00   1.811402e-02
  1.406955e+00    1.287687e+00   1.823448e-02
  1.409166e+00    1.318212e+00   1.844597e-02
  1.411376e+00    1.276427e+00   1.814817e-02
  1.413587e+00    1.249510e+00   1.795199e-02
  1.415797e+00    1.263512e+00   1.804877e-02
  1.418008e+00    1.277667e+00   1.810759e-02
  1.420218e+00    1.269567e+00   1.790041e-02
  1.422429e+00    1.263366e+00   1.777154e-02
  1.424639e+00    1.268940e+00   1.774603e-02
  1.426850e+00    1.261358e+00   1.763844e-02
  1.429060e+00    1.247502e+00   1.749274e-02
  1.431270e+00    1.242731e+00   1.741542e-02
  1.433481e+00    1.264136e+00   1.752389e-02
  1.435691e+00    1.270751e+00   1.753125e-02
  1.437902e+00    1.284630e+00   1.759005e-02
  1.440112e+00    1.256949e+00   1.736436e-02
  1.442323e+00    1.260642e+00   1.735691e-02
  1.444533e+00    1.265779e+00   1.735974e-02
  1.446744e+00    1.277693e+00   1.741003e-02
  1.448954e+00    1.289426e+00   1.745935e-02
  1.451165e+00    1.278613e+00   1.735616e-02
  1.453375e+00    1.269544e+00   1.726643e-02
  1.455586e+00    1.267100e+00   1.722169e-02
  1.457796e+00    1.256014e+00   1.711883e-02
  1.460006e+00    1.258405e+00   1.710797e-02
  1.462217e+00    1.274377e+00   1.718994e-02
  1.464427e+00    1.272465e+00   1.715140e-02
  1.466638e+00    1.261778e+00   1.705398e-02
  1.468848e+00    1.248610e+00   1.693963e-02
  1.471059e+00    1.262859e+00   1.701098e-02
  1.473269e+00    1.263219e+00   1.698909e-02
  1.475480e+00    1.237445e+00   1.679140e-02
  1.477690e+00    1.254535e+00   1.688325e-02
  1.479901e+00    1.235073e+00   1.672825e-02
  1.482111e+00    1.263479e+00   1.689624e-02
  1.484321e+00    1.268820e+00   1.690879e-02
  1.486532e+00    1.261312e+00   1.683640e-02
  1.488742e+00    1.245835e+00   1.671030e-02
  1.490953e+00    1.244189e+00   1.667683e-02
  1.493163e+00    1.280047e+00   1.689301e-02
  1.495374e+00    1.282616e+00   1.688830e-02
  1.497584e+00    1.275235e+00   1.681789e-02
  1.499795e+00    1.239995e+00   1.656241e-02
  1.502005e+00    1.238888e+00   1.653349e-02
  1.504216e+00    1.278381e+00   1.677376e-02
  1.506426e+00    1.291079e+00   1.683577e-02
  1.508636e+00    1.289404e+00   1.680416e-02
  1.510847e+00    1.268215e+00   1.664359e-02
  1.513057e+00    1.244930e+00   1.646510e-02
  1.515268e+00    1.263161e+00   1.655944e-02
  1.517478e+00    1.241846e+00   1.639409e-02
  1.519689e+00    1.250129e+00   1.642375e-02
  1.521899e+00    1.268468e+00   1.652054e-02
  1.524110e+00    1.266366e+00   1.648640e-02
  1.526320e+00    1.261110e+00   1.643249e-02
  1.528531e+00    1.264837e+00   1.643690e-02
  1.530741e+00    1.239091e+00   1.624968e-02
  1.532951e+00    1.223604e+00   1.612842e-02
  1.535162e+00    1.254072e+00   1.641475e-02
  1.537372e+00    1.252262e+00   1.646988e-02
  1.539583e+00    1.249889e+00   1.648852e-02
  1.541793e+00    1.259234e+00   1.655704e-02
  1.544004e+00    1.246782e+00   1.647522e-02
  1.546214e+00    1.247076e+00   1.647567e-02
  1.548425e+00    1.245206e+00   1.646357e-02
  1.550635e+00    1.240121e+00   1.643957e-02
  1.552846e+00    1.265822e+00   1.661878e-02
  1.555056e+00    1.231044e+00   1.634766e-02
  1.557266e+00    1.232751e+00   1.624905e-02
  1.559477e+00    1.234808e+00   1.620371e-02
  1.561687e+00    1.246192e+00   1.624755e-02
  1.563898e+00    1.249798e+00   1.625383e-02
  1.566108e+00    1.239314e+00   1.616961e-02
  1.568319e+00    1.223604e+00   1.605129e-02
  1.570529e+00    1.242520e+00   1.614977e-02
  1.572740e+00    1.255792e+00   1.620805e-02
  1.574950e+00    1.271716e+00   1.628389e-02
  1.577161e+00    1.286824e+00   1.635443e-02
  1.579371e+00    1.264845e+00   1.619033e-02
  1.581582e+00    1.234338e+00   1.597418e-02
  1.583792e+00    1.262558e+00   1.613760e-02
  1.586002e+00    1.245472e+00   1.601041e-02
  1.588213e+00    1.261872e+00   1.609811e-02
  1.590423e+00    1.249247e+00   1.599726e-02
  1.592634e+00    1.245563e+00   1.595203e-02
  1.594844e+00    1.252412e+00   1.597434e-02
  1.597055e+00    1.222904e+00   1.576471e-02
  1.599265e+00    1.229753e+00   1.578817e-02
  1.601476e+00    1.221285e+00   1.571355e-02
  1.603686e+00    1.250988e+00   1.588365e-02
  1.605897e+00    1.240817e+00   1.579879e-02
  1.608107e+00    1.221573e+00   1.565636e-02
  1.610317e+00    1.203838e+00   1.552324e-02
  1.612528e+00    1.242713e+00   1.575266e-02
  1.614738e+00    1.213521e+00   1.554774e-02
  1.616949e+00    1.194818e+00   1.540873e-02
  1.619159e+00    1.173757e+00   1.525398e-02
  1.621370e+00    1.167807e+00   1.519718e-02
  1.623580e+00    1.190207e+00   1.532410e-02
  1.625791e+00    1.189993e+00   1.530459e-02
  1.628001e+00    1.214111e+00   1.544057e-02
  1.630212e+00    1.197866e+00   1.531915e-02
  1.632422e+00    1.156271e+00   1.503315e-02
  1.634632e+00    1.165953e+00   1.507876e-02
  1.636843e+00    1.142229e+00   1.490731e-02
  1.639053e+00    1.146939e+00   1.492090e-02
  1.641264e+00    1.135828e+00   1.483160e-02
  1.643474e+00    1.149994e+00   1.490651e-02
  1.645685e+00    1.162708e+00   1.497199e-02
  1.647895e+00    1.123074e+00   1.469826e-02
  1.650106e+00    1.116332e+00   1.463731e-02
  1.652316e+00    1.138960e+00   1.476849e-02
  1.654527e+00    1.123603e+00   1.465209e-02
  1.656737e+00    1.112277e+00   1.456162e-02
  1.658947e+00    1.131338e+00   1.466963e-02
  1.661158e+00    1.102800e+00   1.446733e-02
  1.663368e+00    1.102847e+00   1.445175e-02
  1.665579e+00    1.097270e+00   1.439918e-02
  1.667789e+00    1.102347e+00   1.441630e-02
  1.670000e+00    1.107026e+00   1.443142e-02
  1.672210e+00    1.110684e+00   1.443937e-02
  1.674421e+00    1.121911e+00   1.449671e-02
  1.676631e+00    1.119241e+00   1.446345e-02
  1.678842e+00    1.134478e+00   1.454554e-02
  1.681052e+00    1.113550e+00   1.439524e-02
  1.683263e+00    1.100291e+00   1.429407e-02
  1.685473e+00    1.076367e+00   1.412273e-02
  1.687683e+00    1.045394e+00   1.390289e-02
  1.689894e+00    1.068027e+00   1.403690e-02
  1.692104e+00    1.067565e+00   1.401903e-02
  1.694315e+00    1.068561e+00   1.401108e-02
  1.696525e+00    1.055357e+00   1.390919e-02
  1.698736e+00    1.033061e+00   1.374688e-02
  1.700946e+00    1.044786e+00   1.380964e-02
  1.703157e+00    1.045531e+00   1.380002e-02
  1.705367e+00    1.021510e+00   1.362630e-02
  1.707578e+00    1.015452e+00   1.357147e-02
  1.709788e+00    1.006539e+00   1.349795e-02
  1.711998e+00    1.028396e+00   1.362879e-02
  1.714209e+00    1.028752e+00   1.361680e-02
  1.716419e+00    1.038764e+00   1.366859e-02
  1.718630e+00    1.024407e+00   1.355960e-02
  1.720840e+00    9.936132e-01   1.334030e-02
  1.723051e+00    1.003478e+00   1.339262e-02
  1.725261e+00    1.000060e+00   1.335527e-02
  1.727472e+00    1.025038e+00   1.350681e-02
  1.729682e+00    1.019682e+00   1.345799e-02
  1.731893e+00    1.016689e+00   1.342428e-02
  1.734103e+00    9.883551e-01   1.322227e-02
  1.736313e+00    9.830907e-01   1.317314e-02
  1.738524e+00    9.807945e-01   1.314406e-02
  1.740734e+00    1.003285e+00   1.328017e-02
  1.742945e+00    1.000388e+00   1.324754e-02
  1.745155e+00    9.631360e-01   1.298527e-02
  1.747366e+00    9.830610e-01   1.310514e-02
  1.749576e+00    9.911920e-01   1.314551e-02
  1.751787e+00    9.840425e-01   1.308468e-02
  1.753997e+00    9.536194e-01   1.286761e-02
  1.756208e+00    9.509133e-01   1.283631e-02
  1.758418e+00    9.644203e-01   1.291407e-02
  1.760628e+00    9.531841e-01   1.282540e-02
  1.762839e+00    9.454293e-01   1.276003e-02
  1.765049e+00    9.705727e-01   1.291541e-02
  1.767260e+00    9.855289e-01   1.300158e-02
  1.769470e+00    9.495531e-01   1.274911e-02
  1.771681e+00    9.449587e-01   1.270514e-02
  1.773891e+00    9.472962e-01   1.270780e-02
  1.776102e+00    9.721013e-01   1.286006e-02
  1.778312e+00    9.633321e-01   1.278911e-02
  1.780523e+00    9.413909e-01   1.262986e-02
  1.782733e+00    9.567685e-01   1.271980e-02
  1.784944e+00    9.470680e-01   1.264219e-02
  1.787154e+00    9.796118e-01   1.284469e-02
  1.789364e+00    1.010656e+00   1.303366e-02
  1.791575e+00    9.945898e-01   1.291667e-02
  1.793785e+00    9.538461e-01   1.263672e-02
  1.795996e+00    9.572988e-01   1.264680e-02
  1.798206e+00    9.459406e-01   1.255885e-02
  1.800417e+00    9.333594e-01   1.246225e-02
  1.802627e+00    9.444211e-01   1.252374e-02
  1.804838e+00    9.502064e-01   1.254971e-02
  1.807048e+00    9.101659e-01   1.226959e-02
  1.809259e+00    9.077013e-01   1.223935e-02
  1.811469e+00    9.260943e-01   1.234760e-02
  1.813679e+00    9.562248e-01   1.253144e-02
  1.815890e+00    9.368030e-01   1.238846e-02
  1.818100e+00    9.121870e-01   1.220939e-02
  1.820311e+00    9.054016e-01   1.214901e-02
  1.822521e+00    8.997542e-01   1.209614e-02
  1.824732e+00    9.145671e-01   1.218028e-02
  1.826942e+00    9.079074e-01   1.212339e-02
  1.829153e+00    9.133652e-01   1.214788e-02
  1.831363e+00    8.830706e-01   1.193273e-02
  1.833574e+00    8.668433e-01   1.181096e-02
  1.835784e+00    8.851657e-01   1.192368e-02
  1.837994e+00    8.982055e-01   1.199934e-02
  1.840205e+00    8.723625e-01   1.181430e-02
  1.842415e+00    9.063626e-01   1.203033e-02
  1.844626e+00    8.786156e-01   1.183317e-02
  1.846836e+00    8.678293e-01   1.174885e-02
  1.849047e+00    8.920608e-01   1.189997e-02
  1.851257e+00    8.897742e-01   1.187500e-02
  1.853468e+00    8.744597e-01   1.176351e-02
  1.855678e+00    8.741121e-01   1.175219e-02
  1.857889e+00    8.849271e-01   1.181606e-02
  1.860099e+00    8.727970e-01   1.172609e-02
  1.862309e+00    8.905072e-01   1.183577e-02
  1.864520e+00    9.220930e-01   1.203494e-02
  1.866730e+00    9.318221e-01   1.208849e-02
  1.868941e+00    8.748885e-01   1.170229e-02
  1.871151e+00    8.832193e-01   1.174624e-02
  1.873362e+00    9.020506e-01   1.185914e-02
  1.875572e+00    8.858305e-01   1.174086e-02
  1.877783e+00    8.968223e-01   1.180173e-02
  1.879993e+00    8.687667e-01   1.160436e-02
  1.882204e+00    8.687375e-01   1.159312e-02
  1.884414e+00    8.597651e-01   1.152191e-02
  1.886624e+00    8.483045e-01   1.143377e-02
  1.888835e+00    8.558438e-01   1.147339e-02
  1.891045e+00    8.760787e-01   1.159711e-02
  1.893256e+00    8.554698e-01   1.144873e-02
  1.895466e+00    8.086913e-01   1.112032e-02
  1.897677e+00    8.282163e-01   1.124286e-02
  1.899887e+00    8.149775e-01   1.114182e-02
  1.902098e+00    8.141239e-01   1.112523e-02
  1.904308e+00    8.163038e-01   1.112964e-02
  1.906519e+00    8.311284e-01   1.121939e-02
  1.908729e+00    8.306056e-01   1.120524e-02
  1.910940e+00    8.517152e-01   1.133545e-02
  1.913150e+00    8.390758e-01   1.124037e-02
  1.915360e+00    8.385814e-01   1.122633e-02
  1.917571e+00    8.466077e-01   1.126892e-02
  1.919781e+00    8.115581e-01   1.102256e-02
  1.921992e+00    8.119274e-01   1.101449e-02
  1.924202e+00    8.259953e-01   1.109870e-02
  1.926413e+00    8.079253e-01   1.096637e-02
  1.928623e+00    8.101853e-01   1.097118e-02
  1.930834e+00    8.172204e-01   1.100825e-02
  1.933044e+00    8.103426e-01   1.095119e-02
  1.935255e+00    8.042933e-01   1.089991e-02
  1.937465e+00    8.198050e-01   1.099407e-02
  1.939675e+00    8.059021e-01   1.088961e-02
  1.941886e+00    8.287434e-01   1.103240e-02
  1.944096e+00    8.133466e-01   1.091921e-02
  1.946307e+00    8.090144e-01   1.087970e-02
  1.948517e+00    7.956455e-01   1.077902e-02
  1.950728e+00    7.912996e-01   1.073934e-02
  1.952938e+00    7.857180e-01   1.069139e-02
  1.955149e+00    7.720283e-01   1.058776e-02
  1.957359e+00    7.795492e-01   1.062926e-02
  1.959570e+00    7.960579e-01   1.073034e-02
  1.961780e+00    7.860287e-01   1.065267e-02
  1.963990e+00    7.871028e-01   1.064985e-02
  1.966201e+00    7.907842e-01   1.066468e-02
  1.968411e+00    7.791175e-01   1.057562e-02
  1.970622e+00    8.038894e-01   1.073223e-02
  1.972832e+00    7.990473e-01   1.068983e-02
  1.975043e+00    8.026844e-01   1.070397e-02
  1.977253e+00    7.840021e-01   1.056875e-02
  1.979464e+00    7.784168e-01   1.052101e-02
  1.981674e+00    7.844085e-01   1.055116e-02
  1.983885e+00    7.856928e-01   1.054975e-02
  1.986095e+00    7.767255e-01   1.047969e-02
  1.988305e+00    8.012318e-01   1.063369e-02
  1.990516e+00    8.044158e-01   1.064472e-02
  1.992726e+00    7.907718e-01   1.054432e-02
  1.994937e+00    7.630004e-01   1.034748e-02
  1.997147e+00    7.789261e-01   1.044513e-02
  1.999358e+00    7.807456e-01   1.044746e-02
  2.001568e+00    7.811928e-01   1.043957e-02
  2.003779e+00    7.838804e-01   1.044551e-02
  2.005989e+00    7.721894e-01   1.035532e-02
  2.008200e+00    7.582906e-01   1.025025e-02
  2.010410e+00    7.600785e-01   1.025065e-02
  2.012621e+00    7.639939e-01   1.026534e-02
  2.014831e+00    7.746767e-01   1.032535e-02
  2.017041e+00    7.620566e-01   1.023055e-02
  2.019252e+00    7.793875e-01   1.033615e-02
  2.021462e+00    7.848204e-01   1.036253e-02
  2.023673e+00    7.531130e-01   1.014170e-02
  2.025883e+00    7.663432e-01   1.022086e-02
  2.028094e+00    7.514684e-01   1.011160e-02
  2.030304e+00    7.672761e-01   1.020784e-02
  2.032515e+00    7.568821e-01   1.012918e-02
  2.034725e+00    7.577392e-01   1.012548e-02
  2.036936e+00    7.532519e-01   1.008615e-02
  2.039146e+00    7.602885e-01   1.012355e-02
  2.041356e+00    7.558018e-01   1.008401e-02
  2.043567e+00    7.528184e-01   1.005479e-02
  2.045777e+00    7.527692e-01   1.004524e-02
  2.047988e+00    7.624040e-01   1.009989e-02
  2.050198e+00    7.639476e-01   1.010163e-02
  2.052409e+00    7.620168e-01   1.008116e-02
  2.054619e+00    7.392270e-01   9.921948e-03
  2.056830e+00    7.545930e-01   1.001734e-02
  2.059040e+00    7.679319e-01   1.009788e-02
  2.061251e+00    7.620448e-01   1.005183e-02
  2.063461e+00    7.620937e-01   1.004445e-02
  2.065671e+00    7.822381e-01   1.016745e-02
  2.067882e+00    7.452975e-01   9.915499e-03
  2.070092e+00    7.530458e-01   9.957651e-03
  2.072303e+00    7.614200e-01   1.000366e-02
  2.074513e+00    7.398189e-01   9.851450e-03
  2.076724e+00    7.383057e-01   9.831933e-03
  2.078934e+00    7.379022e-01   9.820280e-03
  2.081145e+00    7.672762e-01   1.000460e-02
  2.083355e+00    7.590842e-01   9.941773e-03
  2.085566e+00    7.651864e-01   9.972600e-03
  2.087776e+00    7.669557e-01   9.974449e-03
  2.089986e+00    7.299762e-01   9.722284e-03
  2.092197e+00    7.301922e-01   9.714804e-03
  2.094407e+00    7.319791e-01   9.717477e-03
  2.096618e+00    7.300355e-01   9.695697e-03
  2.098828e+00    7.365904e-01   9.729811e-03
  2.101039e+00    7.455718e-01   9.779884e-03
  2.103249e+00    7.415512e-01   9.744762e-03
  2.105460e+00    7.514192e-01   9.800231e-03
  2.107670e+00    7.321678e-01   9.665132e-03
  2.109881e+00    7.329545e-01   9.661099e-03
  2.112091e+00    7.431726e-01   9.719143e-03
  2.114301e+00    7.314257e-01   9.633183e-03
  2.116512e+00    7.258217e-01   9.587415e-03
  2.118722e+00    7.078459e-01   9.459201e-03
  2.120933e+00    7.132103e-01   9.486157e-03
  2.123143e+00    7.125620e-01   9.472976e-03
  2.125354e+00    7.091055e-01   9.441499e-03
  2.127564e+00    7.063015e-01   9.414131e-03
  2.129775e+00    7.165301e-01   9.473340e-03
  2.131985e+00    7.147905e-01   9.452759e-03
  2.134196e+00    7.109186e-01   9.418554e-03
  2.136406e+00    7.049187e-01   9.370037e-03
  2.138617e+00    6.944641e-01   9.291913e-03
  2.140827e+00    7.032483e-01   9.366506e-03
  2.143037e+00    7.117570e-01   9.468606e-03
  2.145248e+00    7.121961e-01   9.493651e-03
  2.147458e+00    7.040372e-01   9.454235e-03
  2.149669e+00    7.046968e-01   9.470539e-03
  2.151879e+00    7.047880e-01   9.480380e-03
  2.154090e+00    7.165229e-01   9.566366e-03
  2.156300e+00    7.365695e-01   9.706059e-03
  2.158511e+00    6.955715e-01   9.437355e-03
  2.160721e+00    7.115662e-01   9.550098e-03
  2.162932e+00    7.037628e-01   9.501355e-03
  2.165142e+00    7.006644e-01   9.483432e-03
  2.167352e+00    6.988754e-01   9.474249e-03
  2.169563e+00    6.870036e-01   9.395376e-03
  2.171773e+00    6.876396e-01   9.402145e-03
  2.173984e+00    7.042021e-01   9.516127e-03
  2.176194e+00    7.080613e-01   9.543389e-03
  2.178405e+00    6.908838e-01   9.427612e-03
  2.180615e+00    6.973603e-01   9.472377e-03
  2.182826e+00    6.862901e-01   9.397584e-03
  2.185036e+00    6.817719e-01   9.366632e-03
  2.187247e+00    6.858222e-01   9.394371e-03
  2.189457e+00    6.814052e-01   9.363662e-03
  2.191667e+00    6.897365e-01   9.420551e-03
  2.193878e+00    6.960708e-01   9.463146e-03
  2.196088e+00    6.880010e-01   9.407448e-03
  2.198299e+00    6.882487e-01   9.408042e-03
  2.200509e+00    6.802566e-01   9.352213e-03
  2.202720e+00    6.914608e-01   9.427742e-03
  2.204930e+00    6.858726e-01   9.388345e-03
  2.207141e+00    6.736671e-01   9.303306e-03
  2.209351e+00    6.768425e-01   9.323333e-03
  2.211562e+00    6.802797e-01   9.345356e-03
  2.213772e+00    6.787679e-01   9.279401e-03
  2.215982e+00    6.765085e-01   9.219731e-03
  2.218193e+00    6.698914e-01   9.145011e-03
  2.220403e+00    6.717731e-01   9.133315e-03
  2.222614e+00    6.843520e-01   9.197317e-03
  2.224824e+00    6.762843e-01   9.123521e-03
  2.227035e+00    6.816403e-01   9.142027e-03
  2.229245e+00    6.599211e-01   8.978385e-03
  2.231456e+00    6.678854e-01   9.016805e-03
  2.233666e+00    6.736956e-01   9.040833e-03
  2.235877e+00    6.736784e-01   9.026407e-03
  2.238087e+00    6.726554e-01   9.006052e-03
  2.240298e+00    6.746448e-01   9.005529e-03
  2.242508e+00    6.584316e-01   8.881665e-03
  2.244718e+00    6.616448e-01   8.887571e-03
  2.246929e+00    6.612633e-01   8.870668e-03
  2.249139e+00    6.493199e-01   8.777986e-03
  2.251350e+00    6.586106e-01   8.828917e-03
  2.253560e+00    6.698331e-01   8.892229e-03
  2.255771e+00    6.723852e-01   8.897701e-03
  2.257981e+00    6.596196e-01   8.801694e-03
  2.260192e+00    6.494327e-01   8.722475e-03
  2.262402e+00    6.583595e-01   8.771420e-03
  2.264613e+00    6.575497e-01   8.755237e-03
  2.266823e+00    6.658058e-01   8.799600e-03
  2.269033e+00    6.698218e-01   8.815678e-03
  2.271244e+00    6.732588e-01   8.827793e-03
  2.273454e+00    6.531036e-01   8.684460e-03
  2.275665e+00    6.644107e-01   8.748980e-03
  2.277875e+00    6.680928e-01   8.763220e-03
  2.280086e+00    6.604930e-01   8.703185e-03
  2.282296e+00    6.580114e-01   8.677425e-03
  2.284507e+00    6.603789e-01   8.682883e-03
  2.286717e+00    6.464096e-01   8.581173e-03
  2.288928e+00    6.419786e-01   8.541955e-03
  2.291138e+00    6.441953e-01   8.547353e-03
  2.293348e+00    6.435103e-01   8.533367e-03
  2.295559e+00    6.531212e-01   8.587536e-03
  2.297769e+00    6.531557e-01   8.578550e-03
  2.299980e+00    6.435061e-01   8.505675e-03
  2.302190e+00    6.438161e-01   8.498652e-03
  2.304401e+00    6.510135e-01   8.536727e-03
  2.306611e+00    6.517457e-01   8.532310e-03
  2.308822e+00    6.696162e-01   8.640004e-03
  2.311032e+00    6.577789e-01   8.556817e-03
  2.313243e+00    6.410448e-01   8.441039e-03
  2.315453e+00    6.505174e-01   8.495584e-03
  2.317663e+00    6.516752e-01   8.493996e-03
  2.319874e+00    6.506450e-01   8.478526e-03
  2.322084e+00    6.373444e-01   8.382500e-03
  2.324295e+00    6.460555e-01   8.431377e-03
  2.326505e+00    6.368527e-01   8.362094e-03
  2.328716e+00    6.417108e-01   8.385409e-03
  2.330926e+00    6.388482e-01   8.357888e-03
  2.333137e+00    6.506109e-01   8.426077e-03
  2.335347e+00    6.407913e-01   8.353377e-03
  2.337558e+00    6.500148e-01   8.404993e-03
  2.339768e+00    6.308224e-01   8.271469e-03
  2.341979e+00    6.345656e-01   8.287608e-03
  2.344189e+00    6.519324e-01   8.391797e-03
  2.346399e+00    6.262036e-01   8.216103e-03
  2.348610e+00    6.305691e-01   8.236240e-03
  2.350820e+00    6.410280e-01   8.296073e-03
  2.353031e+00    6.309125e-01   8.222089e-03
  2.355241e+00    6.393048e-01   8.268476e-03
  2.357452e+00    6.413106e-01   8.272989e-03
  2.359662e+00    6.280739e-01   8.178947e-03
  2.361873e+00    6.351919e-01   8.216907e-03
  2.364083e+00    6.308207e-01   8.180594e-03
  2.366294e+00    6.279327e-01   8.153711e-03
  2.368504e+00    6.306058e-01   8.162975e-03
  2.370714e+00    6.144500e-01   8.049738e-03
  2.372925e+00    6.156961e-01   8.049903e-03
  2.375135e+00    6.218826e-01   8.082197e-03
  2.377346e+00    6.289375e-01   8.119929e-03
  2.379556e+00    6.422152e-01   8.197188e-03
  2.381767e+00    6.225252e-01   8.062680e-03
  2.383977e+00    6.186048e-01   8.029329e-03
  2.386188e+00    6.094142e-01   7.961608e-03
  2.388398e+00    6.160914e-01   7.997157e-03
  2.390609e+00    6.133136e-01   7.971417e-03
  2.392819e+00    6.120631e-01   7.955536e-03
  2.395029e+00    6.103376e-01   7.936692e-03
  2.397240e+00    6.106864e-01   7.931091e-03
  2.399450e+00    6.203505e-01   7.985780e-03
  2.401661e+00    6.111106e-01   7.918391e-03
  2.403871e+00    6.080028e-01   7.890508e-03
  2.406082e+00    6.033477e-01   7.852837e-03
  2.408292e+00    5.979452e-01   7.809884e-03
  2.410503e+00    6.089302e-01   7.873807e-03
  2.412713e+00    6.139110e-01   7.898096e-03
  2.414924e+00    6.125917e-01   7.882098e-03
  2.417134e+00    6.017253e-01   7.804243e-03
  2.419344e+00    5.975527e-01   7.769783e-03
  2.421555e+00    6.080734e-01   7.830302e-03
  2.423765e+00    6.121953e-01   7.849349e-03
  2.425976e+00    5.921856e-01   7.712245e-03
  2.428186e+00    5.965746e-01   7.733557e-03
  2.430397e+00    6.042588e-01   7.775679e-03
  2.432607e+00    5.936286e-01   7.699726e-03
  2.434818e+00    5.858303e-01   7.641499e-03
  2.437028e+00    5.922211e-01   7.675929e-03
  2.439239e+00    5.876365e-01   7.638536e-03
  2.441449e+00    5.948927e-01   7.678346e-03
  2.443659e+00    5.844055e-01   7.603063e-03
  2.445870e+00    5.825168e-01   7.602931e-03
  2.448080e+00    5.892824e-01   7.681950e-03
  2.450291e+00    5.812480e-01   7.646071e-03
  2.452501e+00    5.815960e-01   7.659572e-03
  2.454712e+00    5.816917e-01   7.668694e-03
  2.456922e+00    5.729936e-01   7.617766e-03
  2.459133e+00    5.643584e-01   7.565592e-03
  2.461343e+00    5.560703e-01   7.514114e-03
  2.463554e+00    5.582843e-01   7.532516e-03
  2.465764e+00    5.582760e-01   7.535586e-03
  2.467975e+00    5.635234e-01   7.573208e-03
  2.470185e+00    5.645882e-01   7.582631e-03
  2.472395e+00    5.497992e-01   7.483875e-03
  2.474606e+00    5.538747e-01   7.513113e-03
  2.476816e+00    5.649741e-01   7.588780e-03
  2.479027e+00    5.523195e-01   7.504146e-03
  2.481237e+00    5.533044e-01   7.511124e-03
  2.483448e+00    5.580108e-01   7.543301e-03
  2.485658e+00    5.564889e-01   7.532861e-03
  2.487869e+00    5.502354e-01   7.490458e-03
  2.490079e+00    5.429265e-01   7.440034e-03
  2.492290e+00    5.314445e-01   7.360492e-03
  2.494500e+00    5.543546e-01   7.516729e-03
  2.496710e+00    5.672470e-01   7.602923e-03
  2.498921e+00    5.440419e-01   7.444803e-03
  2.501131e+00    5.421020e-01   7.430544e-03
  2.503342e+00    5.367693e-01   7.392646e-03
  2.505552e+00    5.351740e-01   7.380520e-03
  2.507763e+00    5.325077e-01   7.360679e-03
  2.509973e+00    5.315270e-01   7.352502e-03
  2.512184e+00    5.383400e-01   7.397858e-03
  2.514394e+00    5.114728e-01   7.201652e-03
  2.516605e+00    5.411202e-01   7.359721e-03
  2.518815e+00    5.227742e-01   7.205664e-03
  2.521025e+00    5.217947e-01   7.178002e-03
  2.523236e+00    5.169871e-01   7.127037e-03
  2.525446e+00    5.395131e-01   7.264806e-03
  2.527657e+00    5.449730e-01   7.286630e-03
  2.529867e+00    5.419973e-01   7.252308e-03
  2.532078e+00    5.322492e-01   7.171633e-03
  2.534288e+00    5.399031e-01   7.208936e-03
  2.536499e+00    5.373226e-01   7.179617e-03
  2.538709e+00    5.392766e-01   7.181486e-03
  2.540920e+00    5.332913e-01   7.130815e-03
  2.543130e+00    5.260234e-01   7.071648e-03
  2.545340e+00    5.323066e-01   7.103621e-03
  2.547551e+00    5.342311e-01   7.106402e-03
  2.549761e+00    5.232003e-01   7.023073e-03
  2.551972e+00    5.005810e-01   6.860415e-03
  2.554182e+00    5.200966e-01   6.983670e-03
  2.556393e+00    5.231747e-01   6.995235e-03
  2.558603e+00    5.151374e-01   6.932240e-03
  2.560814e+00    5.312536e-01   7.031063e-03
  2.563024e+00    5.211520e-01   6.955291e-03
  2.565235e+00    5.157889e-01   6.909939e-03
  2.567445e+00    5.224195e-01   6.944623e-03
  2.569656e+00    5.125028e-01   6.868708e-03
  2.571866e+00    5.149305e-01   6.875607e-03
  2.574076e+00    5.175292e-01   6.883688e-03
  2.576287e+00    5.078801e-01   6.810940e-03
  2.578497e+00    5.069321e-01   6.796802e-03
  2.580708e+00    5.027055e-01   6.760440e-03
  2.582918e+00    4.958894e-01   6.706818e-03
  2.585129e+00    5.103036e-01   6.795872e-03
  2.587339e+00    5.121326e-01   6.800381e-03
  2.589550e+00    5.158758e-01   6.817617e-03
  2.591760e+00    5.173048e-01   6.819272e-03
  2.593971e+00    5.193525e-01   6.825186e-03
  2.596181e+00    5.014591e-01   6.700409e-03
  2.598391e+00    5.019103e-01   6.698283e-03
  2.600602e+00    5.011191e-01   6.687130e-03
  2.602812e+00    5.054299e-01   6.708331e-03
  2.605023e+00    4.998723e-01   6.664240e-03
  2.607233e+00    4.971873e-01   6.639247e-03
  2.609444e+00    4.984652e-01   6.640618e-03
  2.611654e+00    5.069692e-01   6.689699e-03
  2.613865e+00    5.123617e-01   6.718097e-03
  2.616075e+00    5.190871e-01   6.754829e-03
  2.618286e+00    5.066580e-01   6.666467e-03
  2.620496e+00    5.071150e-01   6.662750e-03
  2.622706e+00    5.134093e-01   6.698186e-03
  2.624917e+00    5.186179e-01   6.726138e-03
  2.627127e+00    5.190428e-01   6.723089e-03
  2.629338e+00    5.056753e-01   6.629955e-03
  2.631548e+00    5.042684e-01   6.614540e-03
  2.633759e+00    5.085136e-01   6.635141e-03
  2.635969e+00    4.954434e-01   6.542666e-03
  2.638180e+00    4.936273e-01   6.523751e-03
  2.640390e+00    4.915283e-01   6.503294e-03
  2.642601e+00    4.987112e-01   6.544011e-03
  2.644811e+00    4.978505e-01   6.531309e-03
  2.647021e+00    4.954394e-01   6.508924e-03
  2.649232e+00    4.959150e-01   6.505367e-03
  2.651442e+00    4.917097e-01   6.471260e-03
  2.653653e+00    4.945688e-01   6.483283e-03
  2.655863e+00    5.076971e-01   6.562030e-03
  2.658074e+00    4.970192e-01   6.486058e-03
  2.660284e+00    4.957300e-01   6.471292e-03
  2.662495e+00    4.809245e-01   6.367282e-03
  2.664705e+00    4.928053e-01   6.438901e-03
  2.666916e+00    5.040500e-01   6.505440e-03
  2.669126e+00    4.890358e-01   6.401413e-03
  2.671337e+00    4.856460e-01   6.372666e-03
  2.673547e+00    4.947675e-01   6.425854e-03
  2.675757e+00    4.932810e-01   6.409755e-03
  2.677968e+00    5.010145e-01   6.453240e-03
  2.680178e+00    4.894528e-01   6.371974e-03
  2.682389e+00    4.979427e-01   6.420578e-03
  2.684599e+00    4.858008e-01   6.335662e-03
  2.686810e+00    5.002797e-01   6.422725e-03
  2.689020e+00    4.957395e-01   6.387199e-03
  2.691231e+00    4.953965e-01   6.378681e-03
  2.693441e+00    4.835796e-01   6.296035e-03
  2.695652e+00    4.903776e-01   6.333621e-03
  2.697862e+00    4.947756e-01   6.355581e-03
  2.700072e+00    4.818242e-01   6.265816e-03
  2.702283e+00    4.935920e-01   6.335625e-03
  2.704493e+00    4.929494e-01   6.325189e-03
  2.706704e+00    4.892329e-01   6.294890e-03
  2.708914e+00    5.018587e-01   6.369555e-03
  2.711125e+00    4.766808e-01   6.201551e-03
  2.713335e+00    4.898446e-01   6.280472e-03
  2.715546e+00    4.919437e-01   6.287435e-03
  2.717756e+00    4.853883e-01   6.239521e-03
  2.719967e+00    4.854945e-01   6.233996e-03
  2.722177e+00    4.872188e-01   6.238912e-03
  2.724387e+00    4.858240e-01   6.223881e-03
  2.726598e+00    4.770346e-01   6.161314e-03
  2.728808e+00    4.798735e-01   6.173506e-03
  2.731019e+00    4.748268e-01   6.134883e-03
  2.733229e+00    4.868629e-01   6.206339e-03
  2.735440e+00    4.798045e-01   6.154952e-03
  2.737650e+00    4.827690e-01   6.167921e-03
  2.739861e+00    4.848243e-01   6.174952e-03
  2.742071e+00    4.878418e-01   6.188377e-03
  2.744282e+00    4.766125e-01   6.110523e-03
  2.746492e+00    4.844838e-01   6.154722e-03
  2.748702e+00    4.753629e-01   6.090671e-03
  2.750913e+00    4.758842e-01   6.088223e-03
  2.753123e+00    4.825408e-01   6.124553e-03
  2.755334e+00    4.768170e-01   6.082051e-03
  2.757544e+00    4.873514e-01   6.143111e-03
  2.759755e+00    4.928090e-01   6.171434e-03
  2.761965e+00    4.747752e-01   6.051544e-03
  2.764176e+00    4.781812e-01   6.067211e-03
  2.766386e+00    4.771160e-01   6.054680e-03
  2.768597e+00    4.874327e-01   6.113885e-03
  2.770807e+00    4.777145e-01   6.046748e-03
  2.773017e+00    4.816847e-01   6.065866e-03
  2.775228e+00    4.711820e-01   5.993599e-03
  2.777438e+00    4.666555e-01   5.959039e-03
  2.779649e+00    4.676649e-01   5.959626e-03
  2.781859e+00    4.719597e-01   5.981202e-03
  2.784070e+00    4.839928e-01   6.051084e-03
  2.786280e+00    4.804490e-01   6.023092e-03
  2.788491e+00    4.759569e-01   5.989039e-03
  2.790701e+00    4.721805e-01   5.959628e-03
  2.792912e+00    4.700448e-01   5.940185e-03
  2.795122e+00    4.636382e-01   5.893923e-03
  2.797333e+00    4.736868e-01   5.951891e-03
  2.799543e+00    4.756620e-01   5.958425e-03
  2.801753e+00    4.763735e-01   5.957027e-03
  2.803964e+00    4.752569e-01   5.944377e-03
  2.806174e+00    4.774200e-01   5.951719e-03
  2.808385e+00    4.767401e-01   5.940685e-03
  2.810595e+00    4.738980e-01   5.916083e-03
  2.812806e+00    4.790916e-01   5.941773e-03
  2.815016e+00    4.753115e-01   5.913534e-03
  2.817227e+00    4.777726e-01   5.954857e-03
  2.819437e+00    4.701916e-01   5.918457e-03
  2.821648e+00    4.754505e-01   5.953756e-03
  2.823858e+00    4.733819e-01   5.946137e-03
  2.826068e+00    4.681316e-01   5.918018e-03
  2.828279e+00    4.746358e-01   5.963039e-03
  2.830489e+00    4.765799e-01   5.978586e-03
  2.832700e+00    4.729671e-01   5.958463e-03
  2.834910e+00    4.658907e-01   5.915744e-03
  2.837121e+00    4.754883e-01   5.978097e-03
  2.839331e+00    4.840016e-01   6.032624e-03
  2.841542e+00    4.696585e-01   5.943600e-03
  2.843752e+00    4.680448e-01   5.934123e-03
  2.845963e+00    4.779802e-01   5.997197e-03
  2.848173e+00    4.706337e-01   5.951021e-03
  2.850383e+00    4.769036e-01   5.990811e-03
  2.852594e+00    4.554724e-01   5.854610e-03
  2.854804e+00    4.633405e-01   5.904421e-03
  2.857015e+00    4.711339e-01   5.953456e-03
  2.859225e+00    4.626724e-01   5.899499e-03
  2.861436e+00    4.694995e-01   5.942211e-03
  2.863646e+00    4.680682e-01   5.933174e-03
  2.865857e+00    4.762376e-01   5.985091e-03
  2.868067e+00    4.690512e-01   5.939967e-03
  2.870278e+00    4.713472e-01   5.954141e-03
  2.872488e+00    4.739307e-01   5.969262e-03
  2.874698e+00    4.553456e-01   5.850013e-03
  2.876909e+00    4.735252e-01   5.964296e-03
  2.879119e+00    4.741210e-01   5.966424e-03
  2.881330e+00    4.645914e-01   5.904689e-03
  2.883540e+00    4.415997e-01   5.755364e-03
  2.885751e+00    4.673712e-01   5.919253e-03
  2.887961e+00    4.652775e-01   5.904112e-03
  2.890172e+00    4.570629e-01   5.850153e-03
  2.892382e+00    4.659624e-01   5.905019e-03
  2.894593e+00    4.568082e-01   5.844922e-03
  2.896803e+00    4.605245e-01   5.866674e-03
  2.899014e+00    4.454008e-01   5.767646e-03
  2.901224e+00    4.518965e-01   5.807589e-03
  2.903434e+00    4.524470e-01   5.809186e-03
  2.905645e+00    4.588901e-01   5.848197e-03
  2.907855e+00    4.503354e-01   5.791336e-03
  2.910066e+00    4.456021e-01   5.758781e-03
  2.912276e+00    4.513451e-01   5.793651e-03
  2.914487e+00    4.640168e-01   5.871961e-03
  2.916697e+00    4.645927e-01   5.873356e-03
  2.918908e+00    4.642751e-01   5.869348e-03
  2.921118e+00    4.626428e-01   5.856310e-03
  2.923329e+00    4.545391e-01   5.802475e-03
  2.925539e+00    4.600545e-01   5.835295e-03
  2.927749e+00    4.575920e-01   5.817339e-03
  2.929960e+00    4.516897e-01   5.776946e-03
  2.932170e+00    4.648278e-01   5.858008e-03
  2.934381e+00    4.413306e-01   5.705628e-03
  2.936591e+00    4.620824e-01   5.835619e-03
  2.938802e+00    4.559746e-01   5.794238e-03
  2.941012e+00    4.509412e-01   5.759836e-03
  2.943223e+00    4.542610e-01   5.778295e-03
  2.945433e+00    4.581193e-01   5.799056e-03
  2.947644e+00    4.545815e-01   5.772487e-03
  2.949854e+00    4.576787e-01   5.787820e-03
  2.952064e+00    4.683977e-01   5.850933e-03
  2.954275e+00    4.654554e-01   5.828074e-03
  2.956485e+00    4.572891e-01   5.772515e-03
  2.958696e+00    4.593867e-01   5.781347e-03
  2.960906e+00    4.550613e-01   5.749884e-03
  2.963117e+00    4.628619e-01   5.794432e-03
  2.965327e+00    4.569268e-01   5.753240e-03
  2.967538e+00    4.722694e-01   5.846066e-03
  2.969748e+00    4.620596e-01   5.779702e-03
  2.971959e+00    4.549155e-01   5.731710e-03
  2.974169e+00    4.485959e-01   5.689180e-03
  2.976379e+00    4.600039e-01   5.758123e-03
  2.978590e+00    4.614070e-01   5.763748e-03
  2.980800e+00    4.622520e-01   5.766202e-03
  2.983011e+00    4.611315e-01   5.756371e-03
  2.985221e+00    4.652596e-01   5.778916e-03
  2.987432e+00    4.445711e-01   5.645869e-03
  2.989642e+00    4.669871e-01   5.783805e-03
  2.991853e+00    4.415587e-01   5.620908e-03
  2.994063e+00    4.435355e-01   5.630583e-03
  2.996274e+00    4.527690e-01   5.685706e-03
  2.998484e+00    4.518204e-01   5.677072e-03
  3.000694e+00    4.468938e-01   5.642592e-03
  3.002905e+00    4.582679e-01   5.711004e-03
  3.005115e+00    4.480570e-01   5.644055e-03
  3.007326e+00    4.523959e-01   5.668164e-03
  3.009536e+00    4.630637e-01   5.731316e-03
  3.011747e+00    4.590978e-01   5.703800e-03
  3.013957e+00    4.567234e-01   5.685812e-03
  3.016168e+00    4.634095e-01   5.723999e-03
  3.018378e+00    4.599722e-01   5.699665e-03
  3.020589e+00    4.540324e-01   5.659529e-03
  3.022799e+00    4.580020e-01   5.681033e-03
  3.025010e+00    4.678156e-01   5.738270e-03
  3.027220e+00    4.553189e-01   5.658010e-03
  3.029430e+00    4.601451e-01   5.684626e-03
  3.031641e+00    4.603355e-01   5.682637e-03
  3.033851e+00    4.587121e-01   5.669080e-03
  3.036062e+00    4.570633e-01   5.656074e-03
  3.038272e+00    4.485269e-01   5.599437e-03
  3.040483e+00    4.470228e-01   5.586850e-03
  3.042693e+00    4.537899e-01   5.625688e-03
  3.044904e+00    4.523387e-01   5.612663e-03
  3.047114e+00    4.534314e-01   5.614621e-03
  3.049325e+00    4.616972e-01   5.661103e-03
  3.051535e+00    4.523713e-01   5.599271e-03
  3.053745e+00    4.508803e-01   5.585256e-03
  3.055956e+00    4.455015e-01   5.547294e-03
  3.058166e+00    4.511840e-01   5.578311e-03
  3.060377e+00    4.499596e-01   5.565950e-03
  3.062587e+00    4.570770e-01   5.605151e-03
  3.064798e+00    4.425437e-01   5.511090e-03
  3.067008e+00    4.448062e-01   5.520462e-03
  3.069219e+00    4.410256e-01   5.492476e-03
  3.071429e+00    4.395790e-01   5.479996e-03
  3.073640e+00    4.522713e-01   5.555191e-03
  3.075850e+00    4.543369e-01   5.564275e-03
  3.078060e+00    4.454659e-01   5.506589e-03
  3.080271e+00    4.456890e-01   5.504502e-03
  3.082481e+00    4.446119e-01   5.494416e-03
  3.084692e+00    4.466771e-01   5.503785e-03
  3.086902e+00    4.651867e-01   5.613366e-03
  3.089113e+00    4.463015e-01   5.494677e-03
  3.091323e+00    4.595739e-01   5.572365e-03
  3.093534e+00    4.471034e-01   5.492866e-03
  3.095744e+00    4.497885e-01   5.505952e-03
  3.097955e+00    4.590737e-01   5.558911e-03
  3.100165e+00    4.528924e-01   5.517992e-03
  3.102375e+00    4.527565e-01   5.513731e-03
  3.104586e+00    4.471080e-01   5.475732e-03
  3.106796e+00    4.494527e-01   5.486535e-03
  3.109007e+00    4.472501e-01   5.469864e-03
  3.111217e+00    4.408020e-01   5.426623e-03
  3.113428e+00    4.385644e-01   5.409432e-03
  3.115638e+00    4.420971e-01   5.427950e-03
  3.117849e+00    4.572112e-01   5.516180e-03
  3.120059e+00    4.543837e-01   5.495622e-03
  3.122270e+00    4.394454e-01   5.401259e-03
  3.124480e+00    4.563734e-01   5.500602e-03
  3.126691e+00    4.479932e-01   5.446277e-03
  3.128901e+00    4.521137e-01   5.468120e-03
  3.131111e+00    4.464070e-01   5.429662e-03
  3.133322e+00    4.413586e-01   5.395425e-03
  3.135532e+00    4.503992e-01   5.446982e-03
  3.137743e+00    4.556459e-01   5.475086e-03
  3.139953e+00    4.528340e-01   5.454454e-03
  3.142164e+00    4.424645e-01   5.403638e-03
  3.144374e+00    4.417091e-01   5.427426e-03
  3.146585e+00    4.431870e-01   5.451066e-03
  3.148795e+00    4.355777e-01   5.414752e-03
  3.151006e+00    4.338665e-01   5.412582e-03
  3.153216e+00    4.374101e-01   5.441742e-03
  3.155426e+00    4.352959e-01   5.434839e-03
  3.157637e+00    4.413129e-01   5.477793e-03
  3.159847e+00    4.540924e-01   5.561497e-03
  3.162058e+00    4.393762e-01   5.475076e-03
  3.164268e+00    4.229059e-01   5.375454e-03
  3.166479e+00    4.459238e-01   5.523444e-03
  3.168689e+00    4.412019e-01   5.497558e-03
  3.170900e+00    4.346538e-01   5.459720e-03
  3.173110e+00    4.351536e-01   5.465737e-03
  3.175321e+00    4.396990e-01   5.496686e-03
  3.177531e+00    4.494073e-01   5.559849e-03
  3.179741e+00    4.392052e-01   5.498427e-03
  3.181952e+00    4.374698e-01   5.489663e-03
  3.184162e+00    4.580788e-01   5.619740e-03
  3.186373e+00    4.328558e-01   5.464413e-03
  3.188583e+00    4.337254e-01   5.471689e-03
  3.190794e+00    4.355507e-01   5.484925e-03
  3.193004e+00    4.476333e-01   5.561757e-03
  3.195215e+00    4.398432e-01   5.514662e-03
  3.197425e+00    4.390875e-01   5.511128e-03
  3.199636e+00    4.317530e-01   5.464146e-03
  3.201846e+00    4.385478e-01   5.506365e-03
  3.204056e+00    4.358668e-01   5.490401e-03
  3.206267e+00    4.338917e-01   5.478793e-03
  3.208477e+00    4.242219e-01   5.418317e-03
  3.210688e+00    4.270997e-01   5.437484e-03
  3.212898e+00    4.344836e-01   5.484868e-03
  3.215109e+00    4.361301e-01   5.496023e-03
  3.217319e+00    4.314971e-01   5.467383e-03
  3.219530e+00    4.246517e-01   5.424220e-03
  3.221740e+00    4.322723e-01   5.473244e-03
  3.223951e+00    4.391127e-01   5.516858e-03
  3.226161e+00    4.321753e-01   5.473278e-03
  3.228372e+00    4.259121e-01   5.434017e-03
  3.230582e+00    4.245096e-01   5.425195e-03
  3.232792e+00    4.312436e-01   5.468279e-03
  3.235003e+00    4.329116e-01   5.479090e-03
  3.237213e+00    4.160344e-01   5.371340e-03
  3.239424e+00    4.076778e-01   5.317104e-03
  3.241634e+00    4.225156e-01   5.413135e-03
  3.243845e+00    4.321794e-01   5.474743e-03
  3.246055e+00    4.290942e-01   5.454910e-03
  3.248266e+00    4.256128e-01   5.432940e-03
  3.250476e+00    4.226362e-01   5.413593e-03
  3.252687e+00    4.127871e-01   5.350067e-03
  3.254897e+00    4.363973e-01   5.500819e-03
  3.257107e+00    4.296472e-01   5.457812e-03
  3.259318e+00    4.250470e-01   5.428274e-03
  3.261528e+00    4.277970e-01   5.445658e-03
  3.263739e+00    4.191421e-01   5.389754e-03
  3.265949e+00    4.283945e-01   5.448779e-03
  3.268160e+00    4.139104e-01   5.355477e-03
  3.270370e+00    4.131404e-01   5.349972e-03
  3.272581e+00    4.271030e-01   5.439361e-03
  3.274791e+00    4.326266e-01   5.473879e-03
  3.277002e+00    4.238652e-01   5.417620e-03
  3.279212e+00    4.207550e-01   5.397326e-03
  3.281422e+00    4.192136e-01   5.386839e-03
  3.283633e+00    4.337248e-01   5.478603e-03
  3.285843e+00    4.203441e-01   5.393107e-03
  3.288054e+00    4.229271e-01   5.408707e-03
  3.290264e+00    4.188939e-01   5.382534e-03
  3.292475e+00    4.279951e-01   5.439855e-03
  3.294685e+00    4.400593e-01   5.515353e-03
  3.296896e+00    4.214577e-01   5.396776e-03
  3.299106e+00    4.259077e-01   5.424632e-03
  3.301317e+00    4.236200e-01   5.409016e-03
  3.303527e+00    4.173672e-01   5.368493e-03
  3.305737e+00    4.207589e-01   5.389209e-03
  3.307948e+00    4.205504e-01   5.387200e-03
  3.310158e+00    4.287382e-01   5.438533e-03
  3.312369e+00    4.244494e-01   5.410396e-03
  3.314579e+00    4.191640e-01   5.375690e-03
  3.316790e+00    4.289073e-01   5.437084e-03
  3.319000e+00    4.232306e-01   5.399826e-03
  3.321211e+00    4.194713e-01   5.375146e-03
  3.323421e+00    4.423847e-01   5.518802e-03
  3.325632e+00    4.333652e-01   5.461335e-03
  3.327842e+00    4.365142e-01   5.480218e-03
  3.330052e+00    4.237460e-01   5.398404e-03
  3.332263e+00    4.330774e-01   5.456491e-03
  3.334473e+00    4.395815e-01   5.496374e-03
  3.336684e+00    4.373899e-01   5.481376e-03
  3.338894e+00    4.185015e-01   5.360885e-03
  3.341105e+00    4.230004e-01   5.388392e-03
  3.343315e+00    4.191808e-01   5.362875e-03
  3.345526e+00    4.288229e-01   5.423307e-03
  3.347736e+00    4.141598e-01   5.328370e-03
  3.349947e+00    4.211321e-01   5.372099e-03
  3.352157e+00    4.213462e-01   5.372294e-03
  3.354368e+00    4.274993e-01   5.410069e-03
  3.356578e+00    4.263100e-01   5.401498e-03
  3.358788e+00    4.256676e-01   5.396107e-03
  3.360999e+00    4.133963e-01   5.316526e-03
  3.363209e+00    4.171607e-01   5.339628e-03
  3.365420e+00    4.162603e-01   5.332383e-03
  3.367630e+00    4.242531e-01   5.382278e-03
  3.369841e+00    4.387901e-01   5.472264e-03
  3.372051e+00    4.184424e-01   5.341921e-03
  3.374262e+00    4.220776e-01   5.362591e-03
  3.376472e+00    4.116357e-01   5.293436e-03
  3.378683e+00    4.021628e-01   5.229690e-03
  3.380893e+00    4.152106e-01   5.311503e-03
  3.383103e+00    4.156580e-01   5.311666e-03
  3.385314e+00    4.153842e-01   5.307701e-03
  3.387524e+00    4.070751e-01   5.251638e-03
  3.389735e+00    4.109328e-01   5.273828e-03
  3.391945e+00    4.226060e-01   5.344497e-03
  3.394156e+00    4.138474e-01   5.284603e-03
  3.396366e+00    4.149290e-01   5.288089e-03
  3.398577e+00    4.186368e-01   5.308590e-03
  3.400787e+00    4.114468e-01   5.274715e-03
  3.402998e+00    4.135899e-01   5.326674e-03
  3.405208e+00    4.110910e-01   5.331368e-03
  3.407418e+00    3.990520e-01   5.268460e-03
  3.409629e+00    4.008743e-01   5.294416e-03
  3.411839e+00    3.903512e-01   5.236150e-03
  3.414050e+00    3.965491e-01   5.288496e-03
  3.416260e+00    3.798755e-01   5.185610e-03
  3.418471e+00    3.880697e-01   5.250580e-03
  3.420681e+00    3.993780e-01   5.335080e-03
  3.422892e+00    4.054241e-01   5.383502e-03
  3.425102e+00    3.793732e-01   5.215360e-03
  3.427313e+00    3.896948e-01   5.293032e-03
  3.429523e+00    3.903305e-01   5.304434e-03
  3.431733e+00    3.774062e-01   5.222492e-03
  3.433944e+00    3.758167e-01   5.217861e-03
  3.436154e+00    3.927862e-01   5.340688e-03
  3.438365e+00    3.895595e-01   5.324725e-03
  3.440575e+00    3.813232e-01   5.274048e-03
  3.442786e+00    3.822867e-01   5.286326e-03
  3.444996e+00    3.956923e-01   5.383879e-03
  3.447207e+00    3.574760e-01   5.122448e-03
  3.449417e+00    3.605454e-01   5.184596e-03
  3.451628e+00    3.630137e-01   5.231502e-03
  3.453838e+00    3.712488e-01   5.311791e-03
  3.456049e+00    3.681644e-01   5.313618e-03
  3.458259e+00    3.752500e-01   5.386679e-03
  3.460469e+00    3.719672e-01   5.383031e-03
  3.462680e+00    3.807484e-01   5.465630e-03
  3.464890e+00    3.620266e-01   5.347235e-03
  3.467101e+00    3.792680e-01   5.490853e-03
  3.469311e+00    3.905339e-01   5.588756e-03
  3.471522e+00    3.882852e-01   5.589388e-03
  3.473732e+00    4.000524e-01   5.689780e-03
  3.475943e+00    4.064181e-01   5.751103e-03
  3.478153e+00    4.173469e-01   5.843901e-03
  3.480364e+00    4.236306e-01   5.903475e-03
  3.482574e+00    3.931829e-01   5.702510e-03
  3.484784e+00    4.250872e-01   5.944470e-03
  3.486995e+00    4.239618e-01   5.951834e-03
  3.489205e+00    4.347886e-01   6.042242e-03
  3.491416e+00    4.302289e-01   6.025427e-03
  3.493626e+00    4.370509e-01   6.087656e-03
  3.495837e+00    4.377011e-01   6.106862e-03
  3.498047e+00    4.438850e-01   6.164362e-03
  3.500258e+00    4.519531e-01   6.234680e-03
  3.502468e+00    4.767263e-01   6.418044e-03
  3.504679e+00    4.828685e-01   6.474126e-03
  3.506889e+00    4.880925e-01   6.523815e-03
  3.509099e+00    4.773375e-01   6.465991e-03
  3.511310e+00    4.920616e-01   6.579672e-03
  3.513520e+00    4.852439e-01   6.548374e-03
  3.515731e+00    5.017416e-01   6.673384e-03
  3.517941e+00    4.912248e-01   6.617471e-03
  3.520152e+00    5.138575e-01   6.782746e-03
  3.522362e+00    5.089805e-01   6.765116e-03
  3.524573e+00    5.163713e-01   6.828465e-03
  3.526783e+00    5.275832e-01   6.915791e-03
  3.528994e+00    5.138364e-01   6.837306e-03
  3.531204e+00    5.492297e-01   7.081615e-03
  3.533414e+00    5.412204e-01   7.042099e-03
  3.535625e+00    5.357352e-01   7.018728e-03
  3.537835e+00    5.374489e-01   7.042160e-03
  3.540046e+00    5.479785e-01   7.119818e-03
  3.542256e+00    5.410867e-01   7.082498e-03
  3.544467e+00    5.523043e-01   7.163247e-03
  3.546677e+00    5.391725e-01   7.085209e-03
  3.548888e+00    5.469525e-01   7.143670e-03
  3.551098e+00    5.578134e-01   7.221713e-03
  3.553309e+00    5.518480e-01   7.191289e-03
  3.555519e+00    5.364683e-01   7.101662e-03
  3.557729e+00    5.354328e-01   7.106528e-03
  3.559940e+00    5.412438e-01   7.156569e-03
  3.562150e+00    5.447006e-01   7.191204e-03
  3.564361e+00    5.294726e-01   7.103230e-03
  3.566571e+00    5.416512e-01   7.198312e-03
  3.568782e+00    5.453226e-01   7.236951e-03
  3.570992e+00    5.363848e-01   7.191150e-03
  3.573203e+00    5.241389e-01   7.122577e-03
  3.575413e+00    5.365613e-01   7.220236e-03
  3.577624e+00    5.316984e-01   7.201544e-03
  3.579834e+00    5.287786e-01   7.195522e-03
  3.582045e+00    5.251096e-01   7.184406e-03
  3.584255e+00    5.430621e-01   7.320325e-03
  3.586465e+00    5.312303e-01   7.254004e-03
  3.588676e+00    5.389914e-01   7.321059e-03
  3.590886e+00    5.627624e-01   7.494764e-03
  3.593097e+00    5.488997e-01   7.416593e-03
  3.595307e+00    5.363107e-01   7.344978e-03
  3.597518e+00    5.404851e-01   7.387769e-03
  3.599728e+00    5.394581e-01   7.394928e-03
  3.601939e+00    5.462992e-01   7.455824e-03
  3.604149e+00    5.388218e-01   7.419114e-03
  3.606360e+00    5.474308e-01   7.492446e-03
  3.608570e+00    5.431343e-01   7.477230e-03
  3.610780e+00    5.514873e-01   7.545765e-03
  3.612991e+00    5.383068e-01   7.465078e-03
  3.615201e+00    5.376773e-01   7.470527e-03
  3.617412e+00    5.330954e-01   7.445908e-03
  3.619622e+00    5.406799e-01   7.504656e-03
  3.621833e+00    5.319659e-01   7.450656e-03
  3.624043e+00    5.205994e-01   7.379988e-03
  3.626254e+00    5.382804e-01   7.514022e-03
  3.628464e+00    5.495663e-01   7.603480e-03
  3.630675e+00    5.471780e-01   7.601289e-03
  3.632885e+00    5.372469e-01   7.546448e-03
  3.635095e+00    5.464543e-01   7.625411e-03
  3.637306e+00    5.427567e-01   7.614075e-03
  3.639516e+00    5.350724e-01   7.574525e-03
  3.641727e+00    5.341319e-01   7.582455e-03
  3.643937e+00    5.314905e-01   7.578225e-03
  3.646148e+00    5.295515e-01   7.578908e-03
  3.648358e+00    5.402331e-01   7.669937e-03
  3.650569e+00    5.401641e-01   7.684271e-03
  3.652779e+00    5.433025e-01   7.721510e-03
  3.654990e+00    5.342282e-01   7.671660e-03
  3.657200e+00    5.268025e-01   7.632969e-03
  3.659410e+00    5.199768e-01   7.598154e-03
  3.661621e+00    5.208464e-01   7.619441e-03
  3.663831e+00    5.232372e-01   7.651927e-03
  3.666042e+00    5.332715e-01   7.740094e-03
  3.668252e+00    5.559821e-01   7.918790e-03
  3.670463e+00    5.612366e-01   7.971808e-03
  3.672673e+00    5.415855e-01   7.846579e-03
  3.674884e+00    5.192707e-01   7.698466e-03
  3.677094e+00    5.466836e-01   7.914762e-03
  3.679305e+00    5.552246e-01   7.992343e-03
  3.681515e+00    5.160585e-01   7.720645e-03
  3.683726e+00    5.224388e-01   7.783953e-03
  3.685936e+00    5.022685e-01   7.647482e-03
  3.688146e+00    5.293654e-01   7.866875e-03
  3.690357e+00    5.123993e-01   7.755484e-03
  3.692567e+00    5.081298e-01   7.738946e-03
  3.694778e+00    5.104476e-01   7.772368e-03
  3.696988e+00    5.335073e-01   7.962086e-03
  3.699199e+00    5.134683e-01   7.827192e-03
  3.701409e+00    5.389236e-01   8.035410e-03
  3.703620e+00    5.403153e-01   8.062377e-03
  3.705830e+00    5.381237e-01   8.062589e-03
  3.708041e+00    5.446073e-01   8.127971e-03
  3.710251e+00    5.280436e-01   8.020178e-03
  3.712461e+00    5.128161e-01   7.920273e-03
  3.714672e+00    5.261067e-01   8.039047e-03
  3.716882e+00    5.286695e-01   8.075433e-03
  3.719093e+00    5.199105e-01   8.025393e-03
  3.721303e+00    5.370783e-01   8.174063e-03
  3.723514e+00    5.195276e-01   8.056667e-03
  3.725724e+00    5.313016e-01   8.164820e-03
  3.727935e+00    5.333093e-01   8.197945e-03
  3.730145e+00    5.345570e-01   8.225150e-03
  3.732356e+00    5.083604e-01   8.038500e-03
  3.734566e+00    5.330498e-01   8.249193e-03
  3.736776e+00    5.123008e-01   8.104780e-03
  3.738987e+00    5.162325e-01   8.153571e-03
  3.741197e+00    5.203888e-01   8.204495e-03
  3.743408e+00    5.339836e-01   8.329349e-03
  3.745618e+00    5.199577e-01   8.237660e-03
  3.747829e+00    5.243919e-01   8.291098e-03
  3.750039e+00    5.499540e-01   8.509737e-03
  3.752250e+00    5.037913e-01   8.163204e-03
  3.754460e+00    5.073197e-01   8.210160e-03
  3.756671e+00    5.091027e-01   8.243373e-03
  3.758881e+00    5.014322e-01   8.199553e-03
  3.761091e+00    5.078895e-01   8.271308e-03
  3.763302e+00    5.180201e-01   8.372635e-03
  3.765512e+00    5.154017e-01   8.370889e-03
  3.767723e+00    5.255182e-01   8.472284e-03
  3.769933e+00    5.070121e-01   8.341191e-03
  3.772144e+00    5.042193e-01   8.337657e-03
  3.774354e+00    5.219428e-01   8.503128e-03
  3.776565e+00    5.057476e-01   8.390039e-03
  3.778775e+00    4.969174e-01   8.336251e-03
  3.780986e+00    5.252651e-01   8.591465e-03
  3.783196e+00    5.091035e-01   8.478624e-03
  3.785407e+00    5.384445e-01   8.740659e-03
  3.787617e+00    5.108066e-01   8.534311e-03
  3.789827e+00    5.153272e-01   8.592783e-03
  3.792038e+00    4.991807e-01   8.477867e-03
  3.794248e+00    4.883731e-01   8.406467e-03
  3.796459e+00    5.001413e-01   8.528478e-03
  3.798669e+00    5.003387e-01   8.551549e-03
  3.800880e+00    5.115456e-01   8.668446e-03
  3.803090e+00    4.959736e-01   8.557227e-03
  3.805301e+00    5.052532e-01   8.659103e-03
  3.807511e+00    5.032970e-01   8.664413e-03
  3.809722e+00    5.078270e-01   8.725727e-03
  3.811932e+00    5.228775e-01   8.876802e-03
  3.814142e+00    5.125501e-01   8.811955e-03
  3.816353e+00    5.055212e-01   8.774199e-03
  3.818563e+00    5.280484e-01   8.991394e-03
  3.820774e+00    5.258501e-01   8.996452e-03
  3.822984e+00    4.882493e-01   8.692050e-03
  3.825195e+00    4.694939e-01   8.546418e-03
  3.827405e+00    5.089055e-01   8.922072e-03
  3.829616e+00    5.043648e-01   8.906416e-03
  3.831826e+00    5.033347e-01   8.921685e-03
  3.834037e+00    4.762215e-01   8.702001e-03
  3.836247e+00    4.954596e-01   8.900644e-03
  3.838457e+00    5.204387e-01   9.147936e-03
  3.840668e+00    5.127062e-01   9.105310e-03
  3.842878e+00    5.078501e-01   9.087930e-03
  3.845089e+00    4.782566e-01   8.844288e-03
  3.847299e+00    4.774292e-01   8.861931e-03
  3.849510e+00    4.817711e-01   8.927649e-03
  3.851720e+00    5.202143e-01   9.298938e-03
  3.853931e+00    4.925064e-01   9.066899e-03
  3.856141e+00    4.750479e-01   8.923347e-03
  3.858352e+00    4.990227e-01   9.165050e-03
  3.860562e+00    4.913322e-01   9.113500e-03
  3.862772e+00    4.872695e-01   9.095142e-03
  3.864983e+00    4.863783e-01   9.106312e-03
  3.867193e+00    4.960690e-01   9.216451e-03
  3.869404e+00    5.066060e-01   9.333864e-03
  3.871614e+00    4.992205e-01   9.285734e-03
  3.873825e+00    4.956295e-01   9.272585e-03
  3.876035e+00    5.068293e-01   9.397684e-03
  3.878246e+00    4.721443e-01   9.095644e-03
  3.880456e+00    4.787360e-01   9.187487e-03
  3.882667e+00    4.985265e-01   9.404933e-03
  3.884877e+00    5.168334e-01   9.606621e-03
  3.887087e+00    5.153422e-01   9.623429e-03
  3.889298e+00    4.859720e-01   9.375323e-03
  3.891508e+00    5.184647e-01   9.715053e-03
  3.893719e+00    4.969733e-01   9.542775e-03
  3.895929e+00    4.841711e-01   9.450288e-03
  3.898140e+00    5.023784e-01   9.658447e-03
  3.900350e+00    4.840870e-01   9.512833e-03
  3.902561e+00    5.103419e-01   9.800457e-03
  3.904771e+00    4.962139e-01   9.696918e-03
  3.906982e+00    4.978720e-01   9.746445e-03
  3.909192e+00    5.360928e-01   1.014874e-02
  3.911403e+00    4.929408e-01   9.765938e-03
  3.913613e+00    4.969462e-01   9.840010e-03
  3.915823e+00    5.127416e-01   1.003085e-02
  3.918034e+00    4.977501e-01   9.918702e-03
  3.920244e+00    5.117386e-01   1.009373e-02
  3.922455e+00    4.745908e-01   9.756049e-03
  3.924665e+00    4.863712e-01   9.912740e-03
  3.926876e+00    4.976400e-01   1.006432e-02
  3.929086e+00    4.974080e-01   1.009981e-02
  3.931297e+00    4.824630e-01   9.981532e-03
  3.933507e+00    4.768707e-01   9.952100e-03
  3.935718e+00    5.070867e-01   1.029186e-02
  3.937928e+00    5.065942e-01   1.031693e-02
  3.940138e+00    5.205054e-01   1.048790e-02
  3.942349e+00    5.301441e-01   1.061574e-02
  3.944559e+00    5.021479e-01   1.036210e-02
  3.946770e+00    5.229359e-01   1.060571e-02
  3.948980e+00    4.914824e-01   1.031264e-02
  3.951191e+00    5.313686e-01   1.075517e-02
  3.953401e+00    5.209950e-01   1.068216e-02
  3.955612e+00    4.870576e-01   1.036006e-02
  3.957822e+00    4.720863e-01   1.023080e-02
  3.960033e+00    5.241954e-01   1.081453e-02
  3.962243e+00    5.012721e-01   1.060883e-02
  3.964453e+00    4.944485e-01   1.056974e-02
  3.966664e+00    5.055299e-01   1.072160e-02
  3.968874e+00    4.898508e-01   1.058263e-02
  3.971085e+00    5.096988e-01   1.081721e-02
  3.973295e+00    5.155537e-01   1.090143e-02
  3.975506e+00    4.967411e-01   1.072245e-02
  3.977716e+00    4.949778e-01   1.072573e-02
  3.979927e+00    4.850937e-01   1.064013e-02
  3.982137e+00    4.619715e-01   1.040522e-02
  3.984348e+00    4.787868e-01   1.061525e-02
  3.986558e+00    4.801781e-01   1.065290e-02
  3.988768e+00    4.911915e-01   1.079754e-02
  3.990979e+00    4.882266e-01   1.078775e-02
  3.993189e+00    4.620966e-01   1.051761e-02
  3.995400e+00    4.804989e-01   1.074835e-02
  3.997610e+00    5.196131e-01   1.120817e-02
  3.999821e+00    4.851097e-01   1.086726e-02
  4.002031e+00    4.821582e-01   1.087234e-02
  4.004242e+00    4.865763e-01   1.096066e-02
  4.006452e+00    4.670395e-01   1.077699e-02
  4.008663e+00    4.962300e-01   1.114908e-02
  4.010873e+00    4.813519e-01   1.102058e-02
  4.013084e+00    4.994285e-01   1.126719e-02
  4.015294e+00    4.930530e-01   1.123632e-02
  4.017504e+00    5.245020e-01   1.163271e-02
  4.019715e+00    5.016335e-01   1.141954e-02
  4.021925e+00    5.180558e-01   1.164943e-02
  4.024136e+00    5.078442e-01   1.157890e-02
  4.026346e+00    4.742535e-01   1.123298e-02
  4.028557e+00    5.052949e-01   1.164008e-02
  4.030767e+00    4.942831e-01   1.155879e-02
  4.032978e+00    4.783500e-01   1.141679e-02
  4.035188e+00    4.873795e-01   1.157065e-02
  4.037399e+00    4.779829e-01   1.150572e-02
  4.039609e+00    4.959089e-01   1.176790e-02
  4.041819e+00    4.752282e-01   1.156819e-02
  4.044030e+00    5.299911e-01   1.226877e-02
  4.046240e+00    5.000473e-01   1.196809e-02
  4.048451e+00    4.816874e-01   1.179700e-02
  4.050661e+00    4.912471e-01   1.196545e-02
  4.052872e+00    4.598772e-01   1.162862e-02
  4.055082e+00    4.854264e-01   1.200089e-02
  4.057293e+00    4.476691e-01   1.157651e-02
  4.059503e+00    4.528202e-01   1.169577e-02
  4.061714e+00    4.854263e-01   1.216623e-02
  4.063924e+00    4.815683e-01   1.217456e-02
  4.066134e+00    4.795987e-01   1.220682e-02
  4.068345e+00    5.039942e-01   1.257381e-02
  4.070555e+00    5.147012e-01   1.276793e-02
  4.072766e+00    5.085730e-01   1.275413e-02
  4.074976e+00    4.753957e-01   1.239269e-02
  4.077187e+00    4.950781e-01   1.270950e-02
  4.079397e+00    5.000377e-01   1.283811e-02
  4.081608e+00    4.986600e-01   1.288713e-02
  4.083818e+00    4.850784e-01   1.277657e-02
  4.086029e+00    4.934149e-01   1.295379e-02
  4.088239e+00    4.534612e-01   1.248524e-02
  4.090449e+00    4.620149e-01   1.267060e-02
  4.092660e+00    4.771355e-01   1.294719e-02
  4.094870e+00    4.757140e-01   1.299980e-02
  4.097081e+00    4.755875e-01   1.306929e-02
  4.099291e+00    4.784594e-01   1.316294e-02
  4.101502e+00    4.765751e-01   1.318606e-02
  4.103712e+00    4.852435e-01   1.335492e-02
  4.105923e+00    4.792226e-01   1.332308e-02
  4.108133e+00    4.900628e-01   1.352509e-02
  4.110344e+00    4.560978e-01   1.309783e-02
  4.112554e+00    4.731600e-01   1.339325e-02
  4.114764e+00    4.925812e-01   1.372013e-02
  4.116975e+00    4.689985e-01   1.344062e-02
  4.119185e+00    4.885125e-01   1.377302e-02
  4.121396e+00    4.532626e-01   1.332168e-02
  4.123606e+00    4.413557e-01   1.319939e-02
  4.125817e+00    4.861018e-01   1.391029e-02
  4.128027e+00    5.313009e-01   1.460398e-02
  4.130238e+00    4.820388e-01   1.397030e-02
  4.132448e+00    4.248692e-01   1.317238e-02
  4.134659e+00    4.847600e-01   1.413075e-02
  4.136869e+00    4.924686e-01   1.430630e-02
  4.139080e+00    4.963074e-01   1.442665e-02
  4.141290e+00    5.321376e-01   1.500455e-02
  4.143500e+00    4.741704e-01   1.422898e-02
  4.145711e+00    5.178385e-01   1.493925e-02
  4.147921e+00    4.961936e-01   1.469101e-02
  4.150132e+00    4.756617e-01   1.445215e-02
  4.152342e+00    5.171172e-01   1.514190e-02
  4.154553e+00    4.703407e-01   1.450955e-02
  4.156763e+00    5.295853e-01   1.547234e-02
  4.158974e+00    5.139823e-01   1.531954e-02
  4.161184e+00    4.639318e-01   1.462661e-02
  4.163395e+00    5.408096e-01   1.587252e-02
  4.165605e+00    5.116898e-01   1.551976e-02
  4.167815e+00    4.969902e-01   1.537508e-02
  4.170026e+00    5.193948e-01   1.580049e-02
  4.172236e+00    4.946758e-01   1.550344e-02
  4.174447e+00    4.752268e-01   1.527812e-02
  4.176657e+00    4.972087e-01   1.571299e-02
  4.178868e+00    5.291728e-01   1.630195e-02
  4.181078e+00    5.070408e-01   1.604729e-02
  4.183289e+00    4.611304e-01   1.539119e-02
  4.185499e+00    5.021679e-01   1.615606e-02
  4.187710e+00    4.869661e-01   1.600306e-02
  4.189920e+00    4.491666e-01   1.546175e-02
  4.192130e+00    5.261582e-01   1.683689e-02
  4.194341e+00    4.988384e-01   1.649457e-02
  4.196551e+00    4.806413e-01   1.629323e-02
  4.198762e+00    4.878913e-01   1.652014e-02
  4.200972e+00    4.849989e-01   1.657778e-02
  4.203183e+00    4.598023e-01   1.624735e-02
  4.205393e+00    4.714933e-01   1.656253e-02
  4.207604e+00    4.760524e-01   1.675585e-02
  4.209814e+00    5.301533e-01   1.780343e-02
  4.212025e+00    5.219037e-01   1.778982e-02
  4.214235e+00    5.218339e-01   1.791454e-02
  4.216445e+00    5.299055e-01   1.818309e-02
  4.218656e+00    4.905845e-01   1.762694e-02
  4.220866e+00    5.229368e-01   1.833310e-02
  4.223077e+00    4.652656e-01   1.742612e-02
  4.225287e+00    4.623124e-01   1.750711e-02
  4.227498e+00    4.569871e-01   1.754234e-02
  4.229708e+00    4.979449e-01   1.846086e-02
  4.231919e+00    4.730126e-01   1.814128e-02
  4.234129e+00    5.098683e-01   1.899305e-02
  4.236340e+00    4.761456e-01   1.851110e-02
  4.238550e+00    4.451658e-01   1.805667e-02
  4.240761e+00    5.100362e-01   1.949855e-02
  4.242971e+00    4.889636e-01   1.926626e-02
  4.245181e+00    5.550775e-01   2.072003e-02
  4.247392e+00    5.447135e-01   2.071820e-02
  4.249602e+00    4.633799e-01   1.929840e-02
  4.251813e+00    4.521724e-01   1.925153e-02
  4.254023e+00    4.209581e-01   1.876227e-02
  4.256234e+00    4.826061e-01   2.030403e-02
  4.258444e+00    4.274272e-01   1.930767e-02
  4.260655e+00    4.538653e-01   2.011527e-02
  4.262865e+00    4.291368e-01   1.978086e-02
  4.265076e+00    4.789681e-01   2.113524e-02
  4.267286e+00    5.422580e-01   2.275539e-02
  4.269496e+00    4.484248e-01   2.094611e-02
  4.271707e+00    5.033573e-01   2.246564e-02
  4.273917e+00    4.372000e-01   2.120795e-02
  4.276128e+00    5.325443e-01   2.371767e-02
  4.278338e+00    4.944469e-01   2.315868e-02
  4.280549e+00    5.173538e-01   2.402850e-02
  4.282759e+00    5.124626e-01   2.425861e-02
  4.284970e+00    5.294395e-01   2.502227e-02
  4.287180e+00    4.645043e-01   2.371843e-02
  4.289391e+00    5.060827e-01   2.494251e-02
  4.291601e+00    3.860079e-01   2.195834e-02
  4.293811e+00    4.981343e-01   2.513864e-02
  4.296022e+00    5.303114e-01   2.614641e-02
  4.298232e+00    5.179542e-01   2.605705e-02
  4.300443e+00    4.430159e-01   2.429620e-02
  4.302653e+00    5.392941e-01   2.703980e-02
  4.304864e+00    4.807532e-01   2.575089e-02
  4.307074e+00    5.631619e-01   2.812061e-02
  4.309285e+00    4.947840e-01   2.659871e-02
  4.311495e+00    5.114301e-01   2.729449e-02
  4.313706e+00    4.652016e-01   2.627631e-02
  4.315916e+00    4.795056e-01   2.694010e-02
  4.318126e+00    4.423303e-01   2.613072e-02
  4.320337e+00    4.756376e-01   2.737036e-02
  4.322547e+00    4.613238e-01   2.724176e-02
  4.324758e+00    3.623447e-01   2.439368e-02
  4.326968e+00    4.223345e-01   2.663245e-02
  4.329179e+00    5.784738e-01   3.151215e-02
  4.331389e+00    5.311687e-01   3.054533e-02
  4.333600e+00    4.944991e-01   2.982329e-02
  4.335810e+00    5.880288e-01   3.290901e-02
  4.338021e+00    5.333709e-01   3.174346e-02
  4.340231e+00    4.828035e-01   3.057971e-02
  4.342442e+00    5.003073e-01   3.154748e-02
  4.344652e+00    3.647708e-01   2.730292e-02
  4.346862e+00    4.318532e-01   3.012343e-02
  4.349073e+00    4.133733e-01   2.990159e-02
  4.351283e+00    3.110084e-01   2.632271e-02
  4.353494e+00    3.770953e-01   2.943244e-02
  4.355704e+00    3.716883e-01   2.969242e-02
  4.357915e+00    3.443210e-01   2.905326e-02
  4.360125e+00    4.207998e-01   3.266592e-02
  4.362336e+00    4.458828e-01   3.423922e-02
  4.364546e+00    4.549312e-01   3.521392e-02
  4.366757e+00    5.543031e-01   3.964506e-02
  4.368967e+00    3.131917e-01   3.039351e-02
  4.371177e+00    4.828968e-01   3.854261e-02
  4.373388e+00    4.609171e-01   3.849715e-02
  4.375598e+00    3.871802e-01   3.608884e-02
  4.377809e+00    4.652951e-01   4.056159e-02
  4.380019e+00    5.902312e-01   4.683550e-02
  4.382230e+00    4.591322e-01   4.245928e-02
  4.384440e+00    4.559189e-01   4.352751e-02
  4.386651e+00    5.144944e-01   4.766633e-02
  4.388861e+00    4.810812e-01   4.764001e-02
  4.391072e+00    6.332000e-01   5.657260e-02
  4.393282e+00    6.423783e-01   5.918662e-02
  4.395492e+00    6.327985e-01   6.118578e-02
  4.397703e+00    2.951108e-01   4.369314e-02
  4.399913e+00    5.650607e-01   6.351901e-02
  4.402124e+00    2.724429e-01   4.660637e-02
  4.404334e+00    2.570918e-01   4.812703e-02
  4.406545e+00    3.066083e-01   5.646459e-02
  4.408755e+00    4.549956e-01   7.460330e-02
  4.410966e+00    3.347051e-01   7.082049e-02
  4.413176e+00    3.451091e-01   8.139452e-02
  4.415387e+00   -3.502367e-01            nan
  4.417597e+00   -1.865435e+00            nan
  4.419807e+00   -3.766224e-01            nan
