# == pyFAI calibration ==
# Distance Sample to Detector: 0.216 m
# PONI: 1.166e-01, 1.308e-01 m
# Rotations: 0.000000 0.000000 0.000000 rad
# 
# == Fit2d calibration ==
# Distance Sample-beamCenter: 216.000 mm
# Center: x=1744.293, y=1555.000 pix
# Tilt: 0.000 deg  TiltPlanRot: 0.000 deg
# 
# Detector Eiger 9M	 PixelSize= 7.500e-05, 7.500e-05 m
#    Detector has a mask: True 
#    Detector has a dark current: False 
#    detector has a flat field: False 
# 
# Wavelength: 9.8e-11 m
# Mask applied: from detector
# Dark current applied: False
# Flat field applied: False
# Polarization factor: None
# Normalization factor: 1.0
# 
# Headers of the input frame:
# {
# "_array_data.header_convention": "SLS_1.0",
# "_array_data.header_contents": "# Detector: Dectris Eiger 9M, S/N E-18-0102\r\n# Pixel_size 75e-6 m x 75e-6 m\r\n# Silicon sensor, thickness 0.000450 m\r\n# Exposure_time 0.024997 s\r\n# Exposure_period 0.025000 s\r\n# Count_cutoff 62318 counts\r\n# Wavelength 0.980106 A\r\n# Detector_distance 0.215992 m\r\n# Beam_xy (1555, 1744) pixels\r\n# Start_angle 0.000000 deg.\r\n# Angle_increment 0.000000 deg.",
# "Content-Type": "application/octet-stream;",
# "conversions": "x-CBF_BYTE_OFFSET",
# "Content-Transfer-Encoding": "BINARY",
# "X-Binary-Size": "10166640",
# "X-Binary-ID": "1",
# "X-Binary-Element-Type": "signed 32-bit integer",
# "X-Binary-Element-Byte-Order": "LITTLE_ENDIAN",
# "Content-MD5": "04ekl2fRQtnADvOr+mLmqQ==",
# "X-Binary-Number-of-Elements": "10166590",
# "X-Binary-Size-Fastest-Dimension": "3110",
# "X-Binary-Size-Second-Dimension": "3269",
# "X-Binary-Size-Padding": "4095"
# }
# --> H:/Proxima2a_2019-04-05/RAW_DATA/C5_gel17_position5/C5_mesh_1_data.cbf/C5_mesh_1_data.cbf000004.dat
#        q_A^-1              I           sigma 
  1.105228e-03    2.156810e+00   7.946813e-01
  3.315685e-03    1.762892e+00   4.367755e-01
  5.526141e-03    1.501706e+00   3.117200e-01
  7.736597e-03    9.718283e-01   2.118434e-01
  9.947054e-03    1.340886e+00   2.193675e-01
  1.215751e-02    1.573969e+00   2.149150e-01
  1.436797e-02    1.511997e+00   1.937543e-01
  1.657842e-02    1.528609e+00   1.813396e-01
  1.878888e-02    1.695112e+00   1.793753e-01
  2.099934e-02    1.343255e+00   1.510711e-01
  2.320979e-02    1.425059e+00   1.479957e-01
  2.542025e-02    1.287616e+00   1.344320e-01
  2.763070e-02    1.404047e+00   1.346422e-01
  2.984116e-02    1.434186e+00   1.309421e-01
  3.205162e-02    1.376092e+00   1.237684e-01
  3.426207e-02    1.331565e+00   1.177487e-01
  3.647253e-02    1.365852e+00   1.155824e-01
  3.868299e-02    1.390503e+00   1.132483e-01
  4.089344e-02    1.459692e+00   1.128525e-01
  4.310390e-02    1.367964e+00   1.064048e-01
  4.531436e-02    1.339278e+00   1.026836e-01
  4.752481e-02    1.472061e+00   1.051192e-01
  4.973527e-02    1.345132e+00   9.822775e-02
  5.194572e-02    1.302006e+00   9.456043e-02
  5.415618e-02    1.317396e+00   9.315304e-02
  5.636664e-02    1.334036e+00   9.188591e-02
  5.857709e-02    1.392372e+00   9.208569e-02
  6.078755e-02    1.325996e+00   8.821215e-02
  6.299801e-02    1.441330e+00   9.033959e-02
  6.520846e-02    1.581246e+00   9.300587e-02
  6.741892e-02    1.588263e+00   9.166659e-02
  6.962938e-02    1.556744e+00   8.930482e-02
  7.183983e-02    1.482693e+00   8.580207e-02
  7.405029e-02    1.399226e+00   8.209661e-02
  7.626074e-02    1.543261e+00   8.495911e-02
  7.847120e-02    1.495277e+00   8.243939e-02
  8.068166e-02    1.420728e+00   7.924900e-02
  8.289211e-02    1.447884e+00   7.892846e-02
  8.510257e-02    1.441838e+00   7.773340e-02
  8.731303e-02    1.448893e+00   7.692773e-02
  8.952348e-02    1.428473e+00   7.543686e-02
  9.173394e-02    1.404440e+00   7.388996e-02
  9.394439e-02    1.489977e+00   7.520369e-02
  9.615485e-02    1.495608e+00   7.447296e-02
  9.836531e-02    1.431840e+00   7.204265e-02
  1.005758e-01    1.470373e+00   7.219932e-02
  1.027862e-01    1.474701e+00   7.152203e-02
  1.049967e-01    1.514274e+00   7.170710e-02
  1.072071e-01    1.458029e+00   6.963280e-02
  1.094176e-01    1.448473e+00   6.869855e-02
  1.116280e-01    1.492125e+00   6.903069e-02
  1.138385e-01    1.583367e+00   7.041483e-02
  1.160490e-01    1.529515e+00   6.854391e-02
  1.182594e-01    1.419198e+00   6.540439e-02
  1.204699e-01    1.419001e+00   6.479655e-02
  1.226803e-01    1.529687e+00   6.666465e-02
  1.248908e-01    1.589234e+00   6.734502e-02
  1.271012e-01    1.544137e+00   6.580157e-02
  1.293117e-01    1.520515e+00   6.473503e-02
  1.315222e-01    1.526581e+00   6.431511e-02
  1.337326e-01    1.533539e+00   6.392534e-02
  1.359431e-01    1.591362e+00   6.515747e-02
  1.381535e-01    1.625825e+00   6.674326e-02
  1.403640e-01    1.625992e+00   6.703489e-02
  1.425744e-01    1.586049e+00   6.631216e-02
  1.447849e-01    1.502652e+00   6.456009e-02
  1.469953e-01    1.503901e+00   6.454647e-02
  1.492058e-01    1.532766e+00   6.508722e-02
  1.514163e-01    1.532498e+00   6.497347e-02
  1.536267e-01    1.525555e+00   6.469954e-02
  1.558372e-01    1.574865e+00   6.559172e-02
  1.580476e-01    1.568045e+00   6.529077e-02
  1.602581e-01    1.621007e+00   6.621559e-02
  1.624685e-01    1.649394e+00   6.661002e-02
  1.646790e-01    1.591366e+00   6.523993e-02
  1.668895e-01    1.733368e+00   6.789186e-02
  1.690999e-01    1.699545e+00   6.702437e-02
  1.713104e-01    1.674318e+00   6.631861e-02
  1.735208e-01    1.665913e+00   6.594624e-02
  1.757313e-01    1.739540e+00   6.717656e-02
  1.779417e-01    1.778932e+00   6.771137e-02
  1.801522e-01    1.814408e+00   6.816538e-02
  1.823626e-01    1.849318e+00   6.858893e-02
  1.845731e-01    1.846099e+00   6.830724e-02
  1.867836e-01    1.848429e+00   6.811965e-02
  1.889940e-01    1.922354e+00   6.924146e-02
  1.912045e-01    1.930609e+00   6.915827e-02
  1.934149e-01    1.864821e+00   6.774223e-02
  1.956254e-01    1.947344e+00   6.899656e-02
  1.978358e-01    1.968670e+00   6.913562e-02
  2.000463e-01    1.984971e+00   6.919119e-02
  2.022568e-01    1.954465e+00   6.843212e-02
  2.044672e-01    1.963820e+00   6.836070e-02
  2.066777e-01    1.939036e+00   6.770249e-02
  2.088881e-01    1.990758e+00   6.837507e-02
  2.110986e-01    2.000720e+00   6.831086e-02
  2.133090e-01    1.960255e+00   6.739674e-02
  2.155195e-01    1.927446e+00   6.660865e-02
  2.177300e-01    2.003221e+00   6.737187e-02
  2.199404e-01    1.976218e+00   6.515304e-02
  2.221509e-01    1.944555e+00   6.356774e-02
  2.243613e-01    1.987908e+00   6.345764e-02
  2.265718e-01    1.945951e+00   6.209241e-02
  2.287822e-01    1.998439e+00   6.230137e-02
  2.309927e-01    2.033971e+00   6.228025e-02
  2.332031e-01    2.092770e+00   6.263334e-02
  2.354136e-01    2.020540e+00   6.104419e-02
  2.376241e-01    2.094803e+00   6.167343e-02
  2.398345e-01    2.110295e+00   6.144295e-02
  2.420450e-01    2.134978e+00   6.135956e-02
  2.442554e-01    2.096154e+00   6.038025e-02
  2.464659e-01    2.095655e+00   5.996772e-02
  2.486763e-01    2.089756e+00   5.948962e-02
  2.508868e-01    2.123639e+00   5.959166e-02
  2.530973e-01    2.114710e+00   5.909758e-02
  2.553077e-01    2.124039e+00   5.886852e-02
  2.575182e-01    2.062054e+00   5.766001e-02
  2.597286e-01    2.082515e+00   5.760856e-02
  2.619391e-01    2.002922e+00   5.617167e-02
  2.641495e-01    1.999057e+00   5.580685e-02
  2.663600e-01    2.041456e+00   5.608542e-02
  2.685704e-01    2.066901e+00   5.612799e-02
  2.707809e-01    2.066211e+00   5.582071e-02
  2.729914e-01    1.992894e+00   5.453572e-02
  2.752018e-01    2.047650e+00   5.499211e-02
  2.774123e-01    2.020596e+00   5.434859e-02
  2.796227e-01    2.000520e+00   5.381043e-02
  2.818332e-01    1.931044e+00   5.260403e-02
  2.840436e-01    1.929214e+00   5.232424e-02
  2.862541e-01    1.893125e+00   5.158335e-02
  2.884646e-01    1.981881e+00   5.252821e-02
  2.906750e-01    1.989232e+00   5.237604e-02
  2.928855e-01    1.959715e+00   5.174511e-02
  2.950959e-01    1.906718e+00   5.080618e-02
  2.973064e-01    1.898807e+00   5.047279e-02
  2.995168e-01    1.960634e+00   5.105566e-02
  3.017273e-01    1.960608e+00   5.083022e-02
  3.039377e-01    1.978952e+00   5.084386e-02
  3.061482e-01    1.913547e+00   4.978029e-02
  3.083587e-01    1.928566e+00   4.975897e-02
  3.105691e-01    1.924642e+00   4.949598e-02
  3.127796e-01    1.931270e+00   4.937273e-02
  3.149900e-01    1.828220e+00   4.783726e-02
  3.172005e-01    1.847325e+00   4.788993e-02
  3.194109e-01    1.850927e+00   4.773872e-02
  3.216214e-01    1.854928e+00   4.759527e-02
  3.238319e-01    1.851384e+00   4.736141e-02
  3.260423e-01    1.844761e+00   4.708830e-02
  3.282528e-01    1.838137e+00   4.681658e-02
  3.304632e-01    1.807248e+00   4.624170e-02
  3.326737e-01    1.824073e+00   4.627519e-02
  3.348841e-01    1.774219e+00   4.546145e-02
  3.370946e-01    1.836739e+00   4.608146e-02
  3.393050e-01    1.816281e+00   4.565055e-02
  3.415155e-01    1.762015e+00   4.479434e-02
  3.437260e-01    1.784717e+00   4.491489e-02
  3.459364e-01    1.796757e+00   4.489943e-02
  3.481469e-01    1.814496e+00   4.495582e-02
  3.503573e-01    1.855943e+00   4.530075e-02
  3.525678e-01    1.827657e+00   4.479403e-02
  3.547782e-01    1.797960e+00   4.426802e-02
  3.569887e-01    1.751226e+00   4.353412e-02
  3.591992e-01    1.709262e+00   4.285715e-02
  3.614096e-01    1.784770e+00   4.364172e-02
  3.636201e-01    1.749412e+00   4.305543e-02
  3.658305e-01    1.759410e+00   4.303100e-02
  3.680410e-01    1.795769e+00   4.332383e-02
  3.702514e-01    1.809330e+00   4.334086e-02
  3.724619e-01    1.817778e+00   4.329400e-02
  3.746724e-01    1.769013e+00   4.256683e-02
  3.768828e-01    1.797223e+00   4.276050e-02
  3.790933e-01    1.816188e+00   4.284547e-02
  3.813037e-01    1.790148e+00   4.239803e-02
  3.835142e-01    1.783043e+00   4.217482e-02
  3.857246e-01    1.785087e+00   4.206242e-02
  3.879351e-01    1.811519e+00   4.223555e-02
  3.901455e-01    1.746542e+00   4.133914e-02
  3.923560e-01    1.759669e+00   4.136231e-02
  3.945665e-01    1.801618e+00   4.171970e-02
  3.967769e-01    1.810969e+00   4.169684e-02
  3.989874e-01    1.785029e+00   4.126789e-02
  4.011978e-01    1.755552e+00   4.079987e-02
  4.034083e-01    1.669425e+00   3.966432e-02
  4.056187e-01    1.713607e+00   4.006197e-02
  4.078292e-01    1.757126e+00   4.044471e-02
  4.100397e-01    1.759516e+00   4.034865e-02
  4.122501e-01    1.728585e+00   3.987278e-02
  4.144606e-01    1.718504e+00   3.963844e-02
  4.166710e-01    1.781251e+00   4.023561e-02
  4.188815e-01    1.777980e+00   4.007992e-02
  4.210919e-01    1.778629e+00   3.996974e-02
  4.233024e-01    1.773728e+00   3.979724e-02
  4.255128e-01    1.737972e+00   3.928018e-02
  4.277233e-01    1.789209e+00   3.974047e-02
  4.299338e-01    1.806650e+00   3.981880e-02
  4.321442e-01    1.815101e+00   3.979760e-02
  4.343547e-01    1.784912e+00   3.935369e-02
  4.365651e-01    1.713248e+00   3.844601e-02
  4.387756e-01    1.743182e+00   3.867183e-02
  4.409860e-01    1.735066e+00   3.847481e-02
  4.431965e-01    1.757440e+00   3.861502e-02
  4.454070e-01    1.744890e+00   3.836986e-02
  4.476174e-01    1.709415e+00   3.787352e-02
  4.498279e-01    1.721126e+00   3.789964e-02
  4.520383e-01    1.743771e+00   3.804346e-02
  4.542488e-01    1.707366e+00   3.754275e-02
  4.564592e-01    1.701283e+00   3.737525e-02
  4.586697e-01    1.750568e+00   3.781214e-02
  4.608801e-01    1.689148e+00   3.704339e-02
  4.630906e-01    1.704360e+00   3.711130e-02
  4.653011e-01    1.656378e+00   3.648895e-02
  4.675115e-01    1.706972e+00   3.694449e-02
  4.697220e-01    1.672814e+00   3.647724e-02
  4.719324e-01    1.645758e+00   3.608744e-02
  4.741429e-01    1.700449e+00   3.658763e-02
  4.763533e-01    1.765768e+00   3.718816e-02
  4.785638e-01    1.712806e+00   3.653160e-02
  4.807743e-01    1.666124e+00   3.593869e-02
  4.829847e-01    1.710742e+00   3.632472e-02
  4.851952e-01    1.685721e+00   3.596688e-02
  4.874056e-01    1.651480e+00   3.550993e-02
  4.896161e-01    1.696315e+00   3.589950e-02
  4.918265e-01    1.670916e+00   3.554122e-02
  4.940370e-01    1.688952e+00   3.564432e-02
  4.962475e-01    1.674793e+00   3.540692e-02
  4.984579e-01    1.718365e+00   3.577616e-02
  5.006684e-01    1.678171e+00   3.526909e-02
  5.028788e-01    1.667578e+00   3.507240e-02
  5.050893e-01    1.654220e+00   3.484668e-02
  5.072997e-01    1.666508e+00   3.489139e-02
  5.095102e-01    1.628627e+00   3.440996e-02
  5.117206e-01    1.630937e+00   3.435246e-02
  5.139311e-01    1.642620e+00   3.439370e-02
  5.161416e-01    1.636310e+00   3.424645e-02
  5.183520e-01    1.658988e+00   3.440099e-02
  5.205625e-01    1.650103e+00   3.422840e-02
  5.227729e-01    1.644379e+00   3.408925e-02
  5.249834e-01    1.692020e+00   3.449929e-02
  5.271938e-01    1.685184e+00   3.434919e-02
  5.294043e-01    1.677577e+00   3.419248e-02
  5.316148e-01    1.753811e+00   3.488068e-02
  5.338252e-01    1.786708e+00   3.512585e-02
  5.360357e-01    1.777019e+00   3.495072e-02
  5.382461e-01    1.721702e+00   3.432468e-02
  5.404566e-01    1.731595e+00   3.434478e-02
  5.426670e-01    1.775859e+00   3.470262e-02
  5.448775e-01    1.741046e+00   3.428406e-02
  5.470879e-01    1.721880e+00   3.401878e-02
  5.492984e-01    1.728428e+00   3.400759e-02
  5.515089e-01    1.764866e+00   3.428798e-02
  5.537193e-01    1.770129e+00   3.426343e-02
  5.559298e-01    1.771983e+00   3.420616e-02
  5.581402e-01    1.800599e+00   3.440593e-02
  5.603507e-01    1.759668e+00   3.393860e-02
  5.625611e-01    1.760021e+00   3.386834e-02
  5.647716e-01    1.754362e+00   3.374043e-02
  5.669821e-01    1.787028e+00   3.397969e-02
  5.691925e-01    1.756058e+00   3.361167e-02
  5.714030e-01    1.751304e+00   3.349457e-02
  5.736134e-01    1.751121e+00   3.342158e-02
  5.758239e-01    1.743973e+00   3.328212e-02
  5.780343e-01    1.693147e+00   3.272419e-02
  5.802448e-01    1.657441e+00   3.230950e-02
  5.824552e-01    1.621834e+00   3.189352e-02
  5.846657e-01    1.581915e+00   3.143289e-02
  5.868762e-01    1.590791e+00   3.145533e-02
  5.890866e-01    1.625990e+00   3.173544e-02
  5.912971e-01    1.616748e+00   3.157962e-02
  5.935075e-01    1.625458e+00   3.159912e-02
  5.957180e-01    1.575204e+00   3.104300e-02
  5.979284e-01    1.619501e+00   3.141218e-02
  6.001389e-01    1.641332e+00   3.155880e-02
  6.023494e-01    1.639870e+00   3.148071e-02
  6.045598e-01    1.604140e+00   3.107248e-02
  6.067703e-01    1.608451e+00   3.105162e-02
  6.089807e-01    1.596611e+00   3.087492e-02
  6.111912e-01    1.691738e+00   3.171791e-02
  6.134016e-01    1.700763e+00   3.173900e-02
  6.156121e-01    1.689209e+00   3.156812e-02
  6.178226e-01    1.686947e+00   3.148453e-02
  6.200330e-01    1.687667e+00   3.142912e-02
  6.222435e-01    1.675569e+00   3.125422e-02
  6.244539e-01    1.721803e+00   3.162046e-02
  6.266644e-01    1.715524e+00   3.150119e-02
  6.288748e-01    1.712445e+00   3.141166e-02
  6.310853e-01    1.674677e+00   3.100301e-02
  6.332957e-01    1.706056e+00   3.123171e-02
  6.355062e-01    1.645180e+00   3.060986e-02
  6.377167e-01    1.675274e+00   3.082928e-02
  6.399271e-01    1.696552e+00   3.096499e-02
  6.421376e-01    1.658838e+00   3.056046e-02
  6.443480e-01    1.694443e+00   3.082791e-02
  6.465585e-01    1.720935e+00   3.100914e-02
  6.487689e-01    1.698526e+00   3.074842e-02
  6.509794e-01    1.659514e+00   3.033591e-02
  6.531899e-01    1.640302e+00   3.010310e-02
  6.554003e-01    1.551568e+00   2.922249e-02
  6.576108e-01    1.565333e+00   2.929717e-02
  6.598212e-01    1.604808e+00   2.960917e-02
  6.620317e-01    1.584764e+00   2.936916e-02
  6.642421e-01    1.617140e+00   2.961273e-02
  6.664526e-01    1.611296e+00   2.950474e-02
  6.686630e-01    1.577569e+00   2.914032e-02
  6.708735e-01    1.583036e+00   2.913724e-02
  6.730840e-01    1.603328e+00   2.926991e-02
  6.752944e-01    1.588705e+00   2.908315e-02
  6.775049e-01    1.606867e+00   2.919581e-02
  6.797153e-01    1.579055e+00   2.888964e-02
  6.819258e-01    1.585043e+00   2.889214e-02
  6.841362e-01    1.597543e+00   2.895370e-02
  6.863467e-01    1.560383e+00   2.856372e-02
  6.885572e-01    1.581926e+00   2.870870e-02
  6.907676e-01    1.540344e+00   2.827811e-02
  6.929781e-01    1.533441e+00   2.816452e-02
  6.951885e-01    1.571310e+00   2.845966e-02
  6.973990e-01    1.546269e+00   2.818208e-02
  6.996094e-01    1.570386e+00   2.835102e-02
  7.018199e-01    1.569217e+00   2.829074e-02
  7.040303e-01    1.590118e+00   2.842849e-02
  7.062408e-01    1.557714e+00   2.808806e-02
  7.084513e-01    1.555585e+00   2.802002e-02
  7.106617e-01    1.593920e+00   2.831389e-02
  7.128722e-01    1.616762e+00   2.846671e-02
  7.150826e-01    1.597435e+00   2.824729e-02
  7.172931e-01    1.559130e+00   2.785846e-02
  7.195035e-01    1.542759e+00   2.766416e-02
  7.217140e-01    1.551620e+00   2.779260e-02
  7.239245e-01    1.517299e+00   2.770606e-02
  7.261349e-01    1.549731e+00   2.810835e-02
  7.283454e-01    1.532746e+00   2.802532e-02
  7.305558e-01    1.555006e+00   2.828175e-02
  7.327663e-01    1.558944e+00   2.835984e-02
  7.349767e-01    1.540400e+00   2.820685e-02
  7.371872e-01    1.516411e+00   2.797538e-02
  7.393976e-01    1.498091e+00   2.779196e-02
  7.416081e-01    1.553895e+00   2.828878e-02
  7.438186e-01    1.618319e+00   2.872294e-02
  7.460290e-01    1.612430e+00   2.837290e-02
  7.482395e-01    1.599704e+00   2.808820e-02
  7.504499e-01    1.586700e+00   2.783698e-02
  7.526604e-01    1.568455e+00   2.756017e-02
  7.548708e-01    1.535043e+00   2.717675e-02
  7.570813e-01    1.539426e+00   2.716512e-02
  7.592918e-01    1.541386e+00   2.714761e-02
  7.615022e-01    1.526621e+00   2.698399e-02
  7.637127e-01    1.532809e+00   2.700627e-02
  7.659231e-01    1.543073e+00   2.706487e-02
  7.681336e-01    1.548673e+00   2.708259e-02
  7.703440e-01    1.566192e+00   2.720420e-02
  7.725545e-01    1.572528e+00   2.722831e-02
  7.747650e-01    1.671023e+00   2.802872e-02
  7.769754e-01    1.628729e+00   2.761818e-02
  7.791859e-01    1.600440e+00   2.732338e-02
  7.813963e-01    1.587860e+00   2.716301e-02
  7.836068e-01    1.612964e+00   2.732444e-02
  7.858172e-01    1.605037e+00   2.720627e-02
  7.880277e-01    1.580665e+00   2.694755e-02
  7.902381e-01    1.582776e+00   2.691654e-02
  7.924486e-01    1.559331e+00   2.666697e-02
  7.946591e-01    1.578667e+00   2.678380e-02
  7.968695e-01    1.622900e+00   2.710788e-02
  7.990800e-01    1.582963e+00   2.672441e-02
  8.012904e-01    1.592653e+00   2.675971e-02
  8.035009e-01    1.591064e+00   2.669876e-02
  8.057113e-01    1.636407e+00   2.702970e-02
  8.079218e-01    1.601278e+00   2.669188e-02
  8.101323e-01    1.581110e+00   2.647820e-02
  8.123427e-01    1.640257e+00   2.692293e-02
  8.145532e-01    1.638918e+00   2.686590e-02
  8.167636e-01    1.628443e+00   2.673487e-02
  8.189741e-01    1.649852e+00   2.686517e-02
  8.211845e-01    1.647470e+00   2.680080e-02
  8.233950e-01    1.611365e+00   2.646239e-02
  8.256054e-01    1.581916e+00   2.617601e-02
  8.278159e-01    1.610274e+00   2.636597e-02
  8.300264e-01    1.636924e+00   2.654021e-02
  8.322368e-01    1.580794e+00   2.603885e-02
  8.344473e-01    1.610618e+00   2.624032e-02
  8.366577e-01    1.633125e+00   2.638053e-02
  8.388682e-01    1.657600e+00   2.653499e-02
  8.410786e-01    1.628566e+00   2.625965e-02
  8.432891e-01    1.605452e+00   2.603124e-02
  8.454996e-01    1.567910e+00   2.568435e-02
  8.477100e-01    1.582135e+00   2.575964e-02
  8.499205e-01    1.630684e+00   2.611082e-02
  8.521309e-01    1.631637e+00   2.607772e-02
  8.543414e-01    1.622886e+00   2.596712e-02
  8.565518e-01    1.582503e+00   2.560211e-02
  8.587623e-01    1.577648e+00   2.552297e-02
  8.609727e-01    1.637100e+00   2.595913e-02
  8.631832e-01    1.571255e+00   2.539253e-02
  8.653937e-01    1.561849e+00   2.527749e-02
  8.676041e-01    1.590698e+00   2.547138e-02
  8.698146e-01    1.605816e+00   2.555301e-02
  8.720250e-01    1.609849e+00   2.554610e-02
  8.742355e-01    1.579644e+00   2.526679e-02
  8.764459e-01    1.554912e+00   2.502998e-02
  8.786564e-01    1.559887e+00   2.503259e-02
  8.808669e-01    1.573738e+00   2.510538e-02
  8.830773e-01    1.569002e+00   2.502983e-02
  8.852878e-01    1.587331e+00   2.513786e-02
  8.874982e-01    1.587557e+00   2.510316e-02
  8.897087e-01    1.588879e+00   2.507609e-02
  8.919191e-01    1.558111e+00   2.479484e-02
  8.941296e-01    1.548352e+00   2.468040e-02
  8.963401e-01    1.541755e+00   2.459202e-02
  8.985505e-01    1.541164e+00   2.455101e-02
  9.007610e-01    1.565486e+00   2.470764e-02
  9.029714e-01    1.577987e+00   2.477051e-02
  9.051819e-01    1.577378e+00   2.472878e-02
  9.073923e-01    1.566862e+00   2.461001e-02
  9.096028e-01    1.573352e+00   2.462630e-02
  9.118132e-01    1.553142e+00   2.443194e-02
  9.140237e-01    1.572178e+00   2.454489e-02
  9.162342e-01    1.572057e+00   2.450969e-02
  9.184446e-01    1.575736e+00   2.450288e-02
  9.206551e-01    1.547476e+00   2.424716e-02
  9.228655e-01    1.557560e+00   2.429126e-02
  9.250760e-01    1.543180e+00   2.414416e-02
  9.272864e-01    1.596572e+00   2.452409e-02
  9.294969e-01    1.602788e+00   2.453599e-02
  9.317074e-01    1.578273e+00   2.431323e-02
  9.339178e-01    1.579274e+00   2.428769e-02
  9.361283e-01    1.596672e+00   2.438512e-02
  9.383387e-01    1.604061e+00   2.440822e-02
  9.405492e-01    1.654588e+00   2.475506e-02
  9.427596e-01    1.660354e+00   2.476246e-02
  9.449701e-01    1.647156e+00   2.463033e-02
  9.471805e-01    1.645087e+00   2.457999e-02
  9.493910e-01    1.677416e+00   2.478627e-02
  9.516015e-01    1.676299e+00   2.474344e-02
  9.538119e-01    1.640891e+00   2.444717e-02
  9.560224e-01    1.657046e+00   2.453263e-02
  9.582328e-01    1.692165e+00   2.475797e-02
  9.604433e-01    1.700828e+00   2.478613e-02
  9.626537e-01    1.718251e+00   2.487925e-02
  9.648642e-01    1.748437e+00   2.506247e-02
  9.670747e-01    1.747436e+00   2.502075e-02
  9.692851e-01    1.759321e+00   2.507231e-02
  9.714956e-01    1.776109e+00   2.515614e-02
  9.737060e-01    1.787908e+00   2.520640e-02
  9.759165e-01    1.767249e+00   2.502500e-02
  9.781269e-01    1.790614e+00   2.515693e-02
  9.803374e-01    1.796053e+00   2.516028e-02
  9.825478e-01    1.764365e+00   2.490444e-02
  9.847583e-01    1.772877e+00   2.493054e-02
  9.869688e-01    1.781448e+00   2.495728e-02
  9.891792e-01    1.779392e+00   2.490974e-02
  9.913897e-01    1.763345e+00   2.476368e-02
  9.936001e-01    1.767864e+00   2.476295e-02
  9.958106e-01    1.748374e+00   2.459259e-02
  9.980210e-01    1.753566e+00   2.459710e-02
  1.000231e+00    1.855422e+00   2.543996e-02
  1.002442e+00    1.927154e+00   2.606489e-02
  1.004652e+00    1.728444e+00   2.475340e-02
  1.006863e+00    1.640108e+00   2.416261e-02
  1.009073e+00    1.590646e+00   2.383187e-02
  1.011284e+00    1.582254e+00   2.380070e-02
  1.013494e+00    1.561852e+00   2.367022e-02
  1.015705e+00    1.557684e+00   2.366093e-02
  1.017915e+00    1.563261e+00   2.371961e-02
  1.020126e+00    1.531139e+00   2.349051e-02
  1.022336e+00    1.523442e+00   2.344294e-02
  1.024547e+00    1.500414e+00   2.327611e-02
  1.026757e+00    1.506375e+00   2.333055e-02
  1.028967e+00    1.537523e+00   2.357819e-02
  1.031178e+00    1.497550e+00   2.327579e-02
  1.033388e+00    1.482267e+00   2.316166e-02
  1.035599e+00    1.499831e+00   2.330188e-02
  1.037809e+00    1.499402e+00   2.330179e-02
  1.040020e+00    1.471976e+00   2.308894e-02
  1.042230e+00    1.479382e+00   2.314885e-02
  1.044441e+00    1.491650e+00   2.324444e-02
  1.046651e+00    1.460112e+00   2.299757e-02
  1.048862e+00    1.455454e+00   2.296006e-02
  1.051072e+00    1.476184e+00   2.312066e-02
  1.053282e+00    1.477574e+00   2.313060e-02
  1.055493e+00    1.468084e+00   2.305194e-02
  1.057703e+00    1.443639e+00   2.285773e-02
  1.059914e+00    1.407686e+00   2.256716e-02
  1.062124e+00    1.435575e+00   2.278562e-02
  1.064335e+00    1.435517e+00   2.278179e-02
  1.066545e+00    1.444187e+00   2.284455e-02
  1.068756e+00    1.426009e+00   2.269669e-02
  1.070966e+00    1.409429e+00   2.255794e-02
  1.073177e+00    1.438713e+00   2.278510e-02
  1.075387e+00    1.435758e+00   2.275654e-02
  1.077597e+00    1.425376e+00   2.266696e-02
  1.079808e+00    1.405402e+00   2.237753e-02
  1.082018e+00    1.390625e+00   2.207523e-02
  1.084229e+00    1.421263e+00   2.220853e-02
  1.086439e+00    1.425158e+00   2.215240e-02
  1.088650e+00    1.443820e+00   2.222159e-02
  1.090860e+00    1.433167e+00   2.207232e-02
  1.093071e+00    1.404175e+00   2.178675e-02
  1.095281e+00    1.419621e+00   2.184951e-02
  1.097492e+00    1.446579e+00   2.200106e-02
  1.099702e+00    1.420224e+00   2.174870e-02
  1.101912e+00    1.408130e+00   2.160758e-02
  1.104123e+00    1.397593e+00   2.147902e-02
  1.106333e+00    1.370428e+00   2.122580e-02
  1.108544e+00    1.400515e+00   2.141372e-02
  1.110754e+00    1.402856e+00   2.138897e-02
  1.112965e+00    1.383973e+00   2.120453e-02
  1.115175e+00    1.406241e+00   2.133345e-02
  1.117386e+00    1.407048e+00   2.130043e-02
  1.119596e+00    1.384736e+00   2.109337e-02
  1.121807e+00    1.389110e+00   2.108812e-02
  1.124017e+00    1.377129e+00   2.096076e-02
  1.126228e+00    1.354484e+00   2.075255e-02
  1.128438e+00    1.383350e+00   2.093601e-02
  1.130648e+00    1.387600e+00   2.093397e-02
  1.132859e+00    1.381002e+00   2.084997e-02
  1.135069e+00    1.360513e+00   2.066041e-02
  1.137280e+00    1.346563e+00   2.052171e-02
  1.139490e+00    1.368382e+00   2.065448e-02
  1.141701e+00    1.349674e+00   2.048011e-02
  1.143911e+00    1.344459e+00   2.040908e-02
  1.146122e+00    1.362469e+00   2.051353e-02
  1.148332e+00    1.370518e+00   2.054228e-02
  1.150543e+00    1.341789e+00   2.029539e-02
  1.152753e+00    1.338800e+00   2.024234e-02
  1.154963e+00    1.355661e+00   2.033859e-02
  1.157174e+00    1.322101e+00   2.005567e-02
  1.159384e+00    1.329927e+00   2.008553e-02
  1.161595e+00    1.334130e+00   2.008782e-02
  1.163805e+00    1.334885e+00   2.006459e-02
  1.166016e+00    1.349671e+00   2.014617e-02
  1.168226e+00    1.352680e+00   2.013982e-02
  1.170437e+00    1.379300e+00   2.030825e-02
  1.172647e+00    1.374773e+00   2.024591e-02
  1.174858e+00    1.357625e+00   2.009122e-02
  1.177068e+00    1.357621e+00   2.006299e-02
  1.179278e+00    1.328659e+00   1.981961e-02
  1.181489e+00    1.322717e+00   1.974859e-02
  1.183699e+00    1.347838e+00   1.990779e-02
  1.185910e+00    1.337557e+00   1.980416e-02
  1.188120e+00    1.315876e+00   1.961671e-02
  1.190331e+00    1.325618e+00   1.966271e-02
  1.192541e+00    1.322827e+00   1.961496e-02
  1.194752e+00    1.314550e+00   1.952682e-02
  1.196962e+00    1.322331e+00   1.955908e-02
  1.199173e+00    1.333886e+00   1.961800e-02
  1.201383e+00    1.329483e+00   1.955865e-02
  1.203593e+00    1.316000e+00   1.943471e-02
  1.205804e+00    1.328457e+00   1.950075e-02
  1.208014e+00    1.352856e+00   1.965215e-02
  1.210225e+00    1.354570e+00   1.963923e-02
  1.212435e+00    1.333609e+00   1.946206e-02
  1.214646e+00    1.319303e+00   1.933156e-02
  1.216856e+00    1.335448e+00   1.942415e-02
  1.219067e+00    1.347504e+00   1.948720e-02
  1.221277e+00    1.323215e+00   1.928598e-02
  1.223488e+00    1.350227e+00   1.945609e-02
  1.225698e+00    1.336569e+00   1.933069e-02
  1.227909e+00    1.313933e+00   1.913652e-02
  1.230119e+00    1.335106e+00   1.925841e-02
  1.232329e+00    1.351163e+00   1.934314e-02
  1.234540e+00    1.349293e+00   1.929947e-02
  1.236750e+00    1.347551e+00   1.925679e-02
  1.238961e+00    1.315617e+00   1.900060e-02
  1.241171e+00    1.361881e+00   1.930750e-02
  1.243382e+00    1.369464e+00   1.933751e-02
  1.245592e+00    1.369318e+00   1.931222e-02
  1.247803e+00    1.327960e+00   1.899487e-02
  1.250013e+00    1.355564e+00   1.916767e-02
  1.252224e+00    1.360555e+00   1.917959e-02
  1.254434e+00    1.481325e+00   1.998780e-02
  1.256644e+00    1.666147e+00   2.117232e-02
  1.258855e+00    1.615017e+00   2.081960e-02
  1.261065e+00    1.372109e+00   1.916655e-02
  1.263276e+00    1.324912e+00   1.881125e-02
  1.265486e+00    1.348728e+00   1.895670e-02
  1.267697e+00    1.345659e+00   1.891216e-02
  1.269907e+00    1.326535e+00   1.875477e-02
  1.272118e+00    1.343913e+00   1.885471e-02
  1.274328e+00    1.366489e+00   1.898953e-02
  1.276539e+00    1.360136e+00   1.892248e-02
  1.278749e+00    1.339196e+00   1.875405e-02
  1.280959e+00    1.392867e+00   1.910326e-02
  1.283170e+00    1.617791e+00   2.056334e-02
  1.285380e+00    1.797065e+00   2.164697e-02
  1.287591e+00    1.561572e+00   2.015527e-02
  1.289801e+00    1.371674e+00   1.886857e-02
  1.292012e+00    1.343513e+00   1.865680e-02
  1.294222e+00    1.323668e+00   1.850241e-02
  1.296433e+00    1.329753e+00   1.852942e-02
  1.298643e+00    1.347915e+00   1.863906e-02
  1.300854e+00    1.319527e+00   1.842552e-02
  1.303064e+00    1.343374e+00   1.857208e-02
  1.305274e+00    1.345958e+00   1.856855e-02
  1.307485e+00    1.326873e+00   1.841506e-02
  1.309695e+00    1.352914e+00   1.857261e-02
  1.311906e+00    1.379744e+00   1.873394e-02
  1.314116e+00    1.366511e+00   1.862296e-02
  1.316327e+00    1.363736e+00   1.858225e-02
  1.318537e+00    1.365814e+00   1.857436e-02
  1.320748e+00    1.382851e+00   1.866807e-02
  1.322958e+00    1.389875e+00   1.869459e-02
  1.325169e+00    1.376023e+00   1.857997e-02
  1.327379e+00    1.405150e+00   1.875335e-02
  1.329589e+00    1.348438e+00   1.834995e-02
  1.331800e+00    1.358448e+00   1.839717e-02
  1.334010e+00    1.373917e+00   1.848078e-02
  1.336221e+00    1.358716e+00   1.835644e-02
  1.338431e+00    1.336175e+00   1.818279e-02
  1.340642e+00    1.327342e+00   1.818619e-02
  1.342852e+00    1.333699e+00   1.832976e-02
  1.345063e+00    1.338760e+00   1.841378e-02
  1.347273e+00    1.338875e+00   1.844968e-02
  1.349484e+00    1.321083e+00   1.835407e-02
  1.351694e+00    1.338556e+00   1.849763e-02
  1.353905e+00    1.333613e+00   1.848137e-02
  1.356115e+00    1.295604e+00   1.823082e-02
  1.358325e+00    1.299889e+00   1.827400e-02
  1.360536e+00    1.344580e+00   1.859707e-02
  1.362746e+00    1.349286e+00   1.863918e-02
  1.364957e+00    1.338309e+00   1.857083e-02
  1.367167e+00    1.343649e+00   1.861498e-02
  1.369378e+00    1.301526e+00   1.832681e-02
  1.371588e+00    1.302436e+00   1.833824e-02
  1.373799e+00    1.312262e+00   1.841093e-02
  1.376009e+00    1.323913e+00   1.849584e-02
  1.378220e+00    1.336204e+00   1.858404e-02
  1.380430e+00    1.334749e+00   1.857662e-02
  1.382640e+00    1.355589e+00   1.872201e-02
  1.384851e+00    1.359023e+00   1.874661e-02
  1.387061e+00    1.333948e+00   1.857314e-02
  1.389272e+00    1.340184e+00   1.861671e-02
  1.391482e+00    1.346057e+00   1.865679e-02
  1.393693e+00    1.316057e+00   1.844683e-02
  1.395903e+00    1.291858e+00   1.827495e-02
  1.398114e+00    1.259031e+00   1.803988e-02
  1.400324e+00    1.302891e+00   1.834926e-02
  1.402535e+00    1.287732e+00   1.823990e-02
  1.404745e+00    1.265906e+00   1.808230e-02
  1.406955e+00    1.245296e+00   1.793184e-02
  1.409166e+00    1.253855e+00   1.799005e-02
  1.411376e+00    1.266411e+00   1.807682e-02
  1.413587e+00    1.273566e+00   1.812397e-02
  1.415797e+00    1.294088e+00   1.826585e-02
  1.418008e+00    1.260855e+00   1.798809e-02
  1.420218e+00    1.220760e+00   1.755295e-02
  1.422429e+00    1.240978e+00   1.761336e-02
  1.424639e+00    1.261710e+00   1.769540e-02
  1.426850e+00    1.257187e+00   1.760924e-02
  1.429060e+00    1.264886e+00   1.761419e-02
  1.431270e+00    1.271787e+00   1.761783e-02
  1.433481e+00    1.270273e+00   1.756638e-02
  1.435691e+00    1.268009e+00   1.751233e-02
  1.437902e+00    1.254637e+00   1.738350e-02
  1.440112e+00    1.273683e+00   1.747954e-02
  1.442323e+00    1.275414e+00   1.745831e-02
  1.444533e+00    1.280671e+00   1.746156e-02
  1.446744e+00    1.283008e+00   1.744620e-02
  1.448954e+00    1.292842e+00   1.748246e-02
  1.451165e+00    1.280089e+00   1.736617e-02
  1.453375e+00    1.239264e+00   1.705930e-02
  1.455586e+00    1.246496e+00   1.708107e-02
  1.457796e+00    1.250936e+00   1.708418e-02
  1.460006e+00    1.262961e+00   1.713892e-02
  1.462217e+00    1.263421e+00   1.711588e-02
  1.464427e+00    1.276384e+00   1.717779e-02
  1.466638e+00    1.278007e+00   1.716331e-02
  1.468848e+00    1.256542e+00   1.699335e-02
  1.471059e+00    1.258111e+00   1.697896e-02
  1.473269e+00    1.259458e+00   1.696379e-02
  1.475480e+00    1.239947e+00   1.680837e-02
  1.477690e+00    1.274260e+00   1.701544e-02
  1.479901e+00    1.250381e+00   1.683163e-02
  1.482111e+00    1.232097e+00   1.668509e-02
  1.484321e+00    1.215296e+00   1.654829e-02
  1.486532e+00    1.210384e+00   1.649299e-02
  1.488742e+00    1.266594e+00   1.684894e-02
  1.490953e+00    1.244030e+00   1.667576e-02
  1.493163e+00    1.274885e+00   1.685892e-02
  1.495374e+00    1.260927e+00   1.674491e-02
  1.497584e+00    1.247940e+00   1.663693e-02
  1.499795e+00    1.258376e+00   1.668470e-02
  1.502005e+00    1.253887e+00   1.663330e-02
  1.504216e+00    1.217665e+00   1.637061e-02
  1.506426e+00    1.212325e+00   1.631421e-02
  1.508636e+00    1.268161e+00   1.666515e-02
  1.510847e+00    1.240205e+00   1.645878e-02
  1.513057e+00    1.227604e+00   1.635013e-02
  1.515268e+00    1.244696e+00   1.643795e-02
  1.517478e+00    1.246105e+00   1.642217e-02
  1.519689e+00    1.235178e+00   1.632526e-02
  1.521899e+00    1.235413e+00   1.630385e-02
  1.524110e+00    1.242024e+00   1.632719e-02
  1.526320e+00    1.249994e+00   1.635990e-02
  1.528531e+00    1.247878e+00   1.632632e-02
  1.530741e+00    1.254230e+00   1.634864e-02
  1.532951e+00    1.239250e+00   1.623123e-02
  1.535162e+00    1.215560e+00   1.616074e-02
  1.537372e+00    1.202255e+00   1.613769e-02
  1.539583e+00    1.202506e+00   1.617298e-02
  1.541793e+00    1.216943e+00   1.627661e-02
  1.544004e+00    1.247934e+00   1.648284e-02
  1.546214e+00    1.232658e+00   1.638015e-02
  1.548425e+00    1.221270e+00   1.630457e-02
  1.550635e+00    1.212352e+00   1.625447e-02
  1.552846e+00    1.244267e+00   1.647668e-02
  1.555056e+00    1.252088e+00   1.648679e-02
  1.557266e+00    1.242463e+00   1.631294e-02
  1.559477e+00    1.227706e+00   1.615704e-02
  1.561687e+00    1.243756e+00   1.623167e-02
  1.563898e+00    1.221535e+00   1.606901e-02
  1.566108e+00    1.232678e+00   1.612625e-02
  1.568319e+00    1.220513e+00   1.603102e-02
  1.570529e+00    1.233771e+00   1.609281e-02
  1.572740e+00    1.233123e+00   1.606109e-02
  1.574950e+00    1.236084e+00   1.605416e-02
  1.577161e+00    1.247629e+00   1.610343e-02
  1.579371e+00    1.267532e+00   1.620749e-02
  1.581582e+00    1.267300e+00   1.618607e-02
  1.583792e+00    1.236788e+00   1.597207e-02
  1.586002e+00    1.226835e+00   1.589018e-02
  1.588213e+00    1.206774e+00   1.574273e-02
  1.590423e+00    1.223318e+00   1.583037e-02
  1.592634e+00    1.224509e+00   1.581662e-02
  1.594844e+00    1.225781e+00   1.580360e-02
  1.597055e+00    1.220875e+00   1.575161e-02
  1.599265e+00    1.241650e+00   1.586435e-02
  1.601476e+00    1.221824e+00   1.571704e-02
  1.603686e+00    1.221962e+00   1.569830e-02
  1.605897e+00    1.208101e+00   1.558911e-02
  1.608107e+00    1.217487e+00   1.563014e-02
  1.610317e+00    1.232580e+00   1.570746e-02
  1.612528e+00    1.258127e+00   1.585003e-02
  1.614738e+00    1.322824e+00   1.623283e-02
  1.616949e+00    1.306611e+00   1.611347e-02
  1.619159e+00    1.243766e+00   1.570231e-02
  1.621370e+00    1.227194e+00   1.557883e-02
  1.623580e+00    1.177607e+00   1.524279e-02
  1.625791e+00    1.158134e+00   1.509835e-02
  1.628001e+00    1.141652e+00   1.497273e-02
  1.630212e+00    1.140828e+00   1.494996e-02
  1.632422e+00    1.161811e+00   1.506912e-02
  1.634632e+00    1.147909e+00   1.496162e-02
  1.636843e+00    1.160361e+00   1.502515e-02
  1.639053e+00    1.141090e+00   1.488282e-02
  1.641264e+00    1.130510e+00   1.479685e-02
  1.643474e+00    1.152527e+00   1.492291e-02
  1.645685e+00    1.136385e+00   1.480155e-02
  1.647895e+00    1.136459e+00   1.478557e-02
  1.650106e+00    1.136878e+00   1.477140e-02
  1.652316e+00    1.115472e+00   1.461544e-02
  1.654527e+00    1.095629e+00   1.446852e-02
  1.656737e+00    1.107335e+00   1.452926e-02
  1.658947e+00    1.094940e+00   1.443171e-02
  1.661158e+00    1.104621e+00   1.447925e-02
  1.663368e+00    1.099824e+00   1.443194e-02
  1.665579e+00    1.093076e+00   1.437162e-02
  1.667789e+00    1.093230e+00   1.435658e-02
  1.670000e+00    1.077739e+00   1.423925e-02
  1.672210e+00    1.076940e+00   1.421834e-02
  1.674421e+00    1.076632e+00   1.420116e-02
  1.676631e+00    1.078174e+00   1.419563e-02
  1.678842e+00    1.048988e+00   1.398677e-02
  1.681052e+00    1.063860e+00   1.407037e-02
  1.683263e+00    1.060811e+00   1.403528e-02
  1.685473e+00    1.072758e+00   1.409903e-02
  1.687683e+00    1.066967e+00   1.404561e-02
  1.689894e+00    1.077713e+00   1.410042e-02
  1.692104e+00    1.059686e+00   1.396720e-02
  1.694315e+00    1.069430e+00   1.401676e-02
  1.696525e+00    1.066396e+00   1.398176e-02
  1.698736e+00    1.062388e+00   1.394064e-02
  1.700946e+00    1.075382e+00   1.401039e-02
  1.703157e+00    1.054610e+00   1.385981e-02
  1.705367e+00    1.029004e+00   1.367619e-02
  1.707578e+00    1.015325e+00   1.357063e-02
  1.709788e+00    9.924182e-01   1.340294e-02
  1.711998e+00    1.016586e+00   1.355029e-02
  1.714209e+00    1.012343e+00   1.350778e-02
  1.716419e+00    1.008002e+00   1.346469e-02
  1.718630e+00    9.982818e-01   1.338556e-02
  1.720840e+00    1.026966e+00   1.356234e-02
  1.723051e+00    1.014562e+00   1.346639e-02
  1.725261e+00    1.005740e+00   1.339315e-02
  1.727472e+00    9.994458e-01   1.333713e-02
  1.729682e+00    9.878798e-01   1.324646e-02
  1.731893e+00    9.774045e-01   1.316238e-02
  1.734103e+00    9.677304e-01   1.308356e-02
  1.736313e+00    9.708727e-01   1.309103e-02
  1.738524e+00    9.550790e-01   1.297061e-02
  1.740734e+00    9.633633e-01   1.301328e-02
  1.742945e+00    9.603267e-01   1.297956e-02
  1.745155e+00    9.547815e-01   1.292883e-02
  1.747366e+00    9.474347e-01   1.286548e-02
  1.749576e+00    9.479968e-01   1.285588e-02
  1.751787e+00    9.649522e-01   1.295712e-02
  1.753997e+00    9.432341e-01   1.279737e-02
  1.756208e+00    9.242938e-01   1.265536e-02
  1.758418e+00    9.425631e-01   1.276690e-02
  1.760628e+00    9.234788e-01   1.262397e-02
  1.762839e+00    9.110059e-01   1.252558e-02
  1.765049e+00    9.152654e-01   1.254204e-02
  1.767260e+00    9.362750e-01   1.267250e-02
  1.769470e+00    9.254404e-01   1.258621e-02
  1.771681e+00    9.137110e-01   1.249332e-02
  1.773891e+00    8.907250e-01   1.232253e-02
  1.776102e+00    9.149186e-01   1.247608e-02
  1.778312e+00    9.303358e-01   1.256815e-02
  1.780523e+00    9.273474e-01   1.253531e-02
  1.782733e+00    9.075403e-01   1.238826e-02
  1.784944e+00    8.781127e-01   1.217326e-02
  1.787154e+00    9.093632e-01   1.237558e-02
  1.789364e+00    9.194936e-01   1.243194e-02
  1.791575e+00    9.082734e-01   1.234345e-02
  1.793785e+00    9.036481e-01   1.229970e-02
  1.795996e+00    8.942764e-01   1.222343e-02
  1.798206e+00    8.845765e-01   1.214467e-02
  1.800417e+00    8.784779e-01   1.209032e-02
  1.802627e+00    8.632118e-01   1.197320e-02
  1.804838e+00    8.809010e-01   1.208336e-02
  1.807048e+00    8.717932e-01   1.200815e-02
  1.809259e+00    8.640149e-01   1.194121e-02
  1.811469e+00    8.437055e-01   1.178557e-02
  1.813679e+00    8.571467e-01   1.186445e-02
  1.815890e+00    8.818879e-01   1.201988e-02
  1.818100e+00    8.515907e-01   1.179688e-02
  1.820311e+00    8.492820e-01   1.176647e-02
  1.822521e+00    8.454103e-01   1.172516e-02
  1.824732e+00    8.494756e-01   1.173884e-02
  1.826942e+00    8.579963e-01   1.178544e-02
  1.829153e+00    8.520088e-01   1.173278e-02
  1.831363e+00    8.522285e-01   1.172247e-02
  1.833574e+00    8.583067e-01   1.175267e-02
  1.835784e+00    8.617193e-01   1.176471e-02
  1.837994e+00    8.710685e-01   1.181666e-02
  1.840205e+00    8.873753e-01   1.191554e-02
  1.842415e+00    8.548123e-01   1.168322e-02
  1.844626e+00    8.608595e-01   1.171296e-02
  1.846836e+00    8.801681e-01   1.183208e-02
  1.849047e+00    8.610930e-01   1.169162e-02
  1.851257e+00    8.335517e-01   1.149370e-02
  1.853468e+00    8.319542e-01   1.147404e-02
  1.855678e+00    8.208014e-01   1.138820e-02
  1.857889e+00    8.393903e-01   1.150802e-02
  1.860099e+00    8.284976e-01   1.142463e-02
  1.862309e+00    8.229910e-01   1.137826e-02
  1.864520e+00    8.418406e-01   1.149930e-02
  1.866730e+00    8.583549e-01   1.160216e-02
  1.868941e+00    8.411594e-01   1.147449e-02
  1.871151e+00    8.497835e-01   1.152177e-02
  1.873362e+00    8.331353e-01   1.139714e-02
  1.875572e+00    8.175701e-01   1.127943e-02
  1.877783e+00    7.994121e-01   1.114238e-02
  1.879993e+00    8.234721e-01   1.129779e-02
  1.882204e+00    8.229764e-01   1.128366e-02
  1.884414e+00    8.054612e-01   1.115210e-02
  1.886624e+00    8.274349e-01   1.129225e-02
  1.888835e+00    8.134876e-01   1.118588e-02
  1.891045e+00    8.263661e-01   1.126327e-02
  1.893256e+00    8.142303e-01   1.116935e-02
  1.895466e+00    8.162252e-01   1.117199e-02
  1.897677e+00    8.018939e-01   1.106277e-02
  1.899887e+00    8.150516e-01   1.114231e-02
  1.902098e+00    8.310338e-01   1.124018e-02
  1.904308e+00    8.239200e-01   1.118144e-02
  1.906519e+00    8.179386e-01   1.113003e-02
  1.908729e+00    8.074250e-01   1.104778e-02
  1.910940e+00    8.263775e-01   1.116556e-02
  1.913150e+00    8.100113e-01   1.104400e-02
  1.915360e+00    8.067315e-01   1.101107e-02
  1.917571e+00    8.139591e-01   1.104949e-02
  1.919781e+00    7.903712e-01   1.087772e-02
  1.921992e+00    7.965453e-01   1.090966e-02
  1.924202e+00    7.904754e-01   1.085743e-02
  1.926413e+00    7.823229e-01   1.079121e-02
  1.928623e+00    7.890350e-01   1.082703e-02
  1.930834e+00    7.966208e-01   1.086862e-02
  1.933044e+00    7.970666e-01   1.086109e-02
  1.935255e+00    8.100134e-01   1.093862e-02
  1.937465e+00    7.798535e-01   1.072284e-02
  1.939675e+00    7.832623e-01   1.073554e-02
  1.941886e+00    7.919014e-01   1.078440e-02
  1.944096e+00    7.896673e-01   1.075908e-02
  1.946307e+00    7.842215e-01   1.071168e-02
  1.948517e+00    8.052604e-01   1.084395e-02
  1.950728e+00    7.899662e-01   1.073029e-02
  1.952938e+00    7.723722e-01   1.060020e-02
  1.955149e+00    7.752703e-01   1.060996e-02
  1.957359e+00    8.021693e-01   1.078236e-02
  1.959570e+00    7.981460e-01   1.074442e-02
  1.961780e+00    7.878773e-01   1.066519e-02
  1.963990e+00    7.889951e-01   1.066265e-02
  1.966201e+00    7.946571e-01   1.069075e-02
  1.968411e+00    8.562235e-01   1.108655e-02
  1.970622e+00    9.322152e-01   1.155713e-02
  1.972832e+00    8.881950e-01   1.127041e-02
  1.975043e+00    8.254124e-01   1.085449e-02
  1.977253e+00    7.794534e-01   1.053803e-02
  1.979464e+00    7.743964e-01   1.049382e-02
  1.981674e+00    7.601819e-01   1.038694e-02
  1.983885e+00    7.758625e-01   1.048354e-02
  1.986095e+00    7.763187e-01   1.047695e-02
  1.988305e+00    7.935423e-01   1.058254e-02
  1.990516e+00    7.897868e-01   1.054750e-02
  1.992726e+00    7.735684e-01   1.042899e-02
  1.994937e+00    7.695227e-01   1.039160e-02
  1.997147e+00    7.808371e-01   1.045795e-02
  1.999358e+00    7.669925e-01   1.035503e-02
  2.001568e+00    7.577882e-01   1.028201e-02
  2.003779e+00    7.613545e-01   1.029433e-02
  2.005989e+00    7.650961e-01   1.030764e-02
  2.008200e+00    7.671621e-01   1.031003e-02
  2.010410e+00    7.808069e-01   1.038949e-02
  2.012621e+00    7.716729e-01   1.031681e-02
  2.014831e+00    7.665867e-01   1.027129e-02
  2.017041e+00    7.719719e-01   1.029689e-02
  2.019252e+00    7.683023e-01   1.026241e-02
  2.021462e+00    7.615412e-01   1.020766e-02
  2.023673e+00    7.666007e-01   1.023211e-02
  2.025883e+00    7.605351e-01   1.018207e-02
  2.028094e+00    7.550858e-01   1.013590e-02
  2.030304e+00    7.564965e-01   1.013588e-02
  2.032515e+00    7.561251e-01   1.012411e-02
  2.034725e+00    7.567534e-01   1.011889e-02
  2.036936e+00    7.584027e-01   1.012057e-02
  2.039146e+00    7.544678e-01   1.008473e-02
  2.041356e+00    7.684940e-01   1.016832e-02
  2.043567e+00    7.465883e-01   1.001311e-02
  2.045777e+00    7.371010e-01   9.940143e-03
  2.047988e+00    7.475662e-01   1.000112e-02
  2.050198e+00    7.601537e-01   1.007652e-02
  2.052409e+00    7.418929e-01   9.947143e-03
  2.054619e+00    7.550812e-01   1.002779e-02
  2.056830e+00    7.356990e-01   9.891145e-03
  2.059040e+00    7.349348e-01   9.878565e-03
  2.061251e+00    7.505284e-01   9.975564e-03
  2.063461e+00    7.525038e-01   9.981083e-03
  2.065671e+00    7.401944e-01   9.890435e-03
  2.067882e+00    7.274482e-01   9.796035e-03
  2.070092e+00    7.341542e-01   9.831978e-03
  2.072303e+00    7.148688e-01   9.693031e-03
  2.074513e+00    7.246898e-01   9.750182e-03
  2.076724e+00    7.110939e-01   9.649060e-03
  2.078934e+00    7.295319e-01   9.764418e-03
  2.081145e+00    7.233797e-01   9.714201e-03
  2.083355e+00    7.225701e-01   9.699717e-03
  2.085566e+00    7.194211e-01   9.669774e-03
  2.087776e+00    7.323119e-01   9.746553e-03
  2.089986e+00    7.402719e-01   9.790598e-03
  2.092197e+00    7.320572e-01   9.727195e-03
  2.094407e+00    7.408909e-01   9.776453e-03
  2.096618e+00    7.228340e-01   9.647771e-03
  2.098828e+00    7.098892e-01   9.551834e-03
  2.101039e+00    7.153168e-01   9.579402e-03
  2.103249e+00    7.003377e-01   9.470095e-03
  2.105460e+00    7.114944e-01   9.536318e-03
  2.107670e+00    7.143754e-01   9.546963e-03
  2.109881e+00    7.133202e-01   9.530830e-03
  2.112091e+00    7.213389e-01   9.575302e-03
  2.114301e+00    7.081286e-01   9.478534e-03
  2.116512e+00    7.119229e-01   9.495158e-03
  2.118722e+00    7.076191e-01   9.457682e-03
  2.120933e+00    7.117779e-01   9.476632e-03
  2.123143e+00    7.093331e-01   9.451487e-03
  2.125354e+00    7.104495e-01   9.450441e-03
  2.127564e+00    7.004597e-01   9.375127e-03
  2.129775e+00    7.005853e-01   9.367337e-03
  2.131985e+00    7.164505e-01   9.463723e-03
  2.134196e+00    7.140253e-01   9.439118e-03
  2.136406e+00    7.003272e-01   9.339465e-03
  2.138617e+00    7.050796e-01   9.362664e-03
  2.140827e+00    7.034197e-01   9.367649e-03
  2.143037e+00    7.052067e-01   9.424938e-03
  2.145248e+00    6.984515e-01   9.401585e-03
  2.147458e+00    7.076764e-01   9.478653e-03
  2.149669e+00    6.819121e-01   9.316171e-03
  2.151879e+00    6.830336e-01   9.332920e-03
  2.154090e+00    6.892049e-01   9.382248e-03
  2.156300e+00    6.847607e-01   9.358471e-03
  2.158511e+00    6.948312e-01   9.432334e-03
  2.160721e+00    6.753583e-01   9.303951e-03
  2.162932e+00    6.804262e-01   9.342477e-03
  2.165142e+00    6.988763e-01   9.471330e-03
  2.167352e+00    6.834093e-01   9.368822e-03
  2.169563e+00    6.740320e-01   9.306256e-03
  2.171773e+00    6.800975e-01   9.350446e-03
  2.173984e+00    6.795847e-01   9.348327e-03
  2.176194e+00    6.688336e-01   9.275255e-03
  2.178405e+00    6.774835e-01   9.335728e-03
  2.180615e+00    7.008928e-01   9.496328e-03
  2.182826e+00    6.988914e-01   9.483474e-03
  2.185036e+00    6.752555e-01   9.321767e-03
  2.187247e+00    6.841314e-01   9.382773e-03
  2.189457e+00    6.721942e-01   9.300164e-03
  2.191667e+00    6.825000e-01   9.371003e-03
  2.193878e+00    6.879247e-01   9.407599e-03
  2.196088e+00    6.928466e-01   9.440529e-03
  2.198299e+00    6.718696e-01   9.295418e-03
  2.200509e+00    6.758095e-01   9.321588e-03
  2.202720e+00    6.692103e-01   9.274836e-03
  2.204930e+00    6.741944e-01   9.308049e-03
  2.207141e+00    6.814096e-01   9.356625e-03
  2.209351e+00    6.760768e-01   9.318059e-03
  2.211562e+00    6.812326e-01   9.351894e-03
  2.213772e+00    6.734499e-01   9.243002e-03
  2.215982e+00    6.606781e-01   9.111197e-03
  2.218193e+00    6.763361e-01   9.188906e-03
  2.220403e+00    6.702921e-01   9.123238e-03
  2.222614e+00    6.712310e-01   9.108720e-03
  2.224824e+00    6.794457e-01   9.144825e-03
  2.227035e+00    6.724827e-01   9.080403e-03
  2.229245e+00    6.740322e-01   9.073859e-03
  2.231456e+00    6.615081e-01   8.973673e-03
  2.233666e+00    6.635921e-01   8.972785e-03
  2.235877e+00    6.616052e-01   8.945149e-03
  2.238087e+00    6.578771e-01   8.906582e-03
  2.240298e+00    6.457741e-01   8.810729e-03
  2.242508e+00    6.507680e-01   8.829813e-03
  2.244718e+00    6.726471e-01   8.961155e-03
  2.246929e+00    6.717718e-01   8.940880e-03
  2.249139e+00    6.551940e-01   8.817606e-03
  2.251350e+00    6.622447e-01   8.853238e-03
  2.253560e+00    6.649362e-01   8.859680e-03
  2.255771e+00    6.532656e-01   8.770272e-03
  2.257981e+00    6.634983e-01   8.827534e-03
  2.260192e+00    6.578353e-01   8.778707e-03
  2.262402e+00    6.819980e-01   8.927504e-03
  2.264613e+00    6.518810e-01   8.717430e-03
  2.266823e+00    6.506136e-01   8.698629e-03
  2.269033e+00    6.588584e-01   8.743231e-03
  2.271244e+00    6.590694e-01   8.734265e-03
  2.273454e+00    6.607980e-01   8.735457e-03
  2.275665e+00    6.563219e-01   8.695579e-03
  2.277875e+00    6.544140e-01   8.673039e-03
  2.280086e+00    6.629250e-01   8.719188e-03
  2.282296e+00    6.503911e-01   8.627044e-03
  2.284507e+00    6.587707e-01   8.672289e-03
  2.286717e+00    6.514640e-01   8.614658e-03
  2.288928e+00    6.472341e-01   8.576847e-03
  2.291138e+00    6.493917e-01   8.581760e-03
  2.293348e+00    6.554567e-01   8.612199e-03
  2.295559e+00    6.397287e-01   8.499066e-03
  2.297769e+00    6.434759e-01   8.514723e-03
  2.299980e+00    6.506510e-01   8.552761e-03
  2.302190e+00    6.468539e-01   8.518682e-03
  2.304401e+00    6.467659e-01   8.508833e-03
  2.306611e+00    6.454483e-01   8.490995e-03
  2.308822e+00    6.468437e-01   8.491823e-03
  2.311032e+00    6.582483e-01   8.559856e-03
  2.313243e+00    6.366784e-01   8.412248e-03
  2.315453e+00    6.381573e-01   8.414493e-03
  2.317663e+00    6.270003e-01   8.331636e-03
  2.319874e+00    6.317725e-01   8.354641e-03
  2.322084e+00    6.421919e-01   8.414327e-03
  2.324295e+00    6.322779e-01   8.340981e-03
  2.326505e+00    6.328831e-01   8.336001e-03
  2.328716e+00    6.257034e-01   8.280154e-03
  2.330926e+00    6.359032e-01   8.338609e-03
  2.333137e+00    6.356558e-01   8.328675e-03
  2.335347e+00    6.328070e-01   8.301158e-03
  2.337558e+00    6.312467e-01   8.282763e-03
  2.339768e+00    6.311783e-01   8.273808e-03
  2.341979e+00    6.211392e-01   8.199472e-03
  2.344189e+00    6.376974e-01   8.299654e-03
  2.346399e+00    6.361403e-01   8.281028e-03
  2.348610e+00    6.296165e-01   8.230041e-03
  2.350820e+00    6.269177e-01   8.204251e-03
  2.353031e+00    6.190106e-01   8.144155e-03
  2.355241e+00    6.282143e-01   8.196462e-03
  2.357452e+00    6.130103e-01   8.088385e-03
  2.359662e+00    6.214288e-01   8.135566e-03
  2.361873e+00    6.257408e-01   8.155539e-03
  2.364083e+00    6.174980e-01   8.093749e-03
  2.366294e+00    6.203963e-01   8.104636e-03
  2.368504e+00    6.341427e-01   8.185823e-03
  2.370714e+00    6.231028e-01   8.106227e-03
  2.372925e+00    6.059982e-01   7.986259e-03
  2.375135e+00    6.310665e-01   8.141642e-03
  2.377346e+00    6.328419e-01   8.145126e-03
  2.379556e+00    6.005905e-01   7.927083e-03
  2.381767e+00    6.210174e-01   8.052893e-03
  2.383977e+00    6.173304e-01   8.021062e-03
  2.386188e+00    6.147163e-01   7.996168e-03
  2.388398e+00    6.080143e-01   7.944564e-03
  2.390609e+00    6.178350e-01   8.000734e-03
  2.392819e+00    6.192546e-01   8.002146e-03
  2.395029e+00    6.011971e-01   7.877029e-03
  2.397240e+00    6.117379e-01   7.937926e-03
  2.399450e+00    6.355951e-01   8.083283e-03
  2.401661e+00    6.334015e-01   8.061527e-03
  2.403871e+00    6.145225e-01   7.932698e-03
  2.406082e+00    5.969476e-01   7.811090e-03
  2.408292e+00    6.009020e-01   7.829157e-03
  2.410503e+00    6.036069e-01   7.839321e-03
  2.412713e+00    6.057326e-01   7.845310e-03
  2.414924e+00    6.035011e-01   7.823399e-03
  2.417134e+00    5.832467e-01   7.683480e-03
  2.419344e+00    5.771822e-01   7.636192e-03
  2.421555e+00    5.800472e-01   7.647736e-03
  2.423765e+00    6.014497e-01   7.780139e-03
  2.425976e+00    6.042994e-01   7.790728e-03
  2.428186e+00    5.966073e-01   7.733774e-03
  2.430397e+00    5.892526e-01   7.678526e-03
  2.432607e+00    6.000242e-01   7.741088e-03
  2.434818e+00    5.808601e-01   7.609025e-03
  2.437028e+00    5.793357e-01   7.591961e-03
  2.439239e+00    5.887548e-01   7.645798e-03
  2.441449e+00    5.798631e-01   7.580746e-03
  2.443659e+00    5.688135e-01   7.500933e-03
  2.445870e+00    5.718164e-01   7.532787e-03
  2.448080e+00    5.674863e-01   7.538551e-03
  2.450291e+00    5.598786e-01   7.504200e-03
  2.452501e+00    5.702724e-01   7.584624e-03
  2.454712e+00    5.728880e-01   7.610437e-03
  2.456922e+00    5.728838e-01   7.617047e-03
  2.459133e+00    5.675014e-01   7.586611e-03
  2.461343e+00    5.618476e-01   7.553056e-03
  2.463554e+00    5.638344e-01   7.569870e-03
  2.465764e+00    5.516565e-01   7.490780e-03
  2.467975e+00    5.633624e-01   7.572122e-03
  2.470185e+00    5.574122e-01   7.534279e-03
  2.472395e+00    5.744874e-01   7.650054e-03
  2.474606e+00    5.607811e-01   7.559823e-03
  2.476816e+00    5.483373e-01   7.476214e-03
  2.479027e+00    5.462478e-01   7.462784e-03
  2.481237e+00    5.467509e-01   7.466509e-03
  2.483448e+00    5.444545e-01   7.451112e-03
  2.485658e+00    5.435545e-01   7.444805e-03
  2.487869e+00    5.423511e-01   7.436600e-03
  2.490079e+00    5.448148e-01   7.452952e-03
  2.492290e+00    5.483421e-01   7.476597e-03
  2.494500e+00    5.457847e-01   7.458399e-03
  2.496710e+00    5.465707e-01   7.463084e-03
  2.498921e+00    5.297346e-01   7.346254e-03
  2.501131e+00    5.262533e-01   7.321115e-03
  2.503342e+00    5.223610e-01   7.292755e-03
  2.505552e+00    5.314493e-01   7.354779e-03
  2.507763e+00    5.205911e-01   7.277861e-03
  2.509973e+00    5.238849e-01   7.299459e-03
  2.512184e+00    5.224323e-01   7.287729e-03
  2.514394e+00    5.175093e-01   7.244029e-03
  2.516605e+00    5.209002e-01   7.220914e-03
  2.518815e+00    5.151739e-01   7.153089e-03
  2.521025e+00    5.146225e-01   7.128500e-03
  2.523236e+00    5.175186e-01   7.130696e-03
  2.525446e+00    5.196507e-01   7.129840e-03
  2.527657e+00    5.227483e-01   7.136509e-03
  2.529867e+00    5.168715e-01   7.082195e-03
  2.532078e+00    5.252666e-01   7.124447e-03
  2.534288e+00    5.071433e-01   6.986807e-03
  2.536499e+00    5.217152e-01   7.074567e-03
  2.538709e+00    5.121487e-01   6.998541e-03
  2.540920e+00    5.191174e-01   7.035391e-03
  2.543130e+00    5.148473e-01   6.996140e-03
  2.545340e+00    5.147506e-01   6.985494e-03
  2.547551e+00    5.114341e-01   6.953119e-03
  2.549761e+00    5.217584e-01   7.013374e-03
  2.551972e+00    5.261742e-01   7.033600e-03
  2.554182e+00    5.192631e-01   6.978110e-03
  2.556393e+00    5.101536e-01   6.907608e-03
  2.558603e+00    5.236644e-01   6.989389e-03
  2.560814e+00    5.236803e-01   6.980762e-03
  2.563024e+00    5.133479e-01   6.903023e-03
  2.565235e+00    5.247191e-01   6.969483e-03
  2.567445e+00    5.152561e-01   6.896872e-03
  2.569656e+00    4.980562e-01   6.771198e-03
  2.571866e+00    4.972814e-01   6.756766e-03
  2.574076e+00    5.038705e-01   6.792219e-03
  2.576287e+00    5.082877e-01   6.813679e-03
  2.578497e+00    5.070952e-01   6.797906e-03
  2.580708e+00    5.077133e-01   6.794004e-03
  2.582918e+00    5.079531e-01   6.787920e-03
  2.585129e+00    5.003843e-01   6.729516e-03
  2.587339e+00    5.045246e-01   6.749665e-03
  2.589550e+00    5.160069e-01   6.818490e-03
  2.591760e+00    5.004130e-01   6.707015e-03
  2.593971e+00    4.976675e-01   6.681174e-03
  2.596181e+00    4.903269e-01   6.625616e-03
  2.598391e+00    4.930683e-01   6.639022e-03
  2.600602e+00    5.030981e-01   6.700318e-03
  2.602812e+00    4.905892e-01   6.609117e-03
  2.605023e+00    4.955053e-01   6.635049e-03
  2.607233e+00    5.172641e-01   6.771973e-03
  2.609444e+00    5.107905e-01   6.722220e-03
  2.611654e+00    4.962641e-01   6.618705e-03
  2.613865e+00    4.913396e-01   6.578839e-03
  2.616075e+00    4.940449e-01   6.589871e-03
  2.618286e+00    4.989371e-01   6.615469e-03
  2.620496e+00    4.919549e-01   6.562412e-03
  2.622706e+00    4.929766e-01   6.563552e-03
  2.624917e+00    4.869595e-01   6.517617e-03
  2.627127e+00    4.940704e-01   6.559351e-03
  2.629338e+00    4.974814e-01   6.576011e-03
  2.631548e+00    4.995292e-01   6.583396e-03
  2.633759e+00    4.950043e-01   6.546413e-03
  2.635969e+00    4.945984e-01   6.537084e-03
  2.638180e+00    5.032938e-01   6.587295e-03
  2.640390e+00    4.993133e-01   6.554622e-03
  2.642601e+00    4.925080e-01   6.503170e-03
  2.644811e+00    4.969558e-01   6.525449e-03
  2.647021e+00    4.799897e-01   6.406633e-03
  2.649232e+00    4.937635e-01   6.491229e-03
  2.651442e+00    4.910501e-01   6.466918e-03
  2.653653e+00    4.969776e-01   6.499068e-03
  2.655863e+00    5.007128e-01   6.516726e-03
  2.658074e+00    5.023288e-01   6.520606e-03
  2.660284e+00    4.972612e-01   6.481275e-03
  2.662495e+00    4.995525e-01   6.489423e-03
  2.664705e+00    4.944468e-01   6.449624e-03
  2.666916e+00    4.902797e-01   6.415966e-03
  2.669126e+00    4.855614e-01   6.378636e-03
  2.671337e+00    4.847482e-01   6.366767e-03
  2.673547e+00    4.865231e-01   6.372096e-03
  2.675757e+00    4.834097e-01   6.345301e-03
  2.677968e+00    4.935682e-01   6.405095e-03
  2.680178e+00    4.903108e-01   6.377563e-03
  2.682389e+00    4.846821e-01   6.334498e-03
  2.684599e+00    4.942510e-01   6.390535e-03
  2.686810e+00    4.782971e-01   6.280039e-03
  2.689020e+00    4.761631e-01   6.259821e-03
  2.691231e+00    4.764137e-01   6.255269e-03
  2.693441e+00    4.808011e-01   6.277916e-03
  2.695652e+00    4.896362e-01   6.328824e-03
  2.697862e+00    4.801711e-01   6.261086e-03
  2.700072e+00    4.781019e-01   6.241569e-03
  2.702283e+00    4.721884e-01   6.196741e-03
  2.704493e+00    4.706554e-01   6.180508e-03
  2.706704e+00    4.745983e-01   6.200015e-03
  2.708914e+00    4.740982e-01   6.190892e-03
  2.711125e+00    4.746350e-01   6.188201e-03
  2.713335e+00    4.879508e-01   6.268337e-03
  2.715546e+00    4.721011e-01   6.159331e-03
  2.717756e+00    4.633602e-01   6.096289e-03
  2.719967e+00    4.849996e-01   6.230816e-03
  2.722177e+00    4.717248e-01   6.138906e-03
  2.724387e+00    4.803335e-01   6.188610e-03
  2.726598e+00    4.852817e-01   6.214331e-03
  2.728808e+00    4.828494e-01   6.192621e-03
  2.731019e+00    4.647791e-01   6.069653e-03
  2.733229e+00    4.637139e-01   6.056986e-03
  2.735440e+00    4.687300e-01   6.083504e-03
  2.737650e+00    4.690338e-01   6.079540e-03
  2.739861e+00    4.669660e-01   6.060159e-03
  2.742071e+00    4.752560e-01   6.108027e-03
  2.744282e+00    4.717288e-01   6.079139e-03
  2.746492e+00    4.834426e-01   6.148093e-03
  2.748702e+00    4.774726e-01   6.104167e-03
  2.750913e+00    4.824818e-01   6.130291e-03
  2.753123e+00    4.807606e-01   6.113236e-03
  2.755334e+00    4.790925e-01   6.096566e-03
  2.757544e+00    4.650605e-01   6.000966e-03
  2.759755e+00    4.749202e-01   6.058405e-03
  2.761965e+00    4.694185e-01   6.017283e-03
  2.764176e+00    4.822687e-01   6.093100e-03
  2.766386e+00    4.769044e-01   6.053334e-03
  2.768597e+00    4.588615e-01   5.932004e-03
  2.770807e+00    4.700978e-01   5.998355e-03
  2.773017e+00    4.732315e-01   6.012381e-03
  2.775228e+00    4.700251e-01   5.986252e-03
  2.777438e+00    4.687621e-01   5.972459e-03
  2.779649e+00    4.780904e-01   6.025697e-03
  2.781859e+00    4.866640e-01   6.073664e-03
  2.784070e+00    4.661354e-01   5.938412e-03
  2.786280e+00    4.591548e-01   5.888106e-03
  2.788491e+00    4.636593e-01   5.911164e-03
  2.790701e+00    4.638343e-01   5.906702e-03
  2.792912e+00    4.598334e-01   5.875323e-03
  2.795122e+00    4.654998e-01   5.905731e-03
  2.797333e+00    4.793383e-01   5.987293e-03
  2.799543e+00    4.710843e-01   5.929687e-03
  2.801753e+00    4.758130e-01   5.953534e-03
  2.803964e+00    4.596733e-01   5.846106e-03
  2.806174e+00    4.574185e-01   5.825717e-03
  2.808385e+00    4.725003e-01   5.914200e-03
  2.810595e+00    4.583521e-01   5.818238e-03
  2.812806e+00    4.713629e-01   5.893650e-03
  2.815016e+00    4.696984e-01   5.878506e-03
  2.817227e+00    4.726814e-01   5.923049e-03
  2.819437e+00    4.664867e-01   5.895088e-03
  2.821648e+00    4.771600e-01   5.964461e-03
  2.823858e+00    4.726864e-01   5.941764e-03
  2.826068e+00    4.683225e-01   5.919229e-03
  2.828279e+00    4.638846e-01   5.895115e-03
  2.830489e+00    4.530880e-01   5.829388e-03
  2.832700e+00    4.561433e-01   5.851510e-03
  2.834910e+00    4.501891e-01   5.815211e-03
  2.837121e+00    4.650393e-01   5.912045e-03
  2.839331e+00    4.629517e-01   5.899983e-03
  2.841542e+00    4.599832e-01   5.882042e-03
  2.843752e+00    4.710622e-01   5.953232e-03
  2.845963e+00    4.664013e-01   5.924120e-03
  2.848173e+00    4.591670e-01   5.878066e-03
  2.850383e+00    4.643122e-01   5.911215e-03
  2.852594e+00    4.606010e-01   5.887454e-03
  2.854804e+00    4.560967e-01   5.858095e-03
  2.857015e+00    4.647290e-01   5.912845e-03
  2.859225e+00    4.671038e-01   5.927685e-03
  2.861436e+00    4.687616e-01   5.937547e-03
  2.863646e+00    4.488342e-01   5.809999e-03
  2.865857e+00    4.696670e-01   5.943641e-03
  2.868067e+00    4.697689e-01   5.944517e-03
  2.870278e+00    4.651627e-01   5.914942e-03
  2.872488e+00    4.582971e-01   5.869995e-03
  2.874698e+00    4.461654e-01   5.790737e-03
  2.876909e+00    4.693846e-01   5.938169e-03
  2.879119e+00    4.619964e-01   5.889637e-03
  2.881330e+00    4.574786e-01   5.859301e-03
  2.883540e+00    4.561885e-01   5.849660e-03
  2.885751e+00    4.587095e-01   5.864157e-03
  2.887961e+00    4.715075e-01   5.943498e-03
  2.890172e+00    4.651814e-01   5.901885e-03
  2.892382e+00    4.604262e-01   5.869839e-03
  2.894593e+00    4.611287e-01   5.872504e-03
  2.896803e+00    4.518979e-01   5.811450e-03
  2.899014e+00    4.623780e-01   5.876553e-03
  2.901224e+00    4.552770e-01   5.829260e-03
  2.903434e+00    4.506377e-01   5.797573e-03
  2.905645e+00    4.356088e-01   5.697910e-03
  2.907855e+00    4.444745e-01   5.753524e-03
  2.910066e+00    4.541727e-01   5.813896e-03
  2.912276e+00    4.436524e-01   5.744079e-03
  2.914487e+00    4.458985e-01   5.756183e-03
  2.916697e+00    4.395646e-01   5.712962e-03
  2.918908e+00    4.573887e-01   5.825645e-03
  2.921118e+00    4.514503e-01   5.785034e-03
  2.923329e+00    4.433581e-01   5.730680e-03
  2.925539e+00    4.376299e-01   5.691293e-03
  2.927749e+00    4.453431e-01   5.738954e-03
  2.929960e+00    4.439352e-01   5.727134e-03
  2.932170e+00    4.527910e-01   5.781665e-03
  2.934381e+00    4.428998e-01   5.715765e-03
  2.936591e+00    4.503926e-01   5.761337e-03
  2.938802e+00    4.439300e-01   5.717200e-03
  2.941012e+00    4.422937e-01   5.704337e-03
  2.943223e+00    4.392656e-01   5.682129e-03
  2.945433e+00    4.528663e-01   5.765699e-03
  2.947644e+00    4.597734e-01   5.805350e-03
  2.949854e+00    4.501117e-01   5.739789e-03
  2.952064e+00    4.524116e-01   5.750224e-03
  2.954275e+00    4.387830e-01   5.658624e-03
  2.956485e+00    4.513961e-01   5.735202e-03
  2.958696e+00    4.447159e-01   5.688276e-03
  2.960906e+00    4.508117e-01   5.722973e-03
  2.963117e+00    4.510566e-01   5.720054e-03
  2.965327e+00    4.535964e-01   5.732256e-03
  2.967538e+00    4.389811e-01   5.636273e-03
  2.969748e+00    4.453012e-01   5.673907e-03
  2.971959e+00    4.597280e-01   5.761925e-03
  2.974169e+00    4.601672e-01   5.762103e-03
  2.976379e+00    4.439889e-01   5.657016e-03
  2.978590e+00    4.454844e-01   5.663414e-03
  2.980800e+00    4.509770e-01   5.695439e-03
  2.983011e+00    4.362489e-01   5.598931e-03
  2.985221e+00    4.505619e-01   5.686887e-03
  2.987432e+00    4.361820e-01   5.592362e-03
  2.989642e+00    4.253140e-01   5.519715e-03
  2.991853e+00    4.325507e-01   5.563254e-03
  2.994063e+00    4.412563e-01   5.616099e-03
  2.996274e+00    4.481572e-01   5.656685e-03
  2.998484e+00    4.470003e-01   5.646696e-03
  3.000694e+00    4.497648e-01   5.660694e-03
  3.002905e+00    4.489586e-01   5.652705e-03
  3.005115e+00    4.318258e-01   5.540885e-03
  3.007326e+00    4.503550e-01   5.655352e-03
  3.009536e+00    4.671668e-01   5.756647e-03
  3.011747e+00    4.476831e-01   5.632453e-03
  3.013957e+00    4.414995e-01   5.590259e-03
  3.016168e+00    4.463851e-01   5.617876e-03
  3.018378e+00    4.441098e-01   5.600517e-03
  3.020589e+00    4.533941e-01   5.655542e-03
  3.022799e+00    4.481474e-01   5.619591e-03
  3.025010e+00    4.461722e-01   5.603964e-03
  3.027220e+00    4.498504e-01   5.623923e-03
  3.029430e+00    4.552648e-01   5.654402e-03
  3.031641e+00    4.444565e-01   5.583780e-03
  3.033851e+00    4.483218e-01   5.604484e-03
  3.036062e+00    4.436643e-01   5.572564e-03
  3.038272e+00    4.385743e-01   5.536969e-03
  3.040483e+00    4.322668e-01   5.493854e-03
  3.042693e+00    4.461029e-01   5.577837e-03
  3.044904e+00    4.518729e-01   5.609775e-03
  3.047114e+00    4.330688e-01   5.487114e-03
  3.049325e+00    4.368032e-01   5.506363e-03
  3.051535e+00    4.403737e-01   5.524511e-03
  3.053745e+00    4.458770e-01   5.554165e-03
  3.055956e+00    4.613937e-01   5.645392e-03
  3.058166e+00    4.437333e-01   5.532047e-03
  3.060377e+00    4.433919e-01   5.525204e-03
  3.062587e+00    4.359154e-01   5.473846e-03
  3.064798e+00    4.323960e-01   5.447538e-03
  3.067008e+00    4.508283e-01   5.557703e-03
  3.069219e+00    4.522556e-01   5.561967e-03
  3.071429e+00    4.371750e-01   5.465003e-03
  3.073640e+00    4.273529e-01   5.399986e-03
  3.075850e+00    4.456939e-01   5.511092e-03
  3.078060e+00    4.391506e-01   5.467412e-03
  3.080271e+00    4.452250e-01   5.501634e-03
  3.082481e+00    4.375243e-01   5.450452e-03
  3.084692e+00    4.404906e-01   5.465544e-03
  3.086902e+00    4.272629e-01   5.379687e-03
  3.089113e+00    4.258958e-01   5.367599e-03
  3.091323e+00    4.319132e-01   5.402054e-03
  3.093534e+00    4.397216e-01   5.447346e-03
  3.095744e+00    4.335130e-01   5.405420e-03
  3.097955e+00    4.309531e-01   5.385954e-03
  3.100165e+00    4.300547e-01   5.377084e-03
  3.102375e+00    4.359917e-01   5.410674e-03
  3.104586e+00    4.344668e-01   5.397766e-03
  3.106796e+00    4.368337e-01   5.408977e-03
  3.109007e+00    4.388075e-01   5.417987e-03
  3.111217e+00    4.248097e-01   5.327275e-03
  3.113428e+00    4.229262e-01   5.312109e-03
  3.115638e+00    4.360574e-01   5.390743e-03
  3.117849e+00    4.351435e-01   5.381436e-03
  3.120059e+00    4.331118e-01   5.365416e-03
  3.122270e+00    4.332086e-01   5.362813e-03
  3.124480e+00    4.403864e-01   5.403390e-03
  3.126691e+00    4.370708e-01   5.379477e-03
  3.128901e+00    4.411118e-01   5.401169e-03
  3.131111e+00    4.550489e-01   5.481960e-03
  3.133322e+00    4.439076e-01   5.410992e-03
  3.135532e+00    4.324973e-01   5.337646e-03
  3.137743e+00    4.387407e-01   5.372544e-03
  3.139953e+00    4.473248e-01   5.421171e-03
  3.142164e+00    4.352159e-01   5.359215e-03
  3.144374e+00    4.292474e-01   5.350292e-03
  3.146585e+00    4.287995e-01   5.361869e-03
  3.148795e+00    4.293979e-01   5.376187e-03
  3.151006e+00    4.412039e-01   5.458158e-03
  3.153216e+00    4.314728e-01   5.404684e-03
  3.155426e+00    4.378617e-01   5.450829e-03
  3.157637e+00    4.374065e-01   5.453504e-03
  3.159847e+00    4.363889e-01   5.452014e-03
  3.162058e+00    4.289705e-01   5.409841e-03
  3.164268e+00    4.333414e-01   5.441359e-03
  3.166479e+00    4.287447e-01   5.416056e-03
  3.168689e+00    4.198689e-01   5.362961e-03
  3.170900e+00    4.447623e-01   5.522841e-03
  3.173110e+00    4.372221e-01   5.478723e-03
  3.175321e+00    4.244598e-01   5.400602e-03
  3.177531e+00    4.436964e-01   5.524385e-03
  3.179741e+00    4.452793e-01   5.536316e-03
  3.181952e+00    4.355321e-01   5.477511e-03
  3.184162e+00    4.360853e-01   5.483163e-03
  3.186373e+00    4.394132e-01   5.505654e-03
  3.188583e+00    4.255011e-01   5.419567e-03
  3.190794e+00    4.183710e-01   5.375658e-03
  3.193004e+00    4.286873e-01   5.442794e-03
  3.195215e+00    4.182538e-01   5.377602e-03
  3.197425e+00    4.377275e-01   5.502589e-03
  3.199636e+00    4.277421e-01   5.438705e-03
  3.201846e+00    4.160515e-01   5.363278e-03
  3.204056e+00    4.257746e-01   5.426455e-03
  3.206267e+00    4.251679e-01   5.423433e-03
  3.208477e+00    4.190779e-01   5.385367e-03
  3.210688e+00    4.337015e-01   5.479352e-03
  3.212898e+00    4.289950e-01   5.450118e-03
  3.215109e+00    4.250991e-01   5.426068e-03
  3.217319e+00    4.245860e-01   5.423420e-03
  3.219530e+00    4.199724e-01   5.394260e-03
  3.221740e+00    4.281675e-01   5.447190e-03
  3.223951e+00    4.226344e-01   5.412360e-03
  3.226161e+00    4.123565e-01   5.346314e-03
  3.228372e+00    4.229974e-01   5.415390e-03
  3.230582e+00    4.253930e-01   5.430828e-03
  3.232792e+00    4.210658e-01   5.403380e-03
  3.235003e+00    4.122625e-01   5.346830e-03
  3.237213e+00    4.061581e-01   5.307185e-03
  3.239424e+00    4.207825e-01   5.401883e-03
  3.241634e+00    4.184505e-01   5.387035e-03
  3.243845e+00    4.276895e-01   5.446225e-03
  3.246055e+00    4.275737e-01   5.445240e-03
  3.248266e+00    4.148088e-01   5.363541e-03
  3.250476e+00    4.213488e-01   5.405333e-03
  3.252687e+00    4.242275e-01   5.423716e-03
  3.254897e+00    4.199772e-01   5.396342e-03
  3.257107e+00    4.063566e-01   5.307826e-03
  3.259318e+00    4.210547e-01   5.402702e-03
  3.261528e+00    4.151972e-01   5.364878e-03
  3.263739e+00    4.348525e-01   5.489810e-03
  3.265949e+00    4.144255e-01   5.359228e-03
  3.268160e+00    4.176058e-01   5.379315e-03
  3.270370e+00    4.156724e-01   5.366362e-03
  3.272581e+00    4.035586e-01   5.287298e-03
  3.274791e+00    4.161905e-01   5.368905e-03
  3.277002e+00    4.172347e-01   5.375072e-03
  3.279212e+00    4.107465e-01   5.332744e-03
  3.281422e+00    4.197038e-01   5.389991e-03
  3.283633e+00    4.057628e-01   5.299072e-03
  3.285843e+00    4.070235e-01   5.306961e-03
  3.288054e+00    4.054449e-01   5.295728e-03
  3.290264e+00    4.113986e-01   5.334175e-03
  3.292475e+00    4.244292e-01   5.417148e-03
  3.294685e+00    4.264061e-01   5.429117e-03
  3.296896e+00    4.063517e-01   5.299192e-03
  3.299106e+00    4.157456e-01   5.359509e-03
  3.301317e+00    4.128009e-01   5.339501e-03
  3.303527e+00    4.134940e-01   5.343513e-03
  3.305737e+00    4.197489e-01   5.382732e-03
  3.307948e+00    4.121971e-01   5.333450e-03
  3.310158e+00    4.028344e-01   5.271684e-03
  3.312369e+00    4.125864e-01   5.334234e-03
  3.314579e+00    4.160260e-01   5.355509e-03
  3.316790e+00    4.480336e-01   5.557002e-03
  3.319000e+00    4.195115e-01   5.376049e-03
  3.321211e+00    4.203509e-01   5.380794e-03
  3.323421e+00    4.202119e-01   5.378703e-03
  3.325632e+00    4.305184e-01   5.443378e-03
  3.327842e+00    4.154888e-01   5.346610e-03
  3.330052e+00    4.217381e-01   5.385598e-03
  3.332263e+00    4.133683e-01   5.330875e-03
  3.334473e+00    4.311190e-01   5.443223e-03
  3.336684e+00    4.226698e-01   5.388354e-03
  3.338894e+00    4.153694e-01   5.340769e-03
  3.341105e+00    4.221841e-01   5.383184e-03
  3.343315e+00    4.199284e-01   5.367678e-03
  3.345526e+00    4.033512e-01   5.259758e-03
  3.347736e+00    4.221216e-01   5.379340e-03
  3.349947e+00    4.212349e-01   5.372756e-03
  3.352157e+00    4.191888e-01   5.358512e-03
  3.354368e+00    4.253967e-01   5.396755e-03
  3.356578e+00    4.184682e-01   5.351592e-03
  3.358788e+00    4.190115e-01   5.353758e-03
  3.360999e+00    4.192816e-01   5.354210e-03
  3.363209e+00    4.098781e-01   5.292831e-03
  3.365420e+00    4.182089e-01   5.344854e-03
  3.367630e+00    4.008523e-01   5.231749e-03
  3.369841e+00    4.027741e-01   5.242873e-03
  3.372051e+00    4.207357e-01   5.356507e-03
  3.374262e+00    4.092111e-01   5.280247e-03
  3.376472e+00    3.974451e-01   5.201375e-03
  3.378683e+00    4.117282e-01   5.291510e-03
  3.380893e+00    4.130467e-01   5.297665e-03
  3.383103e+00    4.152672e-01   5.309163e-03
  3.385314e+00    4.124120e-01   5.288685e-03
  3.387524e+00    4.046925e-01   5.236244e-03
  3.389735e+00    4.027184e-01   5.220857e-03
  3.391945e+00    4.092695e-01   5.259498e-03
  3.394156e+00    4.090332e-01   5.253775e-03
  3.396366e+00    4.046988e-01   5.222479e-03
  3.398577e+00    4.050634e-01   5.221824e-03
  3.400787e+00    4.001900e-01   5.202072e-03
  3.402998e+00    3.788535e-01   5.098087e-03
  3.405208e+00    3.943815e-01   5.221882e-03
  3.407418e+00    3.845509e-01   5.171853e-03
  3.409629e+00    3.922714e-01   5.237295e-03
  3.411839e+00    3.825043e-01   5.183237e-03
  3.414050e+00    3.963928e-01   5.287472e-03
  3.416260e+00    3.782611e-01   5.174592e-03
  3.418471e+00    3.669601e-01   5.105754e-03
  3.420681e+00    3.852818e-01   5.240092e-03
  3.422892e+00    3.870208e-01   5.259892e-03
  3.425102e+00    3.749881e-01   5.185131e-03
  3.427313e+00    3.750011e-01   5.192284e-03
  3.429523e+00    3.826773e-01   5.252168e-03
  3.431733e+00    3.717935e-01   5.183510e-03
  3.433944e+00    3.782786e-01   5.234932e-03
  3.436154e+00    3.666692e-01   5.160091e-03
  3.438365e+00    3.790935e-01   5.252684e-03
  3.440575e+00    3.851247e-01   5.300272e-03
  3.442786e+00    3.671831e-01   5.180876e-03
  3.444996e+00    3.614704e-01   5.145773e-03
  3.447207e+00    3.634613e-01   5.165167e-03
  3.449417e+00    3.424324e-01   5.052681e-03
  3.451628e+00    3.448720e-01   5.099101e-03
  3.453838e+00    3.643507e-01   5.262204e-03
  3.456049e+00    3.577764e-01   5.238129e-03
  3.458259e+00    3.511611e-01   5.210925e-03
  3.460469e+00    3.768453e-01   5.418176e-03
  3.462680e+00    3.678058e-01   5.371969e-03
  3.464890e+00    3.473274e-01   5.237549e-03
  3.467101e+00    3.681713e-01   5.409917e-03
  3.469311e+00    3.751966e-01   5.477931e-03
  3.471522e+00    3.840332e-01   5.558657e-03
  3.473732e+00    4.019144e-01   5.703053e-03
  3.475943e+00    3.965303e-01   5.680700e-03
  3.478153e+00    3.870732e-01   5.627987e-03
  3.480364e+00    3.972129e-01   5.716414e-03
  3.482574e+00    4.041960e-01   5.781814e-03
  3.484784e+00    4.043645e-01   5.797775e-03
  3.486995e+00    4.137005e-01   5.879361e-03
  3.489205e+00    4.256416e-01   5.978328e-03
  3.491416e+00    4.328314e-01   6.043632e-03
  3.493626e+00    4.253946e-01   6.005939e-03
  3.495837e+00    4.300949e-01   6.053570e-03
  3.498047e+00    4.516092e-01   6.217738e-03
  3.500258e+00    4.433578e-01   6.175132e-03
  3.502468e+00    4.665302e-01   6.349043e-03
  3.504679e+00    4.630955e-01   6.340187e-03
  3.506889e+00    4.563874e-01   6.308376e-03
  3.509099e+00    4.666882e-01   6.393442e-03
  3.511310e+00    4.824516e-01   6.515095e-03
  3.513520e+00    4.903001e-01   6.582416e-03
  3.515731e+00    4.917877e-01   6.606860e-03
  3.517941e+00    4.881319e-01   6.596614e-03
  3.520152e+00    4.889728e-01   6.616481e-03
  3.522362e+00    5.208096e-01   6.843271e-03
  3.524573e+00    5.038837e-01   6.745396e-03
  3.526783e+00    5.186439e-01   6.856943e-03
  3.528994e+00    5.213078e-01   6.886838e-03
  3.531204e+00    5.081497e-01   6.811649e-03
  3.533414e+00    5.188538e-01   6.895011e-03
  3.535625e+00    5.204101e-01   6.917653e-03
  3.537835e+00    5.224981e-01   6.943500e-03
  3.540046e+00    5.402881e-01   7.069673e-03
  3.542256e+00    5.305158e-01   7.013000e-03
  3.544467e+00    5.156949e-01   6.921758e-03
  3.546677e+00    5.371982e-01   7.072207e-03
  3.548888e+00    5.250677e-01   6.999330e-03
  3.551098e+00    5.417886e-01   7.117216e-03
  3.553309e+00    5.320207e-01   7.060903e-03
  3.555519e+00    5.353069e-01   7.093976e-03
  3.557729e+00    5.280651e-01   7.057455e-03
  3.559940e+00    5.408028e-01   7.153674e-03
  3.562150e+00    5.350912e-01   7.127481e-03
  3.564361e+00    5.315929e-01   7.117432e-03
  3.566571e+00    5.450733e-01   7.221022e-03
  3.568782e+00    5.394295e-01   7.197737e-03
  3.570992e+00    5.445499e-01   7.245657e-03
  3.573203e+00    5.433351e-01   7.251831e-03
  3.575413e+00    5.377034e-01   7.227947e-03
  3.577624e+00    5.295020e-01   7.186637e-03
  3.579834e+00    5.488406e-01   7.330744e-03
  3.582045e+00    5.454265e-01   7.322081e-03
  3.584255e+00    5.333858e-01   7.254830e-03
  3.586465e+00    5.140305e-01   7.135622e-03
  3.588676e+00    5.343856e-01   7.289663e-03
  3.590886e+00    5.331264e-01   7.294788e-03
  3.593097e+00    5.400640e-01   7.356639e-03
  3.595307e+00    5.308280e-01   7.307361e-03
  3.597518e+00    5.194994e-01   7.242931e-03
  3.599728e+00    5.172370e-01   7.241004e-03
  3.601939e+00    5.187684e-01   7.265540e-03
  3.604149e+00    5.363430e-01   7.402016e-03
  3.606360e+00    5.465025e-01   7.486091e-03
  3.608570e+00    5.078045e-01   7.229966e-03
  3.610780e+00    5.262384e-01   7.371001e-03
  3.612991e+00    5.181470e-01   7.323964e-03
  3.615201e+00    5.311751e-01   7.425200e-03
  3.617412e+00    5.536374e-01   7.588008e-03
  3.619622e+00    5.225336e-01   7.377678e-03
  3.621833e+00    5.362780e-01   7.480762e-03
  3.624043e+00    5.484144e-01   7.574577e-03
  3.626254e+00    5.333667e-01   7.479652e-03
  3.628464e+00    5.436645e-01   7.562552e-03
  3.630675e+00    5.233901e-01   7.434222e-03
  3.632885e+00    5.153481e-01   7.391059e-03
  3.635095e+00    5.332225e-01   7.532507e-03
  3.637306e+00    5.182983e-01   7.440562e-03
  3.639516e+00    5.139301e-01   7.423350e-03
  3.641727e+00    5.309837e-01   7.560069e-03
  3.643937e+00    5.356202e-01   7.607594e-03
  3.646148e+00    5.264787e-01   7.556896e-03
  3.648358e+00    5.367218e-01   7.644978e-03
  3.650569e+00    5.324301e-01   7.629094e-03
  3.652779e+00    5.123624e-01   7.498402e-03
  3.654990e+00    5.063936e-01   7.469126e-03
  3.657200e+00    5.239756e-01   7.612423e-03
  3.659410e+00    5.480197e-01   7.800350e-03
  3.661621e+00    5.154161e-01   7.579650e-03
  3.663831e+00    5.216123e-01   7.639995e-03
  3.666042e+00    5.446829e-01   7.822510e-03
  3.668252e+00    5.168258e-01   7.634884e-03
  3.670463e+00    5.201870e-01   7.674721e-03
  3.672673e+00    5.375358e-01   7.817178e-03
  3.674884e+00    5.268719e-01   7.754564e-03
  3.677094e+00    5.292541e-01   7.787644e-03
  3.679305e+00    5.080977e-01   7.645595e-03
  3.681515e+00    4.956695e-01   7.566590e-03
  3.683726e+00    5.333273e-01   7.864617e-03
  3.685936e+00    5.244197e-01   7.814303e-03
  3.688146e+00    5.254635e-01   7.837852e-03
  3.690357e+00    5.114625e-01   7.748386e-03
  3.692567e+00    5.140170e-01   7.783650e-03
  3.694778e+00    5.124539e-01   7.787609e-03
  3.696988e+00    5.354865e-01   7.976861e-03
  3.699199e+00    5.144040e-01   7.834304e-03
  3.701409e+00    5.218125e-01   7.906845e-03
  3.703620e+00    5.243180e-01   7.942105e-03
  3.705830e+00    5.394590e-01   8.072602e-03
  3.708041e+00    5.072748e-01   7.844461e-03
  3.710251e+00    5.116324e-01   7.894533e-03
  3.712461e+00    5.130154e-01   7.921810e-03
  3.714672e+00    5.120401e-01   7.930875e-03
  3.716882e+00    5.163264e-01   7.980590e-03
  3.719093e+00    5.229216e-01   8.048600e-03
  3.721303e+00    5.261092e-01   8.090132e-03
  3.723514e+00    5.274296e-01   8.117750e-03
  3.725724e+00    4.988702e-01   7.911694e-03
  3.727935e+00    5.030329e-01   7.961843e-03
  3.730145e+00    5.117756e-01   8.047952e-03
  3.732356e+00    5.105934e-01   8.056129e-03
  3.734566e+00    5.146659e-01   8.105718e-03
  3.736776e+00    5.002767e-01   8.009089e-03
  3.738987e+00    5.394704e-01   8.335052e-03
  3.741197e+00    5.164112e-01   8.173100e-03
  3.743408e+00    5.041980e-01   8.093734e-03
  3.745618e+00    5.009784e-01   8.085934e-03
  3.747829e+00    5.058456e-01   8.143123e-03
  3.750039e+00    5.164468e-01   8.246439e-03
  3.752250e+00    5.373566e-01   8.430704e-03
  3.754460e+00    5.017878e-01   8.165290e-03
  3.756671e+00    5.112995e-01   8.261153e-03
  3.758881e+00    4.957764e-01   8.153191e-03
  3.761091e+00    4.997274e-01   8.204564e-03
  3.763302e+00    5.186788e-01   8.377958e-03
  3.765512e+00    5.054512e-01   8.289670e-03
  3.767723e+00    5.124865e-01   8.366599e-03
  3.769933e+00    5.258105e-01   8.494387e-03
  3.772144e+00    5.163130e-01   8.437101e-03
  3.774354e+00    5.142623e-01   8.440328e-03
  3.776565e+00    4.913490e-01   8.269743e-03
  3.778775e+00    4.972907e-01   8.339386e-03
  3.780986e+00    5.083808e-01   8.452243e-03
  3.783196e+00    4.929567e-01   8.343096e-03
  3.785407e+00    4.988384e-01   8.413048e-03
  3.787617e+00    4.889961e-01   8.350120e-03
  3.789827e+00    4.842191e-01   8.329367e-03
  3.792038e+00    5.022215e-01   8.503664e-03
  3.794248e+00    5.009019e-01   8.513617e-03
  3.796459e+00    5.020022e-01   8.544326e-03
  3.798669e+00    4.817313e-01   8.391025e-03
  3.800880e+00    5.109922e-01   8.663739e-03
  3.803090e+00    5.212138e-01   8.772263e-03
  3.805301e+00    5.136894e-01   8.731100e-03
  3.807511e+00    5.040531e-01   8.670929e-03
  3.809722e+00    4.938651e-01   8.604954e-03
  3.811932e+00    4.893421e-01   8.587421e-03
  3.814142e+00    4.892413e-01   8.609190e-03
  3.816353e+00    5.167764e-01   8.871407e-03
  3.818563e+00    5.093601e-01   8.830847e-03
  3.820774e+00    4.949367e-01   8.728032e-03
  3.822984e+00    4.807122e-01   8.624631e-03
  3.825195e+00    4.823638e-01   8.662824e-03
  3.827405e+00    4.751121e-01   8.620780e-03
  3.829616e+00    4.868703e-01   8.750561e-03
  3.831826e+00    5.012432e-01   8.903076e-03
  3.834037e+00    5.073316e-01   8.981760e-03
  3.836247e+00    5.049806e-01   8.985787e-03
  3.838457e+00    4.855030e-01   8.835558e-03
  3.840668e+00    4.799385e-01   8.809543e-03
  3.842878e+00    5.115240e-01   9.120713e-03
  3.845089e+00    5.169014e-01   9.194671e-03
  3.847299e+00    5.045219e-01   9.109914e-03
  3.849510e+00    5.059318e-01   9.148748e-03
  3.851720e+00    5.039594e-01   9.152515e-03
  3.853931e+00    5.067888e-01   9.197425e-03
  3.856141e+00    4.752037e-01   8.924803e-03
  3.858352e+00    5.064156e-01   9.232728e-03
  3.860562e+00    4.904594e-01   9.105382e-03
  3.862772e+00    4.971207e-01   9.186604e-03
  3.864983e+00    5.115564e-01   9.339072e-03
  3.867193e+00    4.971935e-01   9.226913e-03
  3.869404e+00    4.736026e-01   9.024728e-03
  3.871614e+00    4.873652e-01   9.174788e-03
  3.873825e+00    4.849362e-01   9.172022e-03
  3.876035e+00    4.677153e-01   9.027764e-03
  3.878246e+00    4.832278e-01   9.201725e-03
  3.880456e+00    4.889483e-01   9.284937e-03
  3.882667e+00    5.018979e-01   9.436783e-03
  3.884877e+00    4.821426e-01   9.278609e-03
  3.887087e+00    4.795274e-01   9.282912e-03
  3.889298e+00    4.965608e-01   9.476968e-03
  3.891508e+00    4.738311e-01   9.287525e-03
  3.893719e+00    4.517798e-01   9.098548e-03
  3.895929e+00    4.517775e-01   9.128659e-03
  3.898140e+00    4.686122e-01   9.328177e-03
  3.900350e+00    4.703981e-01   9.377379e-03
  3.902561e+00    5.081883e-01   9.779734e-03
  3.904771e+00    4.941458e-01   9.676685e-03
  3.906982e+00    4.732605e-01   9.502529e-03
  3.909192e+00    4.787696e-01   9.590854e-03
  3.911403e+00    4.741548e-01   9.578007e-03
  3.913613e+00    4.894622e-01   9.765609e-03
  3.915823e+00    4.975625e-01   9.881238e-03
  3.918034e+00    4.989329e-01   9.930489e-03
  3.920244e+00    5.182215e-01   1.015740e-02
  3.922455e+00    5.178781e-01   1.019132e-02
  3.924665e+00    4.671369e-01   9.714738e-03
  3.926876e+00    4.933333e-01   1.002074e-02
  3.929086e+00    4.933998e-01   1.005897e-02
  3.931297e+00    4.942726e-01   1.010293e-02
  3.933507e+00    4.882256e-01   1.006990e-02
  3.935718e+00    4.839812e-01   1.005475e-02
  3.937928e+00    4.546160e-01   9.773287e-03
  3.940138e+00    4.440207e-01   9.686773e-03
  3.942349e+00    4.703035e-01   9.998619e-03
  3.944559e+00    4.868201e-01   1.020279e-02
  3.946770e+00    4.930146e-01   1.029776e-02
  3.948980e+00    4.825843e-01   1.021891e-02
  3.951191e+00    4.501903e-01   9.899615e-03
  3.953401e+00    4.999399e-01   1.046405e-02
  3.955612e+00    4.767540e-01   1.024993e-02
  3.957822e+00    4.773918e-01   1.028808e-02
  3.960033e+00    4.850683e-01   1.040303e-02
  3.962243e+00    4.842675e-01   1.042743e-02
  3.964453e+00    4.651738e-01   1.025203e-02
  3.966664e+00    4.577816e-01   1.020279e-02
  3.968874e+00    4.705439e-01   1.037190e-02
  3.971085e+00    4.473673e-01   1.013434e-02
  3.973295e+00    4.690919e-01   1.039849e-02
  3.975506e+00    4.847176e-01   1.059199e-02
  3.977716e+00    4.825651e-01   1.059024e-02
  3.979927e+00    4.828996e-01   1.061607e-02
  3.982137e+00    4.841188e-01   1.065170e-02
  3.984348e+00    4.598541e-01   1.040334e-02
  3.986558e+00    4.904000e-01   1.076568e-02
  3.988768e+00    4.551575e-01   1.039394e-02
  3.990979e+00    4.614121e-01   1.048731e-02
  3.993189e+00    4.582697e-01   1.047394e-02
  3.995400e+00    4.519636e-01   1.042438e-02
  3.997610e+00    4.741578e-01   1.070668e-02
  3.999821e+00    4.885336e-01   1.090548e-02
  4.002031e+00    4.939301e-01   1.100427e-02
  4.004242e+00    4.739538e-01   1.081756e-02
  4.006452e+00    5.138459e-01   1.130411e-02
  4.008663e+00    4.670603e-01   1.081654e-02
  4.010873e+00    4.464073e-01   1.061302e-02
  4.013084e+00    4.650642e-01   1.087266e-02
  4.015294e+00    4.545157e-01   1.078820e-02
  4.017504e+00    4.888268e-01   1.123017e-02
  4.019715e+00    4.612065e-01   1.094977e-02
  4.021925e+00    4.809846e-01   1.122488e-02
  4.024136e+00    4.735939e-01   1.118159e-02
  4.026346e+00    4.730562e-01   1.121883e-02
  4.028557e+00    4.339112e-01   1.078663e-02
  4.030767e+00    4.234657e-01   1.069868e-02
  4.032978e+00    4.475874e-01   1.104372e-02
  4.035188e+00    4.602459e-01   1.124378e-02
  4.037399e+00    4.475951e-01   1.113401e-02
  4.039609e+00    4.687697e-01   1.144132e-02
  4.041819e+00    4.791547e-01   1.161597e-02
  4.044030e+00    4.992877e-01   1.190808e-02
  4.046240e+00    4.680389e-01   1.157870e-02
  4.048451e+00    4.751807e-01   1.171696e-02
  4.050661e+00    4.902880e-01   1.195384e-02
  4.052872e+00    4.913870e-01   1.202026e-02
  4.055082e+00    5.024649e-01   1.220968e-02
  4.057293e+00    4.929245e-01   1.214755e-02
  4.059503e+00    4.702995e-01   1.191943e-02
  4.061714e+00    4.990764e-01   1.233617e-02
  4.063924e+00    4.601134e-01   1.190031e-02
  4.066134e+00    4.848102e-01   1.227297e-02
  4.068345e+00    5.089823e-01   1.263586e-02
  4.070555e+00    4.592058e-01   1.205997e-02
  4.072766e+00    4.972784e-01   1.261169e-02
  4.074976e+00    4.800842e-01   1.245369e-02
  4.077187e+00    4.909823e-01   1.265670e-02
  4.079397e+00    5.086843e-01   1.294878e-02
  4.081608e+00    4.344590e-01   1.202893e-02
  4.083818e+00    4.822384e-01   1.273908e-02
  4.086029e+00    5.337034e-01   1.347218e-02
  4.088239e+00    4.955694e-01   1.305213e-02
  4.090449e+00    4.879911e-01   1.302197e-02
  4.092660e+00    4.674487e-01   1.281509e-02
  4.094870e+00    4.879957e-01   1.316655e-02
  4.097081e+00    5.046089e-01   1.346199e-02
  4.099291e+00    5.085766e-01   1.357104e-02
  4.101502e+00    4.131379e-01   1.227722e-02
  4.103712e+00    4.223266e-01   1.245904e-02
  4.105923e+00    4.522427e-01   1.294258e-02
  4.108133e+00    4.915655e-01   1.354572e-02
  4.110344e+00    4.850517e-01   1.350720e-02
  4.112554e+00    4.482168e-01   1.303547e-02
  4.114764e+00    4.459137e-01   1.305424e-02
  4.116975e+00    4.544208e-01   1.322987e-02
  4.119185e+00    5.279221e-01   1.431782e-02
  4.121396e+00    4.851241e-01   1.378192e-02
  4.123606e+00    4.718091e-01   1.364716e-02
  4.125817e+00    4.676808e-01   1.364431e-02
  4.128027e+00    4.626718e-01   1.362812e-02
  4.130238e+00    4.749275e-01   1.386686e-02
  4.132448e+00    4.233360e-01   1.314868e-02
  4.134659e+00    4.625314e-01   1.380286e-02
  4.136869e+00    5.010991e-01   1.443109e-02
  4.139080e+00    4.942913e-01   1.439745e-02
  4.141290e+00    4.720465e-01   1.413185e-02
  4.143500e+00    5.223450e-01   1.493441e-02
  4.145711e+00    4.861634e-01   1.447523e-02
  4.147921e+00    4.586892e-01   1.412467e-02
  4.150132e+00    4.844940e-01   1.458597e-02
  4.152342e+00    4.760674e-01   1.452839e-02
  4.154553e+00    4.898796e-01   1.480790e-02
  4.156763e+00    4.985268e-01   1.501184e-02
  4.158974e+00    4.894161e-01   1.494901e-02
  4.161184e+00    4.573263e-01   1.452206e-02
  4.163395e+00    4.939752e-01   1.516988e-02
  4.165605e+00    5.258192e-01   1.573243e-02
  4.167815e+00    5.084151e-01   1.555091e-02
  4.170026e+00    4.775589e-01   1.515089e-02
  4.172236e+00    5.055225e-01   1.567225e-02
  4.174447e+00    5.147937e-01   1.590148e-02
  4.176657e+00    5.035350e-01   1.581277e-02
  4.178868e+00    4.809389e-01   1.554126e-02
  4.181078e+00    4.755507e-01   1.554106e-02
  4.183289e+00    4.920532e-01   1.589872e-02
  4.185499e+00    4.780447e-01   1.576335e-02
  4.187710e+00    4.946219e-01   1.612825e-02
  4.189920e+00    4.599021e-01   1.564568e-02
  4.192130e+00    4.679660e-01   1.587851e-02
  4.194341e+00    4.302727e-01   1.531897e-02
  4.196551e+00    4.950861e-01   1.653644e-02
  4.198762e+00    4.866314e-01   1.649864e-02
  4.200972e+00    4.842899e-01   1.656537e-02
  4.203183e+00    4.619157e-01   1.628496e-02
  4.205393e+00    4.379206e-01   1.596189e-02
  4.207604e+00    4.843908e-01   1.690209e-02
  4.209814e+00    5.118912e-01   1.749408e-02
  4.212025e+00    4.268835e-01   1.608902e-02
  4.214235e+00    4.797796e-01   1.717766e-02
  4.216445e+00    4.022615e-01   1.584231e-02
  4.218656e+00    4.724701e-01   1.729831e-02
  4.220866e+00    4.763182e-01   1.749693e-02
  4.223077e+00    5.224941e-01   1.846668e-02
  4.225287e+00    4.955992e-01   1.812626e-02
  4.227498e+00    5.000449e-01   1.835048e-02
  4.229708e+00    4.461324e-01   1.747397e-02
  4.231919e+00    4.857260e-01   1.838343e-02
  4.234129e+00    5.453943e-01   1.964342e-02
  4.236340e+00    4.261879e-01   1.751342e-02
  4.238550e+00    4.264307e-01   1.767291e-02
  4.240761e+00    3.796776e-01   1.682304e-02
  4.242971e+00    4.932143e-01   1.934972e-02
  4.245181e+00    4.439740e-01   1.853091e-02
  4.247392e+00    3.974138e-01   1.769658e-02
  4.249602e+00    4.343121e-01   1.868308e-02
  4.251813e+00    4.897132e-01   2.003485e-02
  4.254023e+00    4.283026e-01   1.892513e-02
  4.256234e+00    4.382677e-01   1.934865e-02
  4.258444e+00    4.740542e-01   2.033387e-02
  4.260655e+00    4.963481e-01   2.103504e-02
  4.262865e+00    5.176798e-01   2.172608e-02
  4.265076e+00    4.184725e-01   1.975591e-02
  4.267286e+00    4.769193e-01   2.134056e-02
  4.269496e+00    4.122162e-01   2.008228e-02
  4.271707e+00    4.184346e-01   2.048339e-02
  4.273917e+00    4.314816e-01   2.106837e-02
  4.276128e+00    4.814356e-01   2.255077e-02
  4.278338e+00    5.280955e-01   2.393403e-02
  4.280549e+00    4.187427e-01   2.161749e-02
  4.282759e+00    4.562167e-01   2.288867e-02
  4.284970e+00    4.872630e-01   2.400454e-02
  4.287180e+00    4.467409e-01   2.326055e-02
  4.289391e+00    4.437123e-01   2.335556e-02
  4.291601e+00    4.725829e-01   2.429581e-02
  4.293811e+00    3.973162e-01   2.245093e-02
  4.296022e+00    5.090076e-01   2.561629e-02
  4.298232e+00    5.251521e-01   2.623669e-02
  4.300443e+00    4.620040e-01   2.481234e-02
  4.302653e+00    4.298508e-01   2.413979e-02
  4.304864e+00    5.142574e-01   2.663327e-02
  4.307074e+00    4.251536e-01   2.443347e-02
  4.309285e+00    5.026221e-01   2.680820e-02
  4.311495e+00    3.973258e-01   2.405807e-02
  4.313706e+00    3.949242e-01   2.421048e-02
  4.315916e+00    4.281899e-01   2.545699e-02
  4.318126e+00    5.141574e-01   2.817287e-02
  4.320337e+00    4.090427e-01   2.538227e-02
  4.322547e+00    4.284009e-01   2.625131e-02
  4.324758e+00    4.479228e-01   2.712187e-02
  4.326968e+00    5.360586e-01   3.000442e-02
  4.329179e+00    5.076990e-01   2.952280e-02
  4.331389e+00    4.910048e-01   2.936727e-02
  4.333600e+00    4.561359e-01   2.864329e-02
  4.335810e+00    4.815977e-01   2.978219e-02
  4.338021e+00    5.224758e-01   3.141700e-02
  4.340231e+00    5.353776e-01   3.220221e-02
  4.342442e+00    4.275330e-01   2.916275e-02
  4.344652e+00    5.380839e-01   3.316027e-02
  4.346862e+00    4.855942e-01   3.194280e-02
  4.349073e+00    6.749528e-01   3.820765e-02
  4.351283e+00    4.936565e-01   3.316524e-02
  4.353494e+00    4.532746e-01   3.226940e-02
  4.355704e+00    4.398173e-01   3.229837e-02
  4.357915e+00    3.875617e-01   3.082283e-02
  4.360125e+00    4.944415e-01   3.541059e-02
  4.362336e+00    4.703836e-01   3.516633e-02
  4.364546e+00    4.024651e-01   3.312242e-02
  4.366757e+00    3.896793e-01   3.324002e-02
  4.368967e+00    3.638958e-01   3.276119e-02
  4.371177e+00    4.075795e-01   3.540980e-02
  4.373388e+00    4.353884e-01   3.741575e-02
  4.375598e+00    3.959728e-01   3.649642e-02
  4.377809e+00    3.425151e-01   3.480221e-02
  4.380019e+00    4.205530e-01   3.953390e-02
  4.382230e+00    2.200902e-01   2.939696e-02
  4.384440e+00    1.843005e-01   2.767169e-02
  4.386651e+00    5.054884e-01   4.724657e-02
  4.388861e+00    5.941081e-01   5.293942e-02
  4.391072e+00    5.270774e-01   5.162063e-02
  4.393282e+00    3.717843e-01   4.502409e-02
  4.395492e+00    3.601729e-01   4.616249e-02
  4.397703e+00    3.794392e-01   4.953930e-02
  4.399913e+00    3.945012e-01   5.307834e-02
  4.402124e+00    3.570342e-01   5.334976e-02
  4.404334e+00    3.758520e-01   5.819177e-02
  4.406545e+00    3.360084e-01   5.911171e-02
  4.408755e+00    3.727838e-01   6.752448e-02
  4.410966e+00    3.385612e-01   7.122795e-02
  4.413176e+00    2.829823e-01   7.370606e-02
  4.415387e+00   -4.714079e-01            nan
  4.417597e+00   -2.013521e+00            nan
  4.419807e+00    2.807437e-01   1.902519e-01
