# == pyFAI calibration ==
# Distance Sample to Detector: 0.216 m
# PONI: 1.166e-01, 1.308e-01 m
# Rotations: 0.000000 0.000000 0.000000 rad
# 
# == Fit2d calibration ==
# Distance Sample-beamCenter: 216.000 mm
# Center: x=1744.293, y=1555.000 pix
# Tilt: 0.000 deg  TiltPlanRot: 0.000 deg
# 
# Detector Eiger 9M	 PixelSize= 7.500e-05, 7.500e-05 m
#    Detector has a mask: True 
#    Detector has a dark current: False 
#    detector has a flat field: False 
# 
# Wavelength: 9.8e-11 m
# Mask applied: from detector
# Dark current applied: False
# Flat field applied: False
# Polarization factor: None
# Normalization factor: 1.0
# 
# Headers of the input frame:
# {
# "_array_data.header_convention": "SLS_1.0",
# "_array_data.header_contents": "# Detector: Dectris Eiger 9M, S/N E-18-0102\r\n# Pixel_size 75e-6 m x 75e-6 m\r\n# Silicon sensor, thickness 0.000450 m\r\n# Exposure_time 0.024997 s\r\n# Exposure_period 0.025000 s\r\n# Count_cutoff 62318 counts\r\n# Wavelength 0.980106 A\r\n# Detector_distance 0.215992 m\r\n# Beam_xy (1555, 1744) pixels\r\n# Start_angle 0.000000 deg.\r\n# Angle_increment 0.000000 deg.",
# "Content-Type": "application/octet-stream;",
# "conversions": "x-CBF_BYTE_OFFSET",
# "Content-Transfer-Encoding": "BINARY",
# "X-Binary-Size": "10166594",
# "X-Binary-ID": "1",
# "X-Binary-Element-Type": "signed 32-bit integer",
# "X-Binary-Element-Byte-Order": "LITTLE_ENDIAN",
# "Content-MD5": "DxNX5E4kscHCTbJVtHUP3Q==",
# "X-Binary-Number-of-Elements": "10166590",
# "X-Binary-Size-Fastest-Dimension": "3110",
# "X-Binary-Size-Second-Dimension": "3269",
# "X-Binary-Size-Padding": "4095"
# }
# --> H:/Proxima2a_2019-04-05/RAW_DATA/C5_gel17_position5/C5_mesh_1_data.cbf/C5_mesh_1_data.cbf000034.dat
#        q_A^-1              I           sigma 
  1.105228e-03    1.421861e+00   6.452315e-01
  3.315685e-03    1.275508e+00   3.715241e-01
  5.526141e-03    1.437735e+00   3.050082e-01
  7.736597e-03    1.543978e+00   2.670180e-01
  9.947054e-03    1.430089e+00   2.265469e-01
  1.215751e-02    1.142219e+00   1.830810e-01
  1.436797e-02    1.261409e+00   1.769717e-01
  1.657842e-02    1.654522e+00   1.886604e-01
  1.878888e-02    1.672637e+00   1.781822e-01
  2.099934e-02    1.392669e+00   1.538247e-01
  2.320979e-02    1.299943e+00   1.413497e-01
  2.542025e-02    1.355686e+00   1.379396e-01
  2.763070e-02    1.286724e+00   1.288941e-01
  2.984116e-02    1.379477e+00   1.284203e-01
  3.205162e-02    1.395764e+00   1.246500e-01
  3.426207e-02    1.338722e+00   1.180647e-01
  3.647253e-02    1.378917e+00   1.161338e-01
  3.868299e-02    1.450142e+00   1.156514e-01
  4.089344e-02    1.381718e+00   1.097970e-01
  4.310390e-02    1.438264e+00   1.091046e-01
  4.531436e-02    1.404845e+00   1.051671e-01
  4.752481e-02    1.355856e+00   1.008848e-01
  4.973527e-02    1.388189e+00   9.978750e-02
  5.194572e-02    1.386063e+00   9.756508e-02
  5.415618e-02    1.460007e+00   9.806552e-02
  5.636664e-02    1.322882e+00   9.150098e-02
  5.857709e-02    1.379213e+00   9.164951e-02
  6.078755e-02    1.586915e+00   9.650152e-02
  6.299801e-02    1.498808e+00   9.212330e-02
  6.520846e-02    1.440149e+00   8.875940e-02
  6.741892e-02    1.435482e+00   8.714625e-02
  6.962938e-02    1.480829e+00   8.710014e-02
  7.183983e-02    1.487661e+00   8.594568e-02
  7.405029e-02    1.412208e+00   8.247654e-02
  7.626074e-02    1.514135e+00   8.415359e-02
  7.847120e-02    1.505026e+00   8.270770e-02
  8.068166e-02    1.443018e+00   7.986826e-02
  8.289211e-02    1.405465e+00   7.776365e-02
  8.510257e-02    1.451915e+00   7.800455e-02
  8.731303e-02    1.496585e+00   7.818355e-02
  8.952348e-02    1.600377e+00   7.984702e-02
  9.173394e-02    1.564743e+00   7.799297e-02
  9.394439e-02    1.455705e+00   7.433373e-02
  9.615485e-02    1.518254e+00   7.503466e-02
  9.836531e-02    1.487475e+00   7.342894e-02
  1.005758e-01    1.477915e+00   7.238425e-02
  1.027862e-01    1.556356e+00   7.347547e-02
  1.049967e-01    1.539819e+00   7.230942e-02
  1.072071e-01    1.553663e+00   7.188019e-02
  1.094176e-01    1.506099e+00   7.005177e-02
  1.116280e-01    1.590013e+00   7.125905e-02
  1.138385e-01    1.511391e+00   6.879577e-02
  1.160490e-01    1.431782e+00   6.631786e-02
  1.182594e-01    1.529368e+00   6.789555e-02
  1.204699e-01    1.596573e+00   6.873138e-02
  1.226803e-01    1.630582e+00   6.882809e-02
  1.248908e-01    1.622617e+00   6.804865e-02
  1.271012e-01    1.656905e+00   6.816196e-02
  1.293117e-01    1.530937e+00   6.495648e-02
  1.315222e-01    1.633798e+00   6.653533e-02
  1.337326e-01    1.614013e+00   6.558117e-02
  1.359431e-01    1.625357e+00   6.584977e-02
  1.381535e-01    1.577331e+00   6.574035e-02
  1.403640e-01    1.578400e+00   6.604657e-02
  1.425744e-01    1.608437e+00   6.677853e-02
  1.447849e-01    1.666339e+00   6.798553e-02
  1.469953e-01    1.687293e+00   6.836883e-02
  1.492058e-01    1.572383e+00   6.592302e-02
  1.514163e-01    1.568904e+00   6.574070e-02
  1.536267e-01    1.567937e+00   6.559211e-02
  1.558372e-01    1.616430e+00   6.645166e-02
  1.580476e-01    1.670116e+00   6.738228e-02
  1.602581e-01    1.675120e+00   6.731176e-02
  1.624685e-01    1.696063e+00   6.754580e-02
  1.646790e-01    1.612940e+00   6.568068e-02
  1.668895e-01    1.645321e+00   6.614511e-02
  1.690999e-01    1.745605e+00   6.792649e-02
  1.713104e-01    1.822005e+00   6.918170e-02
  1.735208e-01    1.882452e+00   7.010122e-02
  1.757313e-01    1.855698e+00   6.938320e-02
  1.779417e-01    1.789512e+00   6.791241e-02
  1.801522e-01    1.806671e+00   6.801989e-02
  1.823626e-01    1.900814e+00   6.953733e-02
  1.845731e-01    1.936754e+00   6.996428e-02
  1.867836e-01    2.003668e+00   7.092248e-02
  1.889940e-01    1.902138e+00   6.887645e-02
  1.912045e-01    1.870148e+00   6.806671e-02
  1.934149e-01    2.040994e+00   7.086989e-02
  1.956254e-01    2.017952e+00   7.023630e-02
  1.978358e-01    2.018192e+00   6.999975e-02
  2.000463e-01    1.962810e+00   6.880388e-02
  2.022568e-01    2.047620e+00   7.004393e-02
  2.044672e-01    2.077070e+00   7.030419e-02
  2.066777e-01    2.001224e+00   6.877961e-02
  2.088881e-01    1.965919e+00   6.794715e-02
  2.110986e-01    2.058416e+00   6.928883e-02
  2.133090e-01    1.901353e+00   6.637646e-02
  2.155195e-01    1.992972e+00   6.773140e-02
  2.177300e-01    2.028638e+00   6.779795e-02
  2.199404e-01    2.057709e+00   6.648277e-02
  2.221509e-01    2.047657e+00   6.523119e-02
  2.243613e-01    1.949584e+00   6.284298e-02
  2.265718e-01    1.996559e+00   6.289461e-02
  2.287822e-01    1.979581e+00   6.200674e-02
  2.309927e-01    2.119616e+00   6.357796e-02
  2.332031e-01    2.118925e+00   6.302351e-02
  2.354136e-01    2.144422e+00   6.288771e-02
  2.376241e-01    2.065118e+00   6.123490e-02
  2.398345e-01    2.148208e+00   6.199242e-02
  2.420450e-01    2.139823e+00   6.142915e-02
  2.442554e-01    2.144284e+00   6.106950e-02
  2.464659e-01    2.227023e+00   6.181872e-02
  2.486763e-01    2.166955e+00   6.057850e-02
  2.508868e-01    2.184353e+00   6.043751e-02
  2.530973e-01    2.099306e+00   5.888195e-02
  2.553077e-01    2.084301e+00   5.831525e-02
  2.575182e-01    2.039349e+00   5.734168e-02
  2.597286e-01    2.100620e+00   5.785842e-02
  2.619391e-01    2.074741e+00   5.716987e-02
  2.641495e-01    2.059974e+00   5.665077e-02
  2.663600e-01    1.985457e+00   5.531085e-02
  2.685704e-01    2.014361e+00   5.540999e-02
  2.707809e-01    2.035878e+00   5.540946e-02
  2.729914e-01    2.097610e+00   5.595014e-02
  2.752018e-01    2.154028e+00   5.640248e-02
  2.774123e-01    2.058681e+00   5.485840e-02
  2.796227e-01    1.982962e+00   5.357376e-02
  2.818332e-01    1.985318e+00   5.333814e-02
  2.840436e-01    2.018155e+00   5.351678e-02
  2.862541e-01    1.981051e+00   5.276765e-02
  2.884646e-01    1.965988e+00   5.231719e-02
  2.906750e-01    1.951600e+00   5.187824e-02
  2.928855e-01    1.993268e+00   5.218619e-02
  2.950959e-01    2.008882e+00   5.214955e-02
  2.973064e-01    2.013428e+00   5.197388e-02
  2.995168e-01    1.977998e+00   5.128124e-02
  3.017273e-01    1.956817e+00   5.078105e-02
  3.039377e-01    1.939852e+00   5.033905e-02
  3.061482e-01    2.019876e+00   5.114466e-02
  3.083587e-01    1.986413e+00   5.049972e-02
  3.105691e-01    1.919378e+00   4.942827e-02
  3.127796e-01    1.911364e+00   4.911759e-02
  3.149900e-01    1.939402e+00   4.927039e-02
  3.172005e-01    1.904426e+00   4.862445e-02
  3.194109e-01    1.892547e+00   4.827245e-02
  3.216214e-01    1.853532e+00   4.757737e-02
  3.238319e-01    1.904057e+00   4.803040e-02
  3.260423e-01    1.895066e+00   4.772601e-02
  3.282528e-01    1.891546e+00   4.749184e-02
  3.304632e-01    1.878516e+00   4.714464e-02
  3.326737e-01    1.862553e+00   4.676075e-02
  3.348841e-01    1.844087e+00   4.634794e-02
  3.370946e-01    1.874052e+00   4.654717e-02
  3.393050e-01    1.854888e+00   4.613318e-02
  3.415155e-01    1.825762e+00   4.559744e-02
  3.437260e-01    1.835472e+00   4.554908e-02
  3.459364e-01    1.869415e+00   4.579828e-02
  3.481469e-01    1.823565e+00   4.506805e-02
  3.503573e-01    1.805693e+00   4.468328e-02
  3.525678e-01    1.887779e+00   4.552481e-02
  3.547782e-01    1.850998e+00   4.491621e-02
  3.569887e-01    1.863933e+00   4.491317e-02
  3.591992e-01    1.848001e+00   4.456258e-02
  3.614096e-01    1.808871e+00   4.393539e-02
  3.636201e-01    1.822819e+00   4.394948e-02
  3.658305e-01    1.822019e+00   4.378995e-02
  3.680410e-01    1.855171e+00   4.403454e-02
  3.702514e-01    1.874249e+00   4.411155e-02
  3.724619e-01    1.784481e+00   4.289566e-02
  3.746724e-01    1.762870e+00   4.249285e-02
  3.768828e-01    1.773276e+00   4.247468e-02
  3.790933e-01    1.748745e+00   4.204242e-02
  3.813037e-01    1.771160e+00   4.217257e-02
  3.835142e-01    1.798008e+00   4.235144e-02
  3.857246e-01    1.846876e+00   4.278421e-02
  3.879351e-01    1.771902e+00   4.177116e-02
  3.901455e-01    1.814009e+00   4.213000e-02
  3.923560e-01    1.830763e+00   4.218960e-02
  3.945665e-01    1.861662e+00   4.240923e-02
  3.967769e-01    1.788115e+00   4.143292e-02
  3.989874e-01    1.739931e+00   4.074324e-02
  4.011978e-01    1.738445e+00   4.060059e-02
  4.034083e-01    1.727978e+00   4.035391e-02
  4.056187e-01    1.752556e+00   4.051469e-02
  4.078292e-01    1.785177e+00   4.076628e-02
  4.100397e-01    1.788182e+00   4.067598e-02
  4.122501e-01    1.770890e+00   4.035776e-02
  4.144606e-01    1.816515e+00   4.075310e-02
  4.166710e-01    1.826627e+00   4.074487e-02
  4.188815e-01    1.773258e+00   4.002665e-02
  4.210919e-01    1.794216e+00   4.014450e-02
  4.233024e-01    1.774848e+00   3.980980e-02
  4.255128e-01    1.803261e+00   4.001119e-02
  4.277233e-01    1.780315e+00   3.964159e-02
  4.299338e-01    1.785650e+00   3.958669e-02
  4.321442e-01    1.787483e+00   3.949368e-02
  4.343547e-01    1.789318e+00   3.940221e-02
  4.365651e-01    1.742113e+00   3.876854e-02
  4.387756e-01    1.750049e+00   3.874792e-02
  4.409860e-01    1.771472e+00   3.887637e-02
  4.431965e-01    1.767551e+00   3.872594e-02
  4.454070e-01    1.727814e+00   3.818165e-02
  4.476174e-01    1.731180e+00   3.811387e-02
  4.498279e-01    1.783616e+00   3.858153e-02
  4.520383e-01    1.776762e+00   3.840165e-02
  4.542488e-01    1.783728e+00   3.837310e-02
  4.564592e-01    1.754159e+00   3.795164e-02
  4.586697e-01    1.719760e+00   3.747794e-02
  4.608801e-01    1.742019e+00   3.761865e-02
  4.630906e-01    1.723560e+00   3.731975e-02
  4.653011e-01    1.703833e+00   3.700798e-02
  4.675115e-01    1.746631e+00   3.737120e-02
  4.697220e-01    1.727909e+00   3.707306e-02
  4.719324e-01    1.760603e+00   3.732534e-02
  4.741429e-01    1.763711e+00   3.726202e-02
  4.763533e-01    1.726452e+00   3.677182e-02
  4.785638e-01    1.746216e+00   3.688616e-02
  4.807743e-01    1.756945e+00   3.690522e-02
  4.829847e-01    1.743689e+00   3.667285e-02
  4.851952e-01    1.727195e+00   3.640664e-02
  4.874056e-01    1.656716e+00   3.556620e-02
  4.896161e-01    1.657877e+00   3.549041e-02
  4.918265e-01    1.712413e+00   3.597984e-02
  4.940370e-01    1.736593e+00   3.614354e-02
  4.962475e-01    1.687644e+00   3.554253e-02
  4.984579e-01    1.665341e+00   3.521987e-02
  5.006684e-01    1.681268e+00   3.530159e-02
  5.028788e-01    1.677366e+00   3.517519e-02
  5.050893e-01    1.641521e+00   3.471265e-02
  5.072997e-01    1.730384e+00   3.555379e-02
  5.095102e-01    1.669854e+00   3.484276e-02
  5.117206e-01    1.650410e+00   3.455694e-02
  5.139311e-01    1.650386e+00   3.447489e-02
  5.161416e-01    1.691849e+00   3.482279e-02
  5.183520e-01    1.669828e+00   3.451321e-02
  5.205625e-01    1.640255e+00   3.412609e-02
  5.227729e-01    1.684683e+00   3.450451e-02
  5.249834e-01    1.726572e+00   3.484974e-02
  5.271938e-01    1.747409e+00   3.497761e-02
  5.294043e-01    1.732978e+00   3.475250e-02
  5.316148e-01    1.736444e+00   3.470755e-02
  5.338252e-01    1.830521e+00   3.555389e-02
  5.360357e-01    1.785882e+00   3.503780e-02
  5.382461e-01    1.722599e+00   3.433360e-02
  5.404566e-01    1.768228e+00   3.470619e-02
  5.426670e-01    1.764725e+00   3.459368e-02
  5.448775e-01    1.751804e+00   3.438979e-02
  5.470879e-01    1.768798e+00   3.447912e-02
  5.492984e-01    1.782231e+00   3.453285e-02
  5.515089e-01    1.776584e+00   3.440164e-02
  5.537193e-01    1.759694e+00   3.416229e-02
  5.559298e-01    1.778539e+00   3.426939e-02
  5.581402e-01    1.776672e+00   3.417655e-02
  5.603507e-01    1.747571e+00   3.382174e-02
  5.625611e-01    1.770390e+00   3.396795e-02
  5.647716e-01    1.763696e+00   3.383007e-02
  5.669821e-01    1.764994e+00   3.376956e-02
  5.691925e-01    1.779881e+00   3.383887e-02
  5.714030e-01    1.756956e+00   3.354859e-02
  5.736134e-01    1.702860e+00   3.295781e-02
  5.758239e-01    1.739904e+00   3.324325e-02
  5.780343e-01    1.708079e+00   3.286816e-02
  5.802448e-01    1.694731e+00   3.267093e-02
  5.824552e-01    1.676614e+00   3.242766e-02
  5.846657e-01    1.637318e+00   3.197860e-02
  5.868762e-01    1.581421e+00   3.136256e-02
  5.890866e-01    1.668023e+00   3.214300e-02
  5.912971e-01    1.678072e+00   3.217296e-02
  5.935075e-01    1.646550e+00   3.180349e-02
  5.957180e-01    1.650327e+00   3.177459e-02
  5.979284e-01    1.639371e+00   3.160431e-02
  6.001389e-01    1.674498e+00   3.187606e-02
  6.023494e-01    1.710229e+00   3.214895e-02
  6.045598e-01    1.671096e+00   3.171432e-02
  6.067703e-01    1.669948e+00   3.163966e-02
  6.089807e-01    1.686923e+00   3.173612e-02
  6.111912e-01    1.679744e+00   3.160531e-02
  6.134016e-01    1.702441e+00   3.175463e-02
  6.156121e-01    1.739730e+00   3.203673e-02
  6.178226e-01    1.706077e+00   3.166255e-02
  6.200330e-01    1.670550e+00   3.126933e-02
  6.222435e-01    1.664444e+00   3.115030e-02
  6.244539e-01    1.697856e+00   3.139979e-02
  6.266644e-01    1.734842e+00   3.167804e-02
  6.288748e-01    1.753877e+00   3.178938e-02
  6.310853e-01    1.760645e+00   3.178881e-02
  6.332957e-01    1.754241e+00   3.166969e-02
  6.355062e-01    1.704037e+00   3.115259e-02
  6.377167e-01    1.657671e+00   3.066688e-02
  6.399271e-01    1.691242e+00   3.091650e-02
  6.421376e-01    1.711917e+00   3.104554e-02
  6.443480e-01    1.698782e+00   3.086737e-02
  6.465585e-01    1.676062e+00   3.060219e-02
  6.487689e-01    1.698733e+00   3.075026e-02
  6.509794e-01    1.685735e+00   3.057464e-02
  6.531899e-01    1.662477e+00   3.030588e-02
  6.554003e-01    1.645335e+00   3.009256e-02
  6.576108e-01    1.608237e+00   2.969596e-02
  6.598212e-01    1.637736e+00   2.991141e-02
  6.620317e-01    1.623276e+00   2.972385e-02
  6.642421e-01    1.632203e+00   2.975034e-02
  6.664526e-01    1.612258e+00   2.951353e-02
  6.686630e-01    1.630678e+00   2.962678e-02
  6.708735e-01    1.631409e+00   2.957906e-02
  6.730840e-01    1.594633e+00   2.919044e-02
  6.752944e-01    1.581851e+00   2.902034e-02
  6.775049e-01    1.594657e+00   2.908468e-02
  6.797153e-01    1.607973e+00   2.915296e-02
  6.819258e-01    1.636929e+00   2.936124e-02
  6.841362e-01    1.636863e+00   2.930786e-02
  6.863467e-01    1.627328e+00   2.917002e-02
  6.885572e-01    1.634441e+00   2.918131e-02
  6.907676e-01    1.690836e+00   2.962730e-02
  6.929781e-01    1.665386e+00   2.935124e-02
  6.951885e-01    1.632433e+00   2.900792e-02
  6.973990e-01    1.596184e+00   2.863334e-02
  6.996094e-01    1.574075e+00   2.838432e-02
  7.018199e-01    1.573893e+00   2.833284e-02
  7.040303e-01    1.634730e+00   2.882453e-02
  7.062408e-01    1.589843e+00   2.837625e-02
  7.084513e-01    1.587843e+00   2.830907e-02
  7.106617e-01    1.562972e+00   2.803767e-02
  7.128722e-01    1.586898e+00   2.820258e-02
  7.150826e-01    1.604416e+00   2.830894e-02
  7.172931e-01    1.579920e+00   2.804358e-02
  7.195035e-01    1.607044e+00   2.823465e-02
  7.217140e-01    1.581732e+00   2.806099e-02
  7.239245e-01    1.545158e+00   2.795925e-02
  7.261349e-01    1.559340e+00   2.819536e-02
  7.283454e-01    1.578019e+00   2.843622e-02
  7.305558e-01    1.569546e+00   2.841366e-02
  7.327663e-01    1.567503e+00   2.843758e-02
  7.349767e-01    1.606277e+00   2.880367e-02
  7.371872e-01    1.572367e+00   2.848686e-02
  7.393976e-01    1.595280e+00   2.867929e-02
  7.416081e-01    1.589900e+00   2.861466e-02
  7.438186e-01    1.605106e+00   2.860545e-02
  7.460290e-01    1.600084e+00   2.826406e-02
  7.482395e-01    1.561236e+00   2.774842e-02
  7.504499e-01    1.560158e+00   2.760317e-02
  7.526604e-01    1.606406e+00   2.789159e-02
  7.548708e-01    1.582081e+00   2.759000e-02
  7.570813e-01    1.589854e+00   2.760645e-02
  7.592918e-01    1.636993e+00   2.797687e-02
  7.615022e-01    1.618268e+00   2.778215e-02
  7.637127e-01    1.590185e+00   2.750708e-02
  7.659231e-01    1.603186e+00   2.758699e-02
  7.681336e-01    1.607322e+00   2.759066e-02
  7.703440e-01    1.568892e+00   2.722765e-02
  7.725545e-01    1.614821e+00   2.759202e-02
  7.747650e-01    1.651403e+00   2.786370e-02
  7.769754e-01    1.600557e+00   2.737829e-02
  7.791859e-01    1.571921e+00   2.707882e-02
  7.813963e-01    1.578856e+00   2.708590e-02
  7.836068e-01    1.586792e+00   2.710184e-02
  7.858172e-01    1.620700e+00   2.733869e-02
  7.880277e-01    1.598420e+00   2.709847e-02
  7.902381e-01    1.636215e+00   2.736715e-02
  7.924486e-01    1.638048e+00   2.733177e-02
  7.946591e-01    1.625097e+00   2.717483e-02
  7.968695e-01    1.609418e+00   2.699505e-02
  7.990800e-01    1.616058e+00   2.700233e-02
  8.012904e-01    1.616534e+00   2.695958e-02
  8.035009e-01    1.608825e+00   2.684738e-02
  8.057113e-01    1.608591e+00   2.679897e-02
  8.079218e-01    1.639624e+00   2.700958e-02
  8.101323e-01    1.608670e+00   2.670798e-02
  8.123427e-01    1.618766e+00   2.674598e-02
  8.145532e-01    1.603600e+00   2.657485e-02
  8.167636e-01    1.624854e+00   2.670540e-02
  8.189741e-01    1.638413e+00   2.677190e-02
  8.211845e-01    1.593812e+00   2.636073e-02
  8.233950e-01    1.623706e+00   2.656351e-02
  8.256054e-01    1.685919e+00   2.702277e-02
  8.278159e-01    1.674649e+00   2.688786e-02
  8.300264e-01    1.629505e+00   2.647999e-02
  8.322368e-01    1.639809e+00   2.652043e-02
  8.344473e-01    1.652403e+00   2.657854e-02
  8.366577e-01    1.631392e+00   2.636653e-02
  8.388682e-01    1.621101e+00   2.624123e-02
  8.410786e-01    1.653405e+00   2.645915e-02
  8.432891e-01    1.657747e+00   2.645178e-02
  8.454996e-01    1.671427e+00   2.651867e-02
  8.477100e-01    1.662653e+00   2.640700e-02
  8.499205e-01    1.645978e+00   2.623299e-02
  8.521309e-01    1.610372e+00   2.590723e-02
  8.543414e-01    1.624176e+00   2.597744e-02
  8.565518e-01    1.627279e+00   2.596177e-02
  8.587623e-01    1.623618e+00   2.589216e-02
  8.609727e-01    1.594679e+00   2.562061e-02
  8.631832e-01    1.604984e+00   2.566360e-02
  8.653937e-01    1.586854e+00   2.547904e-02
  8.676041e-01    1.570332e+00   2.530781e-02
  8.698146e-01    1.609295e+00   2.558067e-02
  8.720250e-01    1.599825e+00   2.546645e-02
  8.742355e-01    1.602061e+00   2.544543e-02
  8.764459e-01    1.595094e+00   2.535132e-02
  8.786564e-01    1.589441e+00   2.526862e-02
  8.808669e-01    1.609798e+00   2.539137e-02
  8.830773e-01    1.614855e+00   2.539295e-02
  8.852878e-01    1.585001e+00   2.511940e-02
  8.874982e-01    1.579711e+00   2.504107e-02
  8.897087e-01    1.561648e+00   2.486026e-02
  8.919191e-01    1.610276e+00   2.520648e-02
  8.941296e-01    1.584699e+00   2.496842e-02
  8.963401e-01    1.601361e+00   2.506286e-02
  8.985505e-01    1.635834e+00   2.529384e-02
  9.007610e-01    1.638613e+00   2.527814e-02
  9.029714e-01    1.627934e+00   2.515947e-02
  9.051819e-01    1.609326e+00   2.497795e-02
  9.073923e-01    1.598276e+00   2.485548e-02
  9.096028e-01    1.618186e+00   2.497471e-02
  9.118132e-01    1.629053e+00   2.502188e-02
  9.140237e-01    1.607859e+00   2.482187e-02
  9.162342e-01    1.612595e+00   2.482370e-02
  9.184446e-01    1.587012e+00   2.459040e-02
  9.206551e-01    1.599329e+00   2.465004e-02
  9.228655e-01    1.625319e+00   2.481402e-02
  9.250760e-01    1.590230e+00   2.450948e-02
  9.272864e-01    1.575987e+00   2.436549e-02
  9.294969e-01    1.600094e+00   2.451534e-02
  9.317074e-01    1.602664e+00   2.450037e-02
  9.339178e-01    1.607462e+00   2.450350e-02
  9.361283e-01    1.625097e+00   2.460121e-02
  9.383387e-01    1.649456e+00   2.475120e-02
  9.405492e-01    1.625132e+00   2.453373e-02
  9.427596e-01    1.660679e+00   2.476487e-02
  9.449701e-01    1.646218e+00   2.462332e-02
  9.471805e-01    1.681623e+00   2.485144e-02
  9.493910e-01    1.669543e+00   2.472805e-02
  9.516015e-01    1.666508e+00   2.467105e-02
  9.538119e-01    1.699924e+00   2.488304e-02
  9.560224e-01    1.722808e+00   2.501470e-02
  9.582328e-01    1.709702e+00   2.488595e-02
  9.604433e-01    1.728482e+00   2.498680e-02
  9.626537e-01    1.783014e+00   2.534378e-02
  9.648642e-01    1.798175e+00   2.541644e-02
  9.670747e-01    1.810785e+00   2.547024e-02
  9.692851e-01    1.815248e+00   2.546770e-02
  9.714956e-01    1.820225e+00   2.546663e-02
  9.737060e-01    1.869969e+00   2.577835e-02
  9.759165e-01    1.887471e+00   2.586222e-02
  9.781269e-01    1.813059e+00   2.531413e-02
  9.803374e-01    1.827107e+00   2.537685e-02
  9.825478e-01    1.834682e+00   2.539587e-02
  9.847583e-01    1.823567e+00   2.528444e-02
  9.869688e-01    1.815274e+00   2.519310e-02
  9.891792e-01    1.791449e+00   2.499399e-02
  9.913897e-01    1.747670e+00   2.465338e-02
  9.936001e-01    1.741699e+00   2.457902e-02
  9.958106e-01    1.696944e+00   2.422819e-02
  9.980210e-01    1.660184e+00   2.393324e-02
  1.000231e+00    1.629982e+00   2.384443e-02
  1.002442e+00    1.654307e+00   2.414933e-02
  1.004652e+00    1.601276e+00   2.382541e-02
  1.006863e+00    1.624254e+00   2.404550e-02
  1.009073e+00    1.625476e+00   2.409140e-02
  1.011284e+00    1.597806e+00   2.391738e-02
  1.013494e+00    1.593089e+00   2.390575e-02
  1.015705e+00    1.527854e+00   2.343330e-02
  1.017915e+00    1.555225e+00   2.365855e-02
  1.020126e+00    1.549610e+00   2.363176e-02
  1.022336e+00    1.532527e+00   2.351274e-02
  1.024547e+00    1.529634e+00   2.350165e-02
  1.026757e+00    1.535726e+00   2.355676e-02
  1.028967e+00    1.510135e+00   2.336726e-02
  1.031178e+00    1.499439e+00   2.329045e-02
  1.033388e+00    1.478904e+00   2.313538e-02
  1.035599e+00    1.489285e+00   2.321981e-02
  1.037809e+00    1.500760e+00   2.331234e-02
  1.040020e+00    1.479424e+00   2.314729e-02
  1.042230e+00    1.472640e+00   2.309604e-02
  1.044441e+00    1.504726e+00   2.334609e-02
  1.046651e+00    1.496973e+00   2.328604e-02
  1.048862e+00    1.510161e+00   2.338757e-02
  1.051072e+00    1.529622e+00   2.353544e-02
  1.053282e+00    1.515320e+00   2.342417e-02
  1.055493e+00    1.613914e+00   2.416972e-02
  1.057703e+00    1.631465e+00   2.429925e-02
  1.059914e+00    1.550331e+00   2.368298e-02
  1.062124e+00    1.533489e+00   2.354986e-02
  1.064335e+00    1.550612e+00   2.367746e-02
  1.066545e+00    1.555331e+00   2.370732e-02
  1.068756e+00    1.585085e+00   2.392913e-02
  1.070966e+00    1.570975e+00   2.381569e-02
  1.073177e+00    1.485141e+00   2.314983e-02
  1.075387e+00    1.558291e+00   2.370768e-02
  1.077597e+00    1.591982e+00   2.395509e-02
  1.079808e+00    1.507817e+00   2.317858e-02
  1.082018e+00    1.482211e+00   2.279058e-02
  1.084229e+00    1.452049e+00   2.244778e-02
  1.086439e+00    1.475818e+00   2.254269e-02
  1.088650e+00    1.478462e+00   2.248660e-02
  1.090860e+00    1.472154e+00   2.237052e-02
  1.093071e+00    1.508390e+00   2.258075e-02
  1.095281e+00    1.499455e+00   2.245550e-02
  1.097492e+00    1.459820e+00   2.210152e-02
  1.099702e+00    1.475389e+00   2.216706e-02
  1.101912e+00    1.449190e+00   2.192035e-02
  1.104123e+00    1.422670e+00   2.167086e-02
  1.106333e+00    1.419523e+00   2.160266e-02
  1.108544e+00    1.419952e+00   2.156181e-02
  1.110754e+00    1.435689e+00   2.163782e-02
  1.112965e+00    1.424557e+00   2.151320e-02
  1.115175e+00    1.420571e+00   2.144188e-02
  1.117386e+00    1.423968e+00   2.142812e-02
  1.119596e+00    1.409211e+00   2.127897e-02
  1.121807e+00    1.394163e+00   2.112644e-02
  1.124017e+00    1.388075e+00   2.104387e-02
  1.126228e+00    1.403072e+00   2.112151e-02
  1.128438e+00    1.390335e+00   2.098881e-02
  1.130648e+00    1.386212e+00   2.092348e-02
  1.132859e+00    1.405236e+00   2.103211e-02
  1.135069e+00    1.391673e+00   2.089565e-02
  1.137280e+00    1.376389e+00   2.074777e-02
  1.139490e+00    1.372639e+00   2.068657e-02
  1.141701e+00    1.381070e+00   2.071694e-02
  1.143911e+00    1.371150e+00   2.061069e-02
  1.146122e+00    1.362450e+00   2.051339e-02
  1.148332e+00    1.362224e+00   2.048001e-02
  1.150543e+00    1.381685e+00   2.059490e-02
  1.152753e+00    1.375307e+00   2.051647e-02
  1.154963e+00    1.386509e+00   2.056869e-02
  1.157174e+00    1.361270e+00   2.035058e-02
  1.159384e+00    1.364648e+00   2.034605e-02
  1.161595e+00    1.338048e+00   2.011729e-02
  1.163805e+00    1.363383e+00   2.027762e-02
  1.166016e+00    1.356813e+00   2.019943e-02
  1.168226e+00    1.355232e+00   2.015880e-02
  1.170437e+00    1.367798e+00   2.022338e-02
  1.172647e+00    1.377476e+00   2.026581e-02
  1.174858e+00    1.361201e+00   2.011766e-02
  1.177068e+00    1.327666e+00   1.984042e-02
  1.179278e+00    1.348611e+00   1.996785e-02
  1.181489e+00    1.365576e+00   2.006599e-02
  1.183699e+00    1.373674e+00   2.009768e-02
  1.185910e+00    1.371016e+00   2.005033e-02
  1.188120e+00    1.352605e+00   1.988859e-02
  1.190331e+00    1.339079e+00   1.976231e-02
  1.192541e+00    1.333217e+00   1.969184e-02
  1.194752e+00    1.345735e+00   1.975708e-02
  1.196962e+00    1.326974e+00   1.959338e-02
  1.199173e+00    1.343919e+00   1.969164e-02
  1.201383e+00    1.329789e+00   1.956090e-02
  1.203593e+00    1.296914e+00   1.929327e-02
  1.205804e+00    1.333890e+00   1.954058e-02
  1.208014e+00    1.339489e+00   1.955484e-02
  1.210225e+00    1.326545e+00   1.943500e-02
  1.212435e+00    1.350202e+00   1.958274e-02
  1.214646e+00    1.374585e+00   1.973243e-02
  1.216856e+00    1.401314e+00   1.989737e-02
  1.219067e+00    1.440365e+00   2.014746e-02
  1.221277e+00    1.437053e+00   2.009849e-02
  1.223488e+00    1.388189e+00   1.972773e-02
  1.225698e+00    1.357285e+00   1.947992e-02
  1.227909e+00    1.334845e+00   1.928821e-02
  1.230119e+00    1.350698e+00   1.937053e-02
  1.232329e+00    1.358964e+00   1.939889e-02
  1.234540e+00    1.354855e+00   1.933922e-02
  1.236750e+00    1.338445e+00   1.919159e-02
  1.238961e+00    1.355032e+00   1.928312e-02
  1.241171e+00    1.354780e+00   1.925712e-02
  1.243382e+00    1.359772e+00   1.926894e-02
  1.245592e+00    1.373743e+00   1.934340e-02
  1.247803e+00    1.379654e+00   1.936104e-02
  1.250013e+00    1.380153e+00   1.934074e-02
  1.252224e+00    1.390732e+00   1.939112e-02
  1.254434e+00    1.399095e+00   1.942518e-02
  1.256644e+00    1.390714e+00   1.934335e-02
  1.258855e+00    1.375240e+00   1.921196e-02
  1.261065e+00    1.347264e+00   1.899219e-02
  1.263276e+00    1.382795e+00   1.921776e-02
  1.265486e+00    1.389473e+00   1.924093e-02
  1.267697e+00    1.372355e+00   1.909881e-02
  1.269907e+00    1.362875e+00   1.900995e-02
  1.272118e+00    1.351886e+00   1.891056e-02
  1.274328e+00    1.329581e+00   1.873134e-02
  1.276539e+00    1.343788e+00   1.880842e-02
  1.278749e+00    1.334746e+00   1.872286e-02
  1.280959e+00    1.344959e+00   1.877187e-02
  1.283170e+00    1.368057e+00   1.890980e-02
  1.285380e+00    1.363420e+00   1.885516e-02
  1.287591e+00    1.346478e+00   1.871565e-02
  1.289801e+00    1.332216e+00   1.859517e-02
  1.292012e+00    1.329811e+00   1.856142e-02
  1.294222e+00    1.329621e+00   1.854397e-02
  1.296433e+00    1.333857e+00   1.855798e-02
  1.298643e+00    1.322371e+00   1.846161e-02
  1.300854e+00    1.319828e+00   1.842763e-02
  1.303064e+00    1.322342e+00   1.842612e-02
  1.305274e+00    1.356646e+00   1.864212e-02
  1.307485e+00    1.341653e+00   1.851734e-02
  1.309695e+00    1.356316e+00   1.859596e-02
  1.311906e+00    1.345045e+00   1.849686e-02
  1.314116e+00    1.346648e+00   1.848713e-02
  1.316327e+00    1.366126e+00   1.859851e-02
  1.318537e+00    1.346647e+00   1.844360e-02
  1.320748e+00    1.326203e+00   1.828171e-02
  1.322958e+00    1.336484e+00   1.833199e-02
  1.325169e+00    1.362029e+00   1.848526e-02
  1.327379e+00    1.354527e+00   1.841243e-02
  1.329589e+00    1.364865e+00   1.846137e-02
  1.331800e+00    1.370675e+00   1.847978e-02
  1.334010e+00    1.356531e+00   1.836348e-02
  1.336221e+00    1.359605e+00   1.836245e-02
  1.338431e+00    1.321264e+00   1.808103e-02
  1.340642e+00    1.349379e+00   1.833654e-02
  1.342852e+00    1.363270e+00   1.853186e-02
  1.345063e+00    1.329735e+00   1.835162e-02
  1.347273e+00    1.339290e+00   1.845253e-02
  1.349484e+00    1.346033e+00   1.852656e-02
  1.351694e+00    1.350235e+00   1.857816e-02
  1.353905e+00    1.368035e+00   1.871835e-02
  1.356115e+00    1.359218e+00   1.867301e-02
  1.358325e+00    1.345465e+00   1.859161e-02
  1.360536e+00    1.335384e+00   1.853340e-02
  1.362746e+00    1.322165e+00   1.845089e-02
  1.364957e+00    1.339927e+00   1.858205e-02
  1.367167e+00    1.315412e+00   1.841835e-02
  1.369378e+00    1.325169e+00   1.849249e-02
  1.371588e+00    1.329580e+00   1.852836e-02
  1.373799e+00    1.315690e+00   1.843496e-02
  1.376009e+00    1.311039e+00   1.840572e-02
  1.378220e+00    1.300541e+00   1.833436e-02
  1.380430e+00    1.304585e+00   1.836553e-02
  1.382640e+00    1.301230e+00   1.834279e-02
  1.384851e+00    1.300841e+00   1.834093e-02
  1.387061e+00    1.275743e+00   1.816344e-02
  1.389272e+00    1.281238e+00   1.820268e-02
  1.391482e+00    1.317316e+00   1.845653e-02
  1.393693e+00    1.291514e+00   1.827401e-02
  1.395903e+00    1.285388e+00   1.822913e-02
  1.398114e+00    1.266664e+00   1.809448e-02
  1.400324e+00    1.281869e+00   1.820065e-02
  1.402535e+00    1.271037e+00   1.812126e-02
  1.404745e+00    1.285546e+00   1.822203e-02
  1.406955e+00    1.274506e+00   1.814092e-02
  1.409166e+00    1.265952e+00   1.807664e-02
  1.411376e+00    1.247902e+00   1.794422e-02
  1.413587e+00    1.265900e+00   1.806934e-02
  1.415797e+00    1.276607e+00   1.814206e-02
  1.418008e+00    1.252197e+00   1.792622e-02
  1.420218e+00    1.228617e+00   1.760934e-02
  1.422429e+00    1.229617e+00   1.753257e-02
  1.424639e+00    1.246953e+00   1.759160e-02
  1.426850e+00    1.283013e+00   1.778920e-02
  1.429060e+00    1.270199e+00   1.765115e-02
  1.431270e+00    1.247563e+00   1.744924e-02
  1.433481e+00    1.261838e+00   1.750796e-02
  1.435691e+00    1.275215e+00   1.756201e-02
  1.437902e+00    1.286168e+00   1.760057e-02
  1.440112e+00    1.292892e+00   1.761086e-02
  1.442323e+00    1.275056e+00   1.745587e-02
  1.444533e+00    1.258964e+00   1.731296e-02
  1.446744e+00    1.252067e+00   1.723455e-02
  1.448954e+00    1.283377e+00   1.741836e-02
  1.451165e+00    1.292674e+00   1.745132e-02
  1.453375e+00    1.295501e+00   1.744206e-02
  1.455586e+00    1.257972e+00   1.715955e-02
  1.457796e+00    1.256366e+00   1.712121e-02
  1.460006e+00    1.295129e+00   1.735580e-02
  1.462217e+00    1.293403e+00   1.731779e-02
  1.464427e+00    1.280106e+00   1.720282e-02
  1.466638e+00    1.269610e+00   1.710682e-02
  1.468848e+00    1.273713e+00   1.710906e-02
  1.471059e+00    1.285510e+00   1.716285e-02
  1.473269e+00    1.271203e+00   1.704270e-02
  1.475480e+00    1.262897e+00   1.696321e-02
  1.477690e+00    1.241673e+00   1.679648e-02
  1.479901e+00    1.252066e+00   1.684294e-02
  1.482111e+00    1.255622e+00   1.684362e-02
  1.484321e+00    1.264933e+00   1.688287e-02
  1.486532e+00    1.252603e+00   1.677817e-02
  1.488742e+00    1.235623e+00   1.664167e-02
  1.490953e+00    1.259027e+00   1.677599e-02
  1.493163e+00    1.262564e+00   1.677725e-02
  1.495374e+00    1.251392e+00   1.668147e-02
  1.497584e+00    1.263846e+00   1.674261e-02
  1.499795e+00    1.250945e+00   1.663538e-02
  1.502005e+00    1.240791e+00   1.654619e-02
  1.504216e+00    1.263711e+00   1.667724e-02
  1.506426e+00    1.237757e+00   1.648446e-02
  1.508636e+00    1.243963e+00   1.650539e-02
  1.510847e+00    1.249688e+00   1.652157e-02
  1.513057e+00    1.232479e+00   1.638257e-02
  1.515268e+00    1.238072e+00   1.639415e-02
  1.517478e+00    1.252771e+00   1.646604e-02
  1.519689e+00    1.244967e+00   1.638981e-02
  1.521899e+00    1.259491e+00   1.646198e-02
  1.524110e+00    1.248179e+00   1.636759e-02
  1.526320e+00    1.243836e+00   1.631956e-02
  1.528531e+00    1.250098e+00   1.634082e-02
  1.530741e+00    1.262513e+00   1.640254e-02
  1.532951e+00    1.265676e+00   1.640336e-02
  1.535162e+00    1.264954e+00   1.648582e-02
  1.537372e+00    1.219189e+00   1.625095e-02
  1.539583e+00    1.227441e+00   1.633979e-02
  1.541793e+00    1.235766e+00   1.640202e-02
  1.544004e+00    1.212852e+00   1.624952e-02
  1.546214e+00    1.229613e+00   1.635987e-02
  1.548425e+00    1.273867e+00   1.665198e-02
  1.550635e+00    1.212320e+00   1.625426e-02
  1.552846e+00    1.239605e+00   1.644578e-02
  1.555056e+00    1.228028e+00   1.632763e-02
  1.557266e+00    1.224904e+00   1.619724e-02
  1.559477e+00    1.232094e+00   1.618590e-02
  1.561687e+00    1.215860e+00   1.604859e-02
  1.563898e+00    1.267232e+00   1.636680e-02
  1.566108e+00    1.258544e+00   1.629457e-02
  1.568319e+00    1.247667e+00   1.620837e-02
  1.570529e+00    1.239558e+00   1.613052e-02
  1.572740e+00    1.256485e+00   1.621252e-02
  1.574950e+00    1.253873e+00   1.616927e-02
  1.577161e+00    1.241845e+00   1.606606e-02
  1.579371e+00    1.260664e+00   1.616354e-02
  1.581582e+00    1.229500e+00   1.594285e-02
  1.583792e+00    1.239436e+00   1.598914e-02
  1.586002e+00    1.260875e+00   1.610911e-02
  1.588213e+00    1.256804e+00   1.606574e-02
  1.590423e+00    1.260089e+00   1.606655e-02
  1.592634e+00    1.226794e+00   1.583138e-02
  1.594844e+00    1.234915e+00   1.586236e-02
  1.597055e+00    1.245781e+00   1.591147e-02
  1.599265e+00    1.263839e+00   1.600547e-02
  1.601476e+00    1.250020e+00   1.589736e-02
  1.603686e+00    1.224699e+00   1.571588e-02
  1.605897e+00    1.219331e+00   1.566140e-02
  1.608107e+00    1.226700e+00   1.568917e-02
  1.610317e+00    1.219499e+00   1.562389e-02
  1.612528e+00    1.244364e+00   1.576312e-02
  1.614738e+00    1.237266e+00   1.569911e-02
  1.616949e+00    1.204268e+00   1.546954e-02
  1.619159e+00    1.181122e+00   1.530175e-02
  1.621370e+00    1.201337e+00   1.541382e-02
  1.623580e+00    1.207889e+00   1.543751e-02
  1.625791e+00    1.198749e+00   1.536082e-02
  1.628001e+00    1.174264e+00   1.518509e-02
  1.630212e+00    1.168985e+00   1.513334e-02
  1.632422e+00    1.145871e+00   1.496539e-02
  1.634632e+00    1.128341e+00   1.483356e-02
  1.636843e+00    1.148684e+00   1.494934e-02
  1.639053e+00    1.152389e+00   1.495632e-02
  1.641264e+00    1.143795e+00   1.488355e-02
  1.643474e+00    1.138011e+00   1.482864e-02
  1.645685e+00    1.130013e+00   1.475999e-02
  1.647895e+00    1.120635e+00   1.468227e-02
  1.650106e+00    1.129348e+00   1.472239e-02
  1.652316e+00    1.138150e+00   1.476325e-02
  1.654527e+00    1.122505e+00   1.464491e-02
  1.656737e+00    1.114410e+00   1.457560e-02
  1.658947e+00    1.103184e+00   1.448596e-02
  1.661158e+00    1.101706e+00   1.446012e-02
  1.663368e+00    1.140835e+00   1.469854e-02
  1.665579e+00    1.144482e+00   1.470567e-02
  1.667789e+00    1.149471e+00   1.472123e-02
  1.670000e+00    1.155226e+00   1.474225e-02
  1.672210e+00    1.133261e+00   1.458539e-02
  1.674421e+00    1.118876e+00   1.447709e-02
  1.676631e+00    1.094724e+00   1.430417e-02
  1.678842e+00    1.093567e+00   1.428088e-02
  1.681052e+00    1.104189e+00   1.433458e-02
  1.683263e+00    1.105268e+00   1.432636e-02
  1.685473e+00    1.107543e+00   1.432579e-02
  1.687683e+00    1.095313e+00   1.423096e-02
  1.689894e+00    1.099961e+00   1.424521e-02
  1.692104e+00    1.108103e+00   1.428271e-02
  1.694315e+00    1.089946e+00   1.415059e-02
  1.696525e+00    1.075318e+00   1.404012e-02
  1.698736e+00    1.059537e+00   1.392193e-02
  1.700946e+00    1.065423e+00   1.394536e-02
  1.703157e+00    1.068744e+00   1.395238e-02
  1.705367e+00    1.057562e+00   1.386465e-02
  1.707578e+00    1.051682e+00   1.381147e-02
  1.709788e+00    1.043630e+00   1.374439e-02
  1.711998e+00    1.057590e+00   1.382089e-02
  1.714209e+00    1.062691e+00   1.383958e-02
  1.716419e+00    1.050751e+00   1.374725e-02
  1.718630e+00    1.006065e+00   1.343766e-02
  1.720840e+00    1.002239e+00   1.339805e-02
  1.723051e+00    1.012709e+00   1.345409e-02
  1.725261e+00    9.961771e-01   1.332933e-02
  1.727472e+00    9.857484e-01   1.324542e-02
  1.729682e+00    1.001801e+00   1.333947e-02
  1.731893e+00    9.892902e-01   1.324217e-02
  1.734103e+00    9.872517e-01   1.321486e-02
  1.736313e+00    9.958497e-01   1.325835e-02
  1.738524e+00    9.803268e-01   1.314092e-02
  1.740734e+00    9.947464e-01   1.322355e-02
  1.742945e+00    9.945632e-01   1.320890e-02
  1.745155e+00    9.758490e-01   1.307070e-02
  1.747366e+00    9.615716e-01   1.296111e-02
  1.749576e+00    9.421753e-01   1.281636e-02
  1.751787e+00    9.375404e-01   1.277175e-02
  1.753997e+00    9.410590e-01   1.278259e-02
  1.756208e+00    9.730136e-01   1.298461e-02
  1.758418e+00    9.601516e-01   1.288548e-02
  1.760628e+00    9.749532e-01   1.297101e-02
  1.762839e+00    9.637372e-01   1.288299e-02
  1.765049e+00    9.538314e-01   1.280355e-02
  1.767260e+00    9.643714e-01   1.286124e-02
  1.769470e+00    9.863459e-01   1.299376e-02
  1.771681e+00    9.742569e-01   1.290061e-02
  1.773891e+00    9.368286e-01   1.263741e-02
  1.776102e+00    9.361237e-01   1.261986e-02
  1.778312e+00    9.349616e-01   1.259934e-02
  1.780523e+00    9.421576e-01   1.263502e-02
  1.782733e+00    9.331769e-01   1.256200e-02
  1.784944e+00    9.412441e-01   1.260325e-02
  1.787154e+00    9.592932e-01   1.271080e-02
  1.789364e+00    9.782080e-01   1.282272e-02
  1.791575e+00    9.897764e-01   1.288535e-02
  1.793785e+00    9.880130e-01   1.286104e-02
  1.795996e+00    9.872410e-01   1.284307e-02
  1.798206e+00    9.607173e-01   1.265656e-02
  1.800417e+00    9.771272e-01   1.275108e-02
  1.802627e+00    1.005984e+00   1.292550e-02
  1.804838e+00    9.870105e-01   1.279044e-02
  1.807048e+00    9.378331e-01   1.245470e-02
  1.809259e+00    8.972080e-01   1.216842e-02
  1.811469e+00    8.823329e-01   1.205234e-02
  1.813679e+00    8.690088e-01   1.194629e-02
  1.815890e+00    8.864644e-01   1.205100e-02
  1.818100e+00    8.879715e-01   1.204625e-02
  1.820311e+00    8.729115e-01   1.192903e-02
  1.822521e+00    8.774397e-01   1.194521e-02
  1.824732e+00    8.615000e-01   1.182163e-02
  1.826942e+00    8.737937e-01   1.189345e-02
  1.829153e+00    8.430286e-01   1.167079e-02
  1.831363e+00    8.351715e-01   1.160456e-02
  1.833574e+00    8.719885e-01   1.184596e-02
  1.835784e+00    8.618087e-01   1.176532e-02
  1.837994e+00    8.500840e-01   1.167349e-02
  1.840205e+00    8.487684e-01   1.165343e-02
  1.842415e+00    8.608061e-01   1.172410e-02
  1.844626e+00    8.504193e-01   1.164173e-02
  1.846836e+00    8.574807e-01   1.167860e-02
  1.849047e+00    8.665060e-01   1.172828e-02
  1.851257e+00    8.521160e-01   1.162100e-02
  1.853468e+00    8.438516e-01   1.155579e-02
  1.855678e+00    8.620890e-01   1.167108e-02
  1.857889e+00    8.746118e-01   1.174701e-02
  1.860099e+00    8.395701e-01   1.150072e-02
  1.862309e+00    8.451344e-01   1.153031e-02
  1.864520e+00    8.361891e-01   1.146066e-02
  1.866730e+00    8.259209e-01   1.138084e-02
  1.868941e+00    8.276992e-01   1.138231e-02
  1.871151e+00    8.306844e-01   1.139156e-02
  1.873362e+00    8.392319e-01   1.143875e-02
  1.875572e+00    8.302144e-01   1.136632e-02
  1.877783e+00    8.462732e-01   1.146430e-02
  1.879993e+00    8.303019e-01   1.134456e-02
  1.882204e+00    8.256763e-01   1.130214e-02
  1.884414e+00    8.168436e-01   1.123064e-02
  1.886624e+00    8.122599e-01   1.118821e-02
  1.888835e+00    8.181418e-01   1.121783e-02
  1.891045e+00    8.137063e-01   1.117667e-02
  1.893256e+00    8.231730e-01   1.123051e-02
  1.895466e+00    8.304613e-01   1.126899e-02
  1.897677e+00    8.243158e-01   1.121637e-02
  1.899887e+00    8.226168e-01   1.119391e-02
  1.902098e+00    8.155298e-01   1.113484e-02
  1.904308e+00    8.068910e-01   1.106529e-02
  1.906519e+00    8.099134e-01   1.107528e-02
  1.908729e+00    8.101464e-01   1.106639e-02
  1.910940e+00    8.103773e-01   1.105694e-02
  1.913150e+00    8.230408e-01   1.113245e-02
  1.915360e+00    8.113606e-01   1.104263e-02
  1.917571e+00    8.095770e-01   1.101970e-02
  1.919781e+00    8.056803e-01   1.098257e-02
  1.921992e+00    8.015298e-01   1.094373e-02
  1.924202e+00    8.135211e-01   1.101456e-02
  1.926413e+00    8.187168e-01   1.103936e-02
  1.928623e+00    7.870564e-01   1.081347e-02
  1.930834e+00    7.762418e-01   1.072869e-02
  1.933044e+00    8.051113e-01   1.091576e-02
  1.935255e+00    7.992403e-01   1.086564e-02
  1.937465e+00    7.953171e-01   1.082863e-02
  1.939675e+00    7.904356e-01   1.078459e-02
  1.941886e+00    8.123624e-01   1.092283e-02
  1.944096e+00    8.009649e-01   1.083577e-02
  1.946307e+00    8.057864e-01   1.085798e-02
  1.948517e+00    7.801628e-01   1.067363e-02
  1.950728e+00    7.951806e-01   1.076564e-02
  1.952938e+00    7.884827e-01   1.071017e-02
  1.955149e+00    8.059611e-01   1.081794e-02
  1.957359e+00    7.842391e-01   1.066121e-02
  1.959570e+00    7.830788e-01   1.064250e-02
  1.961780e+00    7.945247e-01   1.071009e-02
  1.963990e+00    8.020096e-01   1.075023e-02
  1.966201e+00    7.812211e-01   1.060000e-02
  1.968411e+00    7.794462e-01   1.057785e-02
  1.970622e+00    7.812738e-01   1.058020e-02
  1.972832e+00    7.854878e-01   1.059873e-02
  1.975043e+00    8.037723e-01   1.071122e-02
  1.977253e+00    7.866377e-01   1.058650e-02
  1.979464e+00    8.011912e-01   1.067379e-02
  1.981674e+00    8.056148e-01   1.069284e-02
  1.983885e+00    8.040528e-01   1.067230e-02
  1.986095e+00    7.716962e-01   1.044573e-02
  1.988305e+00    7.664906e-01   1.040060e-02
  1.990516e+00    7.702937e-01   1.041650e-02
  1.992726e+00    7.891968e-01   1.053379e-02
  1.994937e+00    7.884580e-01   1.051869e-02
  1.997147e+00    7.868161e-01   1.049792e-02
  1.999358e+00    7.845342e-01   1.047276e-02
  2.001568e+00    7.926138e-01   1.051562e-02
  2.003779e+00    7.802533e-01   1.042133e-02
  2.005989e+00    7.801161e-01   1.040831e-02
  2.008200e+00    7.967207e-01   1.050677e-02
  2.010410e+00    7.917143e-01   1.046182e-02
  2.012621e+00    7.675440e-01   1.028918e-02
  2.014831e+00    7.617030e-01   1.023851e-02
  2.017041e+00    7.801705e-01   1.035141e-02
  2.019252e+00    7.661642e-01   1.024813e-02
  2.021462e+00    7.571707e-01   1.017832e-02
  2.023673e+00    7.901731e-01   1.038824e-02
  2.025883e+00    7.746392e-01   1.027603e-02
  2.028094e+00    7.697760e-01   1.023404e-02
  2.030304e+00    7.799062e-01   1.029151e-02
  2.032515e+00    7.745329e-01   1.024661e-02
  2.034725e+00    7.565966e-01   1.011784e-02
  2.036936e+00    7.623606e-01   1.014695e-02
  2.039146e+00    7.544528e-01   1.008464e-02
  2.041356e+00    7.477953e-01   1.003046e-02
  2.043567e+00    7.505892e-01   1.003989e-02
  2.045777e+00    7.619098e-01   1.010604e-02
  2.047988e+00    7.534789e-01   1.004062e-02
  2.050198e+00    7.472210e-01   9.990422e-03
  2.052409e+00    7.581456e-01   1.005551e-02
  2.054619e+00    7.500418e-01   9.994273e-03
  2.056830e+00    7.563947e-01   1.002929e-02
  2.059040e+00    7.453715e-01   9.948466e-03
  2.061251e+00    7.558811e-01   1.001107e-02
  2.063461e+00    7.388259e-01   9.889958e-03
  2.065671e+00    7.228193e-01   9.773673e-03
  2.067882e+00    7.312513e-01   9.821593e-03
  2.070092e+00    7.553781e-01   9.973066e-03
  2.072303e+00    7.577471e-01   9.979500e-03
  2.074513e+00    7.293819e-01   9.781714e-03
  2.076724e+00    7.422909e-01   9.858432e-03
  2.078934e+00    7.484398e-01   9.890151e-03
  2.081145e+00    7.556335e-01   9.928412e-03
  2.083355e+00    7.334487e-01   9.772460e-03
  2.085566e+00    7.463756e-01   9.849250e-03
  2.087776e+00    7.449593e-01   9.830377e-03
  2.089986e+00    7.276869e-01   9.707016e-03
  2.092197e+00    7.414390e-01   9.789321e-03
  2.094407e+00    7.393686e-01   9.766418e-03
  2.096618e+00    7.222036e-01   9.643545e-03
  2.098828e+00    7.409776e-01   9.758735e-03
  2.101039e+00    7.551247e-01   9.842349e-03
  2.103249e+00    7.392688e-01   9.729753e-03
  2.105460e+00    7.371868e-01   9.706987e-03
  2.107670e+00    7.077330e-01   9.502481e-03
  2.109881e+00    7.159542e-01   9.548408e-03
  2.112091e+00    7.125791e-01   9.516982e-03
  2.114301e+00    7.206709e-01   9.562099e-03
  2.116512e+00    7.214654e-01   9.558584e-03
  2.118722e+00    7.194135e-01   9.536181e-03
  2.120933e+00    7.143884e-01   9.493989e-03
  2.123143e+00    7.185633e-01   9.512782e-03
  2.125354e+00    7.272877e-01   9.561776e-03
  2.127564e+00    7.053784e-01   9.407993e-03
  2.129775e+00    7.090424e-01   9.423701e-03
  2.131985e+00    7.098416e-01   9.419989e-03
  2.134196e+00    6.999528e-01   9.345625e-03
  2.136406e+00    7.087920e-01   9.395734e-03
  2.138617e+00    7.155064e-01   9.431643e-03
  2.140827e+00    7.019675e-01   9.357973e-03
  2.143037e+00    6.928921e-01   9.342299e-03
  2.145248e+00    6.922487e-01   9.359750e-03
  2.147458e+00    6.871485e-01   9.340148e-03
  2.149669e+00    6.924381e-01   9.387800e-03
  2.151879e+00    6.920481e-01   9.394306e-03
  2.154090e+00    7.063720e-01   9.498382e-03
  2.156300e+00    6.774137e-01   9.308138e-03
  2.158511e+00    7.012302e-01   9.475645e-03
  2.160721e+00    6.938872e-01   9.430728e-03
  2.162932e+00    7.090876e-01   9.537209e-03
  2.165142e+00    7.031970e-01   9.500575e-03
  2.167352e+00    6.904547e-01   9.416991e-03
  2.169563e+00    6.887714e-01   9.407443e-03
  2.171773e+00    7.092665e-01   9.548873e-03
  2.173984e+00    6.912608e-01   9.428275e-03
  2.176194e+00    6.884147e-01   9.410069e-03
  2.178405e+00    6.827810e-01   9.372161e-03
  2.180615e+00    6.756160e-01   9.323531e-03
  2.182826e+00    6.968308e-01   9.469452e-03
  2.185036e+00    6.886491e-01   9.413770e-03
  2.187247e+00    6.694914e-01   9.281850e-03
  2.189457e+00    6.861997e-01   9.396538e-03
  2.191667e+00    6.863317e-01   9.397277e-03
  2.193878e+00    6.897744e-01   9.420249e-03
  2.196088e+00    6.845759e-01   9.383991e-03
  2.198299e+00    6.834676e-01   9.375323e-03
  2.200509e+00    6.778128e-01   9.335393e-03
  2.202720e+00    6.770071e-01   9.328694e-03
  2.204930e+00    6.725394e-01   9.296626e-03
  2.207141e+00    6.835282e-01   9.371167e-03
  2.209351e+00    6.724983e-01   9.293366e-03
  2.211562e+00    6.742846e-01   9.304085e-03
  2.213772e+00    6.805037e-01   9.291263e-03
  2.215982e+00    6.793042e-01   9.238742e-03
  2.218193e+00    6.842619e-01   9.242588e-03
  2.220403e+00    6.726839e-01   9.139513e-03
  2.222614e+00    6.710073e-01   9.107210e-03
  2.224824e+00    6.770750e-01   9.128841e-03
  2.227035e+00    6.811608e-01   9.138822e-03
  2.229245e+00    6.547355e-01   8.943035e-03
  2.231456e+00    6.731083e-01   9.051995e-03
  2.233666e+00    6.632303e-01   8.970335e-03
  2.235877e+00    6.580551e-01   8.921133e-03
  2.238087e+00    6.573509e-01   8.903010e-03
  2.240298e+00    6.603107e-01   8.909341e-03
  2.242508e+00    6.618974e-01   8.904992e-03
  2.244718e+00    6.748105e-01   8.975569e-03
  2.246929e+00    6.604511e-01   8.865214e-03
  2.249139e+00    6.581383e-01   8.837406e-03
  2.251350e+00    6.460644e-01   8.744417e-03
  2.253560e+00    6.582518e-01   8.815021e-03
  2.255771e+00    6.564372e-01   8.791534e-03
  2.257981e+00    6.578962e-01   8.790194e-03
  2.260192e+00    6.652498e-01   8.828040e-03
  2.262402e+00    6.674161e-01   8.831557e-03
  2.264613e+00    6.582844e-01   8.760112e-03
  2.266823e+00    6.682545e-01   8.815792e-03
  2.269033e+00    6.546358e-01   8.715161e-03
  2.271244e+00    6.495813e-01   8.671182e-03
  2.273454e+00    6.485631e-01   8.654205e-03
  2.275665e+00    6.461101e-01   8.627658e-03
  2.277875e+00    6.775983e-01   8.825322e-03
  2.280086e+00    6.712787e-01   8.773966e-03
  2.282296e+00    6.642705e-01   8.718595e-03
  2.284507e+00    6.682732e-01   8.734627e-03
  2.286717e+00    6.532419e-01   8.626409e-03
  2.288928e+00    6.471485e-01   8.576280e-03
  2.291138e+00    6.377026e-01   8.504168e-03
  2.293348e+00    6.557540e-01   8.614155e-03
  2.295559e+00    6.482869e-01   8.555716e-03
  2.297769e+00    6.440698e-01   8.518664e-03
  2.299980e+00    6.549806e-01   8.581158e-03
  2.302190e+00    6.554097e-01   8.574848e-03
  2.304401e+00    6.372331e-01   8.445888e-03
  2.306611e+00    6.422150e-01   8.469705e-03
  2.308822e+00    6.432663e-01   8.468308e-03
  2.311032e+00    6.402348e-01   8.441920e-03
  2.313243e+00    6.327106e-01   8.385994e-03
  2.315453e+00    6.343673e-01   8.389461e-03
  2.317663e+00    6.448945e-01   8.449683e-03
  2.319874e+00    6.467439e-01   8.453058e-03
  2.322084e+00    6.520008e-01   8.478356e-03
  2.324295e+00    6.474417e-01   8.440398e-03
  2.326505e+00    6.505991e-01   8.451872e-03
  2.328716e+00    6.388580e-01   8.366742e-03
  2.330926e+00    6.249016e-01   8.266176e-03
  2.333137e+00    6.302167e-01   8.292955e-03
  2.335347e+00    6.352183e-01   8.316963e-03
  2.337558e+00    6.403908e-01   8.342536e-03
  2.339768e+00    6.383417e-01   8.320610e-03
  2.341979e+00    6.267404e-01   8.236380e-03
  2.344189e+00    6.279510e-01   8.235985e-03
  2.346399e+00    6.353537e-01   8.275914e-03
  2.348610e+00    6.251205e-01   8.200590e-03
  2.350820e+00    6.067323e-01   8.071098e-03
  2.353031e+00    6.305447e-01   8.219675e-03
  2.355241e+00    6.335753e-01   8.231362e-03
  2.357452e+00    6.249921e-01   8.167041e-03
  2.359662e+00    6.140566e-01   8.087168e-03
  2.361873e+00    6.302042e-01   8.184584e-03
  2.364083e+00    6.082228e-01   8.032729e-03
  2.366294e+00    6.050095e-01   8.003512e-03
  2.368504e+00    6.217054e-01   8.105146e-03
  2.370714e+00    6.065314e-01   7.997708e-03
  2.372925e+00    6.229730e-01   8.097324e-03
  2.375135e+00    6.228674e-01   8.088603e-03
  2.377346e+00    6.196582e-01   8.059819e-03
  2.379556e+00    6.152084e-01   8.022976e-03
  2.381767e+00    6.132151e-01   8.002153e-03
  2.383977e+00    6.214847e-01   8.047998e-03
  2.386188e+00    6.146014e-01   7.995420e-03
  2.388398e+00    6.133088e-01   7.979086e-03
  2.390609e+00    6.080282e-01   7.936984e-03
  2.392819e+00    6.144578e-01   7.971092e-03
  2.395029e+00    6.144826e-01   7.963590e-03
  2.397240e+00    6.059492e-01   7.900291e-03
  2.399450e+00    6.056603e-01   7.890644e-03
  2.401661e+00    5.900734e-01   7.780928e-03
  2.403871e+00    5.883045e-01   7.761605e-03
  2.406082e+00    6.057296e-01   7.868336e-03
  2.408292e+00    5.943317e-01   7.786251e-03
  2.410503e+00    5.940928e-01   7.777281e-03
  2.412713e+00    6.021745e-01   7.822257e-03
  2.414924e+00    5.819407e-01   7.682363e-03
  2.417134e+00    5.798727e-01   7.661226e-03
  2.419344e+00    5.873523e-01   7.703161e-03
  2.421555e+00    6.033412e-01   7.799792e-03
  2.423765e+00    5.956529e-01   7.742571e-03
  2.425976e+00    5.904571e-01   7.700969e-03
  2.428186e+00    5.915669e-01   7.701046e-03
  2.430397e+00    5.856838e-01   7.655240e-03
  2.432607e+00    5.893807e-01   7.672112e-03
  2.434818e+00    5.796690e-01   7.601224e-03
  2.437028e+00    5.813914e-01   7.605409e-03
  2.439239e+00    5.914426e-01   7.663243e-03
  2.441449e+00    5.845584e-01   7.611362e-03
  2.443659e+00    5.796952e-01   7.572352e-03
  2.445870e+00    5.880643e-01   7.639046e-03
  2.448080e+00    5.787992e-01   7.613334e-03
  2.450291e+00    5.606989e-01   7.509686e-03
  2.452501e+00    5.702929e-01   7.584769e-03
  2.454712e+00    5.657039e-01   7.562578e-03
  2.456922e+00    5.532500e-01   7.485385e-03
  2.459133e+00    5.503706e-01   7.471224e-03
  2.461343e+00    5.498858e-01   7.472224e-03
  2.463554e+00    5.496434e-01   7.473994e-03
  2.465764e+00    5.482119e-01   7.467359e-03
  2.467975e+00    5.592116e-01   7.544167e-03
  2.470185e+00    5.536171e-01   7.508605e-03
  2.472395e+00    5.410560e-01   7.424133e-03
  2.474606e+00    5.341653e-01   7.378231e-03
  2.476816e+00    5.404176e-01   7.422019e-03
  2.479027e+00    5.446745e-01   7.452029e-03
  2.481237e+00    5.487502e-01   7.480149e-03
  2.483448e+00    5.435224e-01   7.444725e-03
  2.485658e+00    5.442623e-01   7.449658e-03
  2.487869e+00    5.352514e-01   7.387766e-03
  2.490079e+00    5.376276e-01   7.403621e-03
  2.492290e+00    5.433924e-01   7.442774e-03
  2.494500e+00    5.510484e-01   7.494286e-03
  2.496710e+00    5.377048e-01   7.402303e-03
  2.498921e+00    5.364696e-01   7.392798e-03
  2.501131e+00    5.349549e-01   7.381411e-03
  2.503342e+00    5.164759e-01   7.251557e-03
  2.505552e+00    5.260217e-01   7.317122e-03
  2.507763e+00    5.323390e-01   7.359508e-03
  2.509973e+00    5.394622e-01   7.407187e-03
  2.512184e+00    5.196497e-01   7.268312e-03
  2.514394e+00    5.097153e-01   7.189258e-03
  2.516605e+00    5.204377e-01   7.217700e-03
  2.518815e+00    5.319743e-01   7.268793e-03
  2.521025e+00    5.206634e-01   7.170215e-03
  2.523236e+00    5.409914e-01   7.290603e-03
  2.525446e+00    5.310953e-01   7.207948e-03
  2.527657e+00    5.226207e-01   7.135626e-03
  2.529867e+00    5.252938e-01   7.139675e-03
  2.532078e+00    5.222049e-01   7.103640e-03
  2.534288e+00    5.169815e-01   7.054264e-03
  2.536499e+00    5.270302e-01   7.110497e-03
  2.538709e+00    5.449865e-01   7.219412e-03
  2.540920e+00    5.336050e-01   7.132903e-03
  2.543130e+00    5.363131e-01   7.140492e-03
  2.545340e+00    5.218677e-01   7.033632e-03
  2.547551e+00    5.083014e-01   6.931798e-03
  2.549761e+00    5.137275e-01   6.959188e-03
  2.551972e+00    5.191657e-01   6.986607e-03
  2.554182e+00    5.125208e-01   6.932640e-03
  2.556393e+00    5.111874e-01   6.914619e-03
  2.558603e+00    5.109715e-01   6.904162e-03
  2.560814e+00    5.092601e-01   6.883975e-03
  2.563024e+00    5.195718e-01   6.944731e-03
  2.565235e+00    5.289493e-01   6.997530e-03
  2.567445e+00    5.256887e-01   6.966324e-03
  2.569656e+00    5.222502e-01   6.933727e-03
  2.571866e+00    5.105643e-01   6.846398e-03
  2.574076e+00    5.125734e-01   6.850645e-03
  2.576287e+00    5.043955e-01   6.787540e-03
  2.578497e+00    5.100981e-01   6.817990e-03
  2.580708e+00    5.004265e-01   6.745097e-03
  2.582918e+00    4.978649e-01   6.720159e-03
  2.585129e+00    5.032778e-01   6.748941e-03
  2.587339e+00    5.035595e-01   6.743214e-03
  2.589550e+00    5.102164e-01   6.780115e-03
  2.591760e+00    5.201688e-01   6.838123e-03
  2.593971e+00    5.144444e-01   6.792855e-03
  2.596181e+00    5.130319e-01   6.777284e-03
  2.598391e+00    5.071798e-01   6.733347e-03
  2.600602e+00    5.191444e-01   6.806346e-03
  2.602812e+00    5.155720e-01   6.775301e-03
  2.605023e+00    5.007640e-01   6.670186e-03
  2.607233e+00    5.053116e-01   6.693279e-03
  2.609444e+00    5.020530e-01   6.664467e-03
  2.611654e+00    4.971107e-01   6.624344e-03
  2.613865e+00    4.938309e-01   6.595487e-03
  2.616075e+00    5.009344e-01   6.635663e-03
  2.618286e+00    5.103997e-01   6.691028e-03
  2.620496e+00    5.022873e-01   6.630972e-03
  2.622706e+00    5.029396e-01   6.629528e-03
  2.624917e+00    4.978294e-01   6.589973e-03
  2.627127e+00    5.069675e-01   6.644400e-03
  2.629338e+00    5.071551e-01   6.639651e-03
  2.631548e+00    4.985091e-01   6.576671e-03
  2.633759e+00    4.960119e-01   6.553059e-03
  2.635969e+00    5.025107e-01   6.589172e-03
  2.638180e+00    4.901810e-01   6.500925e-03
  2.640390e+00    4.978882e-01   6.545244e-03
  2.642601e+00    5.045564e-01   6.582245e-03
  2.644811e+00    4.971600e-01   6.526781e-03
  2.647021e+00    4.822380e-01   6.421616e-03
  2.649232e+00    5.029426e-01   6.551297e-03
  2.651442e+00    4.890860e-01   6.453972e-03
  2.653653e+00    4.933655e-01   6.475401e-03
  2.655863e+00    4.897750e-01   6.445169e-03
  2.658074e+00    4.889824e-01   6.433396e-03
  2.660284e+00    4.923549e-01   6.449216e-03
  2.662495e+00    4.922613e-01   6.441901e-03
  2.664705e+00    4.826725e-01   6.372367e-03
  2.666916e+00    4.976968e-01   6.464298e-03
  2.669126e+00    4.982913e-01   6.461705e-03
  2.671337e+00    4.880041e-01   6.388124e-03
  2.673547e+00    4.903922e-01   6.397381e-03
  2.675757e+00    4.765869e-01   6.300369e-03
  2.677968e+00    4.695091e-01   6.247049e-03
  2.680178e+00    4.760799e-01   6.284314e-03
  2.682389e+00    4.790919e-01   6.297865e-03
  2.684599e+00    4.882599e-01   6.351678e-03
  2.686810e+00    4.997972e-01   6.419626e-03
  2.689020e+00    4.855925e-01   6.321510e-03
  2.691231e+00    4.915089e-01   6.353586e-03
  2.693441e+00    4.915768e-01   6.347888e-03
  2.695652e+00    4.829337e-01   6.285357e-03
  2.697862e+00    4.960404e-01   6.363697e-03
  2.700072e+00    4.771340e-01   6.235254e-03
  2.702283e+00    4.840105e-01   6.273837e-03
  2.704493e+00    4.802015e-01   6.242863e-03
  2.706704e+00    4.891092e-01   6.294084e-03
  2.708914e+00    4.901720e-01   6.294959e-03
  2.711125e+00    4.799933e-01   6.223053e-03
  2.713335e+00    4.765735e-01   6.194820e-03
  2.715546e+00    4.949075e-01   6.306336e-03
  2.717756e+00    4.894699e-01   6.265699e-03
  2.719967e+00    4.873211e-01   6.245714e-03
  2.722177e+00    4.837378e-01   6.216593e-03
  2.724387e+00    4.766961e-01   6.165130e-03
  2.726598e+00    4.875538e-01   6.228868e-03
  2.728808e+00    4.818850e-01   6.186430e-03
  2.731019e+00    4.696733e-01   6.101515e-03
  2.733229e+00    4.726615e-01   6.115153e-03
  2.735440e+00    4.773116e-01   6.138937e-03
  2.737650e+00    4.787538e-01   6.142213e-03
  2.739861e+00    4.768980e-01   6.124272e-03
  2.742071e+00    4.841163e-01   6.164695e-03
  2.744282e+00    4.710197e-01   6.074575e-03
  2.746492e+00    4.769391e-01   6.106607e-03
  2.748702e+00    4.855912e-01   6.155837e-03
  2.750913e+00    4.757205e-01   6.087180e-03
  2.753123e+00    4.929656e-01   6.190353e-03
  2.755334e+00    4.748033e-01   6.069213e-03
  2.757544e+00    4.878309e-01   6.146111e-03
  2.759755e+00    4.930291e-01   6.172824e-03
  2.761965e+00    4.846513e-01   6.114144e-03
  2.764176e+00    4.805313e-01   6.082117e-03
  2.766386e+00    4.722343e-01   6.023631e-03
  2.768597e+00    4.728053e-01   6.021440e-03
  2.770807e+00    4.781193e-01   6.049321e-03
  2.773017e+00    4.794077e-01   6.051499e-03
  2.775228e+00    4.778180e-01   6.035661e-03
  2.777438e+00    4.753858e-01   6.014521e-03
  2.779649e+00    4.665627e-01   5.952605e-03
  2.781859e+00    4.736869e-01   5.992149e-03
  2.784070e+00    4.759332e-01   6.000470e-03
  2.786280e+00    4.745825e-01   5.986216e-03
  2.788491e+00    4.794626e-01   6.011058e-03
  2.790701e+00    4.821123e-01   6.021963e-03
  2.792912e+00    4.746763e-01   5.969394e-03
  2.795122e+00    4.619470e-01   5.883157e-03
  2.797333e+00    4.769872e-01   5.972599e-03
  2.799543e+00    4.606342e-01   5.863550e-03
  2.801753e+00    4.749641e-01   5.948197e-03
  2.803964e+00    4.841519e-01   5.999739e-03
  2.806174e+00    4.802108e-01   5.969113e-03
  2.808385e+00    4.687267e-01   5.890538e-03
  2.810595e+00    4.803423e-01   5.956162e-03
  2.812806e+00    4.837982e-01   5.970888e-03
  2.815016e+00    4.692171e-01   5.875513e-03
  2.817227e+00    4.789570e-01   5.962212e-03
  2.819437e+00    4.793748e-01   5.975992e-03
  2.821648e+00    4.781368e-01   5.970549e-03
  2.823858e+00    4.756574e-01   5.960413e-03
  2.826068e+00    4.624873e-01   5.882239e-03
  2.828279e+00    4.643361e-01   5.897989e-03
  2.830489e+00    4.538616e-01   5.834342e-03
  2.832700e+00    4.647773e-01   5.906633e-03
  2.834910e+00    4.719718e-01   5.954243e-03
  2.837121e+00    4.752612e-01   5.976670e-03
  2.839331e+00    4.694808e-01   5.941442e-03
  2.841542e+00    4.676568e-01   5.930905e-03
  2.843752e+00    4.745401e-01   5.975160e-03
  2.845963e+00    4.766783e-01   5.989038e-03
  2.848173e+00    4.649921e-01   5.915239e-03
  2.850383e+00    4.706734e-01   5.951564e-03
  2.852594e+00    4.701496e-01   5.948175e-03
  2.854804e+00    4.600039e-01   5.883140e-03
  2.857015e+00    4.649919e-01   5.914510e-03
  2.859225e+00    4.745117e-01   5.974500e-03
  2.861436e+00    4.587063e-01   5.873515e-03
  2.863646e+00    4.690720e-01   5.939546e-03
  2.865857e+00    4.544947e-01   5.846860e-03
  2.868067e+00    4.527545e-01   5.835869e-03
  2.870278e+00    4.497349e-01   5.816030e-03
  2.872488e+00    4.620688e-01   5.894079e-03
  2.874698e+00    4.630280e-01   5.899161e-03
  2.876909e+00    4.598311e-01   5.877431e-03
  2.879119e+00    4.593084e-01   5.872477e-03
  2.881330e+00    4.546870e-01   5.841403e-03
  2.883540e+00    4.574575e-01   5.857783e-03
  2.885751e+00    4.591185e-01   5.866777e-03
  2.887961e+00    4.624990e-01   5.886442e-03
  2.890172e+00    4.697399e-01   5.930728e-03
  2.892382e+00    4.685862e-01   5.921627e-03
  2.894593e+00    4.675702e-01   5.913361e-03
  2.896803e+00    4.606349e-01   5.867386e-03
  2.899014e+00    4.595132e-01   5.858303e-03
  2.901224e+00    4.638934e-01   5.884171e-03
  2.903434e+00    4.588038e-01   5.849858e-03
  2.905645e+00    4.597438e-01   5.853625e-03
  2.907855e+00    4.467065e-01   5.767965e-03
  2.910066e+00    4.629806e-01   5.869988e-03
  2.912276e+00    4.530213e-01   5.804418e-03
  2.914487e+00    4.535164e-01   5.805141e-03
  2.916697e+00    4.520842e-01   5.793763e-03
  2.918908e+00    4.532560e-01   5.799268e-03
  2.921118e+00    4.605526e-01   5.843059e-03
  2.923329e+00    4.628243e-01   5.855116e-03
  2.925539e+00    4.625304e-01   5.850985e-03
  2.927749e+00    4.511825e-01   5.776452e-03
  2.929960e+00    4.549147e-01   5.797538e-03
  2.932170e+00    4.480134e-01   5.751069e-03
  2.934381e+00    4.566139e-01   5.803579e-03
  2.936591e+00    4.507426e-01   5.763582e-03
  2.938802e+00    4.442423e-01   5.719204e-03
  2.941012e+00    4.438893e-01   5.714618e-03
  2.943223e+00    4.539889e-01   5.776563e-03
  2.945433e+00    4.597840e-01   5.809580e-03
  2.947644e+00    4.566089e-01   5.785346e-03
  2.949854e+00    4.504257e-01   5.741782e-03
  2.952064e+00    4.585191e-01   5.788905e-03
  2.954275e+00    4.503767e-01   5.732900e-03
  2.956485e+00    4.489018e-01   5.719324e-03
  2.958696e+00    4.496623e-01   5.719829e-03
  2.960906e+00    4.732639e-01   5.863747e-03
  2.963117e+00    4.490001e-01   5.707018e-03
  2.965327e+00    4.655140e-01   5.807042e-03
  2.967538e+00    4.579252e-01   5.756622e-03
  2.969748e+00    4.314268e-01   5.584822e-03
  2.971959e+00    4.433592e-01   5.658424e-03
  2.974169e+00    4.553915e-01   5.732106e-03
  2.976379e+00    4.602727e-01   5.759818e-03
  2.978590e+00    4.594159e-01   5.751286e-03
  2.980800e+00    4.802361e-01   5.877297e-03
  2.983011e+00    4.637333e-01   5.772603e-03
  2.985221e+00    4.558467e-01   5.720153e-03
  2.987432e+00    4.620083e-01   5.755531e-03
  2.989642e+00    4.530548e-01   5.696886e-03
  2.991853e+00    4.509853e-01   5.680566e-03
  2.994063e+00    4.476103e-01   5.656406e-03
  2.996274e+00    4.454006e-01   5.639251e-03
  2.998484e+00    4.492223e-01   5.660719e-03
  3.000694e+00    4.587633e-01   5.717038e-03
  3.002905e+00    4.574216e-01   5.705727e-03
  3.005115e+00    4.563609e-01   5.696122e-03
  3.007326e+00    4.323218e-01   5.540985e-03
  3.009536e+00    4.447690e-01   5.616959e-03
  3.011747e+00    4.492526e-01   5.642295e-03
  3.013957e+00    4.485986e-01   5.635026e-03
  3.016168e+00    4.495339e-01   5.637655e-03
  3.018378e+00    4.300009e-01   5.510859e-03
  3.020589e+00    4.483514e-01   5.623987e-03
  3.022799e+00    4.524740e-01   5.646650e-03
  3.025010e+00    4.456473e-01   5.600662e-03
  3.027220e+00    4.622031e-01   5.700612e-03
  3.029430e+00    4.614382e-01   5.692611e-03
  3.031641e+00    4.561726e-01   5.656892e-03
  3.033851e+00    4.432912e-01   5.572962e-03
  3.036062e+00    4.478487e-01   5.598774e-03
  3.038272e+00    4.508339e-01   5.613829e-03
  3.040483e+00    4.422519e-01   5.556938e-03
  3.042693e+00    4.438576e-01   5.563790e-03
  3.044904e+00    4.587721e-01   5.652427e-03
  3.047114e+00    4.579230e-01   5.642367e-03
  3.049325e+00    4.530984e-01   5.608153e-03
  3.051535e+00    4.344018e-01   5.486918e-03
  3.053745e+00    4.509552e-01   5.585707e-03
  3.055956e+00    4.596334e-01   5.634616e-03
  3.058166e+00    4.384345e-01   5.498918e-03
  3.060377e+00    4.554932e-01   5.600077e-03
  3.062587e+00    4.444295e-01   5.527059e-03
  3.064798e+00    4.388404e-01   5.487989e-03
  3.067008e+00    4.433993e-01   5.511707e-03
  3.069219e+00    4.467872e-01   5.528248e-03
  3.071429e+00    4.544884e-01   5.572144e-03
  3.073640e+00    4.451764e-01   5.511464e-03
  3.075850e+00    4.392776e-01   5.471268e-03
  3.078060e+00    4.479368e-01   5.521851e-03
  3.080271e+00    4.470029e-01   5.512598e-03
  3.082481e+00    4.433033e-01   5.486337e-03
  3.084692e+00    4.412872e-01   5.470475e-03
  3.086902e+00    4.467358e-01   5.500910e-03
  3.089113e+00    4.466549e-01   5.496862e-03
  3.091323e+00    4.380342e-01   5.440204e-03
  3.093534e+00    4.436757e-01   5.471776e-03
  3.095744e+00    4.506596e-01   5.511275e-03
  3.097955e+00    4.591135e-01   5.559150e-03
  3.100165e+00    4.500133e-01   5.500435e-03
  3.102375e+00    4.407749e-01   5.440281e-03
  3.104586e+00    4.462872e-01   5.470705e-03
  3.106796e+00    4.391885e-01   5.423525e-03
  3.109007e+00    4.441732e-01   5.451005e-03
  3.111217e+00    4.507910e-01   5.487762e-03
  3.113428e+00    4.409976e-01   5.424431e-03
  3.115638e+00    4.397031e-01   5.413232e-03
  3.117849e+00    4.394738e-01   5.408131e-03
  3.120059e+00    4.564501e-01   5.508076e-03
  3.122270e+00    4.472467e-01   5.449018e-03
  3.124480e+00    4.550207e-01   5.492433e-03
  3.126691e+00    4.591497e-01   5.513681e-03
  3.128901e+00    4.457596e-01   5.429566e-03
  3.131111e+00    4.255389e-01   5.301230e-03
  3.133322e+00    4.424841e-01   5.402301e-03
  3.135532e+00    4.439353e-01   5.407743e-03
  3.137743e+00    4.466139e-01   5.420564e-03
  3.139953e+00    4.421219e-01   5.389545e-03
  3.142164e+00    4.401392e-01   5.389428e-03
  3.144374e+00    4.395922e-01   5.414394e-03
  3.146585e+00    4.336418e-01   5.392048e-03
  3.148795e+00    4.308577e-01   5.385336e-03
  3.151006e+00    4.340520e-01   5.413740e-03
  3.153216e+00    4.301198e-01   5.396189e-03
  3.155426e+00    4.386658e-01   5.455854e-03
  3.157637e+00    4.335518e-01   5.429402e-03
  3.159847e+00    4.392540e-01   5.469885e-03
  3.162058e+00    4.563973e-01   5.580105e-03
  3.164268e+00    4.414006e-01   5.491726e-03
  3.166479e+00    4.348451e-01   5.454447e-03
  3.168689e+00    4.358144e-01   5.463847e-03
  3.170900e+00    4.293227e-01   5.426161e-03
  3.173110e+00    4.368713e-01   5.476495e-03
  3.175321e+00    4.387966e-01   5.491070e-03
  3.177531e+00    4.227657e-01   5.392519e-03
  3.179741e+00    4.241552e-01   5.403394e-03
  3.181952e+00    4.274621e-01   5.426513e-03
  3.184162e+00    4.353086e-01   5.478295e-03
  3.186373e+00    4.301718e-01   5.447437e-03
  3.188583e+00    4.337864e-01   5.472059e-03
  3.190794e+00    4.515218e-01   5.584590e-03
  3.193004e+00    4.359758e-01   5.488860e-03
  3.195215e+00    4.321272e-01   5.466080e-03
  3.197425e+00    4.099547e-01   5.325183e-03
  3.199636e+00    4.124426e-01   5.340532e-03
  3.201846e+00    4.291324e-01   5.446933e-03
  3.204056e+00    4.246812e-01   5.419488e-03
  3.206267e+00    4.290307e-01   5.448011e-03
  3.208477e+00    4.228996e-01   5.409867e-03
  3.210688e+00    4.325939e-01   5.472343e-03
  3.212898e+00    4.418444e-01   5.531142e-03
  3.215109e+00    4.381526e-01   5.508752e-03
  3.217319e+00    4.257725e-01   5.430991e-03
  3.219530e+00    4.283024e-01   5.447490e-03
  3.221740e+00    4.393628e-01   5.517932e-03
  3.223951e+00    4.361077e-01   5.497950e-03
  3.226161e+00    4.329666e-01   5.478308e-03
  3.228372e+00    4.218135e-01   5.407799e-03
  3.230582e+00    4.293776e-01   5.456214e-03
  3.232792e+00    4.243245e-01   5.424235e-03
  3.235003e+00    4.328098e-01   5.478441e-03
  3.237213e+00    4.252798e-01   5.430697e-03
  3.239424e+00    4.205121e-01   5.400150e-03
  3.241634e+00    4.375230e-01   5.508427e-03
  3.243845e+00    4.169343e-01   5.377328e-03
  3.246055e+00    4.176110e-01   5.381426e-03
  3.248266e+00    4.233235e-01   5.418293e-03
  3.250476e+00    4.296658e-01   5.458434e-03
  3.252687e+00    4.198796e-01   5.395850e-03
  3.254897e+00    4.136269e-01   5.355392e-03
  3.257107e+00    4.272174e-01   5.442333e-03
  3.259318e+00    4.295033e-01   5.456667e-03
  3.261528e+00    4.203391e-01   5.397993e-03
  3.263739e+00    4.193078e-01   5.390785e-03
  3.265949e+00    4.344650e-01   5.487262e-03
  3.268160e+00    4.220755e-01   5.408038e-03
  3.270370e+00    4.231081e-01   5.414145e-03
  3.272581e+00    4.199350e-01   5.393503e-03
  3.274791e+00    4.231997e-01   5.413931e-03
  3.277002e+00    4.233598e-01   5.414376e-03
  3.279212e+00    4.216473e-01   5.403052e-03
  3.281422e+00    4.176725e-01   5.376941e-03
  3.283633e+00    4.160349e-01   5.365716e-03
  3.285843e+00    4.148492e-01   5.357721e-03
  3.288054e+00    4.246605e-01   5.419779e-03
  3.290264e+00    4.302106e-01   5.454765e-03
  3.292475e+00    4.198065e-01   5.387588e-03
  3.294685e+00    4.155186e-01   5.359348e-03
  3.296896e+00    4.127485e-01   5.340728e-03
  3.299106e+00    4.136627e-01   5.346082e-03
  3.301317e+00    4.102220e-01   5.322788e-03
  3.303527e+00    4.075887e-01   5.305228e-03
  3.305737e+00    4.217396e-01   5.395480e-03
  3.307948e+00    4.233970e-01   5.405399e-03
  3.310158e+00    4.201462e-01   5.383774e-03
  3.312369e+00    4.228801e-01   5.400375e-03
  3.314579e+00    4.209089e-01   5.386869e-03
  3.316790e+00    4.103127e-01   5.317933e-03
  3.319000e+00    4.284221e-01   5.432820e-03
  3.321211e+00    4.264462e-01   5.419662e-03
  3.323421e+00    4.189304e-01   5.370513e-03
  3.325632e+00    4.141764e-01   5.339065e-03
  3.327842e+00    4.130650e-01   5.330997e-03
  3.330052e+00    4.169950e-01   5.355204e-03
  3.332263e+00    4.213255e-01   5.381968e-03
  3.334473e+00    4.122805e-01   5.322961e-03
  3.336684e+00    4.182834e-01   5.360309e-03
  3.338894e+00    4.240721e-01   5.396426e-03
  3.341105e+00    4.319435e-01   5.445066e-03
  3.343315e+00    4.168849e-01   5.348181e-03
  3.345526e+00    3.999814e-01   5.237745e-03
  3.347736e+00    4.090544e-01   5.295427e-03
  3.349947e+00    4.049608e-01   5.267965e-03
  3.352157e+00    4.057617e-01   5.271981e-03
  3.354368e+00    4.255156e-01   5.397497e-03
  3.356578e+00    4.213823e-01   5.370200e-03
  3.358788e+00    4.146912e-01   5.326079e-03
  3.360999e+00    4.254785e-01   5.393632e-03
  3.363209e+00    4.175866e-01   5.342377e-03
  3.365420e+00    4.104806e-01   5.295230e-03
  3.367630e+00    4.149400e-01   5.322896e-03
  3.369841e+00    3.999287e-01   5.224324e-03
  3.372051e+00    4.072571e-01   5.270014e-03
  3.374262e+00    4.081996e-01   5.273699e-03
  3.376472e+00    4.152894e-01   5.316868e-03
  3.378683e+00    4.058402e-01   5.253538e-03
  3.380893e+00    4.174502e-01   5.325813e-03
  3.383103e+00    4.239178e-01   5.364194e-03
  3.385314e+00    4.057080e-01   5.245519e-03
  3.387524e+00    4.102272e-01   5.271922e-03
  3.389735e+00    4.167345e-01   5.310930e-03
  3.391945e+00    4.225493e-01   5.344143e-03
  3.394156e+00    4.107409e-01   5.264740e-03
  3.396366e+00    4.028159e-01   5.210332e-03
  3.398577e+00    4.075661e-01   5.237917e-03
  3.400787e+00    4.159866e-01   5.303732e-03
  3.402998e+00    4.055241e-01   5.274500e-03
  3.405208e+00    3.956225e-01   5.230093e-03
  3.407418e+00    4.001190e-01   5.275489e-03
  3.409629e+00    3.969823e-01   5.268664e-03
  3.411839e+00    3.921922e-01   5.248469e-03
  3.414050e+00    3.932710e-01   5.266604e-03
  3.416260e+00    4.006294e-01   5.325372e-03
  3.418471e+00    3.845409e-01   5.226658e-03
  3.420681e+00    3.786646e-01   5.194907e-03
  3.422892e+00    3.901307e-01   5.280973e-03
  3.425102e+00    3.761806e-01   5.193372e-03
  3.427313e+00    3.741568e-01   5.186436e-03
  3.429523e+00    3.670918e-01   5.144115e-03
  3.431733e+00    3.716463e-01   5.182470e-03
  3.433944e+00    3.834257e-01   5.270414e-03
  3.436154e+00    3.878435e-01   5.306996e-03
  3.438365e+00    3.836066e-01   5.283860e-03
  3.440575e+00    3.859898e-01   5.306226e-03
  3.442786e+00    3.905540e-01   5.343195e-03
  3.444996e+00    3.789305e-01   5.268608e-03
  3.447207e+00    3.775124e-01   5.264028e-03
  3.449417e+00    3.655219e-01   5.220264e-03
  3.451628e+00    3.522050e-01   5.153048e-03
  3.453838e+00    3.654611e-01   5.270205e-03
  3.456049e+00    3.634481e-01   5.279494e-03
  3.458259e+00    3.567060e-01   5.251900e-03
  3.460469e+00    3.761478e-01   5.413179e-03
  3.462680e+00    3.706847e-01   5.392921e-03
  3.464890e+00    3.571573e-01   5.311165e-03
  3.467101e+00    3.685019e-01   5.412331e-03
  3.469311e+00    3.906340e-01   5.589499e-03
  3.471522e+00    3.858829e-01   5.572052e-03
  3.473732e+00    3.965708e-01   5.664987e-03
  3.475943e+00    3.923853e-01   5.650949e-03
  3.478153e+00    3.919824e-01   5.663535e-03
  3.480364e+00    4.260663e-01   5.920397e-03
  3.482574e+00    4.133964e-01   5.847250e-03
  3.484784e+00    4.248948e-01   5.943126e-03
  3.486995e+00    4.377578e-01   6.047903e-03
  3.489205e+00    4.479752e-01   6.133176e-03
  3.491416e+00    4.335348e-01   6.048542e-03
  3.493626e+00    4.514703e-01   6.187246e-03
  3.495837e+00    4.413505e-01   6.132293e-03
  3.498047e+00    4.422905e-01   6.153266e-03
  3.500258e+00    4.560128e-01   6.262630e-03
  3.502468e+00    4.524695e-01   6.252655e-03
  3.504679e+00    4.704269e-01   6.390140e-03
  3.506889e+00    4.905971e-01   6.540535e-03
  3.509099e+00    4.736767e-01   6.441175e-03
  3.511310e+00    4.701322e-01   6.431370e-03
  3.513520e+00    4.721859e-01   6.459680e-03
  3.515731e+00    4.755727e-01   6.497017e-03
  3.517941e+00    4.962654e-01   6.651322e-03
  3.520152e+00    5.107391e-01   6.762145e-03
  3.522362e+00    4.969353e-01   6.684607e-03
  3.524573e+00    5.073572e-01   6.768594e-03
  3.526783e+00    5.110970e-01   6.806895e-03
  3.528994e+00    5.112171e-01   6.819842e-03
  3.531204e+00    5.157877e-01   6.862631e-03
  3.533414e+00    5.359541e-01   7.007727e-03
  3.535625e+00    5.459492e-01   7.085359e-03
  3.537835e+00    5.431139e-01   7.079134e-03
  3.540046e+00    5.670270e-01   7.242525e-03
  3.542256e+00    5.581678e-01   7.193407e-03
  3.544467e+00    5.462851e-01   7.124133e-03
  3.546677e+00    5.365928e-01   7.068213e-03
  3.548888e+00    5.582154e-01   7.216867e-03
  3.551098e+00    5.316287e-01   7.050205e-03
  3.553309e+00    5.161961e-01   6.955098e-03
  3.555519e+00    5.315179e-01   7.068811e-03
  3.557729e+00    5.359099e-01   7.109691e-03
  3.559940e+00    5.356263e-01   7.119345e-03
  3.562150e+00    5.359902e-01   7.133481e-03
  3.564361e+00    5.469500e-01   7.219475e-03
  3.566571e+00    5.438022e-01   7.212637e-03
  3.568782e+00    5.332708e-01   7.156524e-03
  3.570992e+00    5.178807e-01   7.066011e-03
  3.573203e+00    5.251935e-01   7.129720e-03
  3.575413e+00    5.409242e-01   7.249548e-03
  3.577624e+00    5.482658e-01   7.312874e-03
  3.579834e+00    5.394561e-01   7.267811e-03
  3.582045e+00    5.294473e-01   7.214025e-03
  3.584255e+00    5.235541e-01   7.187646e-03
  3.586465e+00    5.202131e-01   7.178389e-03
  3.588676e+00    5.277185e-01   7.244089e-03
  3.590886e+00    5.401915e-01   7.342950e-03
  3.593097e+00    5.365458e-01   7.332635e-03
  3.595307e+00    5.446175e-01   7.401630e-03
  3.597518e+00    5.219824e-01   7.260243e-03
  3.599728e+00    5.329793e-01   7.350330e-03
  3.601939e+00    5.602312e-01   7.550342e-03
  3.604149e+00    5.567794e-01   7.541706e-03
  3.606360e+00    5.665869e-01   7.622417e-03
  3.608570e+00    5.423296e-01   7.471712e-03
  3.610780e+00    5.403224e-01   7.468967e-03
  3.612991e+00    5.578427e-01   7.599327e-03
  3.615201e+00    5.477191e-01   7.539983e-03
  3.617412e+00    5.572368e-01   7.612630e-03
  3.619622e+00    5.476520e-01   7.552891e-03
  3.621833e+00    5.375673e-01   7.489789e-03
  3.624043e+00    5.347713e-01   7.479758e-03
  3.626254e+00    5.365130e-01   7.501687e-03
  3.628464e+00    5.406964e-01   7.541883e-03
  3.630675e+00    5.277575e-01   7.465154e-03
  3.632885e+00    5.325665e-01   7.513505e-03
  3.635095e+00    5.431575e-01   7.602382e-03
  3.637306e+00    5.274183e-01   7.505705e-03
  3.639516e+00    5.446907e-01   7.642304e-03
  3.641727e+00    5.305258e-01   7.556805e-03
  3.643937e+00    5.488403e-01   7.700903e-03
  3.646148e+00    5.247833e-01   7.544733e-03
  3.648358e+00    5.233150e-01   7.548892e-03
  3.650569e+00    5.332134e-01   7.634667e-03
  3.652779e+00    5.441400e-01   7.727449e-03
  3.654990e+00    5.505372e-01   7.787860e-03
  3.657200e+00    5.466312e-01   7.775296e-03
  3.659410e+00    5.338174e-01   7.698613e-03
  3.661621e+00    5.251723e-01   7.651038e-03
  3.663831e+00    5.286245e-01   7.691194e-03
  3.666042e+00    5.316197e-01   7.728134e-03
  3.668252e+00    5.261710e-01   7.703567e-03
  3.670463e+00    5.424020e-01   7.836893e-03
  3.672673e+00    5.283577e-01   7.750187e-03
  3.674884e+00    5.214076e-01   7.714272e-03
  3.677094e+00    5.118477e-01   7.658454e-03
  3.679305e+00    5.366311e-01   7.857363e-03
  3.681515e+00    5.155463e-01   7.716788e-03
  3.683726e+00    5.306508e-01   7.844906e-03
  3.685936e+00    5.269076e-01   7.832797e-03
  3.688146e+00    5.234159e-01   7.822566e-03
  3.690357e+00    5.172681e-01   7.792224e-03
  3.692567e+00    5.218606e-01   7.842816e-03
  3.694778e+00    5.220029e-01   7.859871e-03
  3.696988e+00    4.866154e-01   7.604160e-03
  3.699199e+00    5.182799e-01   7.863733e-03
  3.701409e+00    5.190966e-01   7.886230e-03
  3.703620e+00    5.384866e-01   8.048722e-03
  3.705830e+00    5.226306e-01   7.945688e-03
  3.708041e+00    5.326324e-01   8.038074e-03
  3.710251e+00    5.345562e-01   8.069484e-03
  3.712461e+00    5.336976e-01   8.079938e-03
  3.714672e+00    5.279422e-01   8.053053e-03
  3.716882e+00    5.069543e-01   7.907867e-03
  3.719093e+00    5.107084e-01   7.954038e-03
  3.721303e+00    5.252424e-01   8.083481e-03
  3.723514e+00    5.120482e-01   7.998475e-03
  3.725724e+00    5.115736e-01   8.011804e-03
  3.727935e+00    5.141001e-01   8.048946e-03
  3.730145e+00    5.257843e-01   8.157374e-03
  3.732356e+00    5.053027e-01   8.014284e-03
  3.734566e+00    5.116615e-01   8.081993e-03
  3.736776e+00    5.255545e-01   8.208931e-03
  3.738987e+00    5.249079e-01   8.221827e-03
  3.741197e+00    5.182319e-01   8.187450e-03
  3.743408e+00    5.272564e-01   8.276741e-03
  3.745618e+00    5.076960e-01   8.139978e-03
  3.747829e+00    4.984311e-01   8.083223e-03
  3.750039e+00    4.949845e-01   8.073302e-03
  3.752250e+00    4.975628e-01   8.112525e-03
  3.754460e+00    5.233023e-01   8.338474e-03
  3.756671e+00    5.168678e-01   8.306036e-03
  3.758881e+00    4.931164e-01   8.131281e-03
  3.761091e+00    4.806625e-01   8.046558e-03
  3.763302e+00    4.803339e-01   8.062346e-03
  3.765512e+00    5.056657e-01   8.291394e-03
  3.767723e+00    5.036172e-01   8.293909e-03
  3.769933e+00    4.947730e-01   8.239856e-03
  3.772144e+00    5.041438e-01   8.337077e-03
  3.774354e+00    4.917239e-01   8.253268e-03
  3.776565e+00    5.140843e-01   8.458906e-03
  3.778775e+00    5.186347e-01   8.516462e-03
  3.780986e+00    5.159524e-01   8.514982e-03
  3.783196e+00    5.218524e-01   8.584131e-03
  3.785407e+00    5.023223e-01   8.442367e-03
  3.787617e+00    4.913550e-01   8.370264e-03
  3.789827e+00    4.891704e-01   8.371833e-03
  3.792038e+00    4.864420e-01   8.369002e-03
  3.794248e+00    4.908812e-01   8.428012e-03
  3.796459e+00    4.890851e-01   8.433719e-03
  3.798669e+00    4.770844e-01   8.350445e-03
  3.800880e+00    5.105244e-01   8.659749e-03
  3.803090e+00    5.137268e-01   8.709060e-03
  3.805301e+00    5.194966e-01   8.780303e-03
  3.807511e+00    4.998336e-01   8.634553e-03
  3.809722e+00    5.069410e-01   8.718125e-03
  3.811932e+00    5.088616e-01   8.757020e-03
  3.814142e+00    4.971244e-01   8.678274e-03
  3.816353e+00    5.153032e-01   8.858752e-03
  3.818563e+00    5.074952e-01   8.814664e-03
  3.820774e+00    5.171248e-01   8.921497e-03
  3.822984e+00    4.991419e-01   8.788408e-03
  3.825195e+00    5.036738e-01   8.852121e-03
  3.827405e+00    5.065000e-01   8.900952e-03
  3.829616e+00    4.775858e-01   8.666784e-03
  3.831826e+00    4.896685e-01   8.799631e-03
  3.834037e+00    4.966202e-01   8.886501e-03
  3.836247e+00    5.090601e-01   9.021968e-03
  3.838457e+00    5.079376e-01   9.037402e-03
  3.840668e+00    4.938147e-01   8.936034e-03
  3.842878e+00    4.836290e-01   8.868523e-03
  3.845089e+00    4.752581e-01   8.816516e-03
  3.847299e+00    5.053667e-01   9.117513e-03
  3.849510e+00    5.126808e-01   9.209603e-03
  3.851720e+00    4.804876e-01   8.936845e-03
  3.853931e+00    5.047281e-01   9.178646e-03
  3.856141e+00    5.187728e-01   9.324965e-03
  3.858352e+00    5.115091e-01   9.279059e-03
  3.860562e+00    4.985541e-01   9.180250e-03
  3.862772e+00    4.726919e-01   8.958058e-03
  3.864983e+00    4.864217e-01   9.106664e-03
  3.867193e+00    5.182980e-01   9.420718e-03
  3.869404e+00    4.864705e-01   9.146520e-03
  3.871614e+00    4.918686e-01   9.217079e-03
  3.873825e+00    5.135017e-01   9.438286e-03
  3.876035e+00    4.799143e-01   9.144741e-03
  3.878246e+00    4.943321e-01   9.306842e-03
  3.880456e+00    5.075368e-01   9.459804e-03
  3.882667e+00    5.247704e-01   9.649328e-03
  3.884877e+00    5.325115e-01   9.751270e-03
  3.887087e+00    4.980904e-01   9.460950e-03
  3.889298e+00    4.788714e-01   9.306618e-03
  3.891508e+00    4.850391e-01   9.396681e-03
  3.893719e+00    4.949662e-01   9.523449e-03
  3.895929e+00    5.120328e-01   9.718386e-03
  3.898140e+00    4.861677e-01   9.501362e-03
  3.900350e+00    4.944370e-01   9.613997e-03
  3.902561e+00    5.027897e-01   9.727648e-03
  3.904771e+00    5.063387e-01   9.795304e-03
  3.906982e+00    5.338688e-01   1.009270e-02
  3.909192e+00    4.915132e-01   9.717678e-03
  3.911403e+00    4.690579e-01   9.526359e-03
  3.913613e+00    4.878996e-01   9.750057e-03
  3.915823e+00    4.952488e-01   9.858226e-03
  3.918034e+00    4.644678e-01   9.581410e-03
  3.920244e+00    4.942839e-01   9.920008e-03
  3.922455e+00    4.946599e-01   9.960171e-03
  3.924665e+00    5.035202e-01   1.008599e-02
  3.926876e+00    4.912412e-01   9.999442e-03
  3.929086e+00    4.868166e-01   9.991699e-03
  3.931297e+00    4.730962e-01   9.884137e-03
  3.933507e+00    5.027530e-01   1.021861e-02
  3.935718e+00    4.942322e-01   1.016061e-02
  3.937928e+00    4.757710e-01   9.998138e-03
  3.940138e+00    4.829238e-01   1.010220e-02
  3.942349e+00    5.041362e-01   1.035205e-02
  3.944559e+00    4.968977e-01   1.030777e-02
  3.946770e+00    4.777443e-01   1.013709e-02
  3.948980e+00    4.808475e-01   1.020046e-02
  3.951191e+00    4.744535e-01   1.016289e-02
  3.953401e+00    4.933706e-01   1.039510e-02
  3.955612e+00    4.903848e-01   1.039533e-02
  3.957822e+00    5.097383e-01   1.063095e-02
  3.960033e+00    5.032947e-01   1.059680e-02
  3.962243e+00    4.657508e-01   1.022600e-02
  3.964453e+00    5.093198e-01   1.072743e-02
  3.966664e+00    5.186524e-01   1.086002e-02
  3.968874e+00    4.867808e-01   1.054930e-02
  3.971085e+00    4.881371e-01   1.058602e-02
  3.973295e+00    4.808120e-01   1.052765e-02
  3.975506e+00    4.924546e-01   1.067611e-02
  3.977716e+00    4.943668e-01   1.071901e-02
  3.979927e+00    4.649523e-01   1.041700e-02
  3.982137e+00    4.895583e-01   1.071128e-02
  3.984348e+00    4.839029e-01   1.067188e-02
  3.986558e+00    5.030169e-01   1.090333e-02
  3.988768e+00    4.638717e-01   1.049295e-02
  3.990979e+00    4.822947e-01   1.072199e-02
  3.993189e+00    4.778989e-01   1.069590e-02
  3.995400e+00    4.961099e-01   1.092160e-02
  3.997610e+00    4.856070e-01   1.083521e-02
  3.999821e+00    4.777639e-01   1.078466e-02
  4.002031e+00    4.518953e-01   1.052562e-02
  4.004242e+00    4.674998e-01   1.074360e-02
  4.006452e+00    4.872401e-01   1.100759e-02
  4.008663e+00    4.747192e-01   1.090478e-02
  4.010873e+00    5.046728e-01   1.128434e-02
  4.013084e+00    5.136741e-01   1.142669e-02
  4.015294e+00    4.692121e-01   1.096142e-02
  4.017504e+00    4.689305e-01   1.099927e-02
  4.019715e+00    4.724726e-01   1.108269e-02
  4.021925e+00    4.903596e-01   1.133373e-02
  4.024136e+00    4.818445e-01   1.127855e-02
  4.026346e+00    5.021828e-01   1.155902e-02
  4.028557e+00    4.732551e-01   1.126503e-02
  4.030767e+00    4.880851e-01   1.148604e-02
  4.032978e+00    4.792796e-01   1.142795e-02
  4.035188e+00    4.992289e-01   1.171034e-02
  4.037399e+00    4.910992e-01   1.166266e-02
  4.039609e+00    4.601427e-01   1.133554e-02
  4.041819e+00    5.027924e-01   1.189896e-02
  4.044030e+00    4.649413e-01   1.149134e-02
  4.046240e+00    4.517446e-01   1.137525e-02
  4.048451e+00    4.355154e-01   1.121740e-02
  4.050661e+00    5.161126e-01   1.226448e-02
  4.052872e+00    4.743595e-01   1.181027e-02
  4.055082e+00    4.746106e-01   1.186636e-02
  4.057293e+00    4.955051e-01   1.217929e-02
  4.059503e+00    4.658963e-01   1.186357e-02
  4.061714e+00    4.808280e-01   1.210852e-02
  4.063924e+00    4.745736e-01   1.208569e-02
  4.066134e+00    4.977836e-01   1.243621e-02
  4.068345e+00    4.477968e-01   1.185204e-02
  4.070555e+00    4.711674e-01   1.221594e-02
  4.072766e+00    5.084912e-01   1.275315e-02
  4.074976e+00    5.011737e-01   1.272417e-02
  4.077187e+00    4.795033e-01   1.250794e-02
  4.079397e+00    4.758896e-01   1.252437e-02
  4.081608e+00    5.207621e-01   1.316966e-02
  4.083818e+00    4.625182e-01   1.247594e-02
  4.086029e+00    4.747697e-01   1.270678e-02
  4.088239e+00    4.669927e-01   1.267003e-02
  4.090449e+00    4.943943e-01   1.310708e-02
  4.092660e+00    5.031630e-01   1.329564e-02
  4.094870e+00    4.986901e-01   1.331009e-02
  4.097081e+00    4.633797e-01   1.290042e-02
  4.099291e+00    4.614888e-01   1.292740e-02
  4.101502e+00    4.558017e-01   1.289545e-02
  4.103712e+00    4.713571e-01   1.316236e-02
  4.105923e+00    4.824281e-01   1.336786e-02
  4.108133e+00    4.428940e-01   1.285755e-02
  4.110344e+00    5.092574e-01   1.384000e-02
  4.112554e+00    4.434361e-01   1.296587e-02
  4.114764e+00    4.982944e-01   1.379946e-02
  4.116975e+00    4.611780e-01   1.332817e-02
  4.119185e+00    4.689543e-01   1.349448e-02
  4.121396e+00    4.744785e-01   1.362982e-02
  4.123606e+00    4.901023e-01   1.390919e-02
  4.125817e+00    5.091802e-01   1.423677e-02
  4.128027e+00    5.219324e-01   1.447461e-02
  4.130238e+00    5.065765e-01   1.432132e-02
  4.132448e+00    4.972643e-01   1.425060e-02
  4.134659e+00    4.739425e-01   1.397237e-02
  4.136869e+00    4.980498e-01   1.438706e-02
  4.139080e+00    5.282392e-01   1.488343e-02
  4.141290e+00    5.185854e-01   1.481234e-02
  4.143500e+00    4.797828e-01   1.431293e-02
  4.145711e+00    4.875365e-01   1.449554e-02
  4.147921e+00    5.438722e-01   1.538039e-02
  4.150132e+00    5.417030e-01   1.542307e-02
  4.152342e+00    5.078803e-01   1.500614e-02
  4.154553e+00    4.708899e-01   1.451797e-02
  4.156763e+00    5.368275e-01   1.557778e-02
  4.158974e+00    5.065341e-01   1.520806e-02
  4.161184e+00    4.547144e-01   1.448081e-02
  4.163395e+00    4.725892e-01   1.483760e-02
  4.165605e+00    5.068515e-01   1.544625e-02
  4.167815e+00    5.211922e-01   1.574492e-02
  4.170026e+00    4.813022e-01   1.521032e-02
  4.172236e+00    4.788219e-01   1.525277e-02
  4.174447e+00    4.921521e-01   1.554795e-02
  4.176657e+00    4.668256e-01   1.522527e-02
  4.178868e+00    5.197300e-01   1.615595e-02
  4.181078e+00    4.809994e-01   1.562969e-02
  4.183289e+00    4.864772e-01   1.580863e-02
  4.185499e+00    4.270466e-01   1.489861e-02
  4.187710e+00    4.674982e-01   1.567981e-02
  4.189920e+00    4.702080e-01   1.581987e-02
  4.192130e+00    5.167141e-01   1.668515e-02
  4.194341e+00    4.834397e-01   1.623807e-02
  4.196551e+00    4.771716e-01   1.623442e-02
  4.198762e+00    4.693382e-01   1.620293e-02
  4.200972e+00    4.479656e-01   1.593218e-02
  4.203183e+00    4.579748e-01   1.621509e-02
  4.205393e+00    4.894655e-01   1.687521e-02
  4.207604e+00    4.935734e-01   1.706143e-02
  4.209814e+00    4.837281e-01   1.700608e-02
  4.212025e+00    4.543013e-01   1.659779e-02
  4.214235e+00    4.669097e-01   1.694549e-02
  4.216445e+00    4.781050e-01   1.727152e-02
  4.218656e+00    4.581217e-01   1.703349e-02
  4.220866e+00    4.599677e-01   1.719409e-02
  4.223077e+00    5.015640e-01   1.809292e-02
  4.225287e+00    4.544262e-01   1.735725e-02
  4.227498e+00    4.902626e-01   1.816974e-02
  4.229708e+00    4.965289e-01   1.843466e-02
  4.231919e+00    4.654291e-01   1.799529e-02
  4.234129e+00    5.052419e-01   1.890648e-02
  4.236340e+00    4.926443e-01   1.882906e-02
  4.238550e+00    5.233428e-01   1.957835e-02
  4.240761e+00    4.679283e-01   1.867646e-02
  4.242971e+00    4.028398e-01   1.748726e-02
  4.245181e+00    4.472710e-01   1.859957e-02
  4.247392e+00    4.558069e-01   1.895212e-02
  4.249602e+00    4.568723e-01   1.916228e-02
  4.251813e+00    4.695504e-01   1.961800e-02
  4.254023e+00    3.931408e-01   1.813192e-02
  4.256234e+00    3.978539e-01   1.843470e-02
  4.258444e+00    4.844948e-01   2.055651e-02
  4.260655e+00    4.765406e-01   2.061126e-02
  4.262865e+00    5.194597e-01   2.176309e-02
  4.265076e+00    4.776456e-01   2.110666e-02
  4.267286e+00    4.983865e-01   2.181544e-02
  4.269496e+00    4.484031e-01   2.094518e-02
  4.271707e+00    4.893392e-01   2.215058e-02
  4.273917e+00    4.868555e-01   2.238016e-02
  4.276128e+00    4.091967e-01   2.079024e-02
  4.278338e+00    3.694913e-01   2.001988e-02
  4.280549e+00    3.425098e-01   1.955070e-02
  4.282759e+00    4.649085e-01   2.310569e-02
  4.284970e+00    4.295376e-01   2.253789e-02
  4.287180e+00    4.805986e-01   2.412575e-02
  4.289391e+00    4.408718e-01   2.328032e-02
  4.291601e+00    5.111275e-01   2.526714e-02
  4.293811e+00    4.786972e-01   2.464349e-02
  4.296022e+00    4.976813e-01   2.532959e-02
  4.298232e+00    4.034747e-01   2.299785e-02
  4.300443e+00    4.357532e-01   2.409634e-02
  4.302653e+00    5.005355e-01   2.604981e-02
  4.304864e+00    4.388619e-01   2.460283e-02
  4.307074e+00    6.086326e-01   2.923426e-02
  4.309285e+00    4.748312e-01   2.605669e-02
  4.311495e+00    4.828281e-01   2.652011e-02
  4.313706e+00    4.292488e-01   2.524111e-02
  4.315916e+00    4.410177e-01   2.583645e-02
  4.318126e+00    5.378339e-01   2.881365e-02
  4.320337e+00    4.981442e-01   2.801061e-02
  4.322547e+00    4.385056e-01   2.655962e-02
  4.324758e+00    3.475860e-01   2.389207e-02
  4.326968e+00    4.830085e-01   2.848107e-02
  4.329179e+00    4.851665e-01   2.885997e-02
  4.331389e+00    4.225899e-01   2.724460e-02
  4.333600e+00    3.971566e-01   2.672708e-02
  4.335810e+00    4.917786e-01   3.009527e-02
  4.338021e+00    4.517731e-01   2.921437e-02
  4.340231e+00    5.041557e-01   3.124940e-02
  4.342442e+00    4.230044e-01   2.900806e-02
  4.344652e+00    4.754045e-01   3.116820e-02
  4.346862e+00    5.659606e-01   3.448564e-02
  4.349073e+00    4.983638e-01   3.283167e-02
  4.351283e+00    4.811447e-01   3.274001e-02
  4.353494e+00    5.087804e-01   3.418846e-02
  4.355704e+00    4.894872e-01   3.407419e-02
  4.357915e+00    3.162389e-01   2.784280e-02
  4.360125e+00    4.374044e-01   3.330364e-02
  4.362336e+00    5.828910e-01   3.914748e-02
  4.364546e+00    5.471752e-01   3.862039e-02
  4.366757e+00    5.204344e-01   3.841343e-02
  4.368967e+00    4.231527e-01   3.532961e-02
  4.371177e+00    3.420776e-01   3.244011e-02
  4.373388e+00    4.149576e-01   3.652751e-02
  4.375598e+00    3.502052e-01   3.432202e-02
  4.377809e+00    4.201637e-01   3.854541e-02
  4.380019e+00    5.172319e-01   4.384181e-02
  4.382230e+00    4.086607e-01   4.005935e-02
  4.384440e+00    2.747902e-01   3.379401e-02
  4.386651e+00    3.671611e-01   4.026714e-02
  4.388861e+00    3.908340e-01   4.293778e-02
  4.391072e+00    5.750428e-01   5.391215e-02
  4.393282e+00    3.360878e-01   4.281370e-02
  4.395492e+00    2.998658e-01   4.211375e-02
  4.397703e+00    2.879648e-01   4.316388e-02
  4.399913e+00    4.425063e-01   5.620718e-02
  4.402124e+00    8.110579e-01   8.041381e-02
  4.404334e+00    6.896982e-01   7.882845e-02
  4.406545e+00    1.493578e-01   3.941469e-02
  4.408755e+00    5.697902e-01   8.348609e-02
  4.410966e+00    1.529682e-01   4.787140e-02
  4.413176e+00    3.940217e-01   8.697672e-02
  4.415387e+00   -5.170032e-01            nan
  4.417597e+00   -2.013521e+00            nan
  4.419807e+00   -3.766224e-01            nan
