# == pyFAI calibration ==
# Distance Sample to Detector: 0.216 m
# PONI: 1.166e-01, 1.308e-01 m
# Rotations: 0.000000 0.000000 0.000000 rad
# 
# == Fit2d calibration ==
# Distance Sample-beamCenter: 216.000 mm
# Center: x=1744.293, y=1555.000 pix
# Tilt: 0.000 deg  TiltPlanRot: 0.000 deg
# 
# Detector Eiger 9M	 PixelSize= 7.500e-05, 7.500e-05 m
#    Detector has a mask: True 
#    Detector has a dark current: False 
#    detector has a flat field: False 
# 
# Wavelength: 9.8e-11 m
# Mask applied: from detector
# Dark current applied: False
# Flat field applied: False
# Polarization factor: None
# Normalization factor: 1.0
# 
# Headers of the input frame:
# {
# "_array_data.header_convention": "SLS_1.0",
# "_array_data.header_contents": "# Detector: Dectris Eiger 9M, S/N E-18-0102\r\n# Pixel_size 75e-6 m x 75e-6 m\r\n# Silicon sensor, thickness 0.000450 m\r\n# Exposure_time 0.024997 s\r\n# Exposure_period 0.025000 s\r\n# Count_cutoff 62318 counts\r\n# Wavelength 0.980106 A\r\n# Detector_distance 0.215992 m\r\n# Beam_xy (1555, 1744) pixels\r\n# Start_angle 0.000000 deg.\r\n# Angle_increment 0.000000 deg.",
# "Content-Type": "application/octet-stream;",
# "conversions": "x-CBF_BYTE_OFFSET",
# "Content-Transfer-Encoding": "BINARY",
# "X-Binary-Size": "10166598",
# "X-Binary-ID": "1",
# "X-Binary-Element-Type": "signed 32-bit integer",
# "X-Binary-Element-Byte-Order": "LITTLE_ENDIAN",
# "Content-MD5": "2/zrmwfrXP3tZ5jxFUXDXQ==",
# "X-Binary-Number-of-Elements": "10166590",
# "X-Binary-Size-Fastest-Dimension": "3110",
# "X-Binary-Size-Second-Dimension": "3269",
# "X-Binary-Size-Padding": "4095"
# }
# --> H:/Proxima2a_2019-04-05/RAW_DATA/C5_gel17_position5/C5_mesh_1_data.cbf/C5_mesh_1_data.cbf000082.dat
#        q_A^-1              I           sigma 
  1.105228e-03    4.148099e-01   3.485070e-01
  3.315685e-03    9.153049e-01   3.147229e-01
  5.526141e-03    1.043626e+00   2.598631e-01
  7.736597e-03    1.046043e+00   2.197834e-01
  9.947054e-03    1.448087e+00   2.279679e-01
  1.215751e-02    1.369932e+00   2.005017e-01
  1.436797e-02    1.155998e+00   1.694160e-01
  1.657842e-02    1.233565e+00   1.629017e-01
  1.878888e-02    1.219088e+00   1.521181e-01
  2.099934e-02    1.476338e+00   1.583780e-01
  2.320979e-02    1.378742e+00   1.455708e-01
  2.542025e-02    1.496746e+00   1.449384e-01
  2.763070e-02    1.479620e+00   1.382183e-01
  2.984116e-02    1.469894e+00   1.325621e-01
  3.205162e-02    1.475960e+00   1.281810e-01
  3.426207e-02    1.584086e+00   1.284294e-01
  3.647253e-02    1.536107e+00   1.225746e-01
  3.868299e-02    1.527063e+00   1.186790e-01
  4.089344e-02    1.375499e+00   1.095496e-01
  4.310390e-02    1.484455e+00   1.108428e-01
  4.531436e-02    1.553681e+00   1.105979e-01
  4.752481e-02    1.433921e+00   1.037485e-01
  4.973527e-02    1.428638e+00   1.012308e-01
  5.194572e-02    1.468184e+00   1.004137e-01
  5.415618e-02    1.351235e+00   9.434180e-02
  5.636664e-02    1.512722e+00   9.784638e-02
  5.857709e-02    1.431858e+00   9.338231e-02
  6.078755e-02    1.354803e+00   8.916518e-02
  6.299801e-02    1.474744e+00   9.138076e-02
  6.520846e-02    1.546533e+00   9.197935e-02
  6.741892e-02    1.440325e+00   8.729315e-02
  6.962938e-02    1.450817e+00   8.621297e-02
  7.183983e-02    1.431570e+00   8.430987e-02
  7.405029e-02    1.429189e+00   8.297095e-02
  7.626074e-02    1.455359e+00   8.250406e-02
  7.847120e-02    1.421826e+00   8.038914e-02
  8.068166e-02    1.413589e+00   7.904962e-02
  8.289211e-02    1.420988e+00   7.819193e-02
  8.510257e-02    1.479942e+00   7.875384e-02
  8.731303e-02    1.413178e+00   7.597368e-02
  8.952348e-02    1.419025e+00   7.518697e-02
  9.173394e-02    1.439477e+00   7.480595e-02
  9.394439e-02    1.441480e+00   7.396967e-02
  9.615485e-02    1.483086e+00   7.416055e-02
  9.836531e-02    1.557570e+00   7.513914e-02
  1.005758e-01    1.521347e+00   7.344015e-02
  1.027862e-01    1.557026e+00   7.349128e-02
  1.049967e-01    1.558399e+00   7.274437e-02
  1.072071e-01    1.546269e+00   7.170894e-02
  1.094176e-01    1.541878e+00   7.087895e-02
  1.116280e-01    1.568550e+00   7.077648e-02
  1.138385e-01    1.482782e+00   6.814154e-02
  1.160490e-01    1.512679e+00   6.816562e-02
  1.182594e-01    1.514480e+00   6.756429e-02
  1.204699e-01    1.502280e+00   6.667086e-02
  1.226803e-01    1.543999e+00   6.697581e-02
  1.248908e-01    1.484877e+00   6.509638e-02
  1.271012e-01    1.534023e+00   6.558571e-02
  1.293117e-01    1.530184e+00   6.494051e-02
  1.315222e-01    1.540562e+00   6.460897e-02
  1.337326e-01    1.561555e+00   6.450661e-02
  1.359431e-01    1.668595e+00   6.671986e-02
  1.381535e-01    1.611666e+00   6.645201e-02
  1.403640e-01    1.577729e+00   6.603251e-02
  1.425744e-01    1.599399e+00   6.659065e-02
  1.447849e-01    1.595057e+00   6.651551e-02
  1.469953e-01    1.647851e+00   6.756500e-02
  1.492058e-01    1.606113e+00   6.662634e-02
  1.514163e-01    1.607024e+00   6.653456e-02
  1.536267e-01    1.591453e+00   6.608217e-02
  1.558372e-01    1.538060e+00   6.482075e-02
  1.580476e-01    1.611640e+00   6.619214e-02
  1.602581e-01    1.620604e+00   6.620736e-02
  1.624685e-01    1.663298e+00   6.689019e-02
  1.646790e-01    1.641096e+00   6.625148e-02
  1.668895e-01    1.632897e+00   6.589488e-02
  1.690999e-01    1.719702e+00   6.742063e-02
  1.713104e-01    1.741384e+00   6.763376e-02
  1.735208e-01    1.769305e+00   6.796183e-02
  1.757313e-01    1.844405e+00   6.917174e-02
  1.779417e-01    1.833064e+00   6.873386e-02
  1.801522e-01    1.849242e+00   6.881660e-02
  1.823626e-01    1.973742e+00   7.085873e-02
  1.845731e-01    1.978790e+00   7.071949e-02
  1.867836e-01    1.927832e+00   6.956738e-02
  1.889940e-01    1.941374e+00   6.958316e-02
  1.912045e-01    1.878114e+00   6.821153e-02
  1.934149e-01    1.978557e+00   6.977746e-02
  1.956254e-01    2.043872e+00   7.068594e-02
  1.978358e-01    1.983145e+00   6.938931e-02
  2.000463e-01    2.006861e+00   6.957167e-02
  2.022568e-01    1.919741e+00   6.782149e-02
  2.044672e-01    1.943550e+00   6.800696e-02
  2.066777e-01    2.006683e+00   6.887333e-02
  2.088881e-01    1.936108e+00   6.743003e-02
  2.110986e-01    1.923886e+00   6.698636e-02
  2.133090e-01    1.925707e+00   6.680018e-02
  2.155195e-01    1.969411e+00   6.732985e-02
  2.177300e-01    1.989823e+00   6.714621e-02
  2.199404e-01    1.907438e+00   6.400920e-02
  2.221509e-01    1.935578e+00   6.342084e-02
  2.243613e-01    2.014681e+00   6.388353e-02
  2.265718e-01    1.949360e+00   6.214675e-02
  2.287822e-01    2.110178e+00   6.401942e-02
  2.309927e-01    2.165225e+00   6.425834e-02
  2.332031e-01    2.186444e+00   6.401977e-02
  2.354136e-01    2.097150e+00   6.219068e-02
  2.376241e-01    2.196000e+00   6.314556e-02
  2.398345e-01    2.147802e+00   6.198657e-02
  2.420450e-01    2.148200e+00   6.154926e-02
  2.442554e-01    2.190163e+00   6.171937e-02
  2.464659e-01    2.141522e+00   6.062042e-02
  2.486763e-01    2.107745e+00   5.974513e-02
  2.508868e-01    2.082466e+00   5.901114e-02
  2.530973e-01    2.135877e+00   5.939260e-02
  2.553077e-01    2.141882e+00   5.911525e-02
  2.575182e-01    2.076738e+00   5.786497e-02
  2.597286e-01    2.047048e+00   5.711585e-02
  2.619391e-01    2.130487e+00   5.793283e-02
  2.641495e-01    2.078820e+00   5.690932e-02
  2.663600e-01    2.119277e+00   5.714443e-02
  2.685704e-01    2.033873e+00   5.567772e-02
  2.707809e-01    2.006209e+00   5.500424e-02
  2.729914e-01    2.038465e+00   5.515571e-02
  2.752018e-01    2.064192e+00   5.521378e-02
  2.774123e-01    2.100237e+00   5.540930e-02
  2.796227e-01    2.062351e+00   5.463566e-02
  2.818332e-01    1.949840e+00   5.285943e-02
  2.840436e-01    1.995128e+00   5.321059e-02
  2.862541e-01    1.961518e+00   5.250686e-02
  2.884646e-01    2.000560e+00   5.277517e-02
  2.906750e-01    1.959015e+00   5.197671e-02
  2.928855e-01    1.936743e+00   5.144094e-02
  2.950959e-01    1.935677e+00   5.119053e-02
  2.973064e-01    1.920617e+00   5.076185e-02
  2.995168e-01    1.931226e+00   5.067131e-02
  3.017273e-01    1.955425e+00   5.076298e-02
  3.039377e-01    1.897919e+00   4.979201e-02
  3.061482e-01    1.969285e+00   5.050009e-02
  3.083587e-01    1.984645e+00   5.047723e-02
  3.105691e-01    1.911270e+00   4.932376e-02
  3.127796e-01    1.963026e+00   4.977695e-02
  3.149900e-01    1.913710e+00   4.894298e-02
  3.172005e-01    1.842754e+00   4.783064e-02
  3.194109e-01    1.874867e+00   4.804645e-02
  3.216214e-01    1.831574e+00   4.729472e-02
  3.238319e-01    1.784674e+00   4.650031e-02
  3.260423e-01    1.827331e+00   4.686533e-02
  3.282528e-01    1.849712e+00   4.696373e-02
  3.304632e-01    1.845159e+00   4.672419e-02
  3.326737e-01    1.921057e+00   4.748944e-02
  3.348841e-01    1.805118e+00   4.585563e-02
  3.370946e-01    1.846684e+00   4.620606e-02
  3.393050e-01    1.852262e+00   4.610049e-02
  3.415155e-01    1.866093e+00   4.609832e-02
  3.437260e-01    1.835090e+00   4.554434e-02
  3.459364e-01    1.832359e+00   4.534208e-02
  3.481469e-01    1.806339e+00   4.485469e-02
  3.503573e-01    1.774199e+00   4.429189e-02
  3.525678e-01    1.856243e+00   4.514296e-02
  3.547782e-01    1.826504e+00   4.461804e-02
  3.569887e-01    1.822786e+00   4.441467e-02
  3.591992e-01    1.773085e+00   4.364997e-02
  3.614096e-01    1.716977e+00   4.280486e-02
  3.636201e-01    1.841968e+00   4.417969e-02
  3.658305e-01    1.827721e+00   4.385842e-02
  3.680410e-01    1.803842e+00   4.342111e-02
  3.702514e-01    1.779687e+00   4.298436e-02
  3.724619e-01    1.771663e+00   4.274130e-02
  3.746724e-01    1.768522e+00   4.256093e-02
  3.768828e-01    1.758349e+00   4.229552e-02
  3.790933e-01    1.792509e+00   4.256524e-02
  3.813037e-01    1.784916e+00   4.233602e-02
  3.835142e-01    1.801409e+00   4.239149e-02
  3.857246e-01    1.762637e+00   4.179709e-02
  3.879351e-01    1.841689e+00   4.258580e-02
  3.901455e-01    1.823631e+00   4.224160e-02
  3.923560e-01    1.789027e+00   4.170595e-02
  3.945665e-01    1.788498e+00   4.156751e-02
  3.967769e-01    1.822564e+00   4.183011e-02
  3.989874e-01    1.836905e+00   4.186326e-02
  4.011978e-01    1.803903e+00   4.135790e-02
  4.034083e-01    1.793724e+00   4.111444e-02
  4.056187e-01    1.864923e+00   4.179334e-02
  4.078292e-01    1.754280e+00   4.041197e-02
  4.100397e-01    1.786263e+00   4.065415e-02
  4.122501e-01    1.791063e+00   4.058697e-02
  4.144606e-01    1.801594e+00   4.058540e-02
  4.166710e-01    1.771796e+00   4.012870e-02
  4.188815e-01    1.691130e+00   3.908875e-02
  4.210919e-01    1.761159e+00   3.977294e-02
  4.233024e-01    1.833136e+00   4.045822e-02
  4.255128e-01    1.779900e+00   3.975118e-02
  4.277233e-01    1.775964e+00   3.959311e-02
  4.299338e-01    1.784188e+00   3.957048e-02
  4.321442e-01    1.792009e+00   3.954364e-02
  4.343547e-01    1.755162e+00   3.902435e-02
  4.365651e-01    1.721188e+00   3.853500e-02
  4.387756e-01    1.762629e+00   3.888695e-02
  4.409860e-01    1.753679e+00   3.868063e-02
  4.431965e-01    1.743751e+00   3.846433e-02
  4.454070e-01    1.762678e+00   3.856492e-02
  4.476174e-01    1.735242e+00   3.815856e-02
  4.498279e-01    1.757647e+00   3.829962e-02
  4.520383e-01    1.743821e+00   3.804401e-02
  4.542488e-01    1.716236e+00   3.764013e-02
  4.564592e-01    1.729890e+00   3.768819e-02
  4.586697e-01    1.740089e+00   3.769880e-02
  4.608801e-01    1.741316e+00   3.761106e-02
  4.630906e-01    1.699692e+00   3.706044e-02
  4.653011e-01    1.696307e+00   3.692615e-02
  4.675115e-01    1.710792e+00   3.698582e-02
  4.697220e-01    1.676446e+00   3.651680e-02
  4.719324e-01    1.725385e+00   3.695013e-02
  4.741429e-01    1.740797e+00   3.701918e-02
  4.763533e-01    1.710616e+00   3.660278e-02
  4.785638e-01    1.739137e+00   3.681131e-02
  4.807743e-01    1.758201e+00   3.691840e-02
  4.829847e-01    1.738015e+00   3.661314e-02
  4.851952e-01    1.722284e+00   3.635484e-02
  4.874056e-01    1.709296e+00   3.612617e-02
  4.896161e-01    1.724155e+00   3.619289e-02
  4.918265e-01    1.718667e+00   3.604549e-02
  4.940370e-01    1.725490e+00   3.602783e-02
  4.962475e-01    1.702145e+00   3.569489e-02
  4.984579e-01    1.727140e+00   3.586739e-02
  5.006684e-01    1.682049e+00   3.530981e-02
  5.028788e-01    1.673152e+00   3.513096e-02
  5.050893e-01    1.682708e+00   3.514546e-02
  5.072997e-01    1.702977e+00   3.527110e-02
  5.095102e-01    1.700195e+00   3.515786e-02
  5.117206e-01    1.719258e+00   3.527035e-02
  5.139311e-01    1.688538e+00   3.487111e-02
  5.161416e-01    1.738137e+00   3.529592e-02
  5.183520e-01    1.720435e+00   3.503231e-02
  5.205625e-01    1.707046e+00   3.481395e-02
  5.227729e-01    1.724195e+00   3.490679e-02
  5.249834e-01    1.726204e+00   3.484604e-02
  5.271938e-01    1.712920e+00   3.463072e-02
  5.294043e-01    1.718744e+00   3.460947e-02
  5.316148e-01    1.753925e+00   3.488182e-02
  5.338252e-01    1.782383e+00   3.508329e-02
  5.360357e-01    1.767527e+00   3.485726e-02
  5.382461e-01    1.777650e+00   3.487790e-02
  5.404566e-01    1.804176e+00   3.505721e-02
  5.426670e-01    1.746545e+00   3.441503e-02
  5.448775e-01    1.752676e+00   3.439834e-02
  5.470879e-01    1.775520e+00   3.454459e-02
  5.492984e-01    1.770084e+00   3.441496e-02
  5.515089e-01    1.753298e+00   3.417544e-02
  5.537193e-01    1.755477e+00   3.412132e-02
  5.559298e-01    1.742103e+00   3.391654e-02
  5.581402e-01    1.772498e+00   3.413637e-02
  5.603507e-01    1.797816e+00   3.430451e-02
  5.625611e-01    1.776453e+00   3.402606e-02
  5.647716e-01    1.823800e+00   3.440167e-02
  5.669821e-01    1.798949e+00   3.409285e-02
  5.691925e-01    1.790517e+00   3.393983e-02
  5.714030e-01    1.786213e+00   3.382675e-02
  5.736134e-01    1.747764e+00   3.338954e-02
  5.758239e-01    1.719902e+00   3.305163e-02
  5.780343e-01    1.719956e+00   3.298222e-02
  5.802448e-01    1.712400e+00   3.284080e-02
  5.824552e-01    1.695535e+00   3.261012e-02
  5.846657e-01    1.704812e+00   3.263105e-02
  5.868762e-01    1.677388e+00   3.230015e-02
  5.890866e-01    1.644671e+00   3.191723e-02
  5.912971e-01    1.644843e+00   3.185281e-02
  5.935075e-01    1.618226e+00   3.152874e-02
  5.957180e-01    1.686936e+00   3.212509e-02
  5.979284e-01    1.624026e+00   3.145606e-02
  6.001389e-01    1.616149e+00   3.131576e-02
  6.023494e-01    1.634193e+00   3.142617e-02
  6.045598e-01    1.644765e+00   3.146346e-02
  6.067703e-01    1.643079e+00   3.138410e-02
  6.089807e-01    1.667909e+00   3.155676e-02
  6.111912e-01    1.669756e+00   3.151119e-02
  6.134016e-01    1.695555e+00   3.169036e-02
  6.156121e-01    1.715562e+00   3.181341e-02
  6.178226e-01    1.705827e+00   3.166023e-02
  6.200330e-01    1.713535e+00   3.166907e-02
  6.222435e-01    1.748510e+00   3.192727e-02
  6.244539e-01    1.713383e+00   3.154308e-02
  6.266644e-01    1.666299e+00   3.104595e-02
  6.288748e-01    1.726458e+00   3.153989e-02
  6.310853e-01    1.748386e+00   3.167795e-02
  6.332957e-01    1.735530e+00   3.150034e-02
  6.355062e-01    1.736382e+00   3.144684e-02
  6.377167e-01    1.750647e+00   3.151518e-02
  6.399271e-01    1.716565e+00   3.114710e-02
  6.421376e-01    1.726483e+00   3.117732e-02
  6.443480e-01    1.753306e+00   3.135882e-02
  6.465585e-01    1.713903e+00   3.094571e-02
  6.487689e-01    1.732111e+00   3.105090e-02
  6.509794e-01    1.657297e+00   3.031565e-02
  6.531899e-01    1.640795e+00   3.010761e-02
  6.554003e-01    1.634620e+00   2.999441e-02
  6.576108e-01    1.583095e+00   2.946294e-02
  6.598212e-01    1.612891e+00   2.968365e-02
  6.620317e-01    1.597496e+00   2.948689e-02
  6.642421e-01    1.611515e+00   2.956118e-02
  6.664526e-01    1.642857e+00   2.979228e-02
  6.686630e-01    1.598436e+00   2.933243e-02
  6.708735e-01    1.586603e+00   2.917003e-02
  6.730840e-01    1.603708e+00   2.927337e-02
  6.752944e-01    1.631806e+00   2.947502e-02
  6.775049e-01    1.651320e+00   2.959688e-02
  6.797153e-01    1.605205e+00   2.912789e-02
  6.819258e-01    1.565438e+00   2.871291e-02
  6.841362e-01    1.601296e+00   2.898769e-02
  6.863467e-01    1.606425e+00   2.898207e-02
  6.885572e-01    1.623319e+00   2.908187e-02
  6.907676e-01    1.569083e+00   2.854069e-02
  6.929781e-01    1.593859e+00   2.871399e-02
  6.951885e-01    1.623711e+00   2.893033e-02
  6.973990e-01    1.601089e+00   2.867729e-02
  6.996094e-01    1.594223e+00   2.856539e-02
  7.018199e-01    1.621720e+00   2.876011e-02
  7.040303e-01    1.606967e+00   2.857873e-02
  7.062408e-01    1.612062e+00   2.857383e-02
  7.084513e-01    1.610469e+00   2.851005e-02
  7.106617e-01    1.591691e+00   2.829409e-02
  7.128722e-01    1.574996e+00   2.809663e-02
  7.150826e-01    1.600931e+00   2.827817e-02
  7.172931e-01    1.591640e+00   2.814741e-02
  7.195035e-01    1.554119e+00   2.776583e-02
  7.217140e-01    1.593263e+00   2.816307e-02
  7.239245e-01    1.572706e+00   2.820740e-02
  7.261349e-01    1.575096e+00   2.833745e-02
  7.283454e-01    1.585985e+00   2.850789e-02
  7.305558e-01    1.600317e+00   2.869084e-02
  7.327663e-01    1.611581e+00   2.883463e-02
  7.349767e-01    1.589744e+00   2.865508e-02
  7.371872e-01    1.569866e+00   2.846417e-02
  7.393976e-01    1.578391e+00   2.852709e-02
  7.416081e-01    1.554489e+00   2.829419e-02
  7.438186e-01    1.597135e+00   2.853433e-02
  7.460290e-01    1.598150e+00   2.824698e-02
  7.482395e-01    1.577983e+00   2.789684e-02
  7.504499e-01    1.553380e+00   2.754316e-02
  7.526604e-01    1.592004e+00   2.776629e-02
  7.548708e-01    1.580574e+00   2.757684e-02
  7.570813e-01    1.585761e+00   2.757091e-02
  7.592918e-01    1.552521e+00   2.724548e-02
  7.615022e-01    1.539284e+00   2.709566e-02
  7.637127e-01    1.525847e+00   2.694487e-02
  7.659231e-01    1.539278e+00   2.703156e-02
  7.681336e-01    1.543729e+00   2.703932e-02
  7.703440e-01    1.597512e+00   2.747487e-02
  7.725545e-01    1.590201e+00   2.738089e-02
  7.747650e-01    1.613407e+00   2.754130e-02
  7.769754e-01    1.596143e+00   2.734049e-02
  7.791859e-01    1.593055e+00   2.726025e-02
  7.813963e-01    1.600383e+00   2.726992e-02
  7.836068e-01    1.615737e+00   2.734791e-02
  7.858172e-01    1.651987e+00   2.760130e-02
  7.880277e-01    1.604255e+00   2.714791e-02
  7.902381e-01    1.579493e+00   2.688861e-02
  7.924486e-01    1.599518e+00   2.700840e-02
  7.946591e-01    1.593009e+00   2.690521e-02
  7.968695e-01    1.631418e+00   2.717891e-02
  7.990800e-01    1.654462e+00   2.732128e-02
  8.012904e-01    1.639673e+00   2.715186e-02
  8.035009e-01    1.632072e+00   2.704063e-02
  8.057113e-01    1.636289e+00   2.702874e-02
  8.079218e-01    1.644199e+00   2.704723e-02
  8.101323e-01    1.624673e+00   2.684050e-02
  8.123427e-01    1.649620e+00   2.699966e-02
  8.145532e-01    1.678300e+00   2.718676e-02
  8.167636e-01    1.706521e+00   2.736829e-02
  8.189741e-01    1.684662e+00   2.714712e-02
  8.211845e-01    1.697954e+00   2.720832e-02
  8.233950e-01    1.672164e+00   2.695699e-02
  8.256054e-01    1.680752e+00   2.698133e-02
  8.278159e-01    1.667814e+00   2.683293e-02
  8.300264e-01    1.685681e+00   2.693256e-02
  8.322368e-01    1.672578e+00   2.678410e-02
  8.344473e-01    1.731374e+00   2.720624e-02
  8.366577e-01    1.683476e+00   2.678414e-02
  8.388682e-01    1.685737e+00   2.675924e-02
  8.410786e-01    1.672650e+00   2.661271e-02
  8.432891e-01    1.637343e+00   2.628850e-02
  8.454996e-01    1.629901e+00   2.618716e-02
  8.477100e-01    1.666989e+00   2.644140e-02
  8.499205e-01    1.651570e+00   2.627751e-02
  8.521309e-01    1.619183e+00   2.597803e-02
  8.543414e-01    1.632422e+00   2.604328e-02
  8.565518e-01    1.601332e+00   2.575399e-02
  8.587623e-01    1.587098e+00   2.559930e-02
  8.609727e-01    1.608006e+00   2.572743e-02
  8.631832e-01    1.622971e+00   2.580701e-02
  8.653937e-01    1.599248e+00   2.557834e-02
  8.676041e-01    1.579695e+00   2.538314e-02
  8.698146e-01    1.592425e+00   2.544625e-02
  8.720250e-01    1.602375e+00   2.548672e-02
  8.742355e-01    1.587275e+00   2.532775e-02
  8.764459e-01    1.577475e+00   2.521090e-02
  8.786564e-01    1.605040e+00   2.539232e-02
  8.808669e-01    1.620314e+00   2.547417e-02
  8.830773e-01    1.608585e+00   2.534360e-02
  8.852878e-01    1.590778e+00   2.516515e-02
  8.874982e-01    1.583927e+00   2.507444e-02
  8.897087e-01    1.613564e+00   2.527012e-02
  8.919191e-01    1.621611e+00   2.529505e-02
  8.941296e-01    1.577815e+00   2.491412e-02
  8.963401e-01    1.589369e+00   2.496885e-02
  8.985505e-01    1.601901e+00   2.503013e-02
  9.007610e-01    1.555944e+00   2.463224e-02
  9.029714e-01    1.547697e+00   2.453161e-02
  9.051819e-01    1.573372e+00   2.469735e-02
  9.073923e-01    1.581973e+00   2.472838e-02
  9.096028e-01    1.631073e+00   2.507397e-02
  9.118132e-01    1.597544e+00   2.477871e-02
  9.140237e-01    1.610057e+00   2.483883e-02
  9.162342e-01    1.619935e+00   2.488014e-02
  9.184446e-01    1.605048e+00   2.472974e-02
  9.206551e-01    1.599506e+00   2.465140e-02
  9.228655e-01    1.625640e+00   2.481647e-02
  9.250760e-01    1.602516e+00   2.460399e-02
  9.272864e-01    1.611534e+00   2.463873e-02
  9.294969e-01    1.627034e+00   2.472088e-02
  9.317074e-01    1.641541e+00   2.479575e-02
  9.339178e-01    1.619729e+00   2.459682e-02
  9.361283e-01    1.621461e+00   2.457368e-02
  9.383387e-01    1.633328e+00   2.462991e-02
  9.405492e-01    1.633043e+00   2.459336e-02
  9.427596e-01    1.665773e+00   2.480284e-02
  9.449701e-01    1.657752e+00   2.470943e-02
  9.471805e-01    1.676010e+00   2.480994e-02
  9.493910e-01    1.671540e+00   2.474282e-02
  9.516015e-01    1.708548e+00   2.498029e-02
  9.538119e-01    1.703492e+00   2.490914e-02
  9.560224e-01    1.705770e+00   2.489070e-02
  9.582328e-01    1.733087e+00   2.505555e-02
  9.604433e-01    1.740336e+00   2.507235e-02
  9.626537e-01    1.765360e+00   2.521800e-02
  9.648642e-01    1.778674e+00   2.527825e-02
  9.670747e-01    1.800077e+00   2.539481e-02
  9.692851e-01    1.833975e+00   2.559873e-02
  9.714956e-01    1.823956e+00   2.549274e-02
  9.737060e-01    1.821056e+00   2.543898e-02
  9.759165e-01    1.837090e+00   2.551471e-02
  9.781269e-01    1.793780e+00   2.517919e-02
  9.803374e-01    1.763811e+00   2.493341e-02
  9.825478e-01    1.772354e+00   2.496076e-02
  9.847583e-01    1.790485e+00   2.505403e-02
  9.869688e-01    1.796451e+00   2.506217e-02
  9.891792e-01    1.779352e+00   2.490943e-02
  9.913897e-01    1.804715e+00   2.505250e-02
  9.936001e-01    1.777367e+00   2.482941e-02
  9.958106e-01    1.731678e+00   2.447490e-02
  9.980210e-01    1.683755e+00   2.410252e-02
  1.000231e+00    1.671183e+00   2.414391e-02
  1.002442e+00    1.667179e+00   2.424312e-02
  1.004652e+00    1.627667e+00   2.402093e-02
  1.006863e+00    1.625399e+00   2.405400e-02
  1.009073e+00    1.627179e+00   2.410398e-02
  1.011284e+00    1.636171e+00   2.420283e-02
  1.013494e+00    1.585217e+00   2.384661e-02
  1.015705e+00    1.562976e+00   2.370111e-02
  1.017915e+00    1.549821e+00   2.361741e-02
  1.020126e+00    1.572383e+00   2.380478e-02
  1.022336e+00    1.572477e+00   2.381722e-02
  1.024547e+00    1.538602e+00   2.357046e-02
  1.026757e+00    1.528190e+00   2.349889e-02
  1.028967e+00    1.537519e+00   2.357817e-02
  1.031178e+00    1.519848e+00   2.344841e-02
  1.033388e+00    1.511550e+00   2.338935e-02
  1.035599e+00    1.499531e+00   2.329955e-02
  1.037809e+00    1.519011e+00   2.345365e-02
  1.040020e+00    1.531461e+00   2.355085e-02
  1.042230e+00    1.550812e+00   2.370112e-02
  1.044441e+00    1.526860e+00   2.351719e-02
  1.046651e+00    1.481659e+00   2.316662e-02
  1.048862e+00    1.511853e+00   2.340069e-02
  1.051072e+00    1.495590e+00   2.327213e-02
  1.053282e+00    1.507874e+00   2.336656e-02
  1.055493e+00    1.504240e+00   2.333408e-02
  1.057703e+00    1.507442e+00   2.335737e-02
  1.059914e+00    1.499640e+00   2.329258e-02
  1.062124e+00    1.508834e+00   2.335976e-02
  1.064335e+00    1.595148e+00   2.401506e-02
  1.066545e+00    1.657904e+00   2.447658e-02
  1.068756e+00    1.588464e+00   2.395469e-02
  1.070966e+00    1.494104e+00   2.322569e-02
  1.073177e+00    1.453153e+00   2.289918e-02
  1.075387e+00    1.441379e+00   2.280102e-02
  1.077597e+00    1.462240e+00   2.295819e-02
  1.079808e+00    1.465988e+00   2.285478e-02
  1.082018e+00    1.481287e+00   2.278347e-02
  1.084229e+00    1.458355e+00   2.249646e-02
  1.086439e+00    1.504301e+00   2.275919e-02
  1.088650e+00    1.480161e+00   2.249952e-02
  1.090860e+00    1.455079e+00   2.224043e-02
  1.093071e+00    1.438398e+00   2.205065e-02
  1.095281e+00    1.441163e+00   2.201466e-02
  1.097492e+00    1.503005e+00   2.242604e-02
  1.099702e+00    1.513707e+00   2.245307e-02
  1.101912e+00    1.463994e+00   2.203204e-02
  1.104123e+00    1.462242e+00   2.197017e-02
  1.106333e+00    1.472743e+00   2.200389e-02
  1.108544e+00    1.451768e+00   2.180205e-02
  1.110754e+00    1.447250e+00   2.172475e-02
  1.112965e+00    1.459396e+00   2.177467e-02
  1.115175e+00    1.406937e+00   2.133876e-02
  1.117386e+00    1.414163e+00   2.135421e-02
  1.119596e+00    1.439536e+00   2.150668e-02
  1.121807e+00    1.478929e+00   2.175922e-02
  1.124017e+00    1.459087e+00   2.157545e-02
  1.126228e+00    1.442813e+00   2.141855e-02
  1.128438e+00    1.424381e+00   2.124423e-02
  1.130648e+00    1.381992e+00   2.089163e-02
  1.132859e+00    1.368228e+00   2.075331e-02
  1.135069e+00    1.383916e+00   2.083733e-02
  1.137280e+00    1.389218e+00   2.084422e-02
  1.139490e+00    1.420197e+00   2.104190e-02
  1.141701e+00    1.392030e+00   2.079900e-02
  1.143911e+00    1.393193e+00   2.077569e-02
  1.146122e+00    1.387436e+00   2.070064e-02
  1.148332e+00    1.374649e+00   2.057320e-02
  1.150543e+00    1.341565e+00   2.029370e-02
  1.152753e+00    1.366417e+00   2.045005e-02
  1.154963e+00    1.362481e+00   2.038968e-02
  1.157174e+00    1.370965e+00   2.042291e-02
  1.159384e+00    1.386682e+00   2.050964e-02
  1.161595e+00    1.396464e+00   2.055173e-02
  1.163805e+00    1.392820e+00   2.049538e-02
  1.166016e+00    1.383109e+00   2.039423e-02
  1.168226e+00    1.352779e+00   2.014055e-02
  1.170437e+00    1.370344e+00   2.024220e-02
  1.172647e+00    1.377435e+00   2.026552e-02
  1.174858e+00    1.367600e+00   2.016488e-02
  1.177068e+00    1.370039e+00   2.015454e-02
  1.179278e+00    1.350433e+00   1.998135e-02
  1.181489e+00    1.342272e+00   1.989403e-02
  1.183699e+00    1.372036e+00   2.008569e-02
  1.185910e+00    1.354107e+00   1.992630e-02
  1.188120e+00    1.360285e+00   1.994497e-02
  1.190331e+00    1.373855e+00   2.001726e-02
  1.192541e+00    1.357671e+00   1.987161e-02
  1.194752e+00    1.353359e+00   1.981297e-02
  1.196962e+00    1.388351e+00   2.004137e-02
  1.199173e+00    1.386929e+00   2.000428e-02
  1.201383e+00    1.354589e+00   1.974245e-02
  1.203593e+00    1.390411e+00   1.997660e-02
  1.205804e+00    1.378401e+00   1.986396e-02
  1.208014e+00    1.352018e+00   1.964608e-02
  1.210225e+00    1.355917e+00   1.964897e-02
  1.212435e+00    1.355793e+00   1.962325e-02
  1.214646e+00    1.345095e+00   1.951962e-02
  1.216856e+00    1.359520e+00   1.959843e-02
  1.219067e+00    1.383008e+00   1.974226e-02
  1.221277e+00    1.358415e+00   1.954082e-02
  1.223488e+00    1.357922e+00   1.951146e-02
  1.225698e+00    1.337638e+00   1.933840e-02
  1.227909e+00    1.353626e+00   1.942341e-02
  1.230119e+00    1.348451e+00   1.935443e-02
  1.232329e+00    1.351581e+00   1.934613e-02
  1.234540e+00    1.358258e+00   1.936348e-02
  1.236750e+00    1.350802e+00   1.928000e-02
  1.238961e+00    1.342149e+00   1.919123e-02
  1.241171e+00    1.327659e+00   1.906341e-02
  1.243382e+00    1.282783e+00   1.871550e-02
  1.245592e+00    1.349936e+00   1.917503e-02
  1.247803e+00    1.356019e+00   1.919450e-02
  1.250013e+00    1.341067e+00   1.906492e-02
  1.252224e+00    1.351007e+00   1.911217e-02
  1.254434e+00    1.340107e+00   1.901127e-02
  1.256644e+00    1.361220e+00   1.913713e-02
  1.258855e+00    1.356906e+00   1.908347e-02
  1.261065e+00    1.352354e+00   1.902802e-02
  1.263276e+00    1.370051e+00   1.912902e-02
  1.265486e+00    1.344602e+00   1.892769e-02
  1.267697e+00    1.345751e+00   1.891280e-02
  1.269907e+00    1.344059e+00   1.887824e-02
  1.272118e+00    1.350521e+00   1.890101e-02
  1.274328e+00    1.355800e+00   1.891511e-02
  1.276539e+00    1.364772e+00   1.895471e-02
  1.278749e+00    1.346707e+00   1.880657e-02
  1.280959e+00    1.370645e+00   1.895027e-02
  1.283170e+00    1.367125e+00   1.890335e-02
  1.285380e+00    1.381620e+00   1.898059e-02
  1.287591e+00    1.357819e+00   1.879430e-02
  1.289801e+00    1.337469e+00   1.863181e-02
  1.292012e+00    1.315138e+00   1.845873e-02
  1.294222e+00    1.337044e+00   1.859566e-02
  1.296433e+00    1.353323e+00   1.869291e-02
  1.298643e+00    1.341456e+00   1.859436e-02
  1.300854e+00    1.338317e+00   1.855624e-02
  1.303064e+00    1.353511e+00   1.864202e-02
  1.305274e+00    1.365749e+00   1.870456e-02
  1.307485e+00    1.349563e+00   1.857185e-02
  1.309695e+00    1.348368e+00   1.854139e-02
  1.311906e+00    1.353358e+00   1.855394e-02
  1.314116e+00    1.366983e+00   1.862616e-02
  1.316327e+00    1.412413e+00   1.891096e-02
  1.318537e+00    1.451931e+00   1.915100e-02
  1.320748e+00    1.428974e+00   1.897683e-02
  1.322958e+00    1.438351e+00   1.901781e-02
  1.325169e+00    1.428830e+00   1.893313e-02
  1.327379e+00    1.412494e+00   1.880229e-02
  1.329589e+00    1.413373e+00   1.878657e-02
  1.331800e+00    1.426401e+00   1.885170e-02
  1.334010e+00    1.403635e+00   1.867958e-02
  1.336221e+00    1.396110e+00   1.860734e-02
  1.338431e+00    1.381661e+00   1.848968e-02
  1.340642e+00    1.429125e+00   1.887058e-02
  1.342852e+00    1.412941e+00   1.886645e-02
  1.345063e+00    1.406285e+00   1.887245e-02
  1.347273e+00    1.397878e+00   1.885183e-02
  1.349484e+00    1.381492e+00   1.876900e-02
  1.351694e+00    1.394103e+00   1.887754e-02
  1.353905e+00    1.409808e+00   1.900198e-02
  1.356115e+00    1.372224e+00   1.876215e-02
  1.358325e+00    1.327431e+00   1.846661e-02
  1.360536e+00    1.318717e+00   1.841737e-02
  1.362746e+00    1.306680e+00   1.834252e-02
  1.364957e+00    1.310597e+00   1.837755e-02
  1.367167e+00    1.326018e+00   1.849245e-02
  1.369378e+00    1.348015e+00   1.865121e-02
  1.371588e+00    1.361683e+00   1.875072e-02
  1.373799e+00    1.376114e+00   1.885351e-02
  1.376009e+00    1.409552e+00   1.908470e-02
  1.378220e+00    1.387609e+00   1.893814e-02
  1.380430e+00    1.399455e+00   1.902157e-02
  1.382640e+00    1.470437e+00   1.949895e-02
  1.384851e+00    1.507378e+00   1.974332e-02
  1.387061e+00    1.444005e+00   1.932419e-02
  1.389272e+00    1.362930e+00   1.877407e-02
  1.391482e+00    1.289528e+00   1.826083e-02
  1.393693e+00    1.300804e+00   1.833960e-02
  1.395903e+00    1.307651e+00   1.838631e-02
  1.398114e+00    1.304380e+00   1.836188e-02
  1.400324e+00    1.314417e+00   1.843027e-02
  1.402535e+00    1.280184e+00   1.818636e-02
  1.404745e+00    1.285819e+00   1.822395e-02
  1.406955e+00    1.298735e+00   1.831255e-02
  1.409166e+00    1.276111e+00   1.814904e-02
  1.411376e+00    1.259915e+00   1.803039e-02
  1.413587e+00    1.274738e+00   1.813231e-02
  1.415797e+00    1.269785e+00   1.809353e-02
  1.418008e+00    1.255286e+00   1.794830e-02
  1.420218e+00    1.242507e+00   1.770860e-02
  1.422429e+00    1.276238e+00   1.786182e-02
  1.424639e+00    1.336661e+00   1.821341e-02
  1.426850e+00    1.327806e+00   1.809707e-02
  1.429060e+00    1.314755e+00   1.795806e-02
  1.431270e+00    1.313305e+00   1.790310e-02
  1.433481e+00    1.316286e+00   1.788171e-02
  1.435691e+00    1.278217e+00   1.758268e-02
  1.437902e+00    1.276422e+00   1.753376e-02
  1.440112e+00    1.285725e+00   1.756199e-02
  1.442323e+00    1.270259e+00   1.742301e-02
  1.444533e+00    1.241965e+00   1.719566e-02
  1.446744e+00    1.267005e+00   1.733706e-02
  1.448954e+00    1.262105e+00   1.727339e-02
  1.451165e+00    1.285136e+00   1.740036e-02
  1.453375e+00    1.286393e+00   1.738064e-02
  1.455586e+00    1.257274e+00   1.715479e-02
  1.457796e+00    1.241521e+00   1.701976e-02
  1.460006e+00    1.256000e+00   1.709163e-02
  1.462217e+00    1.256488e+00   1.706885e-02
  1.464427e+00    1.290762e+00   1.727426e-02
  1.466638e+00    1.302557e+00   1.732737e-02
  1.468848e+00    1.267225e+00   1.706544e-02
  1.471059e+00    1.278603e+00   1.711669e-02
  1.473269e+00    1.272375e+00   1.705054e-02
  1.475480e+00    1.274730e+00   1.704250e-02
  1.477690e+00    1.261418e+00   1.692949e-02
  1.479901e+00    1.268433e+00   1.695268e-02
  1.482111e+00    1.248437e+00   1.679536e-02
  1.484321e+00    1.259234e+00   1.684478e-02
  1.486532e+00    1.255811e+00   1.679966e-02
  1.488742e+00    1.250135e+00   1.673910e-02
  1.490953e+00    1.264971e+00   1.681556e-02
  1.493163e+00    1.243324e+00   1.664892e-02
  1.495374e+00    1.280309e+00   1.687310e-02
  1.497584e+00    1.261441e+00   1.672668e-02
  1.499795e+00    1.265597e+00   1.673250e-02
  1.502005e+00    1.253494e+00   1.663069e-02
  1.504216e+00    1.254384e+00   1.661558e-02
  1.506426e+00    1.276349e+00   1.673946e-02
  1.508636e+00    1.289677e+00   1.680594e-02
  1.510847e+00    1.255844e+00   1.656222e-02
  1.513057e+00    1.226617e+00   1.634356e-02
  1.515268e+00    1.246549e+00   1.645017e-02
  1.517478e+00    1.273491e+00   1.660165e-02
  1.519689e+00    1.301084e+00   1.675512e-02
  1.521899e+00    1.281123e+00   1.660275e-02
  1.524110e+00    1.285894e+00   1.661302e-02
  1.526320e+00    1.264530e+00   1.645477e-02
  1.528531e+00    1.291972e+00   1.661225e-02
  1.530741e+00    1.280054e+00   1.651612e-02
  1.532951e+00    1.251483e+00   1.631113e-02
  1.535162e+00    1.249276e+00   1.638333e-02
  1.537372e+00    1.250460e+00   1.645803e-02
  1.539583e+00    1.230208e+00   1.635822e-02
  1.541793e+00    1.223745e+00   1.632205e-02
  1.544004e+00    1.235015e+00   1.639729e-02
  1.546214e+00    1.231838e+00   1.637470e-02
  1.548425e+00    1.231210e+00   1.637077e-02
  1.550635e+00    1.257951e+00   1.655733e-02
  1.552846e+00    1.261371e+00   1.658955e-02
  1.555056e+00    1.261188e+00   1.654660e-02
  1.557266e+00    1.233815e+00   1.625606e-02
  1.559477e+00    1.245311e+00   1.627248e-02
  1.561687e+00    1.240542e+00   1.621068e-02
  1.563898e+00    1.254624e+00   1.628518e-02
  1.566108e+00    1.252319e+00   1.625422e-02
  1.568319e+00    1.271780e+00   1.636423e-02
  1.570529e+00    1.280783e+00   1.639656e-02
  1.572740e+00    1.260127e+00   1.623602e-02
  1.574950e+00    1.276822e+00   1.631655e-02
  1.577161e+00    1.274435e+00   1.627552e-02
  1.579371e+00    1.275724e+00   1.625979e-02
  1.581582e+00    1.269559e+00   1.620048e-02
  1.583792e+00    1.275481e+00   1.621999e-02
  1.586002e+00    1.262711e+00   1.612083e-02
  1.588213e+00    1.296113e+00   1.631505e-02
  1.590423e+00    1.288161e+00   1.624453e-02
  1.592634e+00    1.261575e+00   1.605423e-02
  1.594844e+00    1.250576e+00   1.596264e-02
  1.597055e+00    1.236767e+00   1.585381e-02
  1.599265e+00    1.263119e+00   1.600092e-02
  1.601476e+00    1.243939e+00   1.585862e-02
  1.603686e+00    1.276104e+00   1.604231e-02
  1.605897e+00    1.261346e+00   1.592894e-02
  1.608107e+00    1.263684e+00   1.592392e-02
  1.610317e+00    1.271239e+00   1.595189e-02
  1.612528e+00    1.272210e+00   1.593852e-02
  1.614738e+00    1.242848e+00   1.573448e-02
  1.616949e+00    1.290451e+00   1.601350e-02
  1.619159e+00    1.300757e+00   1.605804e-02
  1.621370e+00    1.241915e+00   1.567198e-02
  1.623580e+00    1.217518e+00   1.549892e-02
  1.625791e+00    1.199848e+00   1.536786e-02
  1.628001e+00    1.187407e+00   1.526983e-02
  1.630212e+00    1.176005e+00   1.517870e-02
  1.632422e+00    1.165001e+00   1.508979e-02
  1.634632e+00    1.168511e+00   1.509530e-02
  1.636843e+00    1.145396e+00   1.492793e-02
  1.639053e+00    1.166018e+00   1.504449e-02
  1.641264e+00    1.179436e+00   1.511365e-02
  1.643474e+00    1.167186e+00   1.501753e-02
  1.645685e+00    1.158607e+00   1.494558e-02
  1.647895e+00    1.130275e+00   1.474529e-02
  1.650106e+00    1.140820e+00   1.479698e-02
  1.652316e+00    1.141244e+00   1.478330e-02
  1.654527e+00    1.136615e+00   1.473667e-02
  1.656737e+00    1.114822e+00   1.457831e-02
  1.658947e+00    1.110113e+00   1.453134e-02
  1.661158e+00    1.118295e+00   1.456862e-02
  1.663368e+00    1.081012e+00   1.430797e-02
  1.665579e+00    1.104252e+00   1.444490e-02
  1.667789e+00    1.115391e+00   1.450136e-02
  1.670000e+00    1.117542e+00   1.449981e-02
  1.672210e+00    1.131906e+00   1.457664e-02
  1.674421e+00    1.138182e+00   1.460147e-02
  1.676631e+00    1.110194e+00   1.440488e-02
  1.678842e+00    1.095162e+00   1.429129e-02
  1.681052e+00    1.090088e+00   1.424277e-02
  1.683263e+00    1.079607e+00   1.415909e-02
  1.685473e+00    1.068352e+00   1.407005e-02
  1.687683e+00    1.074193e+00   1.409309e-02
  1.689894e+00    1.054474e+00   1.394757e-02
  1.692104e+00    1.061073e+00   1.397632e-02
  1.694315e+00    1.064538e+00   1.398468e-02
  1.696525e+00    1.056596e+00   1.391736e-02
  1.698736e+00    1.058817e+00   1.391718e-02
  1.700946e+00    1.060326e+00   1.391198e-02
  1.703157e+00    1.054888e+00   1.386162e-02
  1.705367e+00    1.042148e+00   1.376326e-02
  1.707578e+00    1.037029e+00   1.371491e-02
  1.709788e+00    1.036626e+00   1.369819e-02
  1.711998e+00    1.046540e+00   1.374850e-02
  1.714209e+00    1.018508e+00   1.354884e-02
  1.716419e+00    1.035107e+00   1.364450e-02
  1.718630e+00    1.037778e+00   1.364781e-02
  1.720840e+00    1.012289e+00   1.346508e-02
  1.723051e+00    9.983251e-01   1.335820e-02
  1.725261e+00    9.898899e-01   1.328720e-02
  1.727472e+00    9.997661e-01   1.333926e-02
  1.729682e+00    9.971122e-01   1.330821e-02
  1.731893e+00    1.010008e+00   1.338010e-02
  1.734103e+00    1.002173e+00   1.331437e-02
  1.736313e+00    9.872284e-01   1.320084e-02
  1.738524e+00    9.641054e-01   1.303175e-02
  1.740734e+00    9.949703e-01   1.322503e-02
  1.742945e+00    9.835405e-01   1.313551e-02
  1.745155e+00    9.643829e-01   1.299367e-02
  1.747366e+00    9.712139e-01   1.302594e-02
  1.749576e+00    9.531048e-01   1.289047e-02
  1.751787e+00    9.729462e-01   1.301068e-02
  1.753997e+00    9.868955e-01   1.309018e-02
  1.756208e+00    9.896632e-01   1.309525e-02
  1.758418e+00    9.621761e-01   1.289905e-02
  1.760628e+00    9.615725e-01   1.288171e-02
  1.762839e+00    9.711864e-01   1.293267e-02
  1.765049e+00    9.677525e-01   1.289664e-02
  1.767260e+00    9.567326e-01   1.281022e-02
  1.769470e+00    9.619317e-01   1.283194e-02
  1.771681e+00    9.558429e-01   1.277810e-02
  1.773891e+00    9.720969e-01   1.287307e-02
  1.776102e+00    9.739304e-01   1.287218e-02
  1.778312e+00    9.446780e-01   1.266466e-02
  1.780523e+00    9.176859e-01   1.246984e-02
  1.782733e+00    9.279036e-01   1.252646e-02
  1.784944e+00    9.428239e-01   1.261383e-02
  1.787154e+00    9.225236e-01   1.246484e-02
  1.789364e+00    9.235245e-01   1.245917e-02
  1.791575e+00    8.881900e-01   1.220622e-02
  1.793785e+00    9.189089e-01   1.240311e-02
  1.795996e+00    9.335256e-01   1.248878e-02
  1.798206e+00    9.286661e-01   1.244364e-02
  1.800417e+00    9.364626e-01   1.248296e-02
  1.802627e+00    9.187999e-01   1.235270e-02
  1.804838e+00    9.159163e-01   1.232119e-02
  1.807048e+00    9.156858e-01   1.230671e-02
  1.809259e+00    9.441299e-01   1.248255e-02
  1.811469e+00    9.318210e-01   1.238572e-02
  1.813679e+00    9.120893e-01   1.223883e-02
  1.815890e+00    9.183230e-01   1.226564e-02
  1.818100e+00    9.325315e-01   1.234477e-02
  1.820311e+00    9.249293e-01   1.227935e-02
  1.822521e+00    9.024124e-01   1.211399e-02
  1.824732e+00    8.923889e-01   1.203171e-02
  1.826942e+00    8.707982e-01   1.187303e-02
  1.829153e+00    8.949962e-01   1.202511e-02
  1.831363e+00    9.024639e-01   1.206302e-02
  1.833574e+00    8.992782e-01   1.202990e-02
  1.835784e+00    9.314092e-01   1.223117e-02
  1.837994e+00    9.206126e-01   1.214810e-02
  1.840205e+00    9.135324e-01   1.208987e-02
  1.842415e+00    9.096350e-01   1.205204e-02
  1.844626e+00    8.700456e-01   1.177532e-02
  1.846836e+00    8.467206e-01   1.160509e-02
  1.849047e+00    8.567924e-01   1.166236e-02
  1.851257e+00    8.624442e-01   1.169120e-02
  1.853468e+00    8.569586e-01   1.164520e-02
  1.855678e+00    8.518392e-01   1.160151e-02
  1.857889e+00    8.557443e-01   1.161958e-02
  1.860099e+00    8.591949e-01   1.163436e-02
  1.862309e+00    8.457845e-01   1.153475e-02
  1.864520e+00    8.519202e-01   1.156794e-02
  1.866730e+00    8.589135e-01   1.160594e-02
  1.868941e+00    8.545304e-01   1.156532e-02
  1.871151e+00    8.500697e-01   1.152371e-02
  1.873362e+00    8.629373e-01   1.159918e-02
  1.875572e+00    8.538736e-01   1.152713e-02
  1.877783e+00    8.740702e-01   1.165106e-02
  1.879993e+00    8.799935e-01   1.167910e-02
  1.882204e+00    8.754815e-01   1.163803e-02
  1.884414e+00    8.775225e-01   1.164029e-02
  1.886624e+00    8.760411e-01   1.161919e-02
  1.888835e+00    8.458884e-01   1.140648e-02
  1.891045e+00    8.394876e-01   1.135235e-02
  1.893256e+00    8.289011e-01   1.126952e-02
  1.895466e+00    8.461220e-01   1.137474e-02
  1.897677e+00    8.545957e-01   1.142054e-02
  1.899887e+00    8.416473e-01   1.132264e-02
  1.902098e+00    8.337141e-01   1.125830e-02
  1.904308e+00    8.415772e-01   1.130060e-02
  1.906519e+00    8.460031e-01   1.131936e-02
  1.908729e+00    8.579096e-01   1.138792e-02
  1.910940e+00    8.700244e-01   1.145665e-02
  1.913150e+00    8.487051e-01   1.130469e-02
  1.915360e+00    8.433666e-01   1.125832e-02
  1.917571e+00    8.369552e-01   1.120449e-02
  1.919781e+00    8.438362e-01   1.123960e-02
  1.921992e+00    8.395323e-01   1.120019e-02
  1.924202e+00    8.112282e-01   1.099905e-02
  1.926413e+00    7.952991e-01   1.088033e-02
  1.928623e+00    8.047214e-01   1.093413e-02
  1.930834e+00    8.104167e-01   1.096232e-02
  1.933044e+00    8.138476e-01   1.097484e-02
  1.935255e+00    7.990455e-01   1.086432e-02
  1.937465e+00    7.786591e-01   1.071463e-02
  1.939675e+00    7.901443e-01   1.078259e-02
  1.941886e+00    8.182376e-01   1.096227e-02
  1.944096e+00    8.094243e-01   1.089284e-02
  1.946307e+00    7.930299e-01   1.077169e-02
  1.948517e+00    7.795237e-01   1.066925e-02
  1.950728e+00    7.983299e-01   1.078694e-02
  1.952938e+00    7.922410e-01   1.073567e-02
  1.955149e+00    7.971229e-01   1.075846e-02
  1.957359e+00    7.907280e-01   1.070520e-02
  1.959570e+00    7.947716e-01   1.072168e-02
  1.961780e+00    8.005256e-01   1.075044e-02
  1.963990e+00    8.007652e-01   1.074190e-02
  1.966201e+00    8.037866e-01   1.075197e-02
  1.968411e+00    8.061386e-01   1.075746e-02
  1.970622e+00    7.971225e-01   1.068698e-02
  1.972832e+00    7.839615e-01   1.058843e-02
  1.975043e+00    8.051425e-01   1.072034e-02
  1.977253e+00    8.211823e-01   1.081643e-02
  1.979464e+00    8.193432e-01   1.079406e-02
  1.981674e+00    7.899448e-01   1.058833e-02
  1.983885e+00    7.718725e-01   1.045656e-02
  1.986095e+00    7.953931e-01   1.060486e-02
  1.988305e+00    7.844620e-01   1.052185e-02
  1.990516e+00    7.775960e-01   1.046576e-02
  1.992726e+00    7.883774e-01   1.052833e-02
  1.994937e+00    7.994469e-01   1.059172e-02
  1.997147e+00    8.003585e-01   1.058787e-02
  1.999358e+00    7.956142e-01   1.054646e-02
  2.001568e+00    7.857106e-01   1.046973e-02
  2.003779e+00    7.798782e-01   1.041881e-02
  2.005989e+00    7.745579e-01   1.037118e-02
  2.008200e+00    7.686821e-01   1.032025e-02
  2.010410e+00    7.541969e-01   1.021091e-02
  2.012621e+00    7.642149e-01   1.026683e-02
  2.014831e+00    7.757096e-01   1.033221e-02
  2.017041e+00    7.872544e-01   1.039831e-02
  2.019252e+00    7.740373e-01   1.030064e-02
  2.021462e+00    7.836558e-01   1.035481e-02
  2.023673e+00    7.699192e-01   1.025425e-02
  2.025883e+00    7.654879e-01   1.021513e-02
  2.028094e+00    7.879511e-01   1.035415e-02
  2.030304e+00    7.751615e-01   1.026016e-02
  2.032515e+00    7.695412e-01   1.021354e-02
  2.034725e+00    7.659110e-01   1.017994e-02
  2.036936e+00    7.567924e-01   1.010983e-02
  2.039146e+00    7.638627e-01   1.014732e-02
  2.041356e+00    7.845879e-01   1.027424e-02
  2.043567e+00    7.735847e-01   1.019253e-02
  2.045777e+00    7.793882e-01   1.022131e-02
  2.047988e+00    7.537430e-01   1.004236e-02
  2.050198e+00    7.706923e-01   1.014612e-02
  2.052409e+00    7.640976e-01   1.009492e-02
  2.054619e+00    7.499832e-01   9.993863e-03
  2.056830e+00    7.681943e-01   1.010722e-02
  2.059040e+00    7.635933e-01   1.006934e-02
  2.061251e+00    7.651963e-01   1.007256e-02
  2.063461e+00    7.779967e-01   1.014874e-02
  2.065671e+00    7.664941e-01   1.006461e-02
  2.067882e+00    7.485486e-01   9.937093e-03
  2.070092e+00    7.578442e-01   9.989337e-03
  2.072303e+00    7.680715e-01   1.004724e-02
  2.074513e+00    7.638741e-01   1.001033e-02
  2.076724e+00    7.652801e-01   1.000992e-02
  2.078934e+00    7.653414e-01   1.000122e-02
  2.081145e+00    7.463180e-01   9.867015e-03
  2.083355e+00    7.560744e-01   9.922029e-03
  2.085566e+00    7.693136e-01   9.999464e-03
  2.087776e+00    7.469380e-01   9.843426e-03
  2.089986e+00    7.383132e-01   9.777630e-03
  2.092197e+00    7.447293e-01   9.811021e-03
  2.094407e+00    7.431221e-01   9.791172e-03
  2.096618e+00    7.323064e-01   9.710766e-03
  2.098828e+00    7.419390e-01   9.765075e-03
  2.101039e+00    7.379926e-01   9.730057e-03
  2.103249e+00    7.266867e-01   9.646600e-03
  2.105460e+00    7.364247e-01   9.701952e-03
  2.107670e+00    7.342488e-01   9.678844e-03
  2.109881e+00    7.550718e-01   9.805797e-03
  2.112091e+00    7.465525e-01   9.741204e-03
  2.114301e+00    7.486743e-01   9.746114e-03
  2.116512e+00    7.446270e-01   9.710810e-03
  2.118722e+00    7.380204e-01   9.658714e-03
  2.120933e+00    7.474020e-01   9.710875e-03
  2.123143e+00    7.394595e-01   9.650123e-03
  2.125354e+00    7.252908e-01   9.548640e-03
  2.127564e+00    7.370793e-01   9.617050e-03
  2.129775e+00    7.526428e-01   9.709135e-03
  2.131985e+00    7.178811e-01   9.473186e-03
  2.134196e+00    7.131743e-01   9.433476e-03
  2.136406e+00    7.271013e-01   9.516316e-03
  2.138617e+00    7.239647e-01   9.487226e-03
  2.140827e+00    6.977093e-01   9.329560e-03
  2.143037e+00    7.023897e-01   9.406102e-03
  2.145248e+00    6.990659e-01   9.405713e-03
  2.147458e+00    7.047710e-01   9.459159e-03
  2.149669e+00    7.088485e-01   9.498393e-03
  2.151879e+00    7.089821e-01   9.508561e-03
  2.154090e+00    6.911982e-01   9.395803e-03
  2.156300e+00    6.985514e-01   9.452240e-03
  2.158511e+00    7.018083e-01   9.479571e-03
  2.160721e+00    7.082914e-01   9.528090e-03
  2.162932e+00    6.944956e-01   9.438597e-03
  2.165142e+00    6.909955e-01   9.417769e-03
  2.167352e+00    7.060857e-01   9.522986e-03
  2.169563e+00    7.084475e-01   9.540865e-03
  2.171773e+00    7.044222e-01   9.516211e-03
  2.173984e+00    6.981741e-01   9.475308e-03
  2.176194e+00    6.911282e-01   9.428585e-03
  2.178405e+00    7.101333e-01   9.558039e-03
  2.180615e+00    6.949567e-01   9.456046e-03
  2.182826e+00    6.823363e-01   9.370472e-03
  2.185036e+00    6.681313e-01   9.272469e-03
  2.187247e+00    6.755683e-01   9.323861e-03
  2.189457e+00    6.825513e-01   9.371521e-03
  2.191667e+00    7.001810e-01   9.491622e-03
  2.193878e+00    6.827368e-01   9.372070e-03
  2.196088e+00    6.931466e-01   9.442546e-03
  2.198299e+00    7.007005e-01   9.492777e-03
  2.200509e+00    6.769714e-01   9.329605e-03
  2.202720e+00    6.775954e-01   9.332745e-03
  2.204930e+00    6.849131e-01   9.381763e-03
  2.207141e+00    6.759723e-01   9.319213e-03
  2.209351e+00    6.844004e-01   9.375244e-03
  2.211562e+00    6.862488e-01   9.386267e-03
  2.213772e+00    6.760964e-01   9.261128e-03
  2.215982e+00    6.850839e-01   9.277971e-03
  2.218193e+00    6.816957e-01   9.225230e-03
  2.220403e+00    6.755629e-01   9.159058e-03
  2.222614e+00    6.683515e-01   9.089162e-03
  2.224824e+00    6.680461e-01   9.067780e-03
  2.227035e+00    6.711364e-01   9.071315e-03
  2.229245e+00    6.606206e-01   8.983133e-03
  2.231456e+00    6.715667e-01   9.041626e-03
  2.233666e+00    6.854457e-01   9.119329e-03
  2.235877e+00    6.770586e-01   9.049028e-03
  2.238087e+00    6.613392e-01   8.929982e-03
  2.240298e+00    6.682825e-01   8.962956e-03
  2.242508e+00    6.585029e-01   8.882146e-03
  2.244718e+00    6.700620e-01   8.943926e-03
  2.246929e+00    6.663079e-01   8.904436e-03
  2.249139e+00    6.849427e-01   9.015548e-03
  2.251350e+00    6.642808e-01   8.866861e-03
  2.253560e+00    6.702638e-01   8.895088e-03
  2.255771e+00    6.645309e-01   8.845570e-03
  2.257981e+00    6.691484e-01   8.865037e-03
  2.260192e+00    6.601341e-01   8.794052e-03
  2.262402e+00    6.716094e-01   8.859230e-03
  2.264613e+00    6.750304e-01   8.870861e-03
  2.266823e+00    6.547789e-01   8.726440e-03
  2.269033e+00    6.684818e-01   8.806847e-03
  2.271244e+00    6.746784e-01   8.837079e-03
  2.273454e+00    6.712000e-01   8.803969e-03
  2.275665e+00    6.626705e-01   8.737514e-03
  2.277875e+00    6.685631e-01   8.766304e-03
  2.280086e+00    6.614102e-01   8.709225e-03
  2.282296e+00    6.746237e-01   8.786270e-03
  2.284507e+00    6.610773e-01   8.687492e-03
  2.286717e+00    6.491686e-01   8.599453e-03
  2.288928e+00    6.633335e-01   8.682867e-03
  2.291138e+00    6.548724e-01   8.617889e-03
  2.293348e+00    6.616511e-01   8.652804e-03
  2.295559e+00    6.642618e-01   8.660474e-03
  2.297769e+00    6.611148e-01   8.630657e-03
  2.299980e+00    6.595645e-01   8.611141e-03
  2.302190e+00    6.492040e-01   8.534163e-03
  2.304401e+00    6.518650e-01   8.542288e-03
  2.306611e+00    6.562259e-01   8.561603e-03
  2.308822e+00    6.562022e-01   8.553025e-03
  2.311032e+00    6.580724e-01   8.558721e-03
  2.313243e+00    6.495816e-01   8.497051e-03
  2.315453e+00    6.483152e-01   8.481201e-03
  2.317663e+00    6.447903e-01   8.449011e-03
  2.319874e+00    6.374355e-01   8.392018e-03
  2.322084e+00    6.321388e-01   8.348193e-03
  2.324295e+00    6.359569e-01   8.365213e-03
  2.326505e+00    6.371038e-01   8.363751e-03
  2.328716e+00    6.433638e-01   8.396188e-03
  2.330926e+00    6.432583e-01   8.386700e-03
  2.333137e+00    6.501761e-01   8.423257e-03
  2.335347e+00    6.432114e-01   8.369137e-03
  2.337558e+00    6.399411e-01   8.339606e-03
  2.339768e+00    6.394773e-01   8.328004e-03
  2.341979e+00    6.435655e-01   8.346202e-03
  2.344189e+00    6.351118e-01   8.282814e-03
  2.346399e+00    6.329077e-01   8.259960e-03
  2.348610e+00    6.445747e-01   8.327224e-03
  2.350820e+00    6.284960e-01   8.214576e-03
  2.353031e+00    6.305605e-01   8.219793e-03
  2.355241e+00    6.194836e-01   8.139297e-03
  2.357452e+00    6.311681e-01   8.207292e-03
  2.359662e+00    6.371337e-01   8.237733e-03
  2.361873e+00    6.381190e-01   8.235818e-03
  2.364083e+00    6.351492e-01   8.208602e-03
  2.366294e+00    6.159437e-01   8.075524e-03
  2.368504e+00    6.311464e-01   8.166450e-03
  2.370714e+00    6.248304e-01   8.117449e-03
  2.372925e+00    6.259520e-01   8.116663e-03
  2.375135e+00    6.309556e-01   8.140949e-03
  2.377346e+00    6.219199e-01   8.074518e-03
  2.379556e+00    6.212003e-01   8.061952e-03
  2.381767e+00    6.118832e-01   7.993455e-03
  2.383977e+00    6.264421e-01   8.080029e-03
  2.386188e+00    6.186209e-01   8.021526e-03
  2.388398e+00    6.210890e-01   8.029534e-03
  2.390609e+00    6.184540e-01   8.004750e-03
  2.392819e+00    6.103466e-01   7.944383e-03
  2.395029e+00    6.062440e-01   7.910021e-03
  2.397240e+00    6.030891e-01   7.881620e-03
  2.399450e+00    6.114128e-01   7.928027e-03
  2.401661e+00    6.070156e-01   7.891826e-03
  2.403871e+00    6.220040e-01   7.980819e-03
  2.406082e+00    6.216270e-01   7.970924e-03
  2.408292e+00    5.987934e-01   7.815420e-03
  2.410503e+00    6.195470e-01   7.942143e-03
  2.412713e+00    6.369423e-01   8.044882e-03
  2.414924e+00    6.027768e-01   7.818717e-03
  2.417134e+00    6.048285e-01   7.824329e-03
  2.419344e+00    6.087763e-01   7.842412e-03
  2.421555e+00    5.918013e-01   7.724833e-03
  2.423765e+00    6.078577e-01   7.821490e-03
  2.425976e+00    5.969168e-01   7.742986e-03
  2.428186e+00    5.999277e-01   7.755257e-03
  2.430397e+00    6.103249e-01   7.814623e-03
  2.432607e+00    6.121668e-01   7.819009e-03
  2.434818e+00    6.131610e-01   7.817720e-03
  2.437028e+00    6.044756e-01   7.754944e-03
  2.439239e+00    5.949023e-01   7.685618e-03
  2.441449e+00    6.036733e-01   7.734805e-03
  2.443659e+00    5.851552e-01   7.607939e-03
  2.445870e+00    5.881917e-01   7.639881e-03
  2.448080e+00    5.864475e-01   7.663448e-03
  2.450291e+00    5.761383e-01   7.612388e-03
  2.452501e+00    5.673401e-01   7.565120e-03
  2.454712e+00    5.763063e-01   7.633100e-03
  2.456922e+00    5.631094e-01   7.551802e-03
  2.459133e+00    5.588869e-01   7.528800e-03
  2.461343e+00    5.693244e-01   7.603141e-03
  2.463554e+00    5.595383e-01   7.540982e-03
  2.465764e+00    5.601129e-01   7.547966e-03
  2.467975e+00    5.577537e-01   7.534349e-03
  2.470185e+00    5.515600e-01   7.494617e-03
  2.472395e+00    5.632721e-01   7.575017e-03
  2.474606e+00    5.663466e-01   7.597237e-03
  2.476816e+00    5.498900e-01   7.486797e-03
  2.479027e+00    5.476075e-01   7.472064e-03
  2.481237e+00    5.549487e-01   7.522272e-03
  2.483448e+00    5.483987e-01   7.478062e-03
  2.485658e+00    5.390521e-01   7.413904e-03
  2.487869e+00    5.472745e-01   7.470272e-03
  2.490079e+00    5.490557e-01   7.481910e-03
  2.492290e+00    5.422366e-01   7.434854e-03
  2.494500e+00    5.490932e-01   7.480975e-03
  2.496710e+00    5.398725e-01   7.417209e-03
  2.498921e+00    5.370330e-01   7.396680e-03
  2.501131e+00    5.361143e-01   7.389397e-03
  2.503342e+00    5.341381e-01   7.374505e-03
  2.505552e+00    5.322392e-01   7.360252e-03
  2.507763e+00    5.144096e-01   7.234527e-03
  2.509973e+00    5.141419e-01   7.231269e-03
  2.512184e+00    5.165340e-01   7.246444e-03
  2.514394e+00    5.247368e-01   7.294457e-03
  2.516605e+00    5.149491e-01   7.179541e-03
  2.518815e+00    5.323288e-01   7.271195e-03
  2.521025e+00    5.310754e-01   7.241566e-03
  2.523236e+00    5.306701e-01   7.220728e-03
  2.525446e+00    5.219255e-01   7.145442e-03
  2.527657e+00    5.241187e-01   7.145833e-03
  2.529867e+00    5.319619e-01   7.184846e-03
  2.532078e+00    5.451016e-01   7.257712e-03
  2.534288e+00    5.302923e-01   7.144487e-03
  2.536499e+00    5.297586e-01   7.128902e-03
  2.538709e+00    5.217280e-01   7.063685e-03
  2.540920e+00    5.257509e-01   7.080209e-03
  2.543130e+00    5.191689e-01   7.025425e-03
  2.545340e+00    5.169566e-01   7.000461e-03
  2.547551e+00    5.169272e-01   6.990358e-03
  2.549761e+00    5.079387e-01   6.919877e-03
  2.551972e+00    5.033430e-01   6.879308e-03
  2.554182e+00    5.126593e-01   6.933580e-03
  2.556393e+00    5.209308e-01   6.980192e-03
  2.558603e+00    5.163754e-01   6.940577e-03
  2.560814e+00    5.343421e-01   7.051456e-03
  2.563024e+00    5.284044e-01   7.003531e-03
  2.565235e+00    5.260308e-01   6.978195e-03
  2.567445e+00    5.352651e-01   7.029489e-03
  2.569656e+00    5.259542e-01   6.958257e-03
  2.571866e+00    5.195801e-01   6.906595e-03
  2.574076e+00    5.165077e-01   6.876871e-03
  2.576287e+00    5.300522e-01   6.958028e-03
  2.578497e+00    5.222529e-01   6.898749e-03
  2.580708e+00    5.220854e-01   6.889515e-03
  2.582918e+00    5.274004e-01   6.916621e-03
  2.585129e+00    5.189052e-01   6.852937e-03
  2.587339e+00    4.926813e-01   6.669979e-03
  2.589550e+00    5.024155e-01   6.728094e-03
  2.591760e+00    5.182929e-01   6.825771e-03
  2.593971e+00    5.151227e-01   6.797340e-03
  2.596181e+00    4.990162e-01   6.684065e-03
  2.598391e+00    5.026373e-01   6.703128e-03
  2.600602e+00    5.068759e-01   6.725437e-03
  2.602812e+00    5.154997e-01   6.774820e-03
  2.605023e+00    5.128514e-01   6.750211e-03
  2.607233e+00    5.049456e-01   6.690849e-03
  2.609444e+00    5.018950e-01   6.663424e-03
  2.611654e+00    5.021023e-01   6.657504e-03
  2.613865e+00    5.218245e-01   6.779858e-03
  2.616075e+00    4.955314e-01   6.599798e-03
  2.618286e+00    5.029565e-01   6.642049e-03
  2.620496e+00    5.108166e-01   6.687032e-03
  2.622706e+00    5.038891e-01   6.635794e-03
  2.624917e+00    5.025517e-01   6.621140e-03
  2.627127e+00    5.065629e-01   6.641760e-03
  2.629338e+00    4.980058e-01   6.579491e-03
  2.631548e+00    4.956918e-01   6.558046e-03
  2.633759e+00    5.076551e-01   6.629542e-03
  2.635969e+00    5.157028e-01   6.675077e-03
  2.638180e+00    5.191036e-01   6.689976e-03
  2.640390e+00    5.108400e-01   6.629839e-03
  2.642601e+00    5.169547e-01   6.662623e-03
  2.644811e+00    5.027829e-01   6.563584e-03
  2.647021e+00    5.007027e-01   6.543414e-03
  2.649232e+00    4.983916e-01   6.521581e-03
  2.651442e+00    5.057790e-01   6.563199e-03
  2.653653e+00    4.914090e-01   6.462544e-03
  2.655863e+00    5.072743e-01   6.559298e-03
  2.658074e+00    4.928114e-01   6.458532e-03
  2.660284e+00    5.098335e-01   6.562695e-03
  2.662495e+00    4.998092e-01   6.491098e-03
  2.664705e+00    5.012648e-01   6.493927e-03
  2.666916e+00    5.022182e-01   6.493618e-03
  2.669126e+00    4.987977e-01   6.464971e-03
  2.671337e+00    4.959124e-01   6.439686e-03
  2.673547e+00    5.033957e-01   6.481639e-03
  2.675757e+00    4.923427e-01   6.403660e-03
  2.677968e+00    5.082459e-01   6.499638e-03
  2.680178e+00    4.975909e-01   6.424735e-03
  2.682389e+00    4.968149e-01   6.413299e-03
  2.684599e+00    4.982350e-01   6.416228e-03
  2.686810e+00    4.959227e-01   6.394710e-03
  2.689020e+00    4.904644e-01   6.353129e-03
  2.691231e+00    4.820491e-01   6.292159e-03
  2.693441e+00    4.889845e-01   6.331112e-03
  2.695652e+00    4.990963e-01   6.389674e-03
  2.697862e+00    4.963237e-01   6.365527e-03
  2.700072e+00    4.993533e-01   6.378769e-03
  2.702283e+00    4.929218e-01   6.331326e-03
  2.704493e+00    4.985753e-01   6.361179e-03
  2.706704e+00    4.923916e-01   6.315183e-03
  2.708914e+00    4.944284e-01   6.322220e-03
  2.711125e+00    4.957245e-01   6.324210e-03
  2.713335e+00    4.889273e-01   6.274596e-03
  2.715546e+00    4.885686e-01   6.265834e-03
  2.717756e+00    4.763695e-01   6.181284e-03
  2.719967e+00    4.815587e-01   6.208662e-03
  2.722177e+00    4.996690e-01   6.318132e-03
  2.724387e+00    4.887662e-01   6.242688e-03
  2.726598e+00    4.940284e-01   6.270100e-03
  2.728808e+00    4.740419e-01   6.135886e-03
  2.731019e+00    4.837447e-01   6.192225e-03
  2.733229e+00    4.911312e-01   6.233475e-03
  2.735440e+00    4.954428e-01   6.254460e-03
  2.737650e+00    4.864394e-01   6.191317e-03
  2.739861e+00    4.934859e-01   6.229870e-03
  2.742071e+00    4.966177e-01   6.243790e-03
  2.744282e+00    4.844409e-01   6.160501e-03
  2.746492e+00    4.900088e-01   6.189722e-03
  2.748702e+00    4.913158e-01   6.192008e-03
  2.750913e+00    4.828215e-01   6.132461e-03
  2.753123e+00    4.969890e-01   6.215549e-03
  2.755334e+00    4.950648e-01   6.197365e-03
  2.757544e+00    4.741468e-01   6.059313e-03
  2.759755e+00    4.754462e-01   6.061749e-03
  2.761965e+00    4.735530e-01   6.043729e-03
  2.764176e+00    4.832675e-01   6.099394e-03
  2.766386e+00    4.789709e-01   6.066443e-03
  2.768597e+00    4.749078e-01   6.034832e-03
  2.770807e+00    4.790942e-01   6.055476e-03
  2.773017e+00    4.869630e-01   6.098988e-03
  2.775228e+00    4.802556e-01   6.051052e-03
  2.777438e+00    4.814528e-01   6.052770e-03
  2.779649e+00    4.866904e-01   6.079637e-03
  2.781859e+00    4.915743e-01   6.104246e-03
  2.784070e+00    4.751018e-01   5.995244e-03
  2.786280e+00    4.693966e-01   5.953406e-03
  2.788491e+00    4.825427e-01   6.030340e-03
  2.790701e+00    4.757961e-01   5.982384e-03
  2.792912e+00    4.771083e-01   5.984657e-03
  2.795122e+00    4.804406e-01   5.999764e-03
  2.797333e+00    4.868351e-01   6.033942e-03
  2.799543e+00    4.686219e-01   5.914176e-03
  2.801753e+00    4.687828e-01   5.909365e-03
  2.803964e+00    4.730895e-01   5.930810e-03
  2.806174e+00    4.771055e-01   5.949761e-03
  2.808385e+00    4.834525e-01   5.982351e-03
  2.810595e+00    4.820130e-01   5.966527e-03
  2.812806e+00    4.855746e-01   5.981831e-03
  2.815016e+00    4.820645e-01   5.955396e-03
  2.817227e+00    4.810268e-01   5.975094e-03
  2.819437e+00    4.753201e-01   5.950662e-03
  2.821648e+00    4.641736e-01   5.882729e-03
  2.823858e+00    4.741101e-01   5.950698e-03
  2.826068e+00    4.712380e-01   5.937627e-03
  2.828279e+00    4.662406e-01   5.910071e-03
  2.830489e+00    4.707712e-01   5.942040e-03
  2.832700e+00    4.774590e-01   5.986673e-03
  2.834910e+00    4.815821e-01   6.014553e-03
  2.837121e+00    4.833295e-01   6.027191e-03
  2.839331e+00    4.678529e-01   5.931139e-03
  2.841542e+00    4.695086e-01   5.942626e-03
  2.843752e+00    4.756522e-01   5.982161e-03
  2.845963e+00    4.834563e-01   6.031459e-03
  2.848173e+00    4.772618e-01   5.992786e-03
  2.850383e+00    4.645703e-01   5.912846e-03
  2.852594e+00    4.702056e-01   5.948516e-03
  2.854804e+00    4.738322e-01   5.970913e-03
  2.857015e+00    4.676757e-01   5.931563e-03
  2.859225e+00    4.664424e-01   5.923487e-03
  2.861436e+00    4.781273e-01   5.996556e-03
  2.863646e+00    4.579733e-01   5.868857e-03
  2.865857e+00    4.639430e-01   5.907315e-03
  2.868067e+00    4.697807e-01   5.944596e-03
  2.870278e+00    4.698219e-01   5.944486e-03
  2.872488e+00    4.753530e-01   5.978218e-03
  2.874698e+00    4.678817e-01   5.929990e-03
  2.876909e+00    4.680264e-01   5.929576e-03
  2.879119e+00    4.702795e-01   5.942205e-03
  2.881330e+00    4.702121e-01   5.940283e-03
  2.883540e+00    4.721531e-01   5.951141e-03
  2.885751e+00    4.575460e-01   5.856716e-03
  2.887961e+00    4.609729e-01   5.876727e-03
  2.890172e+00    4.613794e-01   5.877716e-03
  2.892382e+00    4.589451e-01   5.860389e-03
  2.894593e+00    4.553520e-01   5.835596e-03
  2.896803e+00    4.674185e-01   5.910414e-03
  2.899014e+00    4.585204e-01   5.851984e-03
  2.901224e+00    4.688177e-01   5.915306e-03
  2.903434e+00    4.676599e-01   5.906058e-03
  2.905645e+00    4.673548e-01   5.901871e-03
  2.907855e+00    4.666900e-01   5.895572e-03
  2.910066e+00    4.664737e-01   5.892090e-03
  2.912276e+00    4.624279e-01   5.864372e-03
  2.914487e+00    4.716834e-01   5.920266e-03
  2.916697e+00    4.665118e-01   5.885482e-03
  2.918908e+00    4.622212e-01   5.856348e-03
  2.921118e+00    4.838535e-01   5.989033e-03
  2.923329e+00    4.692000e-01   5.895326e-03
  2.925539e+00    4.631483e-01   5.854887e-03
  2.927749e+00    4.520750e-01   5.782166e-03
  2.929960e+00    4.623531e-01   5.844730e-03
  2.932170e+00    4.710533e-01   5.897093e-03
  2.934381e+00    4.696413e-01   5.885796e-03
  2.936591e+00    4.527154e-01   5.776182e-03
  2.938802e+00    4.473669e-01   5.739282e-03
  2.941012e+00    4.523895e-01   5.769070e-03
  2.943223e+00    4.568863e-01   5.794981e-03
  2.945433e+00    4.572905e-01   5.793801e-03
  2.947644e+00    4.646427e-01   5.836002e-03
  2.949854e+00    4.756937e-01   5.900653e-03
  2.952064e+00    4.522869e-01   5.749432e-03
  2.954275e+00    4.578418e-01   5.780204e-03
  2.956485e+00    4.692268e-01   5.847365e-03
  2.958696e+00    4.663213e-01   5.824832e-03
  2.960906e+00    4.584411e-01   5.771189e-03
  2.963117e+00    4.665603e-01   5.817543e-03
  2.965327e+00    4.590593e-01   5.766653e-03
  2.967538e+00    4.511833e-01   5.714079e-03
  2.969748e+00    4.505060e-01   5.706970e-03
  2.971959e+00    4.700138e-01   5.826034e-03
  2.974169e+00    4.554770e-01   5.732660e-03
  2.976379e+00    4.501007e-01   5.695811e-03
  2.978590e+00    4.487084e-01   5.683876e-03
  2.980800e+00    4.609048e-01   5.757787e-03
  2.983011e+00    4.587566e-01   5.741543e-03
  2.985221e+00    4.492181e-01   5.678406e-03
  2.987432e+00    4.525323e-01   5.696203e-03
  2.989642e+00    4.461851e-01   5.653515e-03
  2.991853e+00    4.674399e-01   5.783276e-03
  2.994063e+00    4.612511e-01   5.741933e-03
  2.996274e+00    4.538490e-01   5.692502e-03
  2.998484e+00    4.454440e-01   5.636861e-03
  3.000694e+00    4.633714e-01   5.745674e-03
  3.002905e+00    4.762797e-01   5.822151e-03
  3.005115e+00    4.595760e-01   5.716155e-03
  3.007326e+00    4.507603e-01   5.657915e-03
  3.009536e+00    4.559708e-01   5.687251e-03
  3.011747e+00    4.622678e-01   5.723442e-03
  3.013957e+00    4.620709e-01   5.719026e-03
  3.016168e+00    4.422068e-01   5.591518e-03
  3.018378e+00    4.530124e-01   5.656381e-03
  3.020589e+00    4.446639e-01   5.600824e-03
  3.022799e+00    4.541075e-01   5.656832e-03
  3.025010e+00    4.534899e-01   5.649736e-03
  3.027220e+00    4.567617e-01   5.666953e-03
  3.029430e+00    4.609357e-01   5.689511e-03
  3.031641e+00    4.536591e-01   5.641283e-03
  3.033851e+00    4.504321e-01   5.617677e-03
  3.036062e+00    4.544768e-01   5.640048e-03
  3.038272e+00    4.530915e-01   5.627860e-03
  3.040483e+00    4.424014e-01   5.557892e-03
  3.042693e+00    4.493180e-01   5.597900e-03
  3.044904e+00    4.513027e-01   5.606226e-03
  3.047114e+00    4.623552e-01   5.669591e-03
  3.049325e+00    4.558425e-01   5.625122e-03
  3.051535e+00    4.520336e-01   5.597149e-03
  3.053745e+00    4.479432e-01   5.567053e-03
  3.055956e+00    4.464397e-01   5.553134e-03
  3.058166e+00    4.577612e-01   5.618801e-03
  3.060377e+00    4.505717e-01   5.569759e-03
  3.062587e+00    4.433343e-01   5.520239e-03
  3.064798e+00    4.458438e-01   5.531594e-03
  3.067008e+00    4.535007e-01   5.574148e-03
  3.069219e+00    4.450156e-01   5.517269e-03
  3.071429e+00    4.475261e-01   5.529307e-03
  3.073640e+00    4.543950e-01   5.568231e-03
  3.075850e+00    4.552327e-01   5.569739e-03
  3.078060e+00    4.561121e-01   5.572008e-03
  3.080271e+00    4.501413e-01   5.531928e-03
  3.082481e+00    4.641200e-01   5.613655e-03
  3.084692e+00    4.548280e-01   5.553801e-03
  3.086902e+00    4.302608e-01   5.398525e-03
  3.089113e+00    4.512424e-01   5.525000e-03
  3.091323e+00    4.432734e-01   5.472659e-03
  3.093534e+00    4.532086e-01   5.530228e-03
  3.095744e+00    4.577288e-01   5.554351e-03
  3.097955e+00    4.484853e-01   5.494413e-03
  3.100165e+00    4.582738e-01   5.550694e-03
  3.102375e+00    4.490440e-01   5.491072e-03
  3.104586e+00    4.667008e-01   5.594412e-03
  3.106796e+00    4.505753e-01   5.493401e-03
  3.109007e+00    4.567361e-01   5.527550e-03
  3.111217e+00    4.521773e-01   5.496199e-03
  3.113428e+00    4.563499e-01   5.518015e-03
  3.115638e+00    4.529571e-01   5.494242e-03
  3.117849e+00    4.449601e-01   5.441772e-03
  3.120059e+00    4.530327e-01   5.487429e-03
  3.122270e+00    4.441412e-01   5.430059e-03
  3.124480e+00    4.431460e-01   5.420303e-03
  3.126691e+00    4.465231e-01   5.437326e-03
  3.128901e+00    4.443376e-01   5.420893e-03
  3.131111e+00    4.529451e-01   5.469269e-03
  3.133322e+00    4.495842e-01   5.445475e-03
  3.135532e+00    4.548997e-01   5.474120e-03
  3.137743e+00    4.503523e-01   5.443200e-03
  3.139953e+00    4.487800e-01   5.429985e-03
  3.142164e+00    4.449197e-01   5.418611e-03
  3.144374e+00    4.559584e-01   5.514263e-03
  3.146585e+00    4.478333e-01   5.479564e-03
  3.148795e+00    4.401979e-01   5.443392e-03
  3.151006e+00    4.411026e-01   5.457543e-03
  3.153216e+00    4.456304e-01   5.492619e-03
  3.155426e+00    4.368671e-01   5.444648e-03
  3.157637e+00    4.386201e-01   5.461056e-03
  3.159847e+00    4.405113e-01   5.477705e-03
  3.162058e+00    4.518400e-01   5.552170e-03
  3.164268e+00    4.341191e-01   5.446253e-03
  3.166479e+00    4.406066e-01   5.490448e-03
  3.168689e+00    4.472095e-01   5.534823e-03
  3.170900e+00    4.411929e-01   5.500653e-03
  3.173110e+00    4.419502e-01   5.508257e-03
  3.175321e+00    4.346433e-01   5.465002e-03
  3.177531e+00    4.481187e-01   5.551852e-03
  3.179741e+00    4.436126e-01   5.525961e-03
  3.181952e+00    4.388298e-01   5.498187e-03
  3.184162e+00    4.416119e-01   5.517808e-03
  3.186373e+00    4.389514e-01   5.502743e-03
  3.188583e+00    4.566523e-01   5.614437e-03
  3.190794e+00    4.414366e-01   5.521880e-03
  3.193004e+00    4.403196e-01   5.516119e-03
  3.195215e+00    4.415353e-01   5.525262e-03
  3.197425e+00    4.352241e-01   5.486838e-03
  3.199636e+00    4.393773e-01   5.512167e-03
  3.201846e+00    4.324486e-01   5.467955e-03
  3.204056e+00    4.409806e-01   5.522491e-03
  3.206267e+00    4.441141e-01   5.542974e-03
  3.208477e+00    4.224665e-01   5.407082e-03
  3.210688e+00    4.247950e-01   5.422810e-03
  3.212898e+00    4.408825e-01   5.525100e-03
  3.215109e+00    4.422304e-01   5.534320e-03
  3.217319e+00    4.346730e-01   5.487475e-03
  3.219530e+00    4.359183e-01   5.495710e-03
  3.221740e+00    4.271071e-01   5.440434e-03
  3.223951e+00    4.370656e-01   5.503986e-03
  3.226161e+00    4.380367e-01   5.510274e-03
  3.228372e+00    4.415325e-01   5.532767e-03
  3.230582e+00    4.260162e-01   5.434815e-03
  3.232792e+00    4.343753e-01   5.488100e-03
  3.235003e+00    4.209612e-01   5.402952e-03
  3.237213e+00    4.226681e-01   5.413963e-03
  3.239424e+00    4.253429e-01   5.431088e-03
  3.241634e+00    4.358237e-01   5.497716e-03
  3.243845e+00    4.231635e-01   5.417358e-03
  3.246055e+00    4.221673e-01   5.410688e-03
  3.248266e+00    4.207703e-01   5.401951e-03
  3.250476e+00    4.233000e-01   5.417845e-03
  3.252687e+00    4.211502e-01   5.403989e-03
  3.254897e+00    4.271132e-01   5.441987e-03
  3.257107e+00    4.348468e-01   5.490731e-03
  3.259318e+00    4.317551e-01   5.470959e-03
  3.261528e+00    4.263824e-01   5.436636e-03
  3.263739e+00    4.450697e-01   5.553944e-03
  3.265949e+00    4.164549e-01   5.372338e-03
  3.268160e+00    4.180029e-01   5.381858e-03
  3.270370e+00    4.343040e-01   5.485295e-03
  3.272581e+00    4.370031e-01   5.502045e-03
  3.274791e+00    4.240163e-01   5.419154e-03
  3.277002e+00    4.144032e-01   5.356804e-03
  3.279212e+00    4.135732e-01   5.351057e-03
  3.281422e+00    4.292514e-01   5.450944e-03
  3.283633e+00    4.271450e-01   5.436896e-03
  3.285843e+00    4.150832e-01   5.359259e-03
  3.288054e+00    4.217382e-01   5.401088e-03
  3.290264e+00    4.321901e-01   5.467297e-03
  3.292475e+00    4.290847e-01   5.446785e-03
  3.294685e+00    4.455274e-01   5.549502e-03
  3.296896e+00    4.297297e-01   5.449494e-03
  3.299106e+00    4.269466e-01   5.431240e-03
  3.301317e+00    4.226654e-01   5.402924e-03
  3.303527e+00    4.351880e-01   5.481893e-03
  3.305737e+00    4.368198e-01   5.491095e-03
  3.307948e+00    4.402113e-01   5.511697e-03
  3.310158e+00    4.318959e-01   5.458543e-03
  3.312369e+00    4.248468e-01   5.412906e-03
  3.314579e+00    4.420669e-01   5.520595e-03
  3.316790e+00    4.309159e-01   5.449825e-03
  3.319000e+00    4.374739e-01   5.489908e-03
  3.321211e+00    4.299541e-01   5.441934e-03
  3.323421e+00    4.177051e-01   5.362646e-03
  3.325632e+00    4.166836e-01   5.355188e-03
  3.327842e+00    4.276503e-01   5.424293e-03
  3.330052e+00    4.249481e-01   5.406056e-03
  3.332263e+00    4.161919e-01   5.349060e-03
  3.334473e+00    4.315377e-01   5.445858e-03
  3.336684e+00    4.283978e-01   5.424733e-03
  3.338894e+00    4.290434e-01   5.427965e-03
  3.341105e+00    4.257491e-01   5.405888e-03
  3.343315e+00    4.117605e-01   5.315199e-03
  3.345526e+00    4.149079e-01   5.334577e-03
  3.347736e+00    4.265493e-01   5.407481e-03
  3.349947e+00    4.181218e-01   5.352862e-03
  3.352157e+00    4.119401e-01   5.311996e-03
  3.354368e+00    4.207317e-01   5.367067e-03
  3.356578e+00    4.214483e-01   5.370642e-03
  3.358788e+00    4.006055e-01   5.234836e-03
  3.360999e+00    4.001412e-01   5.230560e-03
  3.363209e+00    4.169499e-01   5.338295e-03
  3.365420e+00    4.207363e-01   5.360963e-03
  3.367630e+00    4.169402e-01   5.335717e-03
  3.369841e+00    4.153708e-01   5.324220e-03
  3.372051e+00    4.118911e-01   5.299925e-03
  3.374262e+00    4.049465e-01   5.252642e-03
  3.376472e+00    4.013047e-01   5.226581e-03
  3.378683e+00    4.026347e-01   5.232755e-03
  3.380893e+00    4.102587e-01   5.279746e-03
  3.383103e+00    4.090196e-01   5.269074e-03
  3.385314e+00    4.253120e-01   5.370748e-03
  3.387524e+00    4.157035e-01   5.307011e-03
  3.389735e+00    4.264956e-01   5.372758e-03
  3.391945e+00    4.161666e-01   5.303643e-03
  3.394156e+00    4.177680e-01   5.309567e-03
  3.396366e+00    4.059149e-01   5.230337e-03
  3.398577e+00    4.022335e-01   5.203556e-03
  3.400787e+00    4.046304e-01   5.230834e-03
  3.402998e+00    3.952797e-01   5.207434e-03
  3.405208e+00    3.970577e-01   5.239572e-03
  3.407418e+00    3.939274e-01   5.234516e-03
  3.409629e+00    4.020434e-01   5.302136e-03
  3.411839e+00    4.060991e-01   5.340700e-03
  3.414050e+00    4.008277e-01   5.316986e-03
  3.416260e+00    3.840180e-01   5.213792e-03
  3.418471e+00    3.891567e-01   5.257935e-03
  3.420681e+00    3.918054e-01   5.284264e-03
  3.422892e+00    3.780648e-01   5.198685e-03
  3.425102e+00    3.777617e-01   5.204261e-03
  3.427313e+00    3.803281e-01   5.229033e-03
  3.429523e+00    3.923301e-01   5.318013e-03
  3.431733e+00    3.810028e-01   5.247305e-03
  3.433944e+00    3.781430e-01   5.233986e-03
  3.436154e+00    3.972758e-01   5.371136e-03
  3.438365e+00    3.797959e-01   5.257562e-03
  3.440575e+00    3.869709e-01   5.312947e-03
  3.442786e+00    3.852208e-01   5.306603e-03
  3.444996e+00    3.634818e-01   5.160087e-03
  3.447207e+00    3.550265e-01   5.104869e-03
  3.449417e+00    3.562207e-01   5.153396e-03
  3.451628e+00    3.613645e-01   5.219620e-03
  3.453838e+00    3.576455e-01   5.213546e-03
  3.456049e+00    3.709628e-01   5.333778e-03
  3.458259e+00    3.716595e-01   5.360861e-03
  3.460469e+00    3.784001e-01   5.429357e-03
  3.462680e+00    3.719879e-01   5.402414e-03
  3.464890e+00    3.743269e-01   5.437310e-03
  3.467101e+00    3.771045e-01   5.475159e-03
  3.469311e+00    3.794637e-01   5.508994e-03
  3.471522e+00    3.958235e-01   5.643369e-03
  3.473732e+00    3.894861e-01   5.614148e-03
  3.475943e+00    4.116663e-01   5.788107e-03
  3.478153e+00    4.094447e-01   5.788329e-03
  3.480364e+00    4.020491e-01   5.751131e-03
  3.482574e+00    4.177509e-01   5.877952e-03
  3.484784e+00    4.276197e-01   5.962147e-03
  3.486995e+00    4.255081e-01   5.962701e-03
  3.489205e+00    4.380795e-01   6.065057e-03
  3.491416e+00    4.330931e-01   6.045453e-03
  3.493626e+00    4.418621e-01   6.121059e-03
  3.495837e+00    4.575289e-01   6.243656e-03
  3.498047e+00    4.596185e-01   6.272652e-03
  3.500258e+00    4.578409e-01   6.275175e-03
  3.502468e+00    4.597821e-01   6.302977e-03
  3.504679e+00    4.698284e-01   6.386090e-03
  3.506889e+00    4.612435e-01   6.341868e-03
  3.509099e+00    4.546463e-01   6.310431e-03
  3.511310e+00    4.791998e-01   6.493080e-03
  3.513520e+00    5.025121e-01   6.663889e-03
  3.515731e+00    5.032274e-01   6.683249e-03
  3.517941e+00    5.030547e-01   6.696673e-03
  3.520152e+00    5.042653e-01   6.719169e-03
  3.522362e+00    5.065665e-01   6.749056e-03
  3.524573e+00    4.978211e-01   6.704696e-03
  3.526783e+00    5.204352e-01   6.868760e-03
  3.528994e+00    5.310485e-01   6.950874e-03
  3.531204e+00    5.283098e-01   6.945454e-03
  3.533414e+00    5.500284e-01   7.099137e-03
  3.535625e+00    5.477095e-01   7.096759e-03
  3.537835e+00    5.396485e-01   7.056534e-03
  3.540046e+00    5.591844e-01   7.192257e-03
  3.542256e+00    5.585607e-01   7.195939e-03
  3.544467e+00    5.579815e-01   7.199998e-03
  3.546677e+00    5.339948e-01   7.051079e-03
  3.548888e+00    5.508704e-01   7.169240e-03
  3.551098e+00    5.364198e-01   7.081874e-03
  3.553309e+00    5.362585e-01   7.088973e-03
  3.555519e+00    5.370238e-01   7.105331e-03
  3.557729e+00    5.445275e-01   7.166632e-03
  3.559940e+00    5.303930e-01   7.084486e-03
  3.562150e+00    5.270898e-01   7.073994e-03
  3.564361e+00    5.493971e-01   7.235614e-03
  3.566571e+00    5.568804e-01   7.298834e-03
  3.568782e+00    5.373893e-01   7.184122e-03
  3.570992e+00    5.418342e-01   7.227567e-03
  3.573203e+00    5.317436e-01   7.174062e-03
  3.575413e+00    5.311149e-01   7.183514e-03
  3.577624e+00    5.473148e-01   7.306517e-03
  3.579834e+00    5.557343e-01   7.376634e-03
  3.582045e+00    5.471979e-01   7.333961e-03
  3.584255e+00    5.299680e-01   7.231557e-03
  3.586465e+00    5.297244e-01   7.243703e-03
  3.588676e+00    5.390439e-01   7.321397e-03
  3.590886e+00    5.416718e-01   7.353019e-03
  3.593097e+00    5.321617e-01   7.302624e-03
  3.595307e+00    5.552674e-01   7.473632e-03
  3.597518e+00    5.448942e-01   7.417870e-03
  3.599728e+00    5.463755e-01   7.442169e-03
  3.601939e+00    5.520879e-01   7.495260e-03
  3.604149e+00    5.458143e-01   7.467069e-03
  3.606360e+00    5.479334e-01   7.495891e-03
  3.608570e+00    5.288762e-01   7.378438e-03
  3.610780e+00    5.256334e-01   7.366758e-03
  3.612991e+00    5.549901e-01   7.579862e-03
  3.615201e+00    5.466523e-01   7.532637e-03
  3.617412e+00    5.640318e-01   7.658899e-03
  3.619622e+00    5.415291e-01   7.510573e-03
  3.621833e+00    5.422723e-01   7.522477e-03
  3.624043e+00    5.203155e-01   7.377990e-03
  3.626254e+00    5.389340e-01   7.518556e-03
  3.628464e+00    5.538098e-01   7.632786e-03
  3.630675e+00    5.584023e-01   7.678833e-03
  3.632885e+00    5.447733e-01   7.599144e-03
  3.635095e+00    5.377973e-01   7.564780e-03
  3.637306e+00    5.514761e-01   7.674972e-03
  3.639516e+00    5.342680e-01   7.568845e-03
  3.641727e+00    5.269966e-01   7.531622e-03
  3.643937e+00    5.370642e-01   7.617848e-03
  3.646148e+00    5.300553e-01   7.582519e-03
  3.648358e+00    5.508769e-01   7.745137e-03
  3.650569e+00    5.394676e-01   7.679312e-03
  3.652779e+00    5.452517e-01   7.735341e-03
  3.654990e+00    5.566849e-01   7.831232e-03
  3.657200e+00    5.368281e-01   7.705254e-03
  3.659410e+00    5.573853e-01   7.866727e-03
  3.661621e+00    5.364911e-01   7.733063e-03
  3.663831e+00    4.965385e-01   7.454121e-03
  3.666042e+00    5.422164e-01   7.804746e-03
  3.668252e+00    5.528499e-01   7.896460e-03
  3.670463e+00    5.597998e-01   7.961599e-03
  3.672673e+00    5.303108e-01   7.764481e-03
  3.674884e+00    5.308713e-01   7.783953e-03
  3.677094e+00    5.542792e-01   7.969580e-03
  3.679305e+00    5.499534e-01   7.954284e-03
  3.681515e+00    5.463198e-01   7.943798e-03
  3.683726e+00    5.473279e-01   7.967204e-03
  3.685936e+00    5.299203e-01   7.855192e-03
  3.688146e+00    5.161831e-01   7.768277e-03
  3.690357e+00    5.419434e-01   7.975980e-03
  3.692567e+00    5.212981e-01   7.838553e-03
  3.694778e+00    5.282432e-01   7.906707e-03
  3.696988e+00    5.278142e-01   7.919495e-03
  3.699199e+00    5.128027e-01   7.822108e-03
  3.701409e+00    5.137916e-01   7.845857e-03
  3.703620e+00    5.171269e-01   7.887446e-03
  3.705830e+00    5.195741e-01   7.922435e-03
  3.708041e+00    5.196913e-01   7.939831e-03
  3.710251e+00    5.176681e-01   7.941006e-03
  3.712461e+00    5.446150e-01   8.162079e-03
  3.714672e+00    5.389006e-01   8.136227e-03
  3.716882e+00    5.282074e-01   8.071953e-03
  3.719093e+00    5.001407e-01   7.871307e-03
  3.721303e+00    5.317900e-01   8.133735e-03
  3.723514e+00    5.165536e-01   8.033562e-03
  3.725724e+00    5.292673e-01   8.149156e-03
  3.727935e+00    5.267129e-01   8.147107e-03
  3.730145e+00    5.323287e-01   8.207987e-03
  3.732356e+00    5.147173e-01   8.088581e-03
  3.734566e+00    5.226374e-01   8.168215e-03
  3.736776e+00    5.376254e-01   8.302724e-03
  3.738987e+00    5.118432e-01   8.118838e-03
  3.741197e+00    5.156177e-01   8.166797e-03
  3.743408e+00    5.142849e-01   8.174268e-03
  3.745618e+00    5.160757e-01   8.206878e-03
  3.747829e+00    5.279031e-01   8.318742e-03
  3.750039e+00    5.411174e-01   8.441160e-03
  3.752250e+00    5.202689e-01   8.295568e-03
  3.754460e+00    5.293767e-01   8.386727e-03
  3.756671e+00    5.147349e-01   8.288873e-03
  3.758881e+00    4.935253e-01   8.134677e-03
  3.761091e+00    5.033112e-01   8.233923e-03
  3.763302e+00    5.061576e-01   8.276226e-03
  3.765512e+00    5.053215e-01   8.288616e-03
  3.767723e+00    4.983316e-01   8.250251e-03
  3.769933e+00    5.123996e-01   8.385346e-03
  3.772144e+00    5.079019e-01   8.368080e-03
  3.774354e+00    5.385844e-01   8.637585e-03
  3.776565e+00    5.293100e-01   8.583254e-03
  3.778775e+00    5.061904e-01   8.413706e-03
  3.780986e+00    5.222463e-01   8.566723e-03
  3.783196e+00    5.156072e-01   8.532640e-03
  3.785407e+00    5.172296e-01   8.566732e-03
  3.787617e+00    5.128533e-01   8.551419e-03
  3.789827e+00    4.878735e-01   8.360684e-03
  3.792038e+00    5.170016e-01   8.627898e-03
  3.794248e+00    5.049595e-01   8.548032e-03
  3.796459e+00    4.986633e-01   8.515882e-03
  3.798669e+00    5.118116e-01   8.649006e-03
  3.800880e+00    5.016318e-01   8.584049e-03
  3.803090e+00    5.082686e-01   8.662650e-03
  3.805301e+00    5.244985e-01   8.822490e-03
  3.807511e+00    5.309104e-01   8.898918e-03
  3.809722e+00    5.064017e-01   8.713462e-03
  3.811932e+00    5.168554e-01   8.825562e-03
  3.814142e+00    5.103352e-01   8.792829e-03
  3.816353e+00    5.227705e-01   8.922698e-03
  3.818563e+00    4.930234e-01   8.688084e-03
  3.820774e+00    4.884107e-01   8.670275e-03
  3.822984e+00    4.977010e-01   8.775732e-03
  3.825195e+00    4.983060e-01   8.804781e-03
  3.827405e+00    5.103698e-01   8.934922e-03
  3.829616e+00    5.041842e-01   8.904802e-03
  3.831826e+00    5.009521e-01   8.900531e-03
  3.834037e+00    5.124692e-01   9.027079e-03
  3.836247e+00    5.130882e-01   9.057637e-03
  3.838457e+00    5.144782e-01   9.095402e-03
  3.840668e+00    4.941084e-01   8.938703e-03
  3.842878e+00    4.789111e-01   8.825148e-03
  3.845089e+00    4.857906e-01   8.913699e-03
  3.847299e+00    4.771360e-01   8.859173e-03
  3.849510e+00    5.073276e-01   9.161331e-03
  3.851720e+00    5.036731e-01   9.149936e-03
  3.853931e+00    5.190165e-01   9.307694e-03
  3.856141e+00    4.858064e-01   9.023886e-03
  3.858352e+00    4.844163e-01   9.029901e-03
  3.860562e+00    5.040029e-01   9.230208e-03
  3.862772e+00    5.059978e-01   9.268324e-03
  3.864983e+00    4.963526e-01   9.199226e-03
  3.867193e+00    4.972360e-01   9.227290e-03
  3.869404e+00    4.821348e-01   9.105692e-03
  3.871614e+00    4.895705e-01   9.195420e-03
  3.873825e+00    5.184834e-01   9.484037e-03
  3.876035e+00    4.870073e-01   9.212038e-03
  3.878246e+00    4.923792e-01   9.288444e-03
  3.880456e+00    5.109012e-01   9.491149e-03
  3.882667e+00    4.851950e-01   9.278383e-03
  3.884877e+00    5.042106e-01   9.488518e-03
  3.887087e+00    5.006362e-01   9.485137e-03
  3.889298e+00    4.777094e-01   9.295304e-03
  3.891508e+00    4.902573e-01   9.447079e-03
  3.893719e+00    5.026740e-01   9.597340e-03
  3.895929e+00    4.937141e-01   9.542987e-03
  3.898140e+00    4.520667e-01   9.162065e-03
  3.900350e+00    4.942816e-01   9.612431e-03
  3.902561e+00    5.176272e-01   9.870133e-03
  3.904771e+00    4.914753e-01   9.650541e-03
  3.906982e+00    5.003585e-01   9.770809e-03
  3.909192e+00    5.240152e-01   1.003372e-02
  3.911403e+00    4.898132e-01   9.734930e-03
  3.913613e+00    4.969877e-01   9.840401e-03
  3.915823e+00    4.696603e-01   9.600173e-03
  3.918034e+00    4.957211e-01   9.898483e-03
  3.920244e+00    5.054470e-01   1.003148e-02
  3.922455e+00    5.036840e-01   1.005065e-02
  3.924665e+00    4.880487e-01   9.929769e-03
  3.926876e+00    4.810817e-01   9.895542e-03
  3.929086e+00    4.754057e-01   9.873830e-03
  3.931297e+00    5.109804e-01   1.027224e-02
  3.933507e+00    5.108354e-01   1.030045e-02
  3.935718e+00    5.041091e-01   1.026162e-02
  3.937928e+00    5.314031e-01   1.056653e-02
  3.940138e+00    5.083899e-01   1.036514e-02
  3.942349e+00    4.895566e-01   1.020129e-02
  3.944559e+00    5.087793e-01   1.043025e-02
  3.946770e+00    4.813858e-01   1.017567e-02
  3.948980e+00    4.992708e-01   1.039404e-02
  3.951191e+00    4.780254e-01   1.020109e-02
  3.953401e+00    4.939775e-01   1.040146e-02
  3.955612e+00    4.673478e-01   1.014831e-02
  3.957822e+00    4.791853e-01   1.030737e-02
  3.960033e+00    4.941274e-01   1.049982e-02
  3.962243e+00    4.712181e-01   1.028587e-02
  3.964453e+00    4.930678e-01   1.055496e-02
  3.966664e+00    5.017682e-01   1.068166e-02
  3.968874e+00    5.252014e-01   1.095769e-02
  3.971085e+00    5.300186e-01   1.103087e-02
  3.973295e+00    5.114740e-01   1.085811e-02
  3.975506e+00    4.543380e-01   1.025470e-02
  3.977716e+00    4.757002e-01   1.051469e-02
  3.979927e+00    4.751886e-01   1.053094e-02
  3.982137e+00    4.854121e-01   1.066592e-02
  3.984348e+00    4.904887e-01   1.074428e-02
  3.986558e+00    4.656453e-01   1.049044e-02
  3.988768e+00    4.801040e-01   1.067497e-02
  3.990979e+00    5.029212e-01   1.094884e-02
  3.993189e+00    4.754035e-01   1.066802e-02
  3.995400e+00    4.878068e-01   1.082975e-02
  3.997610e+00    5.174224e-01   1.118446e-02
  3.999821e+00    5.370862e-01   1.143461e-02
  4.002031e+00    5.391222e-01   1.149672e-02
  4.004242e+00    4.807170e-01   1.089448e-02
  4.006452e+00    4.664693e-01   1.077037e-02
  4.008663e+00    4.765256e-01   1.092548e-02
  4.010873e+00    5.179895e-01   1.143232e-02
  4.013084e+00    4.803281e-01   1.104961e-02
  4.015294e+00    5.140486e-01   1.147308e-02
  4.017504e+00    4.899617e-01   1.124327e-02
  4.019715e+00    4.837096e-01   1.121360e-02
  4.021925e+00    4.793199e-01   1.120550e-02
  4.024136e+00    5.039135e-01   1.153390e-02
  4.026346e+00    4.806232e-01   1.130825e-02
  4.028557e+00    4.749410e-01   1.128506e-02
  4.030767e+00    4.870516e-01   1.147379e-02
  4.032978e+00    4.819312e-01   1.145959e-02
  4.035188e+00    4.632415e-01   1.128035e-02
  4.037399e+00    5.053969e-01   1.183109e-02
  4.039609e+00    5.028863e-01   1.185043e-02
  4.041819e+00    5.008509e-01   1.187587e-02
  4.044030e+00    4.906127e-01   1.180440e-02
  4.046240e+00    4.512858e-01   1.136954e-02
  4.048451e+00    4.524878e-01   1.143379e-02
  4.050661e+00    4.603547e-01   1.158308e-02
  4.052872e+00    4.983931e-01   1.210573e-02
  4.055082e+00    4.887992e-01   1.204252e-02
  4.057293e+00    4.733287e-01   1.190357e-02
  4.059503e+00    5.325970e-01   1.268434e-02
  4.061714e+00    4.866543e-01   1.218167e-02
  4.063924e+00    5.176556e-01   1.262243e-02
  4.066134e+00    4.939167e-01   1.238772e-02
  4.068345e+00    4.871442e-01   1.236180e-02
  4.070555e+00    4.661232e-01   1.215049e-02
  4.072766e+00    4.789499e-01   1.237713e-02
  4.074976e+00    4.623170e-01   1.222096e-02
  4.077187e+00    5.045915e-01   1.283099e-02
  4.079397e+00    4.694977e-01   1.244001e-02
  4.081608e+00    4.698844e-01   1.250978e-02
  4.083818e+00    5.049369e-01   1.303529e-02
  4.086029e+00    5.027546e-01   1.307596e-02
  4.088239e+00    5.127077e-01   1.327568e-02
  4.090449e+00    4.951566e-01   1.311722e-02
  4.092660e+00    4.830813e-01   1.302771e-02
  4.094870e+00    4.690849e-01   1.290891e-02
  4.097081e+00    5.200034e-01   1.366586e-02
  4.099291e+00    4.864073e-01   1.327182e-02
  4.101502e+00    5.049381e-01   1.357270e-02
  4.103712e+00    4.873550e-01   1.338413e-02
  4.105923e+00    4.445255e-01   1.283176e-02
  4.108133e+00    4.836128e-01   1.343575e-02
  4.110344e+00    4.519481e-01   1.303807e-02
  4.112554e+00    4.690588e-01   1.333509e-02
  4.114764e+00    4.664024e-01   1.335057e-02
  4.116975e+00    5.014639e-01   1.389805e-02
  4.119185e+00    4.565765e-01   1.331532e-02
  4.121396e+00    4.623110e-01   1.345395e-02
  4.123606e+00    4.727497e-01   1.366059e-02
  4.125817e+00    4.967197e-01   1.406157e-02
  4.128027e+00    4.964787e-01   1.411731e-02
  4.130238e+00    4.948848e-01   1.415508e-02
  4.132448e+00    4.813054e-01   1.402010e-02
  4.134659e+00    4.876458e-01   1.417281e-02
  4.136869e+00    4.988560e-01   1.439876e-02
  4.139080e+00    4.942827e-01   1.439713e-02
  4.141290e+00    5.197346e-01   1.482871e-02
  4.143500e+00    4.837837e-01   1.437254e-02
  4.145711e+00    4.785839e-01   1.436198e-02
  4.147921e+00    4.906764e-01   1.460867e-02
  4.150132e+00    4.708884e-01   1.437983e-02
  4.152342e+00    4.344717e-01   1.387911e-02
  4.154553e+00    4.760233e-01   1.459696e-02
  4.156763e+00    5.216751e-01   1.535631e-02
  4.158974e+00    5.119468e-01   1.528914e-02
  4.161184e+00    4.940053e-01   1.509339e-02
  4.163395e+00    4.896486e-01   1.510321e-02
  4.165605e+00    4.759216e-01   1.496766e-02
  4.167815e+00    4.447351e-01   1.454421e-02
  4.170026e+00    4.965871e-01   1.544963e-02
  4.172236e+00    5.049407e-01   1.566355e-02
  4.174447e+00    4.909710e-01   1.552899e-02
  4.176657e+00    4.694638e-01   1.526842e-02
  4.178868e+00    5.141408e-01   1.606856e-02
  4.181078e+00    5.108405e-01   1.610747e-02
  4.183289e+00    4.945069e-01   1.593829e-02
  4.185499e+00    5.367604e-01   1.670356e-02
  4.187710e+00    5.170627e-01   1.649000e-02
  4.189920e+00    4.615556e-01   1.567384e-02
  4.192130e+00    4.605391e-01   1.575202e-02
  4.194341e+00    4.340872e-01   1.538671e-02
  4.196551e+00    4.750237e-01   1.619781e-02
  4.198762e+00    5.110750e-01   1.690787e-02
  4.200972e+00    4.996826e-01   1.682692e-02
  4.203183e+00    4.252036e-01   1.562430e-02
  4.205393e+00    4.820388e-01   1.674645e-02
  4.207604e+00    5.124121e-01   1.738403e-02
  4.209814e+00    5.129074e-01   1.751173e-02
  4.212025e+00    4.405111e-01   1.634373e-02
  4.214235e+00    5.451186e-01   1.830984e-02
  4.216445e+00    5.106723e-01   1.785009e-02
  4.218656e+00    4.282050e-01   1.646818e-02
  4.220866e+00    4.608279e-01   1.721004e-02
  4.223077e+00    4.913834e-01   1.790849e-02
  4.225287e+00    4.637772e-01   1.753462e-02
  4.227498e+00    5.233315e-01   1.877293e-02
  4.229708e+00    4.964148e-01   1.843227e-02
  4.231919e+00    4.491387e-01   1.767782e-02
  4.234129e+00    4.903352e-01   1.862526e-02
  4.236340e+00    5.272971e-01   1.948016e-02
  4.238550e+00    4.883388e-01   1.891209e-02
  4.240761e+00    4.811345e-01   1.893828e-02
  4.242971e+00    5.149274e-01   1.977088e-02
  4.245181e+00    4.516884e-01   1.869134e-02
  4.247392e+00    4.782796e-01   1.941332e-02
  4.249602e+00    5.172005e-01   2.038853e-02
  4.251813e+00    5.022300e-01   2.028913e-02
  4.254023e+00    4.458707e-01   1.930957e-02
  4.256234e+00    4.462568e-01   1.952440e-02
  4.258444e+00    4.265884e-01   1.928875e-02
  4.260655e+00    4.816841e-01   2.072202e-02
  4.262865e+00    4.907303e-01   2.115298e-02
  4.265076e+00    4.290189e-01   2.000304e-02
  4.267286e+00    5.344611e-01   2.259140e-02
  4.269496e+00    4.628333e-01   2.127943e-02
  4.271707e+00    4.697923e-01   2.170355e-02
  4.273917e+00    4.714560e-01   2.202343e-02
  4.276128e+00    4.203636e-01   2.107154e-02
  4.278338e+00    4.030735e-01   2.091029e-02
  4.280549e+00    4.045249e-01   2.124705e-02
  4.282759e+00    4.823792e-01   2.353573e-02
  4.284970e+00    4.683666e-01   2.353455e-02
  4.287180e+00    4.745522e-01   2.397352e-02
  4.289391e+00    5.449203e-01   2.588199e-02
  4.291601e+00    5.019706e-01   2.504036e-02
  4.293811e+00    5.061296e-01   2.533957e-02
  4.296022e+00    5.267872e-01   2.605947e-02
  4.298232e+00    5.246916e-01   2.622544e-02
  4.300443e+00    4.402016e-01   2.421969e-02
  4.302653e+00    4.802121e-01   2.551512e-02
  4.304864e+00    4.698829e-01   2.545818e-02
  4.307074e+00    3.898163e-01   2.339655e-02
  4.309285e+00    4.613782e-01   2.568404e-02
  4.311495e+00    5.325640e-01   2.785292e-02
  4.313706e+00    4.429220e-01   2.564003e-02
  4.315916e+00    5.343577e-01   2.843899e-02
  4.318126e+00    4.230579e-01   2.555544e-02
  4.320337e+00    4.236158e-01   2.583037e-02
  4.322547e+00    5.935014e-01   3.089764e-02
  4.324758e+00    6.414070e-01   3.245650e-02
  4.326968e+00    3.945630e-01   2.574231e-02
  4.329179e+00    5.192978e-01   2.985709e-02
  4.331389e+00    4.992905e-01   2.961471e-02
  4.333600e+00    3.966375e-01   2.670973e-02
  4.335810e+00    4.504404e-01   2.880155e-02
  4.338021e+00    4.955239e-01   3.059616e-02
  4.340231e+00    3.843361e-01   2.728502e-02
  4.342442e+00    3.783192e-01   2.743194e-02
  4.344652e+00    3.910238e-01   2.826843e-02
  4.346862e+00    4.642477e-01   3.123318e-02
  4.349073e+00    4.299619e-01   3.049481e-02
  4.351283e+00    4.886701e-01   3.299546e-02
  4.353494e+00    4.121591e-01   3.077100e-02
  4.355704e+00    4.681515e-01   3.332345e-02
  4.357915e+00    4.265247e-01   3.233593e-02
  4.360125e+00    5.144860e-01   3.611972e-02
  4.362336e+00    4.856162e-01   3.573281e-02
  4.364546e+00    5.314818e-01   3.806160e-02
  4.366757e+00    3.289605e-01   3.054050e-02
  4.368967e+00    4.488562e-01   3.638638e-02
  4.371177e+00    2.802202e-01   2.936113e-02
  4.373388e+00    3.916783e-01   3.548659e-02
  4.375598e+00    4.807928e-01   4.021574e-02
  4.377809e+00    5.870803e-01   4.556236e-02
  4.380019e+00    3.310229e-01   3.507564e-02
  4.382230e+00    2.982768e-01   3.422110e-02
  4.384440e+00    4.341927e-01   4.247996e-02
  4.386651e+00    3.692083e-01   4.037896e-02
  4.388861e+00    4.345146e-01   4.527184e-02
  4.391072e+00    5.725434e-01   5.379765e-02
  4.393282e+00    5.194061e-01   5.321983e-02
  4.395492e+00    4.581423e-01   5.206265e-02
  4.397703e+00    2.811377e-01   4.264409e-02
  4.399913e+00    4.948023e-01   5.943754e-02
  4.402124e+00    4.443265e-01   5.952115e-02
  4.404334e+00    3.337826e-01   5.483893e-02
  4.406545e+00    1.012987e-01   3.245910e-02
  4.408755e+00    4.759201e-01   7.629197e-02
  4.410966e+00    4.049314e-01   7.790045e-02
  4.413176e+00    2.198697e-01   6.496903e-02
  4.415387e+00   -3.057680e-01            nan
  4.417597e+00   -2.015271e+00            nan
  4.419807e+00   -3.766224e-01            nan
