# == pyFAI calibration ==
# Distance Sample to Detector: 0.216 m
# PONI: 1.166e-01, 1.308e-01 m
# Rotations: 0.000000 0.000000 0.000000 rad
# 
# == Fit2d calibration ==
# Distance Sample-beamCenter: 216.000 mm
# Center: x=1744.293, y=1555.000 pix
# Tilt: 0.000 deg  TiltPlanRot: 0.000 deg
# 
# Detector Eiger 9M	 PixelSize= 7.500e-05, 7.500e-05 m
#    Detector has a mask: True 
#    Detector has a dark current: False 
#    detector has a flat field: False 
# 
# Wavelength: 9.8e-11 m
# Mask applied: from detector
# Dark current applied: False
# Flat field applied: False
# Polarization factor: None
# Normalization factor: 1.0
# 
# Headers of the input frame:
# {
# "_array_data.header_convention": "SLS_1.0",
# "_array_data.header_contents": "# Detector: Dectris Eiger 9M, S/N E-18-0102\r\n# Pixel_size 75e-6 m x 75e-6 m\r\n# Silicon sensor, thickness 0.000450 m\r\n# Exposure_time 0.024997 s\r\n# Exposure_period 0.025000 s\r\n# Count_cutoff 62318 counts\r\n# Wavelength 0.980106 A\r\n# Detector_distance 0.215992 m\r\n# Beam_xy (1555, 1744) pixels\r\n# Start_angle 0.000000 deg.\r\n# Angle_increment 0.000000 deg.",
# "Content-Type": "application/octet-stream;",
# "conversions": "x-CBF_BYTE_OFFSET",
# "Content-Transfer-Encoding": "BINARY",
# "X-Binary-Size": "10166594",
# "X-Binary-ID": "1",
# "X-Binary-Element-Type": "signed 32-bit integer",
# "X-Binary-Element-Byte-Order": "LITTLE_ENDIAN",
# "Content-MD5": "w8pvfMd73Qu6gSSU6d2q/w==",
# "X-Binary-Number-of-Elements": "10166590",
# "X-Binary-Size-Fastest-Dimension": "3110",
# "X-Binary-Size-Second-Dimension": "3269",
# "X-Binary-Size-Padding": "4095"
# }
# --> H:/Proxima2a_2019-04-05/RAW_DATA/C5_gel17_position5/C5_mesh_1_data.cbf/C5_mesh_1_data.cbf000129.dat
#        q_A^-1              I           sigma 
  1.105228e-03    7.952948e-01   4.825597e-01
  3.315685e-03    1.520237e+00   4.056030e-01
  5.526141e-03    1.644753e+00   3.262289e-01
  7.736597e-03    1.781429e+00   2.868167e-01
  9.947054e-03    1.431738e+00   2.266774e-01
  1.215751e-02    1.351038e+00   1.991143e-01
  1.436797e-02    1.396897e+00   1.862336e-01
  1.657842e-02    1.508916e+00   1.801677e-01
  1.878888e-02    1.129270e+00   1.464072e-01
  2.099934e-02    1.197534e+00   1.426415e-01
  2.320979e-02    1.187549e+00   1.351010e-01
  2.542025e-02    1.426013e+00   1.414722e-01
  2.763070e-02    1.575244e+00   1.426147e-01
  2.984116e-02    1.563747e+00   1.367287e-01
  3.205162e-02    1.648245e+00   1.354556e-01
  3.426207e-02    1.384777e+00   1.200784e-01
  3.647253e-02    1.475424e+00   1.201291e-01
  3.868299e-02    1.325077e+00   1.105519e-01
  4.089344e-02    1.357989e+00   1.088501e-01
  4.310390e-02    1.501118e+00   1.114632e-01
  4.531436e-02    1.396673e+00   1.048608e-01
  4.752481e-02    1.328759e+00   9.987164e-02
  4.973527e-02    1.452473e+00   1.020718e-01
  5.194572e-02    1.446206e+00   9.965935e-02
  5.415618e-02    1.423553e+00   9.683350e-02
  5.636664e-02    1.468686e+00   9.641167e-02
  5.857709e-02    1.540268e+00   9.685291e-02
  6.078755e-02    1.482329e+00   9.326736e-02
  6.299801e-02    1.471988e+00   9.129532e-02
  6.520846e-02    1.498729e+00   9.054662e-02
  6.741892e-02    1.414857e+00   8.651793e-02
  6.962938e-02    1.442365e+00   8.596151e-02
  7.183983e-02    1.419769e+00   8.396162e-02
  7.405029e-02    1.418606e+00   8.266319e-02
  7.626074e-02    1.499782e+00   8.375377e-02
  7.847120e-02    1.533605e+00   8.348927e-02
  8.068166e-02    1.544553e+00   8.263038e-02
  8.289211e-02    1.534197e+00   8.124699e-02
  8.510257e-02    1.519691e+00   7.980445e-02
  8.731303e-02    1.516452e+00   7.870077e-02
  8.952348e-02    1.517047e+00   7.774047e-02
  9.173394e-02    1.454096e+00   7.518484e-02
  9.394439e-02    1.499127e+00   7.543423e-02
  9.615485e-02    1.492927e+00   7.440618e-02
  9.836531e-02    1.459557e+00   7.273659e-02
  1.005758e-01    1.572820e+00   7.467218e-02
  1.027862e-01    1.567571e+00   7.373974e-02
  1.049967e-01    1.487766e+00   7.107668e-02
  1.072071e-01    1.516168e+00   7.100755e-02
  1.094176e-01    1.534262e+00   7.070369e-02
  1.116280e-01    1.545358e+00   7.025129e-02
  1.138385e-01    1.473877e+00   6.793663e-02
  1.160490e-01    1.501237e+00   6.790732e-02
  1.182594e-01    1.536743e+00   6.805905e-02
  1.204699e-01    1.532858e+00   6.734598e-02
  1.226803e-01    1.497085e+00   6.595043e-02
  1.248908e-01    1.589265e+00   6.734566e-02
  1.271012e-01    1.632479e+00   6.765769e-02
  1.293117e-01    1.617156e+00   6.676052e-02
  1.315222e-01    1.617279e+00   6.619813e-02
  1.337326e-01    1.601499e+00   6.532642e-02
  1.359431e-01    1.663763e+00   6.662321e-02
  1.381535e-01    1.630115e+00   6.683128e-02
  1.403640e-01    1.632422e+00   6.716732e-02
  1.425744e-01    1.579610e+00   6.617743e-02
  1.447849e-01    1.518731e+00   6.490459e-02
  1.469953e-01    1.512931e+00   6.473995e-02
  1.492058e-01    1.643885e+00   6.740522e-02
  1.514163e-01    1.586911e+00   6.611690e-02
  1.536267e-01    1.586582e+00   6.598094e-02
  1.558372e-01    1.607589e+00   6.626970e-02
  1.580476e-01    1.639972e+00   6.677142e-02
  1.602581e-01    1.603610e+00   6.585934e-02
  1.624685e-01    1.649181e+00   6.660570e-02
  1.646790e-01    1.693659e+00   6.730409e-02
  1.668895e-01    1.754335e+00   6.830124e-02
  1.690999e-01    1.753015e+00   6.807053e-02
  1.713104e-01    1.831577e+00   6.936316e-02
  1.735208e-01    1.844108e+00   6.938364e-02
  1.757313e-01    1.817984e+00   6.867450e-02
  1.779417e-01    1.831942e+00   6.871282e-02
  1.801522e-01    1.899951e+00   6.975376e-02
  1.823626e-01    1.915660e+00   6.980837e-02
  1.845731e-01    1.864877e+00   6.865376e-02
  1.867836e-01    1.970184e+00   7.032737e-02
  1.889940e-01    1.999081e+00   7.060976e-02
  1.912045e-01    1.999473e+00   7.038088e-02
  1.934149e-01    1.982357e+00   6.984443e-02
  1.956254e-01    1.962340e+00   6.926174e-02
  1.978358e-01    1.959211e+00   6.896929e-02
  2.000463e-01    1.970067e+00   6.893095e-02
  2.022568e-01    1.974025e+00   6.877367e-02
  2.044672e-01    1.992606e+00   6.885988e-02
  2.066777e-01    2.010102e+00   6.893200e-02
  2.088881e-01    1.948113e+00   6.763875e-02
  2.110986e-01    2.011515e+00   6.849492e-02
  2.133090e-01    2.010471e+00   6.825452e-02
  2.155195e-01    1.939839e+00   6.682245e-02
  2.177300e-01    1.912603e+00   6.583044e-02
  2.199404e-01    1.920193e+00   6.422286e-02
  2.221509e-01    1.884366e+00   6.257623e-02
  2.243613e-01    1.988704e+00   6.347031e-02
  2.265718e-01    2.043957e+00   6.363682e-02
  2.287822e-01    2.098100e+00   6.383596e-02
  2.309927e-01    2.147761e+00   6.399868e-02
  2.332031e-01    2.111945e+00   6.291963e-02
  2.354136e-01    2.183421e+00   6.345697e-02
  2.376241e-01    2.105517e+00   6.183095e-02
  2.398345e-01    2.198834e+00   6.271864e-02
  2.420450e-01    2.150918e+00   6.158821e-02
  2.442554e-01    2.162853e+00   6.133337e-02
  2.464659e-01    2.097679e+00   5.999667e-02
  2.486763e-01    2.153168e+00   6.038548e-02
  2.508868e-01    2.096152e+00   5.920474e-02
  2.530973e-01    2.229754e+00   6.068379e-02
  2.553077e-01    2.140323e+00   5.909376e-02
  2.575182e-01    2.098859e+00   5.817230e-02
  2.597286e-01    2.076953e+00   5.753157e-02
  2.619391e-01    2.094737e+00   5.744470e-02
  2.641495e-01    2.084837e+00   5.699161e-02
  2.663600e-01    2.114212e+00   5.707610e-02
  2.685704e-01    2.013751e+00   5.540162e-02
  2.707809e-01    2.059912e+00   5.573556e-02
  2.729914e-01    2.026145e+00   5.498879e-02
  2.752018e-01    2.044921e+00   5.495546e-02
  2.774123e-01    2.030556e+00   5.448236e-02
  2.796227e-01    2.010122e+00   5.393939e-02
  2.818332e-01    2.024366e+00   5.386014e-02
  2.840436e-01    2.001948e+00   5.330146e-02
  2.862541e-01    1.943528e+00   5.226553e-02
  2.884646e-01    1.960611e+00   5.224559e-02
  2.906750e-01    1.940407e+00   5.172926e-02
  2.928855e-01    1.940709e+00   5.149357e-02
  2.950959e-01    1.962752e+00   5.154732e-02
  2.973064e-01    1.892712e+00   5.039174e-02
  2.995168e-01    1.985043e+00   5.137246e-02
  3.017273e-01    1.908395e+00   5.014885e-02
  3.039377e-01    1.855400e+00   4.923110e-02
  3.061482e-01    1.866239e+00   4.916110e-02
  3.083587e-01    1.899163e+00   4.937818e-02
  3.105691e-01    1.944876e+00   4.975550e-02
  3.127796e-01    1.879019e+00   4.870023e-02
  3.149900e-01    1.895602e+00   4.871085e-02
  3.172005e-01    1.924906e+00   4.888518e-02
  3.194109e-01    1.903407e+00   4.841077e-02
  3.216214e-01    1.844208e+00   4.745755e-02
  3.238319e-01    1.875838e+00   4.767316e-02
  3.260423e-01    1.865239e+00   4.734894e-02
  3.282528e-01    1.914163e+00   4.777493e-02
  3.304632e-01    1.879882e+00   4.716178e-02
  3.326737e-01    1.927722e+00   4.757176e-02
  3.348841e-01    1.845526e+00   4.636604e-02
  3.370946e-01    1.795659e+00   4.556324e-02
  3.393050e-01    1.799640e+00   4.544091e-02
  3.415155e-01    1.848694e+00   4.588291e-02
  3.437260e-01    1.844225e+00   4.565754e-02
  3.459364e-01    1.877182e+00   4.589331e-02
  3.481469e-01    1.864772e+00   4.557440e-02
  3.503573e-01    1.827379e+00   4.495081e-02
  3.525678e-01    1.801992e+00   4.447839e-02
  3.547782e-01    1.820330e+00   4.454255e-02
  3.569887e-01    1.804701e+00   4.419379e-02
  3.591992e-01    1.831628e+00   4.436471e-02
  3.614096e-01    1.813733e+00   4.399440e-02
  3.636201e-01    1.776728e+00   4.339027e-02
  3.658305e-01    1.786561e+00   4.336175e-02
  3.680410e-01    1.857763e+00   4.406530e-02
  3.702514e-01    1.873982e+00   4.410841e-02
  3.724619e-01    1.866592e+00   4.387144e-02
  3.746724e-01    1.823422e+00   4.321649e-02
  3.768828e-01    1.850096e+00   4.338494e-02
  3.790933e-01    1.797590e+00   4.262554e-02
  3.813037e-01    1.805278e+00   4.257682e-02
  3.835142e-01    1.770729e+00   4.202894e-02
  3.857246e-01    1.765304e+00   4.182870e-02
  3.879351e-01    1.742098e+00   4.141836e-02
  3.901455e-01    1.794336e+00   4.190093e-02
  3.923560e-01    1.773634e+00   4.152613e-02
  3.945665e-01    1.749985e+00   4.111753e-02
  3.967769e-01    1.745185e+00   4.093252e-02
  3.989874e-01    1.807502e+00   4.152682e-02
  4.011978e-01    1.849678e+00   4.187936e-02
  4.034083e-01    1.824260e+00   4.146292e-02
  4.056187e-01    1.829690e+00   4.139668e-02
  4.078292e-01    1.808450e+00   4.103114e-02
  4.100397e-01    1.756812e+00   4.031763e-02
  4.122501e-01    1.806307e+00   4.075931e-02
  4.144606e-01    1.809186e+00   4.067082e-02
  4.166710e-01    1.839764e+00   4.089113e-02
  4.188815e-01    1.869885e+00   4.110273e-02
  4.210919e-01    1.853766e+00   4.080526e-02
  4.233024e-01    1.805952e+00   4.015712e-02
  4.255128e-01    1.840741e+00   4.042484e-02
  4.277233e-01    1.865964e+00   4.058395e-02
  4.299338e-01    1.790908e+00   3.964496e-02
  4.321442e-01    1.772655e+00   3.932951e-02
  4.343547e-01    1.817407e+00   3.971028e-02
  4.365651e-01    1.801911e+00   3.942829e-02
  4.387756e-01    1.766250e+00   3.892687e-02
  4.409860e-01    1.762424e+00   3.877698e-02
  4.431965e-01    1.736446e+00   3.838367e-02
  4.454070e-01    1.792151e+00   3.888601e-02
  4.476174e-01    1.757786e+00   3.840564e-02
  4.498279e-01    1.737882e+00   3.808368e-02
  4.520383e-01    1.693865e+00   3.749513e-02
  4.542488e-01    1.664323e+00   3.706649e-02
  4.564592e-01    1.700173e+00   3.736306e-02
  4.586697e-01    1.738188e+00   3.767820e-02
  4.608801e-01    1.764169e+00   3.785707e-02
  4.630906e-01    1.759540e+00   3.770727e-02
  4.653011e-01    1.731081e+00   3.730273e-02
  4.675115e-01    1.714768e+00   3.702875e-02
  4.697220e-01    1.708240e+00   3.686147e-02
  4.719324e-01    1.705062e+00   3.673188e-02
  4.741429e-01    1.695542e+00   3.653482e-02
  4.763533e-01    1.667770e+00   3.614149e-02
  4.785638e-01    1.689021e+00   3.627704e-02
  4.807743e-01    1.745017e+00   3.677972e-02
  4.829847e-01    1.736811e+00   3.660045e-02
  4.851952e-01    1.704808e+00   3.616992e-02
  4.874056e-01    1.703240e+00   3.606213e-02
  4.896161e-01    1.655401e+00   3.546391e-02
  4.918265e-01    1.650996e+00   3.532874e-02
  4.940370e-01    1.709319e+00   3.585859e-02
  4.962475e-01    1.706469e+00   3.574021e-02
  4.984579e-01    1.686915e+00   3.544727e-02
  5.006684e-01    1.673564e+00   3.522062e-02
  5.028788e-01    1.714180e+00   3.555908e-02
  5.050893e-01    1.710965e+00   3.543931e-02
  5.072997e-01    1.709125e+00   3.533471e-02
  5.095102e-01    1.696325e+00   3.511783e-02
  5.117206e-01    1.720392e+00   3.528199e-02
  5.139311e-01    1.678763e+00   3.477002e-02
  5.161416e-01    1.669650e+00   3.459358e-02
  5.183520e-01    1.664838e+00   3.446160e-02
  5.205625e-01    1.672287e+00   3.445770e-02
  5.227729e-01    1.676309e+00   3.441864e-02
  5.249834e-01    1.715747e+00   3.474033e-02
  5.271938e-01    1.745595e+00   3.495946e-02
  5.294043e-01    1.722700e+00   3.464927e-02
  5.316148e-01    1.812226e+00   3.545681e-02
  5.338252e-01    1.809149e+00   3.534575e-02
  5.360357e-01    1.756701e+00   3.475034e-02
  5.382461e-01    1.779809e+00   3.489908e-02
  5.404566e-01    1.763115e+00   3.465598e-02
  5.426670e-01    1.739896e+00   3.434946e-02
  5.448775e-01    1.760208e+00   3.447219e-02
  5.470879e-01    1.738951e+00   3.418699e-02
  5.492984e-01    1.800361e+00   3.470804e-02
  5.515089e-01    1.836840e+00   3.498016e-02
  5.537193e-01    1.846159e+00   3.499153e-02
  5.559298e-01    1.756691e+00   3.405826e-02
  5.581402e-01    1.778784e+00   3.419684e-02
  5.603507e-01    1.813507e+00   3.445388e-02
  5.625611e-01    1.766669e+00   3.393224e-02
  5.647716e-01    1.787412e+00   3.405677e-02
  5.669821e-01    1.783753e+00   3.394853e-02
  5.691925e-01    1.823709e+00   3.425298e-02
  5.714030e-01    1.799397e+00   3.395135e-02
  5.736134e-01    1.766387e+00   3.356696e-02
  5.758239e-01    1.688918e+00   3.275257e-02
  5.780343e-01    1.687520e+00   3.266975e-02
  5.802448e-01    1.652402e+00   3.226035e-02
  5.824552e-01    1.670958e+00   3.237290e-02
  5.846657e-01    1.658484e+00   3.218462e-02
  5.868762e-01    1.675132e+00   3.227841e-02
  5.890866e-01    1.630322e+00   3.177770e-02
  5.912971e-01    1.632311e+00   3.173124e-02
  5.935075e-01    1.635146e+00   3.169313e-02
  5.957180e-01    1.671045e+00   3.197344e-02
  5.979284e-01    1.665790e+00   3.185794e-02
  6.001389e-01    1.696705e+00   3.208675e-02
  6.023494e-01    1.643014e+00   3.151087e-02
  6.045598e-01    1.646648e+00   3.148146e-02
  6.067703e-01    1.693462e+00   3.186163e-02
  6.089807e-01    1.674221e+00   3.161643e-02
  6.111912e-01    1.646067e+00   3.128686e-02
  6.134016e-01    1.685209e+00   3.159352e-02
  6.156121e-01    1.673453e+00   3.142056e-02
  6.178226e-01    1.701162e+00   3.161690e-02
  6.200330e-01    1.702205e+00   3.156419e-02
  6.222435e-01    1.729598e+00   3.175414e-02
  6.244539e-01    1.662925e+00   3.107513e-02
  6.266644e-01    1.713420e+00   3.148185e-02
  6.288748e-01    1.725777e+00   3.153369e-02
  6.310853e-01    1.736303e+00   3.156828e-02
  6.332957e-01    1.764135e+00   3.175886e-02
  6.355062e-01    1.752266e+00   3.159037e-02
  6.377167e-01    1.717553e+00   3.121587e-02
  6.399271e-01    1.710629e+00   3.109321e-02
  6.421376e-01    1.712259e+00   3.104863e-02
  6.443480e-01    1.711409e+00   3.098187e-02
  6.465585e-01    1.724575e+00   3.104190e-02
  6.487689e-01    1.729635e+00   3.102871e-02
  6.509794e-01    1.712132e+00   3.081308e-02
  6.531899e-01    1.690172e+00   3.055728e-02
  6.554003e-01    1.628932e+00   2.994218e-02
  6.576108e-01    1.605947e+00   2.967482e-02
  6.598212e-01    1.591783e+00   2.948877e-02
  6.620317e-01    1.609635e+00   2.959870e-02
  6.642421e-01    1.627011e+00   2.970297e-02
  6.664526e-01    1.625455e+00   2.963409e-02
  6.686630e-01    1.614893e+00   2.948303e-02
  6.708735e-01    1.605914e+00   2.934702e-02
  6.730840e-01    1.650479e+00   2.969718e-02
  6.752944e-01    1.621706e+00   2.938367e-02
  6.775049e-01    1.625637e+00   2.936584e-02
  6.797153e-01    1.610035e+00   2.917165e-02
  6.819258e-01    1.641970e+00   2.940641e-02
  6.841362e-01    1.653148e+00   2.945328e-02
  6.863467e-01    1.662106e+00   2.948008e-02
  6.885572e-01    1.627998e+00   2.912375e-02
  6.907676e-01    1.591809e+00   2.874663e-02
  6.929781e-01    1.572783e+00   2.852353e-02
  6.951885e-01    1.615429e+00   2.885643e-02
  6.973990e-01    1.641138e+00   2.903374e-02
  6.996094e-01    1.666748e+00   2.920791e-02
  7.018199e-01    1.611814e+00   2.867217e-02
  7.040303e-01    1.611980e+00   2.862325e-02
  7.062408e-01    1.585656e+00   2.833886e-02
  7.084513e-01    1.560655e+00   2.806567e-02
  7.106617e-01    1.566619e+00   2.807037e-02
  7.128722e-01    1.565077e+00   2.800801e-02
  7.150826e-01    1.580389e+00   2.809617e-02
  7.172931e-01    1.587726e+00   2.811277e-02
  7.195035e-01    1.550897e+00   2.773704e-02
  7.217140e-01    1.559861e+00   2.786629e-02
  7.239245e-01    1.550449e+00   2.800709e-02
  7.261349e-01    1.584501e+00   2.842192e-02
  7.283454e-01    1.572685e+00   2.838811e-02
  7.305558e-01    1.541097e+00   2.815499e-02
  7.327663e-01    1.531573e+00   2.810975e-02
  7.349767e-01    1.555163e+00   2.834168e-02
  7.371872e-01    1.592805e+00   2.867138e-02
  7.393976e-01    1.606004e+00   2.877554e-02
  7.416081e-01    1.613884e+00   2.882968e-02
  7.438186e-01    1.590687e+00   2.847669e-02
  7.460290e-01    1.593471e+00   2.820560e-02
  7.482395e-01    1.540721e+00   2.756551e-02
  7.504499e-01    1.513907e+00   2.719095e-02
  7.526604e-01    1.555176e+00   2.744325e-02
  7.548708e-01    1.580057e+00   2.757233e-02
  7.570813e-01    1.563401e+00   2.737583e-02
  7.592918e-01    1.600236e+00   2.766099e-02
  7.615022e-01    1.577463e+00   2.742964e-02
  7.637127e-01    1.560320e+00   2.724755e-02
  7.659231e-01    1.596429e+00   2.752881e-02
  7.681336e-01    1.595982e+00   2.749314e-02
  7.703440e-01    1.566707e+00   2.720869e-02
  7.725545e-01    1.560970e+00   2.712805e-02
  7.747650e-01    1.653223e+00   2.787904e-02
  7.769754e-01    1.605543e+00   2.742091e-02
  7.791859e-01    1.567531e+00   2.704097e-02
  7.813963e-01    1.612332e+00   2.737153e-02
  7.836068e-01    1.624216e+00   2.741960e-02
  7.858172e-01    1.599764e+00   2.716152e-02
  7.880277e-01    1.640251e+00   2.745076e-02
  7.902381e-01    1.625639e+00   2.727858e-02
  7.924486e-01    1.607488e+00   2.707561e-02
  7.946591e-01    1.593983e+00   2.691345e-02
  7.968695e-01    1.592118e+00   2.684954e-02
  7.990800e-01    1.627684e+00   2.709927e-02
  8.012904e-01    1.648329e+00   2.722342e-02
  8.035009e-01    1.648016e+00   2.717241e-02
  8.057113e-01    1.627007e+00   2.695196e-02
  8.079218e-01    1.605073e+00   2.672348e-02
  8.101323e-01    1.636125e+00   2.693492e-02
  8.123427e-01    1.638993e+00   2.691256e-02
  8.145532e-01    1.661747e+00   2.705236e-02
  8.167636e-01    1.667851e+00   2.705644e-02
  8.189741e-01    1.666126e+00   2.699734e-02
  8.211845e-01    1.645150e+00   2.678193e-02
  8.233950e-01    1.615190e+00   2.649377e-02
  8.256054e-01    1.647389e+00   2.671220e-02
  8.278159e-01    1.650077e+00   2.668986e-02
  8.300264e-01    1.657146e+00   2.670364e-02
  8.322368e-01    1.658012e+00   2.666722e-02
  8.344473e-01    1.633591e+00   2.642682e-02
  8.366577e-01    1.629762e+00   2.635336e-02
  8.388682e-01    1.643252e+00   2.641988e-02
  8.410786e-01    1.668414e+00   2.657898e-02
  8.432891e-01    1.652083e+00   2.640657e-02
  8.454996e-01    1.645354e+00   2.631102e-02
  8.477100e-01    1.649325e+00   2.630094e-02
  8.499205e-01    1.599565e+00   2.586050e-02
  8.521309e-01    1.600970e+00   2.583148e-02
  8.543414e-01    1.633607e+00   2.605274e-02
  8.565518e-01    1.633754e+00   2.601338e-02
  8.587623e-01    1.604219e+00   2.573701e-02
  8.609727e-01    1.637234e+00   2.596019e-02
  8.631832e-01    1.638008e+00   2.592630e-02
  8.653937e-01    1.637560e+00   2.588290e-02
  8.676041e-01    1.664566e+00   2.605609e-02
  8.698146e-01    1.636302e+00   2.579445e-02
  8.720250e-01    1.610322e+00   2.554985e-02
  8.742355e-01    1.598905e+00   2.542037e-02
  8.764459e-01    1.575502e+00   2.519515e-02
  8.786564e-01    1.574455e+00   2.514922e-02
  8.808669e-01    1.581925e+00   2.517060e-02
  8.830773e-01    1.533682e+00   2.474651e-02
  8.852878e-01    1.576458e+00   2.505160e-02
  8.874982e-01    1.571838e+00   2.497858e-02
  8.897087e-01    1.573116e+00   2.495138e-02
  8.919191e-01    1.563333e+00   2.483637e-02
  8.941296e-01    1.587479e+00   2.499028e-02
  8.963401e-01    1.613025e+00   2.515399e-02
  8.985505e-01    1.601308e+00   2.502549e-02
  9.007610e-01    1.596426e+00   2.495061e-02
  9.029714e-01    1.608483e+00   2.500872e-02
  9.051819e-01    1.602156e+00   2.492224e-02
  9.073923e-01    1.636704e+00   2.515251e-02
  9.096028e-01    1.604388e+00   2.486802e-02
  9.118132e-01    1.595293e+00   2.476124e-02
  9.140237e-01    1.628192e+00   2.497833e-02
  9.162342e-01    1.605678e+00   2.477041e-02
  9.184446e-01    1.608251e+00   2.475438e-02
  9.206551e-01    1.626236e+00   2.485655e-02
  9.228655e-01    1.586275e+00   2.451416e-02
  9.250760e-01    1.600189e+00   2.458609e-02
  9.272864e-01    1.612130e+00   2.464330e-02
  9.294969e-01    1.635039e+00   2.478161e-02
  9.317074e-01    1.631174e+00   2.471731e-02
  9.339178e-01    1.638510e+00   2.473902e-02
  9.361283e-01    1.654056e+00   2.481945e-02
  9.383387e-01    1.655815e+00   2.479887e-02
  9.405492e-01    1.675694e+00   2.491245e-02
  9.427596e-01    1.664928e+00   2.479654e-02
  9.449701e-01    1.706703e+00   2.507159e-02
  9.471805e-01    1.686506e+00   2.488752e-02
  9.493910e-01    1.672944e+00   2.475321e-02
  9.516015e-01    1.703885e+00   2.494618e-02
  9.538119e-01    1.737262e+00   2.515482e-02
  9.560224e-01    1.732402e+00   2.508427e-02
  9.582328e-01    1.748318e+00   2.516541e-02
  9.604433e-01    1.784513e+00   2.538856e-02
  9.626537e-01    1.829144e+00   2.566953e-02
  9.648642e-01    1.830166e+00   2.564155e-02
  9.670747e-01    1.832676e+00   2.562373e-02
  9.692851e-01    1.848732e+00   2.570151e-02
  9.714956e-01    1.892461e+00   2.596705e-02
  9.737060e-01    1.908946e+00   2.604563e-02
  9.759165e-01    1.911653e+00   2.602735e-02
  9.781269e-01    1.923523e+00   2.607388e-02
  9.803374e-01    1.858264e+00   2.559232e-02
  9.825478e-01    1.856928e+00   2.554937e-02
  9.847583e-01    1.819842e+00   2.525862e-02
  9.869688e-01    1.781712e+00   2.495913e-02
  9.891792e-01    1.774537e+00   2.487573e-02
  9.913897e-01    1.789232e+00   2.494479e-02
  9.936001e-01    1.776648e+00   2.482438e-02
  9.958106e-01    1.783639e+00   2.483938e-02
  9.980210e-01    1.706576e+00   2.426534e-02
  1.000231e+00    1.671878e+00   2.414893e-02
  1.002442e+00    1.692783e+00   2.442856e-02
  1.004652e+00    1.641293e+00   2.412127e-02
  1.006863e+00    1.623281e+00   2.403832e-02
  1.009073e+00    1.600213e+00   2.390344e-02
  1.011284e+00    1.608039e+00   2.399386e-02
  1.013494e+00    1.575932e+00   2.377667e-02
  1.015705e+00    1.570805e+00   2.376039e-02
  1.017915e+00    1.588991e+00   2.391399e-02
  1.020126e+00    1.635997e+00   2.428154e-02
  1.022336e+00    1.666092e+00   2.451592e-02
  1.024547e+00    1.699566e+00   2.477273e-02
  1.026757e+00    1.641343e+00   2.435333e-02
  1.028967e+00    1.622986e+00   2.422464e-02
  1.031178e+00    1.568061e+00   2.381743e-02
  1.033388e+00    1.560266e+00   2.376326e-02
  1.035599e+00    1.569245e+00   2.383500e-02
  1.037809e+00    1.591252e+00   2.400489e-02
  1.040020e+00    1.638134e+00   2.435723e-02
  1.042230e+00    1.694920e+00   2.477787e-02
  1.044441e+00    1.767809e+00   2.530479e-02
  1.046651e+00    1.756286e+00   2.522241e-02
  1.048862e+00    1.690782e+00   2.474673e-02
  1.051072e+00    1.617466e+00   2.420182e-02
  1.053282e+00    1.527166e+00   2.351558e-02
  1.055493e+00    1.494494e+00   2.325835e-02
  1.057703e+00    1.501892e+00   2.331433e-02
  1.059914e+00    1.494778e+00   2.325479e-02
  1.062124e+00    1.482419e+00   2.315438e-02
  1.064335e+00    1.500274e+00   2.328997e-02
  1.066545e+00    1.494357e+00   2.323797e-02
  1.068756e+00    1.494258e+00   2.323346e-02
  1.070966e+00    1.449347e+00   2.287516e-02
  1.073177e+00    1.460243e+00   2.295496e-02
  1.075387e+00    1.461476e+00   2.295944e-02
  1.077597e+00    1.449665e+00   2.285926e-02
  1.079808e+00    1.434823e+00   2.261055e-02
  1.082018e+00    1.419504e+00   2.230327e-02
  1.084229e+00    1.423144e+00   2.222322e-02
  1.086439e+00    1.412977e+00   2.205753e-02
  1.088650e+00    1.448648e+00   2.225870e-02
  1.090860e+00    1.467273e+00   2.233342e-02
  1.093071e+00    1.436577e+00   2.203670e-02
  1.095281e+00    1.422853e+00   2.187438e-02
  1.097492e+00    1.411119e+00   2.172974e-02
  1.099702e+00    1.426469e+00   2.179644e-02
  1.101912e+00    1.436981e+00   2.182783e-02
  1.104123e+00    1.429480e+00   2.172265e-02
  1.106333e+00    1.412960e+00   2.155266e-02
  1.108544e+00    1.395475e+00   2.137517e-02
  1.110754e+00    1.396843e+00   2.134307e-02
  1.112965e+00    1.410178e+00   2.140434e-02
  1.115175e+00    1.410071e+00   2.136249e-02
  1.117386e+00    1.446916e+00   2.160007e-02
  1.119596e+00    1.458395e+00   2.164714e-02
  1.121807e+00    1.401015e+00   2.117830e-02
  1.124017e+00    1.427865e+00   2.134334e-02
  1.126228e+00    1.458362e+00   2.153366e-02
  1.128438e+00    1.416848e+00   2.118799e-02
  1.130648e+00    1.401523e+00   2.103872e-02
  1.132859e+00    1.402113e+00   2.100873e-02
  1.135069e+00    1.403112e+00   2.098136e-02
  1.137280e+00    1.354259e+00   2.058029e-02
  1.139490e+00    1.388755e+00   2.080765e-02
  1.141701e+00    1.390980e+00   2.079115e-02
  1.143911e+00    1.398992e+00   2.081887e-02
  1.146122e+00    1.386968e+00   2.069716e-02
  1.148332e+00    1.379250e+00   2.060759e-02
  1.150543e+00    1.383559e+00   2.060885e-02
  1.152753e+00    1.403060e+00   2.072246e-02
  1.154963e+00    1.389097e+00   2.058786e-02
  1.157174e+00    1.382852e+00   2.051127e-02
  1.159384e+00    1.377725e+00   2.044331e-02
  1.161595e+00    1.353285e+00   2.023150e-02
  1.163805e+00    1.373113e+00   2.034986e-02
  1.166016e+00    1.382532e+00   2.038996e-02
  1.168226e+00    1.369234e+00   2.026269e-02
  1.170437e+00    1.349122e+00   2.008484e-02
  1.172647e+00    1.387877e+00   2.034217e-02
  1.174858e+00    1.385823e+00   2.029880e-02
  1.177068e+00    1.368388e+00   2.014240e-02
  1.179278e+00    1.354228e+00   2.000941e-02
  1.181489e+00    1.369056e+00   2.009154e-02
  1.183699e+00    1.358167e+00   1.998393e-02
  1.185910e+00    1.329824e+00   1.974681e-02
  1.188120e+00    1.343696e+00   1.982298e-02
  1.190331e+00    1.354901e+00   1.987871e-02
  1.192541e+00    1.346602e+00   1.979043e-02
  1.194752e+00    1.356187e+00   1.983366e-02
  1.196962e+00    1.370009e+00   1.990856e-02
  1.199173e+00    1.349040e+00   1.972912e-02
  1.201383e+00    1.354906e+00   1.974477e-02
  1.203593e+00    1.350459e+00   1.968751e-02
  1.205804e+00    1.354683e+00   1.969231e-02
  1.208014e+00    1.352826e+00   1.965195e-02
  1.210225e+00    1.356316e+00   1.965189e-02
  1.212435e+00    1.341529e+00   1.951973e-02
  1.214646e+00    1.360749e+00   1.963288e-02
  1.216856e+00    1.341910e+00   1.947109e-02
  1.219067e+00    1.325807e+00   1.932967e-02
  1.221277e+00    1.328323e+00   1.932317e-02
  1.223488e+00    1.347617e+00   1.943728e-02
  1.225698e+00    1.362609e+00   1.951808e-02
  1.227909e+00    1.318303e+00   1.916833e-02
  1.230119e+00    1.338270e+00   1.928121e-02
  1.232329e+00    1.354328e+00   1.936578e-02
  1.234540e+00    1.347399e+00   1.928593e-02
  1.236750e+00    1.393326e+00   1.958110e-02
  1.238961e+00    1.384493e+00   1.949164e-02
  1.241171e+00    1.357016e+00   1.927300e-02
  1.243382e+00    1.371242e+00   1.935006e-02
  1.245592e+00    1.352570e+00   1.919375e-02
  1.247803e+00    1.345593e+00   1.912056e-02
  1.250013e+00    1.340729e+00   1.906251e-02
  1.252224e+00    1.327106e+00   1.894237e-02
  1.254434e+00    1.308502e+00   1.878574e-02
  1.256644e+00    1.337432e+00   1.896917e-02
  1.258855e+00    1.331406e+00   1.890331e-02
  1.261065e+00    1.335937e+00   1.891216e-02
  1.263276e+00    1.368612e+00   1.911898e-02
  1.265486e+00    1.356966e+00   1.901451e-02
  1.267697e+00    1.359756e+00   1.901095e-02
  1.269907e+00    1.366307e+00   1.903385e-02
  1.272118e+00    1.363997e+00   1.899507e-02
  1.274328e+00    1.365701e+00   1.898406e-02
  1.276539e+00    1.387699e+00   1.911324e-02
  1.278749e+00    1.366309e+00   1.894294e-02
  1.280959e+00    1.353507e+00   1.883144e-02
  1.283170e+00    1.360440e+00   1.885707e-02
  1.285380e+00    1.371187e+00   1.890878e-02
  1.287591e+00    1.361076e+00   1.881683e-02
  1.289801e+00    1.352449e+00   1.873585e-02
  1.292012e+00    1.340664e+00   1.863701e-02
  1.294222e+00    1.351356e+00   1.869493e-02
  1.296433e+00    1.355088e+00   1.870509e-02
  1.298643e+00    1.346015e+00   1.862594e-02
  1.300854e+00    1.339990e+00   1.856782e-02
  1.303064e+00    1.355645e+00   1.865673e-02
  1.305274e+00    1.353388e+00   1.861971e-02
  1.307485e+00    1.366270e+00   1.868645e-02
  1.309695e+00    1.351103e+00   1.856020e-02
  1.311906e+00    1.348571e+00   1.852109e-02
  1.314116e+00    1.369847e+00   1.864567e-02
  1.316327e+00    1.374942e+00   1.865843e-02
  1.318537e+00    1.393140e+00   1.875928e-02
  1.320748e+00    1.362051e+00   1.852712e-02
  1.322958e+00    1.351399e+00   1.843402e-02
  1.325169e+00    1.375872e+00   1.857894e-02
  1.327379e+00    1.383900e+00   1.861102e-02
  1.329589e+00    1.346094e+00   1.833399e-02
  1.331800e+00    1.382359e+00   1.855836e-02
  1.334010e+00    1.393432e+00   1.861157e-02
  1.336221e+00    1.391975e+00   1.857974e-02
  1.338431e+00    1.398266e+00   1.860046e-02
  1.340642e+00    1.377641e+00   1.852757e-02
  1.342852e+00    1.380059e+00   1.864562e-02
  1.345063e+00    1.357169e+00   1.853996e-02
  1.347273e+00    1.345177e+00   1.849304e-02
  1.349484e+00    1.368599e+00   1.868120e-02
  1.351694e+00    1.365770e+00   1.868475e-02
  1.353905e+00    1.381374e+00   1.880936e-02
  1.356115e+00    1.382657e+00   1.883334e-02
  1.358325e+00    1.396311e+00   1.893964e-02
  1.360536e+00    1.376379e+00   1.881572e-02
  1.362746e+00    1.360782e+00   1.871842e-02
  1.364957e+00    1.342980e+00   1.860321e-02
  1.367167e+00    1.326052e+00   1.849269e-02
  1.369378e+00    1.319427e+00   1.845239e-02
  1.371588e+00    1.322197e+00   1.847685e-02
  1.373799e+00    1.291725e+00   1.826631e-02
  1.376009e+00    1.300007e+00   1.832808e-02
  1.378220e+00    1.322909e+00   1.849136e-02
  1.380430e+00    1.310656e+00   1.840822e-02
  1.382640e+00    1.294534e+00   1.829554e-02
  1.384851e+00    1.265158e+00   1.808763e-02
  1.387061e+00    1.270304e+00   1.812465e-02
  1.389272e+00    1.308556e+00   1.839572e-02
  1.391482e+00    1.314367e+00   1.843586e-02
  1.393693e+00    1.311902e+00   1.841767e-02
  1.395903e+00    1.314327e+00   1.843319e-02
  1.398114e+00    1.286406e+00   1.823496e-02
  1.400324e+00    1.281160e+00   1.819561e-02
  1.402535e+00    1.254825e+00   1.800533e-02
  1.404745e+00    1.263950e+00   1.806831e-02
  1.406955e+00    1.265233e+00   1.807481e-02
  1.409166e+00    1.272995e+00   1.812684e-02
  1.411376e+00    1.277557e+00   1.815619e-02
  1.413587e+00    1.257051e+00   1.800608e-02
  1.415797e+00    1.262316e+00   1.804022e-02
  1.418008e+00    1.267974e+00   1.803876e-02
  1.420218e+00    1.271732e+00   1.791566e-02
  1.422429e+00    1.253330e+00   1.770082e-02
  1.424639e+00    1.246829e+00   1.759074e-02
  1.426850e+00    1.254305e+00   1.758904e-02
  1.429060e+00    1.273116e+00   1.767141e-02
  1.431270e+00    1.270602e+00   1.760962e-02
  1.433481e+00    1.272981e+00   1.758511e-02
  1.435691e+00    1.283025e+00   1.761570e-02
  1.437902e+00    1.280585e+00   1.756234e-02
  1.440112e+00    1.282687e+00   1.754122e-02
  1.442323e+00    1.283517e+00   1.751369e-02
  1.444533e+00    1.289392e+00   1.752091e-02
  1.446744e+00    1.284338e+00   1.745525e-02
  1.448954e+00    1.270963e+00   1.733392e-02
  1.451165e+00    1.255463e+00   1.719830e-02
  1.453375e+00    1.280605e+00   1.734148e-02
  1.455586e+00    1.286267e+00   1.735146e-02
  1.457796e+00    1.251510e+00   1.708811e-02
  1.460006e+00    1.246614e+00   1.702763e-02
  1.462217e+00    1.232772e+00   1.690700e-02
  1.464427e+00    1.264905e+00   1.710038e-02
  1.466638e+00    1.254492e+00   1.700467e-02
  1.468848e+00    1.268340e+00   1.707293e-02
  1.471059e+00    1.268757e+00   1.705066e-02
  1.473269e+00    1.264564e+00   1.699814e-02
  1.475480e+00    1.255088e+00   1.691069e-02
  1.477690e+00    1.257614e+00   1.690395e-02
  1.479901e+00    1.262083e+00   1.691018e-02
  1.482111e+00    1.278953e+00   1.699939e-02
  1.484321e+00    1.257781e+00   1.683507e-02
  1.486532e+00    1.263390e+00   1.685025e-02
  1.488742e+00    1.277717e+00   1.692277e-02
  1.490953e+00    1.261428e+00   1.679199e-02
  1.493163e+00    1.288329e+00   1.694757e-02
  1.495374e+00    1.269880e+00   1.680426e-02
  1.497584e+00    1.244669e+00   1.661511e-02
  1.499795e+00    1.234900e+00   1.652833e-02
  1.502005e+00    1.253624e+00   1.663154e-02
  1.504216e+00    1.249665e+00   1.658432e-02
  1.506426e+00    1.223115e+00   1.638666e-02
  1.508636e+00    1.256641e+00   1.658927e-02
  1.510847e+00    1.287365e+00   1.676877e-02
  1.513057e+00    1.287575e+00   1.674473e-02
  1.515268e+00    1.270645e+00   1.660842e-02
  1.517478e+00    1.247960e+00   1.643440e-02
  1.519689e+00    1.275790e+00   1.659145e-02
  1.521899e+00    1.268625e+00   1.652156e-02
  1.524110e+00    1.279920e+00   1.657439e-02
  1.526320e+00    1.269926e+00   1.648984e-02
  1.528531e+00    1.282042e+00   1.654829e-02
  1.530741e+00    1.254483e+00   1.635031e-02
  1.532951e+00    1.243496e+00   1.625899e-02
  1.535162e+00    1.250883e+00   1.639386e-02
  1.537372e+00    1.236819e+00   1.636803e-02
  1.539583e+00    1.218671e+00   1.628131e-02
  1.541793e+00    1.249875e+00   1.649538e-02
  1.544004e+00    1.262210e+00   1.657685e-02
  1.546214e+00    1.238739e+00   1.642051e-02
  1.548425e+00    1.233620e+00   1.638678e-02
  1.550635e+00    1.260074e+00   1.657131e-02
  1.552846e+00    1.241741e+00   1.645996e-02
  1.555056e+00    1.238199e+00   1.639508e-02
  1.557266e+00    1.248579e+00   1.635304e-02
  1.559477e+00    1.248510e+00   1.629336e-02
  1.561687e+00    1.253096e+00   1.629251e-02
  1.563898e+00    1.249969e+00   1.625495e-02
  1.566108e+00    1.265347e+00   1.633854e-02
  1.568319e+00    1.240711e+00   1.616313e-02
  1.570529e+00    1.229261e+00   1.606337e-02
  1.572740e+00    1.266274e+00   1.627556e-02
  1.574950e+00    1.241864e+00   1.609165e-02
  1.577161e+00    1.223698e+00   1.594826e-02
  1.579371e+00    1.235491e+00   1.600132e-02
  1.581582e+00    1.243720e+00   1.603477e-02
  1.583792e+00    1.257645e+00   1.610617e-02
  1.586002e+00    1.245142e+00   1.600829e-02
  1.588213e+00    1.256737e+00   1.606532e-02
  1.590423e+00    1.236560e+00   1.591583e-02
  1.592634e+00    1.209388e+00   1.571867e-02
  1.594844e+00    1.199466e+00   1.563304e-02
  1.597055e+00    1.225586e+00   1.578196e-02
  1.599265e+00    1.237500e+00   1.583783e-02
  1.601476e+00    1.242443e+00   1.584908e-02
  1.603686e+00    1.264194e+00   1.596727e-02
  1.605897e+00    1.270546e+00   1.598692e-02
  1.608107e+00    1.277860e+00   1.601300e-02
  1.610317e+00    1.252941e+00   1.583667e-02
  1.612528e+00    1.247246e+00   1.578137e-02
  1.614738e+00    1.232053e+00   1.566599e-02
  1.616949e+00    1.208437e+00   1.549631e-02
  1.619159e+00    1.202181e+00   1.543756e-02
  1.621370e+00    1.215809e+00   1.550639e-02
  1.623580e+00    1.192770e+00   1.534060e-02
  1.625791e+00    1.209290e+00   1.542819e-02
  1.628001e+00    1.217552e+00   1.546245e-02
  1.630212e+00    1.177702e+00   1.518965e-02
  1.632422e+00    1.175699e+00   1.515892e-02
  1.634632e+00    1.150196e+00   1.497653e-02
  1.636843e+00    1.151023e+00   1.496456e-02
  1.639053e+00    1.182709e+00   1.515179e-02
  1.641264e+00    1.162373e+00   1.500393e-02
  1.643474e+00    1.134960e+00   1.480876e-02
  1.645685e+00    1.138015e+00   1.481216e-02
  1.647895e+00    1.131940e+00   1.475614e-02
  1.650106e+00    1.122975e+00   1.468080e-02
  1.652316e+00    1.113375e+00   1.460169e-02
  1.654527e+00    1.140108e+00   1.475929e-02
  1.656737e+00    1.125145e+00   1.464563e-02
  1.658947e+00    1.144392e+00   1.475400e-02
  1.661158e+00    1.128821e+00   1.463702e-02
  1.663368e+00    1.127113e+00   1.460987e-02
  1.665579e+00    1.130239e+00   1.461389e-02
  1.667789e+00    1.124686e+00   1.456166e-02
  1.670000e+00    1.081848e+00   1.426638e-02
  1.672210e+00    1.097545e+00   1.435369e-02
  1.674421e+00    1.113326e+00   1.444114e-02
  1.676631e+00    1.095983e+00   1.431239e-02
  1.678842e+00    1.089896e+00   1.425689e-02
  1.681052e+00    1.076733e+00   1.415525e-02
  1.683263e+00    1.085798e+00   1.419962e-02
  1.685473e+00    1.080049e+00   1.414686e-02
  1.687683e+00    1.073826e+00   1.409070e-02
  1.689894e+00    1.065034e+00   1.401722e-02
  1.692104e+00    1.068895e+00   1.402775e-02
  1.694315e+00    1.079494e+00   1.408256e-02
  1.696525e+00    1.064154e+00   1.396706e-02
  1.698736e+00    1.064060e+00   1.395159e-02
  1.700946e+00    1.053463e+00   1.386689e-02
  1.703157e+00    1.026116e+00   1.367129e-02
  1.705367e+00    1.038579e+00   1.373965e-02
  1.707578e+00    1.013178e+00   1.355629e-02
  1.709788e+00    1.037611e+00   1.370468e-02
  1.711998e+00    1.046549e+00   1.374856e-02
  1.714209e+00    1.019294e+00   1.355408e-02
  1.716419e+00    1.007841e+00   1.346360e-02
  1.718630e+00    1.023998e+00   1.355687e-02
  1.720840e+00    1.004094e+00   1.341048e-02
  1.723051e+00    1.007062e+00   1.341651e-02
  1.725261e+00    1.015784e+00   1.345986e-02
  1.727472e+00    9.916967e-01   1.328534e-02
  1.729682e+00    9.669408e-01   1.310533e-02
  1.731893e+00    9.776634e-01   1.316410e-02
  1.734103e+00    9.929134e-01   1.325271e-02
  1.736313e+00    9.927371e-01   1.323761e-02
  1.738524e+00    9.871587e-01   1.318664e-02
  1.740734e+00    9.880423e-01   1.317890e-02
  1.742945e+00    9.957700e-01   1.321691e-02
  1.745155e+00    9.785090e-01   1.308850e-02
  1.747366e+00    9.748856e-01   1.305053e-02
  1.749576e+00    9.790251e-01   1.306458e-02
  1.751787e+00    9.592390e-01   1.291872e-02
  1.753997e+00    9.612511e-01   1.291900e-02
  1.756208e+00    9.499788e-01   1.283000e-02
  1.758418e+00    9.662165e-01   1.292610e-02
  1.760628e+00    9.631173e-01   1.289205e-02
  1.762839e+00    9.582996e-01   1.284659e-02
  1.765049e+00    9.610450e-01   1.285188e-02
  1.767260e+00    9.439940e-01   1.272465e-02
  1.769470e+00    9.264247e-01   1.259289e-02
  1.771681e+00    9.478163e-01   1.272433e-02
  1.773891e+00    9.257405e-01   1.256241e-02
  1.776102e+00    9.242849e-01   1.253979e-02
  1.778312e+00    9.318409e-01   1.257831e-02
  1.780523e+00    9.195245e-01   1.248233e-02
  1.782733e+00    9.341416e-01   1.256848e-02
  1.784944e+00    9.535425e-01   1.268533e-02
  1.787154e+00    9.354953e-01   1.255216e-02
  1.789364e+00    9.320772e-01   1.251672e-02
  1.791575e+00    9.322688e-01   1.250544e-02
  1.793785e+00    9.140261e-01   1.237013e-02
  1.795996e+00    9.248934e-01   1.243089e-02
  1.798206e+00    9.211183e-01   1.239298e-02
  1.800417e+00    9.457496e-01   1.254469e-02
  1.802627e+00    9.625291e-01   1.264324e-02
  1.804838e+00    9.866295e-01   1.278794e-02
  1.807048e+00    1.043572e+00   1.313804e-02
  1.809259e+00    1.022892e+00   1.299278e-02
  1.811469e+00    1.017647e+00   1.294355e-02
  1.813679e+00    1.009742e+00   1.287735e-02
  1.815890e+00    9.501105e-01   1.247615e-02
  1.818100e+00    9.652572e-01   1.255951e-02
  1.820311e+00    9.576262e-01   1.249451e-02
  1.822521e+00    9.113991e-01   1.217417e-02
  1.824732e+00    9.120323e-01   1.216340e-02
  1.826942e+00    8.955196e-01   1.204040e-02
  1.829153e+00    8.939933e-01   1.201837e-02
  1.831363e+00    9.020910e-01   1.206054e-02
  1.833574e+00    8.810661e-01   1.190747e-02
  1.835784e+00    9.143532e-01   1.211866e-02
  1.837994e+00    9.541405e-01   1.236732e-02
  1.840205e+00    9.513640e-01   1.233767e-02
  1.842415e+00    9.243730e-01   1.214929e-02
  1.844626e+00    8.920432e-01   1.192323e-02
  1.846836e+00    9.081403e-01   1.201863e-02
  1.849047e+00    8.923169e-01   1.190169e-02
  1.851257e+00    8.774004e-01   1.179214e-02
  1.853468e+00    9.099120e-01   1.199958e-02
  1.855678e+00    9.205247e-01   1.206017e-02
  1.857889e+00    8.902521e-01   1.185157e-02
  1.860099e+00    8.841881e-01   1.180235e-02
  1.862309e+00    8.953208e-01   1.186773e-02
  1.864520e+00    8.858432e-01   1.179602e-02
  1.866730e+00    8.666272e-01   1.165793e-02
  1.868941e+00    8.717022e-01   1.168094e-02
  1.871151e+00    8.574492e-01   1.157365e-02
  1.873362e+00    8.430097e-01   1.146445e-02
  1.875572e+00    8.489655e-01   1.149397e-02
  1.877783e+00    8.486854e-01   1.148062e-02
  1.879993e+00    8.552976e-01   1.151406e-02
  1.882204e+00    8.526821e-01   1.148548e-02
  1.884414e+00    8.497515e-01   1.145463e-02
  1.886624e+00    8.401051e-01   1.137837e-02
  1.888835e+00    8.371132e-01   1.134715e-02
  1.891045e+00    8.499953e-01   1.142317e-02
  1.893256e+00    8.182513e-01   1.119690e-02
  1.895466e+00    8.219146e-01   1.121085e-02
  1.897677e+00    8.266960e-01   1.123255e-02
  1.899887e+00    8.307408e-01   1.124904e-02
  1.902098e+00    8.377834e-01   1.128574e-02
  1.904308e+00    8.261103e-01   1.119629e-02
  1.906519e+00    8.226344e-01   1.116192e-02
  1.908729e+00    8.271599e-01   1.118199e-02
  1.910940e+00    8.346033e-01   1.122099e-02
  1.913150e+00    8.411805e-01   1.125447e-02
  1.915360e+00    8.264326e-01   1.114472e-02
  1.917571e+00    8.197303e-01   1.108859e-02
  1.919781e+00    8.042529e-01   1.097284e-02
  1.921992e+00    8.132806e-01   1.102367e-02
  1.924202e+00    8.099133e-01   1.099011e-02
  1.926413e+00    8.002926e-01   1.091445e-02
  1.928623e+00    8.023723e-01   1.091814e-02
  1.930834e+00    8.054240e-01   1.092852e-02
  1.933044e+00    7.910815e-01   1.082025e-02
  1.935255e+00    7.763710e-01   1.070906e-02
  1.937465e+00    7.991306e-01   1.085453e-02
  1.939675e+00    8.155463e-01   1.095456e-02
  1.941886e+00    7.998474e-01   1.083839e-02
  1.944096e+00    7.950488e-01   1.079566e-02
  1.946307e+00    8.089681e-01   1.087939e-02
  1.948517e+00    8.010710e-01   1.081570e-02
  1.950728e+00    7.876692e-01   1.071469e-02
  1.952938e+00    7.804407e-01   1.065540e-02
  1.955149e+00    7.953047e-01   1.074618e-02
  1.957359e+00    8.021619e-01   1.078233e-02
  1.959570e+00    7.906458e-01   1.069381e-02
  1.961780e+00    7.858868e-01   1.065170e-02
  1.963990e+00    8.009078e-01   1.074284e-02
  1.966201e+00    7.864361e-01   1.063532e-02
  1.968411e+00    7.956935e-01   1.068752e-02
  1.970622e+00    7.909687e-01   1.064565e-02
  1.972832e+00    7.884222e-01   1.061850e-02
  1.975043e+00    7.775962e-01   1.053537e-02
  1.977253e+00    7.836683e-01   1.056649e-02
  1.979464e+00    7.849868e-01   1.056531e-02
  1.981674e+00    7.971903e-01   1.063678e-02
  1.983885e+00    7.877306e-01   1.056342e-02
  1.986095e+00    7.815261e-01   1.051204e-02
  1.988305e+00    7.617384e-01   1.036831e-02
  1.990516e+00    7.786980e-01   1.047318e-02
  1.992726e+00    7.758462e-01   1.044432e-02
  1.994937e+00    7.764862e-01   1.043852e-02
  1.997147e+00    7.542428e-01   1.027832e-02
  1.999358e+00    7.744251e-01   1.040506e-02
  2.001568e+00    7.937665e-01   1.052326e-02
  2.003779e+00    7.884668e-01   1.047603e-02
  2.005989e+00    7.739642e-01   1.036721e-02
  2.008200e+00    7.796614e-01   1.039367e-02
  2.010410e+00    7.670228e-01   1.029738e-02
  2.012621e+00    7.596290e-01   1.023598e-02
  2.014831e+00    7.432169e-01   1.011352e-02
  2.017041e+00    7.533811e-01   1.017214e-02
  2.019252e+00    7.562292e-01   1.018145e-02
  2.021462e+00    7.752133e-01   1.029887e-02
  2.023673e+00    7.899463e-01   1.038675e-02
  2.025883e+00    7.695355e-01   1.024212e-02
  2.028094e+00    7.646462e-01   1.019988e-02
  2.030304e+00    7.706705e-01   1.023039e-02
  2.032515e+00    7.735218e-01   1.023991e-02
  2.034725e+00    7.757379e-01   1.024504e-02
  2.036936e+00    7.659105e-01   1.017055e-02
  2.039146e+00    7.698913e-01   1.018728e-02
  2.041356e+00    7.636440e-01   1.013620e-02
  2.043567e+00    7.458122e-01   1.000789e-02
  2.045777e+00    7.675387e-01   1.014330e-02
  2.047988e+00    7.830977e-01   1.023604e-02
  2.050198e+00    7.657349e-01   1.011345e-02
  2.052409e+00    7.618507e-01   1.008005e-02
  2.054619e+00    7.576280e-01   1.004468e-02
  2.056830e+00    7.560623e-01   1.002709e-02
  2.059040e+00    7.672611e-01   1.009348e-02
  2.061251e+00    7.855746e-01   1.020581e-02
  2.063461e+00    7.971359e-01   1.027281e-02
  2.065671e+00    7.759613e-01   1.012658e-02
  2.067882e+00    7.603251e-01   1.001497e-02
  2.070092e+00    7.505723e-01   9.941295e-03
  2.072303e+00    7.479966e-01   9.915075e-03
  2.074513e+00    7.410939e-01   9.859938e-03
  2.076724e+00    7.446566e-01   9.874126e-03
  2.078934e+00    7.479634e-01   9.887014e-03
  2.081145e+00    7.440017e-01   9.851692e-03
  2.083355e+00    7.390552e-01   9.809735e-03
  2.085566e+00    7.446015e-01   9.837550e-03
  2.087776e+00    7.330264e-01   9.751322e-03
  2.089986e+00    7.347176e-01   9.753798e-03
  2.092197e+00    7.300100e-01   9.713586e-03
  2.094407e+00    7.325571e-01   9.721320e-03
  2.096618e+00    7.268327e-01   9.674411e-03
  2.098828e+00    7.350346e-01   9.719514e-03
  2.101039e+00    7.392843e-01   9.738572e-03
  2.103249e+00    7.179022e-01   9.588122e-03
  2.105460e+00    7.207755e-01   9.598313e-03
  2.107670e+00    7.271756e-01   9.632119e-03
  2.109881e+00    7.149540e-01   9.541741e-03
  2.112091e+00    7.117285e-01   9.511298e-03
  2.114301e+00    7.248468e-01   9.589769e-03
  2.116512e+00    7.128912e-01   9.501625e-03
  2.118722e+00    7.076645e-01   9.457977e-03
  2.120933e+00    7.120498e-01   9.478451e-03
  2.123143e+00    7.136492e-01   9.480186e-03
  2.125354e+00    7.219055e-01   9.526345e-03
  2.127564e+00    6.849390e-01   9.270686e-03
  2.129775e+00    6.931942e-01   9.317784e-03
  2.131985e+00    7.103891e-01   9.423609e-03
  2.134196e+00    7.207413e-01   9.483386e-03
  2.136406e+00    7.124007e-01   9.419634e-03
  2.138617e+00    7.021500e-01   9.343208e-03
  2.140827e+00    6.978028e-01   9.330156e-03
  2.143037e+00    7.026418e-01   9.407796e-03
  2.145248e+00    7.008918e-01   9.417994e-03
  2.147458e+00    7.157354e-01   9.532450e-03
  2.149669e+00    7.078784e-01   9.491907e-03
  2.151879e+00    7.092146e-01   9.510094e-03
  2.154090e+00    7.033795e-01   9.478241e-03
  2.156300e+00    7.011191e-01   9.469610e-03
  2.158511e+00    6.859593e-01   9.371906e-03
  2.160721e+00    7.113981e-01   9.548966e-03
  2.162932e+00    7.045392e-01   9.506606e-03
  2.165142e+00    6.885417e-01   9.401024e-03
  2.167352e+00    6.991950e-01   9.476415e-03
  2.169563e+00    7.005835e-01   9.487769e-03
  2.171773e+00    7.069972e-01   9.533565e-03
  2.173984e+00    7.109741e-01   9.561779e-03
  2.176194e+00    7.133843e-01   9.579200e-03
  2.178405e+00    6.746002e-01   9.315856e-03
  2.180615e+00    6.777689e-01   9.338363e-03
  2.182826e+00    6.839867e-01   9.381801e-03
  2.185036e+00    6.919577e-01   9.436325e-03
  2.187247e+00    7.096147e-01   9.555931e-03
  2.189457e+00    6.984872e-01   9.480322e-03
  2.191667e+00    6.731792e-01   9.306799e-03
  2.193878e+00    6.613290e-01   9.223971e-03
  2.196088e+00    6.830680e-01   9.373637e-03
  2.198299e+00    6.772438e-01   9.332540e-03
  2.200509e+00    6.810849e-01   9.357885e-03
  2.202720e+00    7.006264e-01   9.490030e-03
  2.204930e+00    6.860193e-01   9.389337e-03
  2.207141e+00    6.828503e-01   9.366517e-03
  2.209351e+00    6.831526e-01   9.366685e-03
  2.211562e+00    6.884400e-01   9.401245e-03
  2.213772e+00    6.791034e-01   9.281705e-03
  2.215982e+00    6.624613e-01   9.123500e-03
  2.218193e+00    6.739752e-01   9.172838e-03
  2.220403e+00    6.630844e-01   9.074068e-03
  2.222614e+00    6.753452e-01   9.136585e-03
  2.224824e+00    6.885802e-01   9.206078e-03
  2.227035e+00    6.883921e-01   9.187206e-03
  2.229245e+00    6.848645e-01   9.146474e-03
  2.231456e+00    6.765530e-01   9.075143e-03
  2.233666e+00    6.729397e-01   9.035751e-03
  2.235877e+00    6.668082e-01   8.980269e-03
  2.238087e+00    6.744863e-01   9.018299e-03
  2.240298e+00    6.594431e-01   8.903501e-03
  2.242508e+00    6.685403e-01   8.949570e-03
  2.244718e+00    6.642071e-01   8.904767e-03
  2.246929e+00    6.611278e-01   8.869764e-03
  2.249139e+00    6.585287e-01   8.840002e-03
  2.251350e+00    6.518796e-01   8.783706e-03
  2.253560e+00    6.483952e-01   8.748764e-03
  2.255771e+00    6.683205e-01   8.870762e-03
  2.257981e+00    6.672453e-01   8.852419e-03
  2.260192e+00    6.668147e-01   8.838433e-03
  2.262402e+00    6.640766e-01   8.809417e-03
  2.264613e+00    6.776543e-01   8.888070e-03
  2.266823e+00    6.730276e-01   8.847211e-03
  2.269033e+00    6.657072e-01   8.788564e-03
  2.271244e+00    6.542142e-01   8.702035e-03
  2.273454e+00    6.735431e-01   8.819297e-03
  2.275665e+00    6.616785e-01   8.730989e-03
  2.277875e+00    6.616257e-01   8.720698e-03
  2.280086e+00    6.613650e-01   8.708923e-03
  2.282296e+00    6.699550e-01   8.755826e-03
  2.284507e+00    6.729949e-01   8.765424e-03
  2.286717e+00    6.640044e-01   8.697173e-03
  2.288928e+00    6.604306e-01   8.663843e-03
  2.291138e+00    6.616264e-01   8.662228e-03
  2.293348e+00    6.500138e-01   8.576370e-03
  2.295559e+00    6.583673e-01   8.621971e-03
  2.297769e+00    6.577054e-01   8.608367e-03
  2.299980e+00    6.436839e-01   8.506848e-03
  2.302190e+00    6.476104e-01   8.523663e-03
  2.304401e+00    6.527305e-01   8.547978e-03
  2.306611e+00    6.501096e-01   8.521602e-03
  2.308822e+00    6.633028e-01   8.599171e-03
  2.311032e+00    6.648607e-01   8.602755e-03
  2.313243e+00    6.371713e-01   8.415502e-03
  2.315453e+00    6.361588e-01   8.401304e-03
  2.317663e+00    6.562287e-01   8.523609e-03
  2.319874e+00    6.544859e-01   8.503507e-03
  2.322084e+00    6.518040e-01   8.477053e-03
  2.324295e+00    6.666252e-01   8.564540e-03
  2.326505e+00    6.564901e-01   8.490052e-03
  2.328716e+00    6.570245e-01   8.484861e-03
  2.330926e+00    6.615706e-01   8.505239e-03
  2.333137e+00    6.513020e-01   8.430556e-03
  2.335347e+00    6.381713e-01   8.336280e-03
  2.337558e+00    6.357507e-01   8.312258e-03
  2.339768e+00    6.447092e-01   8.361991e-03
  2.341979e+00    6.492072e-01   8.382702e-03
  2.344189e+00    6.393369e-01   8.310327e-03
  2.346399e+00    6.311560e-01   8.248527e-03
  2.348610e+00    6.236442e-01   8.190909e-03
  2.350820e+00    6.260918e-01   8.198840e-03
  2.353031e+00    6.413579e-01   8.289862e-03
  2.355241e+00    6.313602e-01   8.216966e-03
  2.357452e+00    6.237110e-01   8.158664e-03
  2.359662e+00    6.316627e-01   8.202281e-03
  2.361873e+00    6.319327e-01   8.195809e-03
  2.364083e+00    6.195498e-01   8.107170e-03
  2.366294e+00    6.231439e-01   8.122575e-03
  2.368504e+00    6.215463e-01   8.104123e-03
  2.370714e+00    6.136072e-01   8.044207e-03
  2.372925e+00    6.141915e-01   8.040076e-03
  2.375135e+00    6.040837e-01   7.965689e-03
  2.377346e+00    6.306968e-01   8.131281e-03
  2.379556e+00    6.291171e-01   8.113171e-03
  2.381767e+00    6.058459e-01   7.953937e-03
  2.383977e+00    6.223564e-01   8.053632e-03
  2.386188e+00    6.165998e-01   8.008407e-03
  2.388398e+00    6.082936e-01   7.946400e-03
  2.390609e+00    6.042027e-01   7.911987e-03
  2.392819e+00    6.104025e-01   7.944722e-03
  2.395029e+00    6.103228e-01   7.936602e-03
  2.397240e+00    6.134132e-01   7.948792e-03
  2.399450e+00    6.118293e-01   7.930728e-03
  2.401661e+00    6.193558e-01   7.971632e-03
  2.403871e+00    6.099292e-01   7.903005e-03
  2.406082e+00    6.140471e-01   7.922141e-03
  2.408292e+00    6.316460e-01   8.026967e-03
  2.410503e+00    6.088687e-01   7.873413e-03
  2.412713e+00    6.029410e-01   7.827215e-03
  2.414924e+00    6.082399e-01   7.854046e-03
  2.417134e+00    6.015779e-01   7.803297e-03
  2.419344e+00    6.022962e-01   7.800535e-03
  2.421555e+00    6.113534e-01   7.851415e-03
  2.423765e+00    6.114698e-01   7.844688e-03
  2.425976e+00    5.995261e-01   7.759905e-03
  2.428186e+00    5.910572e-01   7.697705e-03
  2.430397e+00    6.069016e-01   7.792677e-03
  2.432607e+00    5.815279e-01   7.620849e-03
  2.434818e+00    5.906234e-01   7.672681e-03
  2.437028e+00    6.045691e-01   7.755539e-03
  2.439239e+00    5.945224e-01   7.683167e-03
  2.441449e+00    6.003082e-01   7.713222e-03
  2.443659e+00    5.754052e-01   7.544291e-03
  2.445870e+00    5.721605e-01   7.535033e-03
  2.448080e+00    5.945010e-01   7.715889e-03
  2.450291e+00    5.771009e-01   7.618754e-03
  2.452501e+00    5.627725e-01   7.534607e-03
  2.454712e+00    5.805556e-01   7.661183e-03
  2.456922e+00    5.744067e-01   7.627166e-03
  2.459133e+00    5.518630e-01   7.481366e-03
  2.461343e+00    5.563274e-01   7.515845e-03
  2.463554e+00    5.587350e-01   7.535553e-03
  2.465764e+00    5.695153e-01   7.611069e-03
  2.467975e+00    5.521848e-01   7.496639e-03
  2.470185e+00    5.483328e-01   7.472665e-03
  2.472395e+00    5.568370e-01   7.531621e-03
  2.474606e+00    5.536150e-01   7.511364e-03
  2.476816e+00    5.574601e-01   7.538132e-03
  2.479027e+00    5.536041e-01   7.512879e-03
  2.481237e+00    5.546558e-01   7.520281e-03
  2.483448e+00    5.532428e-01   7.511009e-03
  2.485658e+00    5.669429e-01   7.603286e-03
  2.487869e+00    5.414287e-01   7.430288e-03
  2.490079e+00    5.430601e-01   7.440938e-03
  2.492290e+00    5.323304e-01   7.366628e-03
  2.494500e+00    5.360221e-01   7.391404e-03
  2.496710e+00    5.258608e-01   7.320328e-03
  2.498921e+00    5.210724e-01   7.285933e-03
  2.501131e+00    5.186142e-01   7.267793e-03
  2.503342e+00    5.124435e-01   7.223192e-03
  2.505552e+00    5.207320e-01   7.280236e-03
  2.507763e+00    5.260084e-01   7.315624e-03
  2.509973e+00    5.259821e-01   7.314065e-03
  2.512184e+00    5.233383e-01   7.294040e-03
  2.514394e+00    5.218674e-01   7.274464e-03
  2.516605e+00    5.321088e-01   7.298184e-03
  2.518815e+00    5.239264e-01   7.213605e-03
  2.521025e+00    5.143572e-01   7.126662e-03
  2.523236e+00    5.246072e-01   7.179353e-03
  2.525446e+00    5.446731e-01   7.299486e-03
  2.527657e+00    5.275890e-01   7.169477e-03
  2.529867e+00    5.133992e-01   7.058383e-03
  2.532078e+00    5.105624e-01   7.024007e-03
  2.534288e+00    5.264666e-01   7.118656e-03
  2.536499e+00    5.212696e-01   7.071563e-03
  2.538709e+00    5.093960e-01   6.979705e-03
  2.540920e+00    5.127257e-01   6.991953e-03
  2.543130e+00    5.188376e-01   7.023184e-03
  2.545340e+00    5.194836e-01   7.017539e-03
  2.547551e+00    5.269577e-01   7.057852e-03
  2.549761e+00    5.271979e-01   7.049842e-03
  2.551972e+00    5.216923e-01   7.003586e-03
  2.554182e+00    5.148725e-01   6.948541e-03
  2.556393e+00    5.122584e-01   6.921845e-03
  2.558603e+00    5.105430e-01   6.901271e-03
  2.560814e+00    5.212364e-01   6.964441e-03
  2.563024e+00    5.172677e-01   6.929333e-03
  2.565235e+00    5.159085e-01   6.910730e-03
  2.567445e+00    5.281211e-01   6.982412e-03
  2.569656e+00    5.055465e-01   6.821952e-03
  2.571866e+00    4.907277e-01   6.712093e-03
  2.574076e+00    5.017787e-01   6.778100e-03
  2.576287e+00    5.254157e-01   6.927522e-03
  2.578497e+00    5.078083e-01   6.802689e-03
  2.580708e+00    5.027245e-01   6.760547e-03
  2.582918e+00    5.149225e-01   6.834322e-03
  2.585129e+00    5.144516e-01   6.823450e-03
  2.587339e+00    5.165120e-01   6.829386e-03
  2.589550e+00    5.149537e-01   6.811528e-03
  2.591760e+00    5.128668e-01   6.789956e-03
  2.593971e+00    5.139816e-01   6.789801e-03
  2.596181e+00    5.102981e-01   6.759200e-03
  2.598391e+00    5.178398e-01   6.803748e-03
  2.600602e+00    5.074521e-01   6.729257e-03
  2.602812e+00    5.055633e-01   6.709213e-03
  2.605023e+00    5.035979e-01   6.689033e-03
  2.607233e+00    4.994070e-01   6.654054e-03
  2.609444e+00    5.111649e-01   6.724673e-03
  2.611654e+00    5.009651e-01   6.649972e-03
  2.613865e+00    5.080801e-01   6.689967e-03
  2.616075e+00    5.143716e-01   6.724079e-03
  2.618286e+00    5.097986e-01   6.687094e-03
  2.620496e+00    4.953023e-01   6.584698e-03
  2.622706e+00    4.925151e-01   6.560471e-03
  2.624917e+00    5.024754e-01   6.620638e-03
  2.627127e+00    5.107706e-01   6.669282e-03
  2.629338e+00    4.992859e-01   6.587945e-03
  2.631548e+00    4.996452e-01   6.584142e-03
  2.633759e+00    5.176278e-01   6.694335e-03
  2.635969e+00    4.888598e-01   6.499071e-03
  2.638180e+00    4.851360e-01   6.467379e-03
  2.640390e+00    4.815620e-01   6.437037e-03
  2.642601e+00    4.900874e-01   6.487180e-03
  2.644811e+00    4.962060e-01   6.520507e-03
  2.647021e+00    5.103521e-01   6.606151e-03
  2.649232e+00    5.059142e-01   6.570630e-03
  2.651442e+00    4.930594e-01   6.480138e-03
  2.653653e+00    4.960478e-01   6.492964e-03
  2.655863e+00    5.167181e-01   6.620072e-03
  2.658074e+00    5.044854e-01   6.534590e-03
  2.660284e+00    4.969480e-01   6.479242e-03
  2.662495e+00    4.980882e-01   6.479895e-03
  2.664705e+00    4.949313e-01   6.452792e-03
  2.666916e+00    4.850102e-01   6.381392e-03
  2.669126e+00    4.884064e-01   6.397283e-03
  2.671337e+00    5.057503e-01   6.503224e-03
  2.673547e+00    5.054038e-01   6.494571e-03
  2.675757e+00    5.051173e-01   6.486185e-03
  2.677968e+00    5.122585e-01   6.525271e-03
  2.680178e+00    4.854419e-01   6.345803e-03
  2.682389e+00    4.880146e-01   6.356254e-03
  2.684599e+00    4.889548e-01   6.356190e-03
  2.686810e+00    4.916507e-01   6.367099e-03
  2.689020e+00    4.903073e-01   6.352112e-03
  2.691231e+00    4.925374e-01   6.360239e-03
  2.693441e+00    4.875956e-01   6.322128e-03
  2.695652e+00    4.815449e-01   6.276325e-03
  2.697862e+00    4.779928e-01   6.246860e-03
  2.700072e+00    4.821926e-01   6.268208e-03
  2.702283e+00    4.812389e-01   6.255852e-03
  2.704493e+00    4.806817e-01   6.245977e-03
  2.706704e+00    4.825972e-01   6.252064e-03
  2.708914e+00    4.806500e-01   6.233491e-03
  2.711125e+00    5.026541e-01   6.368259e-03
  2.713335e+00    4.853536e-01   6.251636e-03
  2.715546e+00    4.869691e-01   6.255555e-03
  2.717756e+00    4.841789e-01   6.231745e-03
  2.719967e+00    4.894748e-01   6.259493e-03
  2.722177e+00    4.844905e-01   6.221431e-03
  2.724387e+00    4.842354e-01   6.213685e-03
  2.726598e+00    4.844958e-01   6.209312e-03
  2.728808e+00    4.973394e-01   6.284836e-03
  2.731019e+00    4.894073e-01   6.228385e-03
  2.733229e+00    4.802003e-01   6.163721e-03
  2.735440e+00    4.825839e-01   6.172752e-03
  2.737650e+00    4.960716e-01   6.252307e-03
  2.739861e+00    4.866526e-01   6.186603e-03
  2.742071e+00    4.775724e-01   6.122886e-03
  2.744282e+00    4.723185e-01   6.082939e-03
  2.746492e+00    4.858756e-01   6.163559e-03
  2.748702e+00    4.829917e-01   6.139331e-03
  2.750913e+00    4.846795e-01   6.144246e-03
  2.753123e+00    4.692097e-01   6.039349e-03
  2.755334e+00    4.819666e-01   6.114817e-03
  2.757544e+00    4.776350e-01   6.081559e-03
  2.759755e+00    4.741457e-01   6.053461e-03
  2.761965e+00    4.703562e-01   6.023289e-03
  2.764176e+00    4.819281e-01   6.090952e-03
  2.766386e+00    4.697062e-01   6.007485e-03
  2.768597e+00    4.811643e-01   6.074427e-03
  2.770807e+00    4.937422e-01   6.147368e-03
  2.773017e+00    4.817753e-01   6.066418e-03
  2.775228e+00    4.772969e-01   6.032379e-03
  2.777438e+00    4.701149e-01   5.981072e-03
  2.779649e+00    4.834817e-01   6.059569e-03
  2.781859e+00    4.782479e-01   6.020933e-03
  2.784070e+00    4.757221e-01   5.999146e-03
  2.786280e+00    4.750643e-01   5.989254e-03
  2.788491e+00    4.825119e-01   6.030145e-03
  2.790701e+00    4.622147e-01   5.896389e-03
  2.792912e+00    4.813375e-01   6.011117e-03
  2.795122e+00    4.801412e-01   5.997894e-03
  2.797333e+00    4.791140e-01   5.985897e-03
  2.799543e+00    4.839865e-01   6.010347e-03
  2.801753e+00    4.792250e-01   5.974817e-03
  2.803964e+00    4.823345e-01   5.988487e-03
  2.806174e+00    4.684483e-01   5.895540e-03
  2.808385e+00    4.642632e-01   5.862422e-03
  2.810595e+00    4.781955e-01   5.942842e-03
  2.812806e+00    4.732694e-01   5.905565e-03
  2.815016e+00    4.648007e-01   5.847786e-03
  2.817227e+00    4.721327e-01   5.919588e-03
  2.819437e+00    4.671082e-01   5.899032e-03
  2.821648e+00    4.675741e-01   5.904243e-03
  2.823858e+00    4.606937e-01   5.865900e-03
  2.826068e+00    4.659640e-01   5.904304e-03
  2.828279e+00    4.731802e-01   5.953885e-03
  2.830489e+00    4.607581e-01   5.878511e-03
  2.832700e+00    4.689390e-01   5.933030e-03
  2.834910e+00    4.675847e-01   5.926484e-03
  2.837121e+00    4.700829e-01   5.944032e-03
  2.839331e+00    4.761386e-01   5.983412e-03
  2.841542e+00    4.770831e-01   5.990379e-03
  2.843752e+00    4.768781e-01   5.989887e-03
  2.845963e+00    4.632441e-01   5.904022e-03
  2.848173e+00    4.752208e-01   5.979938e-03
  2.850383e+00    4.681481e-01   5.935587e-03
  2.852594e+00    4.680739e-01   5.935020e-03
  2.854804e+00    4.595685e-01   5.880351e-03
  2.857015e+00    4.643002e-01   5.910120e-03
  2.859225e+00    4.749024e-01   5.976956e-03
  2.861436e+00    4.772742e-01   5.991213e-03
  2.863646e+00    4.611776e-01   5.889347e-03
  2.865857e+00    4.615811e-01   5.892269e-03
  2.868067e+00    4.630896e-01   5.902094e-03
  2.870278e+00    4.679783e-01   5.932831e-03
  2.872488e+00    4.489531e-01   5.809832e-03
  2.874698e+00    4.635190e-01   5.902277e-03
  2.876909e+00    4.689157e-01   5.935204e-03
  2.879119e+00    4.719456e-01   5.952715e-03
  2.881330e+00    4.702815e-01   5.940725e-03
  2.883540e+00    4.544718e-01   5.838653e-03
  2.885751e+00    4.555580e-01   5.843983e-03
  2.887961e+00    4.582088e-01   5.859071e-03
  2.890172e+00    4.546316e-01   5.834585e-03
  2.892382e+00    4.553877e-01   5.837630e-03
  2.894593e+00    4.637310e-01   5.889040e-03
  2.896803e+00    4.581860e-01   5.851759e-03
  2.899014e+00    4.692786e-01   5.920228e-03
  2.901224e+00    4.590264e-01   5.853213e-03
  2.903434e+00    4.661625e-01   5.896591e-03
  2.905645e+00    4.493820e-01   5.787286e-03
  2.907855e+00    4.491438e-01   5.783676e-03
  2.910066e+00    4.493569e-01   5.782976e-03
  2.912276e+00    4.706263e-01   5.916124e-03
  2.914487e+00    4.486292e-01   5.773791e-03
  2.916697e+00    4.543847e-01   5.808462e-03
  2.918908e+00    4.656990e-01   5.878339e-03
  2.921118e+00    4.682385e-01   5.891609e-03
  2.923329e+00    4.640987e-01   5.863187e-03
  2.925539e+00    4.450009e-01   5.739036e-03
  2.927749e+00    4.548144e-01   5.799651e-03
  2.929960e+00    4.680239e-01   5.880460e-03
  2.932170e+00    4.663251e-01   5.867447e-03
  2.934381e+00    4.650462e-01   5.856912e-03
  2.936591e+00    4.542344e-01   5.785874e-03
  2.938802e+00    4.563706e-01   5.796740e-03
  2.941012e+00    4.438520e-01   5.714396e-03
  2.943223e+00    4.339531e-01   5.647651e-03
  2.945433e+00    4.616885e-01   5.821593e-03
  2.947644e+00    4.638256e-01   5.830879e-03
  2.949854e+00    4.570504e-01   5.783856e-03
  2.952064e+00    4.655797e-01   5.833307e-03
  2.954275e+00    4.594685e-01   5.790471e-03
  2.956485e+00    4.556871e-01   5.762394e-03
  2.958696e+00    4.437664e-01   5.682215e-03
  2.960906e+00    4.552942e-01   5.751339e-03
  2.963117e+00    4.560792e-01   5.751824e-03
  2.965327e+00    4.445306e-01   5.674680e-03
  2.967538e+00    4.411552e-01   5.650205e-03
  2.969748e+00    4.510653e-01   5.710514e-03
  2.971959e+00    4.457398e-01   5.673612e-03
  2.974169e+00    4.488791e-01   5.690964e-03
  2.976379e+00    4.582545e-01   5.747180e-03
  2.978590e+00    4.509197e-01   5.697855e-03
  2.980800e+00    4.520892e-01   5.702473e-03
  2.983011e+00    4.546556e-01   5.715804e-03
  2.985221e+00    4.591490e-01   5.740832e-03
  2.987432e+00    4.549968e-01   5.711699e-03
  2.989642e+00    4.544687e-01   5.705752e-03
  2.991853e+00    4.480980e-01   5.662373e-03
  2.994063e+00    4.484982e-01   5.661991e-03
  2.996274e+00    4.475721e-01   5.652993e-03
  2.998484e+00    4.515390e-01   5.675293e-03
  3.000694e+00    4.611713e-01   5.732020e-03
  3.002905e+00    4.561469e-01   5.697773e-03
  3.005115e+00    4.570794e-01   5.700608e-03
  3.007326e+00    4.425609e-01   5.606216e-03
  3.009536e+00    4.439216e-01   5.611604e-03
  3.011747e+00    4.675069e-01   5.755781e-03
  3.013957e+00    4.551516e-01   5.676036e-03
  3.016168e+00    4.553935e-01   5.674279e-03
  3.018378e+00    4.534478e-01   5.659095e-03
  3.020589e+00    4.635935e-01   5.718796e-03
  3.022799e+00    4.625350e-01   5.709085e-03
  3.025010e+00    4.612686e-01   5.697982e-03
  3.027220e+00    4.630505e-01   5.705831e-03
  3.029430e+00    4.680485e-01   5.733252e-03
  3.031641e+00    4.546647e-01   5.647534e-03
  3.033851e+00    4.565204e-01   5.655503e-03
  3.036062e+00    4.543183e-01   5.639065e-03
  3.038272e+00    4.483618e-01   5.598413e-03
  3.040483e+00    4.476386e-01   5.590690e-03
  3.042693e+00    4.534197e-01   5.623394e-03
  3.044904e+00    4.434140e-01   5.557027e-03
  3.047114e+00    4.430530e-01   5.549985e-03
  3.049325e+00    4.504368e-01   5.591655e-03
  3.051535e+00    4.503926e-01   5.586990e-03
  3.053745e+00    4.471843e-01   5.562322e-03
  3.055956e+00    4.524007e-01   5.590093e-03
  3.058166e+00    4.474737e-01   5.555323e-03
  3.060377e+00    4.460147e-01   5.541493e-03
  3.062587e+00    4.608666e-01   5.628331e-03
  3.064798e+00    4.467614e-01   5.537300e-03
  3.067008e+00    4.396799e-01   5.488555e-03
  3.069219e+00    4.453616e-01   5.519407e-03
  3.071429e+00    4.470904e-01   5.526622e-03
  3.073640e+00    4.364970e-01   5.457465e-03
  3.075850e+00    4.410126e-01   5.482064e-03
  3.078060e+00    4.477712e-01   5.520816e-03
  3.080271e+00    4.496340e-01   5.528800e-03
  3.082481e+00    4.645796e-01   5.616446e-03
  3.084692e+00    4.602648e-01   5.586874e-03
  3.086902e+00    4.553319e-01   5.553597e-03
  3.089113e+00    4.511783e-01   5.524605e-03
  3.091323e+00    4.448120e-01   5.482147e-03
  3.093534e+00    4.561686e-01   5.548259e-03
  3.095744e+00    4.600818e-01   5.568607e-03
  3.097955e+00    4.569309e-01   5.545915e-03
  3.100165e+00    4.574664e-01   5.545794e-03
  3.102375e+00    4.373972e-01   5.419401e-03
  3.104586e+00    4.456022e-01   5.466506e-03
  3.106796e+00    4.456947e-01   5.463555e-03
  3.109007e+00    4.477545e-01   5.472937e-03
  3.111217e+00    4.451774e-01   5.453476e-03
  3.113428e+00    4.564544e-01   5.518672e-03
  3.115638e+00    4.509700e-01   5.482151e-03
  3.117849e+00    4.390043e-01   5.405262e-03
  3.120059e+00    4.333993e-01   5.367185e-03
  3.122270e+00    4.445183e-01   5.432361e-03
  3.124480e+00    4.517050e-01   5.472393e-03
  3.126691e+00    4.463800e-01   5.436464e-03
  3.128901e+00    4.413973e-01   5.402938e-03
  3.131111e+00    4.361222e-01   5.366726e-03
  3.133322e+00    4.470202e-01   5.429924e-03
  3.135532e+00    4.479222e-01   5.431985e-03
  3.137743e+00    4.395448e-01   5.377493e-03
  3.139953e+00    4.398168e-01   5.375478e-03
  3.142164e+00    4.473736e-01   5.433531e-03
  3.144374e+00    4.429649e-01   5.435125e-03
  3.146585e+00    4.389048e-01   5.424663e-03
  3.148795e+00    4.397556e-01   5.440670e-03
  3.151006e+00    4.410625e-01   5.457281e-03
  3.153216e+00    4.377914e-01   5.444112e-03
  3.155426e+00    4.491170e-01   5.520433e-03
  3.157637e+00    4.373806e-01   5.453355e-03
  3.159847e+00    4.395514e-01   5.471717e-03
  3.162058e+00    4.490169e-01   5.534811e-03
  3.164268e+00    4.368181e-01   5.463155e-03
  3.166479e+00    4.380095e-01   5.474242e-03
  3.168689e+00    4.377809e-01   5.476168e-03
  3.170900e+00    4.355058e-01   5.465078e-03
  3.173110e+00    4.367655e-01   5.475855e-03
  3.175321e+00    4.357528e-01   5.471974e-03
  3.177531e+00    4.324168e-01   5.453724e-03
  3.179741e+00    4.260488e-01   5.415456e-03
  3.181952e+00    4.265594e-01   5.420774e-03
  3.184162e+00    4.437244e-01   5.530984e-03
  3.186373e+00    4.459148e-01   5.546217e-03
  3.188583e+00    4.421476e-01   5.524548e-03
  3.190794e+00    4.412457e-01   5.520705e-03
  3.193004e+00    4.232577e-01   5.408191e-03
  3.195215e+00    4.366642e-01   5.494691e-03
  3.197425e+00    4.404510e-01   5.519681e-03
  3.199636e+00    4.421614e-01   5.529613e-03
  3.201846e+00    4.380206e-01   5.503050e-03
  3.204056e+00    4.398348e-01   5.515337e-03
  3.206267e+00    4.362121e-01   5.493423e-03
  3.208477e+00    4.370297e-01   5.499494e-03
  3.210688e+00    4.429843e-01   5.537680e-03
  3.212898e+00    4.424979e-01   5.535233e-03
  3.215109e+00    4.281937e-01   5.445784e-03
  3.217319e+00    4.316008e-01   5.468034e-03
  3.219530e+00    4.151302e-01   5.363083e-03
  3.221740e+00    4.279821e-01   5.445997e-03
  3.223951e+00    4.266366e-01   5.437924e-03
  3.226161e+00    4.246537e-01   5.425460e-03
  3.228372e+00    4.136331e-01   5.355091e-03
  3.230582e+00    4.281587e-01   5.448472e-03
  3.232792e+00    4.312697e-01   5.468439e-03
  3.235003e+00    4.261274e-01   5.435997e-03
  3.237213e+00    4.176419e-01   5.381695e-03
  3.239424e+00    4.177854e-01   5.382623e-03
  3.241634e+00    4.185924e-01   5.387938e-03
  3.243845e+00    4.201202e-01   5.397831e-03
  3.246055e+00    4.283453e-01   5.450140e-03
  3.248266e+00    4.300538e-01   5.461202e-03
  3.250476e+00    4.368126e-01   5.503649e-03
  3.252687e+00    4.333228e-01   5.481534e-03
  3.254897e+00    4.271767e-01   5.442400e-03
  3.257107e+00    4.452644e-01   5.556102e-03
  3.259318e+00    4.305665e-01   5.463419e-03
  3.261528e+00    4.252405e-01   5.429358e-03
  3.263739e+00    4.376282e-01   5.507330e-03
  3.265949e+00    4.197185e-01   5.393329e-03
  3.268160e+00    4.160727e-01   5.369440e-03
  3.270370e+00    4.134454e-01   5.351963e-03
  3.272581e+00    4.110989e-01   5.336473e-03
  3.274791e+00    4.178259e-01   5.379431e-03
  3.277002e+00    4.233785e-01   5.414507e-03
  3.279212e+00    4.204663e-01   5.395472e-03
  3.281422e+00    4.140473e-01   5.353547e-03
  3.283633e+00    4.264393e-01   5.432394e-03
  3.285843e+00    4.233543e-01   5.412374e-03
  3.288054e+00    4.243144e-01   5.417577e-03
  3.290264e+00    4.223686e-01   5.404810e-03
  3.292475e+00    4.336103e-01   5.475437e-03
  3.294685e+00    4.237919e-01   5.412449e-03
  3.296896e+00    4.160069e-01   5.361767e-03
  3.299106e+00    4.199771e-01   5.386722e-03
  3.301317e+00    4.214466e-01   5.395118e-03
  3.303527e+00    4.290133e-01   5.442881e-03
  3.305737e+00    4.276946e-01   5.433436e-03
  3.307948e+00    4.280126e-01   5.434794e-03
  3.310158e+00    4.176303e-01   5.367632e-03
  3.312369e+00    4.209174e-01   5.387822e-03
  3.314579e+00    4.230012e-01   5.400233e-03
  3.316790e+00    4.400919e-01   5.507529e-03
  3.319000e+00    4.313918e-01   5.451627e-03
  3.321211e+00    4.223619e-01   5.393653e-03
  3.323421e+00    4.342068e-01   5.467552e-03
  3.325632e+00    4.341394e-01   5.466219e-03
  3.327842e+00    4.144921e-01   5.340196e-03
  3.330052e+00    4.304787e-01   5.441121e-03
  3.332263e+00    4.193195e-01   5.369119e-03
  3.334473e+00    4.211310e-01   5.379782e-03
  3.336684e+00    4.196610e-01   5.369128e-03
  3.338894e+00    4.404783e-01   5.499834e-03
  3.341105e+00    4.166038e-01   5.347510e-03
  3.343315e+00    4.144738e-01   5.332687e-03
  3.345526e+00    4.136850e-01   5.326711e-03
  3.347736e+00    4.165815e-01   5.343931e-03
  3.349947e+00    4.108594e-01   5.306178e-03
  3.352157e+00    4.002062e-01   5.235784e-03
  3.354368e+00    4.117291e-01   5.309349e-03
  3.356578e+00    4.215656e-01   5.371353e-03
  3.358788e+00    4.158041e-01   5.333229e-03
  3.360999e+00    4.155539e-01   5.330355e-03
  3.363209e+00    4.074053e-01   5.276852e-03
  3.365420e+00    4.157037e-01   5.328794e-03
  3.367630e+00    4.255767e-01   5.390685e-03
  3.369841e+00    4.241080e-01   5.379932e-03
  3.372051e+00    4.284131e-01   5.405177e-03
  3.374262e+00    4.143413e-01   5.313231e-03
  3.376472e+00    4.233379e-01   5.368122e-03
  3.378683e+00    4.151834e-01   5.313689e-03
  3.380893e+00    3.992965e-01   5.208729e-03
  3.383103e+00    4.106494e-01   5.279572e-03
  3.385314e+00    4.141201e-01   5.299609e-03
  3.387524e+00    4.261200e-01   5.373066e-03
  3.389735e+00    4.216490e-01   5.342192e-03
  3.391945e+00    4.002614e-01   5.201278e-03
  3.394156e+00    4.124152e-01   5.275446e-03
  3.396366e+00    4.047509e-01   5.222846e-03
  3.398577e+00    4.022101e-01   5.203393e-03
  3.400787e+00    4.043231e-01   5.228844e-03
  3.402998e+00    4.143529e-01   5.331594e-03
  3.405208e+00    3.988475e-01   5.251361e-03
  3.407418e+00    4.001017e-01   5.275387e-03
  3.409629e+00    3.915063e-01   5.232217e-03
  3.411839e+00    3.906702e-01   5.238252e-03
  3.414050e+00    3.945483e-01   5.275159e-03
  3.416260e+00    4.000958e-01   5.321817e-03
  3.418471e+00    3.982868e-01   5.319244e-03
  3.420681e+00    3.851314e-01   5.239094e-03
  3.422892e+00    3.814268e-01   5.221730e-03
  3.425102e+00    3.871208e-01   5.268340e-03
  3.427313e+00    3.844508e-01   5.257309e-03
  3.429523e+00    3.863513e-01   5.277318e-03
  3.431733e+00    3.890682e-01   5.302554e-03
  3.433944e+00    3.753665e-01   5.214761e-03
  3.436154e+00    3.748395e-01   5.217247e-03
  3.438365e+00    3.852992e-01   5.295521e-03
  3.440575e+00    3.697723e-01   5.193548e-03
  3.442786e+00    3.827622e-01   5.289626e-03
  3.444996e+00    3.662606e-01   5.179775e-03
  3.447207e+00    3.696112e-01   5.208658e-03
  3.449417e+00    3.727328e-01   5.271493e-03
  3.451628e+00    3.557590e-01   5.178974e-03
  3.453838e+00    3.682051e-01   5.289964e-03
  3.456049e+00    3.673103e-01   5.307459e-03
  3.458259e+00    3.506581e-01   5.207196e-03
  3.460469e+00    3.506207e-01   5.226279e-03
  3.462680e+00    3.799541e-01   5.459897e-03
  3.464890e+00    3.817485e-01   5.490973e-03
  3.467101e+00    3.716180e-01   5.435183e-03
  3.469311e+00    3.831646e-01   5.535813e-03
  3.471522e+00    3.840724e-01   5.558955e-03
  3.473732e+00    3.922292e-01   5.633907e-03
  3.475943e+00    3.946372e-01   5.667112e-03
  3.478153e+00    4.077167e-01   5.776105e-03
  3.480364e+00    4.063645e-01   5.781894e-03
  3.482574e+00    4.105993e-01   5.827437e-03
  3.484784e+00    4.278349e-01   5.963651e-03
  3.486995e+00    4.311941e-01   6.002399e-03
  3.489205e+00    4.352298e-01   6.045287e-03
  3.491416e+00    4.454110e-01   6.130825e-03
  3.493626e+00    4.517406e-01   6.189111e-03
  3.495837e+00    4.427877e-01   6.142255e-03
  3.498047e+00    4.661093e-01   6.316776e-03
  3.500258e+00    4.558793e-01   6.261733e-03
  3.502468e+00    4.677731e-01   6.357494e-03
  3.504679e+00    4.803160e-01   6.456969e-03
  3.506889e+00    4.722362e-01   6.416998e-03
  3.509099e+00    4.623615e-01   6.363736e-03
  3.511310e+00    4.802115e-01   6.499946e-03
  3.513520e+00    4.964009e-01   6.623250e-03
  3.515731e+00    4.951521e-01   6.629411e-03
  3.517941e+00    4.940650e-01   6.636567e-03
  3.520152e+00    5.076219e-01   6.741490e-03
  3.522362e+00    4.901748e-01   6.638984e-03
  3.524573e+00    4.884563e-01   6.641315e-03
  3.526783e+00    5.360748e-01   6.971211e-03
  3.528994e+00    5.274271e-01   6.927125e-03
  3.531204e+00    5.303109e-01   6.958597e-03
  3.533414e+00    5.310809e-01   6.975797e-03
  3.535625e+00    5.498325e-01   7.110486e-03
  3.537835e+00    5.506040e-01   7.127817e-03
  3.540046e+00    5.475788e-01   7.117227e-03
  3.542256e+00    5.371602e-01   7.056762e-03
  3.544467e+00    5.315860e-01   7.027604e-03
  3.546677e+00    5.491286e-01   7.150301e-03
  3.548888e+00    5.507523e-01   7.168469e-03
  3.551098e+00    5.444629e-01   7.134778e-03
  3.553309e+00    5.260494e-01   7.021185e-03
  3.555519e+00    5.285071e-01   7.048746e-03
  3.557729e+00    5.535923e-01   7.226003e-03
  3.559940e+00    5.597101e-01   7.277676e-03
  3.562150e+00    5.383405e-01   7.149100e-03
  3.564361e+00    5.584240e-01   7.294795e-03
  3.566571e+00    5.674128e-01   7.367545e-03
  3.568782e+00    5.404758e-01   7.204731e-03
  3.570992e+00    5.366654e-01   7.193014e-03
  3.573203e+00    5.312044e-01   7.170413e-03
  3.575413e+00    5.369733e-01   7.223034e-03
  3.577624e+00    5.477263e-01   7.309264e-03
  3.579834e+00    5.323413e-01   7.219726e-03
  3.582045e+00    5.300857e-01   7.218374e-03
  3.584255e+00    5.322799e-01   7.247278e-03
  3.586465e+00    5.455340e-01   7.351001e-03
  3.588676e+00    5.379547e-01   7.314049e-03
  3.590886e+00    5.079389e-01   7.120358e-03
  3.593097e+00    5.405967e-01   7.360253e-03
  3.595307e+00    5.368560e-01   7.348702e-03
  3.597518e+00    5.332913e-01   7.338450e-03
  3.599728e+00    5.453268e-01   7.435026e-03
  3.601939e+00    5.434056e-01   7.436089e-03
  3.604149e+00    5.322556e-01   7.373744e-03
  3.606360e+00    5.374604e-01   7.423916e-03
  3.608570e+00    5.335732e-01   7.411131e-03
  3.610780e+00    5.399123e-01   7.466141e-03
  3.612991e+00    5.357287e-01   7.447179e-03
  3.615201e+00    5.333831e-01   7.440659e-03
  3.617412e+00    5.294095e-01   7.420088e-03
  3.619622e+00    5.430531e-01   7.521123e-03
  3.621833e+00    5.444735e-01   7.537728e-03
  3.624043e+00    5.434468e-01   7.540187e-03
  3.626254e+00    5.446231e-01   7.558169e-03
  3.628464e+00    5.271931e-01   7.447138e-03
  3.630675e+00    5.266365e-01   7.457202e-03
  3.632885e+00    5.437702e-01   7.592143e-03
  3.635095e+00    5.328628e-01   7.529981e-03
  3.637306e+00    5.412692e-01   7.603607e-03
  3.639516e+00    5.562952e-01   7.723289e-03
  3.641727e+00    5.171108e-01   7.460684e-03
  3.643937e+00    5.262051e-01   7.540411e-03
  3.646148e+00    5.327738e-01   7.601962e-03
  3.648358e+00    5.258122e-01   7.566872e-03
  3.650569e+00    5.446971e-01   7.716454e-03
  3.652779e+00    5.303663e-01   7.629026e-03
  3.654990e+00    5.317402e-01   7.653780e-03
  3.657200e+00    5.436923e-01   7.754336e-03
  3.659410e+00    5.294147e-01   7.666805e-03
  3.661621e+00    5.107157e-01   7.544998e-03
  3.663831e+00    5.231585e-01   7.651317e-03
  3.666042e+00    5.365016e-01   7.763534e-03
  3.668252e+00    5.288305e-01   7.723028e-03
  3.670463e+00    5.187103e-01   7.663834e-03
  3.672673e+00    5.191356e-01   7.682230e-03
  3.674884e+00    5.311456e-01   7.785954e-03
  3.677094e+00    5.258337e-01   7.762429e-03
  3.679305e+00    5.212059e-01   7.743561e-03
  3.681515e+00    5.416328e-01   7.909639e-03
  3.683726e+00    5.432578e-01   7.937509e-03
  3.685936e+00    5.305219e-01   7.859670e-03
  3.688146e+00    5.174546e-01   7.777865e-03
  3.690357e+00    5.332058e-01   7.911373e-03
  3.692567e+00    5.374797e-01   7.959305e-03
  3.694778e+00    5.417805e-01   8.007354e-03
  3.696988e+00    5.259954e-01   7.905873e-03
  3.699199e+00    5.215161e-01   7.888267e-03
  3.701409e+00    5.204586e-01   7.896585e-03
  3.703620e+00    5.335422e-01   8.011675e-03
  3.705830e+00    5.467704e-01   8.127096e-03
  3.708041e+00    5.090503e-01   7.858171e-03
  3.710251e+00    5.241679e-01   7.990691e-03
  3.712461e+00    5.224351e-01   7.994203e-03
  3.714672e+00    5.041956e-01   7.869882e-03
  3.716882e+00    5.286843e-01   8.075500e-03
  3.719093e+00    5.204407e-01   8.029517e-03
  3.721303e+00    4.981267e-01   7.872084e-03
  3.723514e+00    5.171583e-01   8.038269e-03
  3.725724e+00    4.999091e-01   7.919920e-03
  3.727935e+00    5.219265e-01   8.110005e-03
  3.730145e+00    5.350217e-01   8.228695e-03
  3.732356e+00    5.229595e-01   8.153094e-03
  3.734566e+00    5.442164e-01   8.335139e-03
  3.736776e+00    5.200278e-01   8.165689e-03
  3.738987e+00    5.128160e-01   8.126565e-03
  3.741197e+00    5.167131e-01   8.175459e-03
  3.743408e+00    5.169771e-01   8.195629e-03
  3.745618e+00    5.127915e-01   8.180756e-03
  3.747829e+00    5.107703e-01   8.182662e-03
  3.750039e+00    5.017236e-01   8.128059e-03
  3.752250e+00    5.157231e-01   8.259234e-03
  3.754460e+00    5.279485e-01   8.375410e-03
  3.756671e+00    5.146842e-01   8.288501e-03
  3.758881e+00    5.278471e-01   8.412695e-03
  3.761091e+00    5.119033e-01   8.303978e-03
  3.763302e+00    5.043010e-01   8.261023e-03
  3.765512e+00    5.195859e-01   8.404761e-03
  3.767723e+00    5.229630e-01   8.451694e-03
  3.769933e+00    5.121368e-01   8.383242e-03
  3.772144e+00    4.811070e-01   8.144348e-03
  3.774354e+00    5.042925e-01   8.358094e-03
  3.776565e+00    4.910835e-01   8.267511e-03
  3.778775e+00    5.018615e-01   8.377611e-03
  3.780986e+00    5.161866e-01   8.516928e-03
  3.783196e+00    4.989206e-01   8.393406e-03
  3.785407e+00    4.926437e-01   8.360640e-03
  3.787617e+00    5.280687e-01   8.677275e-03
  3.789827e+00    5.038053e-01   8.496191e-03
  3.792038e+00    5.187029e-01   8.642028e-03
  3.794248e+00    5.261573e-01   8.725628e-03
  3.796459e+00    5.175996e-01   8.676052e-03
  3.798669e+00    5.196232e-01   8.714762e-03
  3.800880e+00    5.354213e-01   8.868461e-03
  3.803090e+00    4.973843e-01   8.569419e-03
  3.805301e+00    4.815637e-01   8.453638e-03
  3.807511e+00    5.028991e-01   8.661002e-03
  3.809722e+00    4.995489e-01   8.654293e-03
  3.811932e+00    4.926484e-01   8.616440e-03
  3.814142e+00    4.802144e-01   8.529376e-03
  3.816353e+00    4.957336e-01   8.688888e-03
  3.818563e+00    5.153116e-01   8.882323e-03
  3.820774e+00    5.018965e-01   8.789166e-03
  3.822984e+00    4.819078e-01   8.635374e-03
  3.825195e+00    5.209018e-01   9.002145e-03
  3.827405e+00    4.880250e-01   8.737190e-03
  3.829616e+00    5.003454e-01   8.870826e-03
  3.831826e+00    5.042017e-01   8.929340e-03
  3.834037e+00    4.878689e-01   8.807804e-03
  3.836247e+00    4.991403e-01   8.933696e-03
  3.838457e+00    4.716741e-01   8.708791e-03
  3.840668e+00    4.982291e-01   8.975871e-03
  3.842878e+00    5.023209e-01   9.038287e-03
  3.845089e+00    4.805023e-01   8.865000e-03
  3.847299e+00    5.029057e-01   9.095308e-03
  3.849510e+00    5.110498e-01   9.194913e-03
  3.851720e+00    5.327115e-01   9.409970e-03
  3.853931e+00    4.999988e-01   9.135612e-03
  3.856141e+00    4.784333e-01   8.955118e-03
  3.858352e+00    4.800574e-01   8.989259e-03
  3.860562e+00    4.646370e-01   8.862414e-03
  3.862772e+00    4.957140e-01   9.173553e-03
  3.864983e+00    5.078380e-01   9.305077e-03
  3.867193e+00    5.147762e-01   9.388651e-03
  3.869404e+00    5.019682e-01   9.291098e-03
  3.871614e+00    4.783976e-01   9.089922e-03
  3.873825e+00    4.938065e-01   9.255562e-03
  3.876035e+00    4.912788e-01   9.252316e-03
  3.878246e+00    5.101568e-01   9.454721e-03
  3.880456e+00    4.790396e-01   9.190415e-03
  3.882667e+00    5.030754e-01   9.447740e-03
  3.884877e+00    5.150630e-01   9.590152e-03
  3.887087e+00    5.143861e-01   9.614441e-03
  3.889298e+00    5.136260e-01   9.638438e-03
  3.891508e+00    4.969043e-01   9.510932e-03
  3.893719e+00    4.955436e-01   9.528997e-03
  3.895929e+00    4.971691e-01   9.576332e-03
  3.898140e+00    5.121932e-01   9.752274e-03
  3.900350e+00    5.172841e-01   9.833639e-03
  3.902561e+00    5.064598e-01   9.763101e-03
  3.904771e+00    5.047693e-01   9.780142e-03
  3.906982e+00    4.893958e-01   9.663259e-03
  3.909192e+00    4.605775e-01   9.406772e-03
  3.911403e+00    4.756692e-01   9.593250e-03
  3.913613e+00    4.868333e-01   9.739445e-03
  3.915823e+00    4.601293e-01   9.502281e-03
  3.918034e+00    4.634954e-01   9.571314e-03
  3.920244e+00    4.955240e-01   9.932466e-03
  3.922455e+00    4.834254e-01   9.846509e-03
  3.924665e+00    4.837348e-01   9.885749e-03
  3.926876e+00    4.822052e-01   9.907093e-03
  3.929086e+00    5.192456e-01   1.031904e-02
  3.931297e+00    5.061740e-01   1.022389e-02
  3.933507e+00    4.688671e-01   9.868278e-03
  3.935718e+00    4.799317e-01   1.001253e-02
  3.937928e+00    4.909786e-01   1.015662e-02
  3.940138e+00    4.796556e-01   1.006799e-02
  3.942349e+00    5.072445e-01   1.038390e-02
  3.944559e+00    5.134433e-01   1.047798e-02
  3.946770e+00    4.974230e-01   1.034381e-02
  3.948980e+00    4.878808e-01   1.027472e-02
  3.951191e+00    5.267920e-01   1.070881e-02
  3.953401e+00    4.986666e-01   1.045077e-02
  3.955612e+00    4.822443e-01   1.030869e-02
  3.957822e+00    4.987486e-01   1.051575e-02
  3.960033e+00    4.662827e-01   1.019970e-02
  3.962243e+00    4.756107e-01   1.033370e-02
  3.964453e+00    4.703250e-01   1.030865e-02
  3.966664e+00    5.005582e-01   1.066879e-02
  3.968874e+00    4.979442e-01   1.066966e-02
  3.971085e+00    4.804921e-01   1.050277e-02
  3.973295e+00    4.846028e-01   1.056906e-02
  3.975506e+00    5.194073e-01   1.096436e-02
  3.977716e+00    4.857220e-01   1.062494e-02
  3.979927e+00    4.850437e-01   1.063957e-02
  3.982137e+00    4.829686e-01   1.063905e-02
  3.984348e+00    4.941504e-01   1.078425e-02
  3.986558e+00    5.252003e-01   1.114111e-02
  3.988768e+00    4.769931e-01   1.064037e-02
  3.990979e+00    4.608859e-01   1.048132e-02
  3.993189e+00    4.865895e-01   1.079275e-02
  3.995400e+00    4.983840e-01   1.094657e-02
  3.997610e+00    4.800047e-01   1.077259e-02
  3.999821e+00    4.684252e-01   1.067871e-02
  4.002031e+00    4.508643e-01   1.051359e-02
  4.004242e+00    4.720913e-01   1.079621e-02
  4.006452e+00    5.230326e-01   1.140474e-02
  4.008663e+00    4.434892e-01   1.054003e-02
  4.010873e+00    4.763879e-01   1.096363e-02
  4.013084e+00    4.979790e-01   1.125070e-02
  4.015294e+00    5.049035e-01   1.137058e-02
  4.017504e+00    5.096152e-01   1.146652e-02
  4.019715e+00    4.972154e-01   1.136919e-02
  4.021925e+00    4.785289e-01   1.119614e-02
  4.024136e+00    5.179037e-01   1.169300e-02
  4.026346e+00    4.790690e-01   1.128986e-02
  4.028557e+00    4.763806e-01   1.130218e-02
  4.030767e+00    4.829524e-01   1.142543e-02
  4.032978e+00    4.521585e-01   1.110005e-02
  4.035188e+00    4.377687e-01   1.096578e-02
  4.037399e+00    4.649389e-01   1.134769e-02
  4.039609e+00    4.764504e-01   1.153464e-02
  4.041819e+00    4.903016e-01   1.175025e-02
  4.044030e+00    4.853689e-01   1.174103e-02
  4.046240e+00    5.070019e-01   1.205084e-02
  4.048451e+00    4.756538e-01   1.172307e-02
  4.050661e+00    4.612947e-01   1.159480e-02
  4.052872e+00    4.958190e-01   1.207447e-02
  4.055082e+00    4.689177e-01   1.179508e-02
  4.057293e+00    4.699232e-01   1.186072e-02
  4.059503e+00    4.757701e-01   1.198846e-02
  4.061714e+00    5.111266e-01   1.248425e-02
  4.063924e+00    4.812102e-01   1.217004e-02
  4.066134e+00    4.804056e-01   1.221712e-02
  4.068345e+00    4.688016e-01   1.212688e-02
  4.070555e+00    4.671702e-01   1.216401e-02
  4.072766e+00    4.923103e-01   1.254871e-02
  4.074976e+00    4.274963e-01   1.175167e-02
  4.077187e+00    4.947187e-01   1.270485e-02
  4.079397e+00    4.864361e-01   1.266224e-02
  4.081608e+00    4.974723e-01   1.287191e-02
  4.083818e+00    4.799342e-01   1.270855e-02
  4.086029e+00    4.697907e-01   1.263990e-02
  4.088239e+00    4.568871e-01   1.253230e-02
  4.090449e+00    4.668901e-01   1.273727e-02
  4.092660e+00    4.938070e-01   1.317144e-02
  4.094870e+00    5.044165e-01   1.338620e-02
  4.097081e+00    5.024751e-01   1.343367e-02
  4.099291e+00    4.749555e-01   1.311456e-02
  4.101502e+00    4.361392e-01   1.261432e-02
  4.103712e+00    4.696479e-01   1.313843e-02
  4.105923e+00    4.811077e-01   1.334942e-02
  4.108133e+00    5.102093e-01   1.380006e-02
  4.110344e+00    5.021170e-01   1.374282e-02
  4.112554e+00    5.119694e-01   1.393168e-02
  4.114764e+00    4.393340e-01   1.295749e-02
  4.116975e+00    4.900033e-01   1.373828e-02
  4.119185e+00    4.693764e-01   1.350045e-02
  4.121396e+00    4.853257e-01   1.378491e-02
  4.123606e+00    4.959327e-01   1.399163e-02
  4.125817e+00    5.185548e-01   1.436723e-02
  4.128027e+00    5.431634e-01   1.476606e-02
  4.130238e+00    4.675296e-01   1.375845e-02
  4.132448e+00    4.659566e-01   1.379467e-02
  4.134659e+00    4.763135e-01   1.400712e-02
  4.136869e+00    4.717206e-01   1.400191e-02
  4.139080e+00    5.010036e-01   1.449438e-02
  4.141290e+00    5.462307e-01   1.520207e-02
  4.143500e+00    4.918855e-01   1.449224e-02
  4.145711e+00    5.306717e-01   1.512349e-02
  4.147921e+00    4.361624e-01   1.377334e-02
  4.150132e+00    4.356556e-01   1.383122e-02
  4.152342e+00    5.037209e-01   1.494453e-02
  4.154553e+00    4.796265e-01   1.465216e-02
  4.156763e+00    4.729593e-01   1.462167e-02
  4.158974e+00    4.734466e-01   1.470301e-02
  4.161184e+00    4.812242e-01   1.489656e-02
  4.163395e+00    5.204249e-01   1.557098e-02
  4.165605e+00    4.678233e-01   1.483941e-02
  4.167815e+00    5.256735e-01   1.581248e-02
  4.170026e+00    5.299873e-01   1.596077e-02
  4.172236e+00    5.453648e-01   1.627828e-02
  4.174447e+00    4.948606e-01   1.559079e-02
  4.176657e+00    4.826984e-01   1.548192e-02
  4.178868e+00    5.050763e-01   1.592650e-02
  4.181078e+00    4.983356e-01   1.590876e-02
  4.183289e+00    5.625710e-01   1.699994e-02
  4.185499e+00    5.086308e-01   1.626005e-02
  4.187710e+00    5.073265e-01   1.633393e-02
  4.189920e+00    5.078067e-01   1.644019e-02
  4.192130e+00    5.116151e-01   1.660272e-02
  4.194341e+00    5.132459e-01   1.673092e-02
  4.196551e+00    5.131529e-01   1.683548e-02
  4.198762e+00    4.920365e-01   1.659025e-02
  4.200972e+00    4.889005e-01   1.664409e-02
  4.203183e+00    4.797651e-01   1.659645e-02
  4.205393e+00    4.594532e-01   1.634954e-02
  4.207604e+00    5.185965e-01   1.748867e-02
  4.209814e+00    4.594326e-01   1.657357e-02
  4.212025e+00    4.996608e-01   1.740649e-02
  4.214235e+00    5.268466e-01   1.800027e-02
  4.216445e+00    5.340940e-01   1.825484e-02
  4.218656e+00    5.109891e-01   1.798954e-02
  4.220866e+00    5.106570e-01   1.811678e-02
  4.223077e+00    4.286686e-01   1.672654e-02
  4.225287e+00    4.599989e-01   1.746333e-02
  4.227498e+00    4.686708e-01   1.776537e-02
  4.229708e+00    4.724826e-01   1.798249e-02
  4.231919e+00    4.926856e-01   1.851483e-02
  4.234129e+00    4.904234e-01   1.862717e-02
  4.236340e+00    5.270106e-01   1.947503e-02
  4.238550e+00    5.444120e-01   1.996808e-02
  4.240761e+00    5.454823e-01   2.016467e-02
  4.242971e+00    4.822162e-01   1.913299e-02
  4.245181e+00    4.909789e-01   1.948730e-02
  4.247392e+00    4.497977e-01   1.882669e-02
  4.249602e+00    4.365298e-01   1.873070e-02
  4.251813e+00    4.989443e-01   2.022266e-02
  4.254023e+00    5.337486e-01   2.112696e-02
  4.256234e+00    4.910580e-01   2.048088e-02
  4.258444e+00    4.767154e-01   2.039086e-02
  4.260655e+00    5.049226e-01   2.121598e-02
  4.262865e+00    4.885543e-01   2.110603e-02
  4.265076e+00    4.748142e-01   2.104379e-02
  4.267286e+00    5.031903e-01   2.192078e-02
  4.269496e+00    4.172827e-01   2.020509e-02
  4.271707e+00    5.080850e-01   2.257049e-02
  4.273917e+00    5.713785e-01   2.424529e-02
  4.276128e+00    4.786478e-01   2.248565e-02
  4.278338e+00    4.363514e-01   2.175528e-02
  4.280549e+00    4.455310e-01   2.229862e-02
  4.282759e+00    4.917566e-01   2.376333e-02
  4.284970e+00    5.101678e-01   2.456211e-02
  4.287180e+00    4.641480e-01   2.370958e-02
  4.289391e+00    4.617631e-01   2.382538e-02
  4.291601e+00    4.966519e-01   2.490703e-02
  4.293811e+00    4.627653e-01   2.422981e-02
  4.296022e+00    4.990155e-01   2.536341e-02
  4.298232e+00    4.839590e-01   2.518708e-02
  4.300443e+00    4.899373e-01   2.555066e-02
  4.302653e+00    4.588143e-01   2.494117e-02
  4.304864e+00    4.389995e-01   2.460670e-02
  4.307074e+00    4.914464e-01   2.626940e-02
  4.309285e+00    4.767054e-01   2.610787e-02
  4.311495e+00    5.131047e-01   2.733954e-02
  4.313706e+00    4.280046e-01   2.520425e-02
  4.315916e+00    4.199270e-01   2.521050e-02
  4.318126e+00    5.070723e-01   2.797737e-02
  4.320337e+00    5.032197e-01   2.815379e-02
  4.322547e+00    3.877840e-01   2.497538e-02
  4.324758e+00    5.498003e-01   3.004886e-02
  4.326968e+00    5.326736e-01   2.990920e-02
  4.329179e+00    5.018060e-01   2.935127e-02
  4.331389e+00    4.369578e-01   2.770341e-02
  4.333600e+00    5.152450e-01   3.044279e-02
  4.335810e+00    4.680916e-01   2.936129e-02
  4.338021e+00    4.590307e-01   2.944873e-02
  4.340231e+00    3.503619e-01   2.605032e-02
  4.342442e+00    4.936003e-01   3.133452e-02
  4.344652e+00    4.264725e-01   2.952164e-02
  4.346862e+00    4.778549e-01   3.168733e-02
  4.349073e+00    5.613253e-01   3.484404e-02
  4.351283e+00    5.192701e-01   3.401209e-02
  4.353494e+00    4.640904e-01   3.265268e-02
  4.355704e+00    5.798446e-01   3.708470e-02
  4.357915e+00    6.300483e-01   3.930157e-02
  4.360125e+00    4.795358e-01   3.487207e-02
  4.362336e+00    5.691125e-01   3.868187e-02
  4.364546e+00    5.870275e-01   4.000176e-02
  4.366757e+00    4.249567e-01   3.471246e-02
  4.368967e+00    4.150210e-01   3.498652e-02
  4.371177e+00    4.256099e-01   3.618566e-02
  4.373388e+00    4.136737e-01   3.647060e-02
  4.375598e+00    4.040646e-01   3.686741e-02
  4.377809e+00    4.414706e-01   3.951086e-02
  4.380019e+00    2.870585e-01   3.266159e-02
  4.382230e+00    3.475307e-01   3.693957e-02
  4.384440e+00    2.639621e-01   3.312113e-02
  4.386651e+00    2.841744e-01   3.542464e-02
  4.388861e+00    4.099633e-01   4.397509e-02
  4.391072e+00    5.714098e-01   5.374330e-02
  4.393282e+00    2.366632e-01   3.592899e-02
  4.395492e+00    5.255505e-01   5.575239e-02
  4.397703e+00    5.823584e-01   6.138286e-02
  4.399913e+00    3.380809e-01   4.912990e-02
  4.402124e+00    5.561045e-01   6.658522e-02
  4.404334e+00    5.145366e-01   6.808653e-02
  4.406545e+00    3.799101e-01   6.285437e-02
  4.408755e+00    5.063677e-01   7.870104e-02
  4.410966e+00    1.371119e-01   4.533429e-02
  4.413176e+00    3.150702e-01   7.776369e-02
  4.415387e+00   -1.347443e-01            nan
  4.417597e+00   -1.884927e+00            nan
  4.419807e+00   -3.766224e-01            nan
