# == pyFAI calibration ==
# Distance Sample to Detector: 0.216 m
# PONI: 1.166e-01, 1.308e-01 m
# Rotations: 0.000000 0.000000 0.000000 rad
# 
# == Fit2d calibration ==
# Distance Sample-beamCenter: 216.000 mm
# Center: x=1744.293, y=1555.000 pix
# Tilt: 0.000 deg  TiltPlanRot: 0.000 deg
# 
# Detector Eiger 9M	 PixelSize= 7.500e-05, 7.500e-05 m
#    Detector has a mask: True 
#    Detector has a dark current: False 
#    detector has a flat field: False 
# 
# Wavelength: 9.8e-11 m
# Mask applied: from detector
# Dark current applied: False
# Flat field applied: False
# Polarization factor: None
# Normalization factor: 1.0
# 
# Headers of the input frame:
# {
# "_array_data.header_convention": "SLS_1.0",
# "_array_data.header_contents": "# Detector: Dectris Eiger 9M, S/N E-18-0102\r\n# Pixel_size 75e-6 m x 75e-6 m\r\n# Silicon sensor, thickness 0.000450 m\r\n# Exposure_time 0.024997 s\r\n# Exposure_period 0.025000 s\r\n# Count_cutoff 62318 counts\r\n# Wavelength 0.980106 A\r\n# Detector_distance 0.215992 m\r\n# Beam_xy (1555, 1744) pixels\r\n# Start_angle 0.000000 deg.\r\n# Angle_increment 0.000000 deg.",
# "Content-Type": "application/octet-stream;",
# "conversions": "x-CBF_BYTE_OFFSET",
# "Content-Transfer-Encoding": "BINARY",
# "X-Binary-Size": "10166602",
# "X-Binary-ID": "1",
# "X-Binary-Element-Type": "signed 32-bit integer",
# "X-Binary-Element-Byte-Order": "LITTLE_ENDIAN",
# "Content-MD5": "2S6gHyMxEO/ZV0+vBEr25A==",
# "X-Binary-Number-of-Elements": "10166590",
# "X-Binary-Size-Fastest-Dimension": "3110",
# "X-Binary-Size-Second-Dimension": "3269",
# "X-Binary-Size-Padding": "4095"
# }
# --> H:/Proxima2a_2019-04-05/RAW_DATA/C5_gel17_position5/C5_mesh_1_data.cbf/C5_mesh_1_data.cbf000009.dat
#        q_A^-1              I           sigma 
  1.105228e-03    8.626750e-01   5.025862e-01
  3.315685e-03    9.629296e-01   3.228068e-01
  5.526141e-03    1.261590e+00   2.857138e-01
  7.736597e-03    1.326478e+00   2.474972e-01
  9.947054e-03    1.250447e+00   2.118406e-01
  1.215751e-02    1.730626e+00   2.253566e-01
  1.436797e-02    1.518487e+00   1.941697e-01
  1.657842e-02    1.498580e+00   1.795496e-01
  1.878888e-02    1.385133e+00   1.621471e-01
  2.099934e-02    1.298054e+00   1.485075e-01
  2.320979e-02    1.451270e+00   1.493506e-01
  2.542025e-02    1.505190e+00   1.453467e-01
  2.763070e-02    1.250192e+00   1.270512e-01
  2.984116e-02    1.386077e+00   1.287271e-01
  3.205162e-02    1.410461e+00   1.253045e-01
  3.426207e-02    1.478502e+00   1.240754e-01
  3.647253e-02    1.571376e+00   1.239737e-01
  3.868299e-02    1.529558e+00   1.187760e-01
  4.089344e-02    1.266335e+00   1.051127e-01
  4.310390e-02    1.332952e+00   1.050343e-01
  4.531436e-02    1.571410e+00   1.112271e-01
  4.752481e-02    1.492605e+00   1.058501e-01
  4.973527e-02    1.328490e+00   9.761825e-02
  5.194572e-02    1.434636e+00   9.925988e-02
  5.415618e-02    1.490989e+00   9.910053e-02
  5.636664e-02    1.418905e+00   9.476365e-02
  5.857709e-02    1.386658e+00   9.189655e-02
  6.078755e-02    1.428283e+00   9.155130e-02
  6.299801e-02    1.530161e+00   9.308183e-02
  6.520846e-02    1.567502e+00   9.260083e-02
  6.741892e-02    1.456016e+00   8.776734e-02
  6.962938e-02    1.435901e+00   8.576864e-02
  7.183983e-02    1.489098e+00   8.598719e-02
  7.405029e-02    1.369836e+00   8.122983e-02
  7.626074e-02    1.475516e+00   8.307347e-02
  7.847120e-02    1.509974e+00   8.284356e-02
  8.068166e-02    1.501727e+00   8.147676e-02
  8.289211e-02    1.532654e+00   8.120612e-02
  8.510257e-02    1.528043e+00   8.002343e-02
  8.731303e-02    1.484193e+00   7.785921e-02
  8.952348e-02    1.510342e+00   7.756848e-02
  9.173394e-02    1.538352e+00   7.733243e-02
  9.394439e-02    1.481910e+00   7.499983e-02
  9.615485e-02    1.441078e+00   7.310269e-02
  9.836531e-02    1.484135e+00   7.334646e-02
  1.005758e-01    1.522256e+00   7.346208e-02
  1.027862e-01    1.532001e+00   7.289830e-02
  1.049967e-01    1.503037e+00   7.144056e-02
  1.072071e-01    1.527481e+00   7.127196e-02
  1.094176e-01    1.532575e+00   7.066482e-02
  1.116280e-01    1.467983e+00   6.846997e-02
  1.138385e-01    1.492487e+00   6.836417e-02
  1.160490e-01    1.560231e+00   6.922875e-02
  1.182594e-01    1.526673e+00   6.783572e-02
  1.204699e-01    1.456865e+00   6.565537e-02
  1.226803e-01    1.463749e+00   6.521203e-02
  1.248908e-01    1.516343e+00   6.578249e-02
  1.271012e-01    1.512162e+00   6.511672e-02
  1.293117e-01    1.572785e+00   6.583827e-02
  1.315222e-01    1.616875e+00   6.618987e-02
  1.337326e-01    1.530551e+00   6.386304e-02
  1.359431e-01    1.455392e+00   6.231173e-02
  1.381535e-01    1.438450e+00   6.277950e-02
  1.403640e-01    1.512201e+00   6.464671e-02
  1.425744e-01    1.578500e+00   6.615417e-02
  1.447849e-01    1.575621e+00   6.610904e-02
  1.469953e-01    1.568115e+00   6.591007e-02
  1.492058e-01    1.537834e+00   6.519475e-02
  1.514163e-01    1.590026e+00   6.618175e-02
  1.536267e-01    1.584480e+00   6.593725e-02
  1.558372e-01    1.533990e+00   6.473494e-02
  1.580476e-01    1.545317e+00   6.481586e-02
  1.602581e-01    1.561147e+00   6.498150e-02
  1.624685e-01    1.702333e+00   6.767052e-02
  1.646790e-01    1.667657e+00   6.678545e-02
  1.668895e-01    1.679530e+00   6.682920e-02
  1.690999e-01    1.695035e+00   6.693535e-02
  1.713104e-01    1.744018e+00   6.768493e-02
  1.735208e-01    1.784458e+00   6.825223e-02
  1.757313e-01    1.806490e+00   6.845710e-02
  1.779417e-01    1.730872e+00   6.679045e-02
  1.801522e-01    1.832973e+00   6.851323e-02
  1.823626e-01    1.868778e+00   6.894885e-02
  1.845731e-01    1.888834e+00   6.909334e-02
  1.867836e-01    1.828218e+00   6.774622e-02
  1.889940e-01    1.889899e+00   6.865446e-02
  1.912045e-01    1.908849e+00   6.876741e-02
  1.934149e-01    1.931314e+00   6.893938e-02
  1.956254e-01    1.864233e+00   6.750817e-02
  1.978358e-01    1.964868e+00   6.906881e-02
  2.000463e-01    2.024678e+00   6.987981e-02
  2.022568e-01    1.977643e+00   6.883669e-02
  2.044672e-01    1.857305e+00   6.648095e-02
  2.066777e-01    1.880290e+00   6.666902e-02
  2.088881e-01    1.954518e+00   6.774986e-02
  2.110986e-01    2.072824e+00   6.953090e-02
  2.133090e-01    2.010621e+00   6.825708e-02
  2.155195e-01    1.949388e+00   6.698671e-02
  2.177300e-01    1.993899e+00   6.721494e-02
  2.199404e-01    1.910088e+00   6.405366e-02
  2.221509e-01    1.930467e+00   6.333704e-02
  2.243613e-01    1.937335e+00   6.264526e-02
  2.265718e-01    2.043939e+00   6.363649e-02
  2.287822e-01    2.089897e+00   6.371107e-02
  2.309927e-01    2.048358e+00   6.250013e-02
  2.332031e-01    2.040091e+00   6.184002e-02
  2.354136e-01    2.094238e+00   6.214747e-02
  2.376241e-01    2.193321e+00   6.310702e-02
  2.398345e-01    2.168989e+00   6.229156e-02
  2.420450e-01    2.115287e+00   6.107596e-02
  2.442554e-01    2.072939e+00   6.004495e-02
  2.464659e-01    2.096355e+00   5.997774e-02
  2.486763e-01    2.148937e+00   6.032610e-02
  2.508868e-01    2.148238e+00   5.993582e-02
  2.530973e-01    2.085843e+00   5.869284e-02
  2.553077e-01    2.043813e+00   5.774606e-02
  2.575182e-01    2.087548e+00   5.801536e-02
  2.597286e-01    2.127792e+00   5.823141e-02
  2.619391e-01    2.133694e+00   5.797641e-02
  2.641495e-01    2.067479e+00   5.675387e-02
  2.663600e-01    2.052806e+00   5.624113e-02
  2.685704e-01    1.998938e+00   5.519745e-02
  2.707809e-01    2.043606e+00   5.551453e-02
  2.729914e-01    2.021485e+00   5.492552e-02
  2.752018e-01    2.040317e+00   5.489354e-02
  2.774123e-01    1.983663e+00   5.384961e-02
  2.796227e-01    1.992459e+00   5.370188e-02
  2.818332e-01    1.969877e+00   5.313035e-02
  2.840436e-01    1.951235e+00   5.262201e-02
  2.862541e-01    2.018951e+00   5.327002e-02
  2.884646e-01    1.946252e+00   5.205392e-02
  2.906750e-01    1.993158e+00   5.242769e-02
  2.928855e-01    1.956558e+00   5.170342e-02
  2.950959e-01    1.925010e+00   5.104930e-02
  2.973064e-01    1.994991e+00   5.173536e-02
  2.995168e-01    2.025919e+00   5.189871e-02
  3.017273e-01    1.901307e+00   5.005563e-02
  3.039377e-01    1.880598e+00   4.956428e-02
  3.061482e-01    1.816593e+00   4.850280e-02
  3.083587e-01    1.895923e+00   4.933604e-02
  3.105691e-01    1.811576e+00   4.802015e-02
  3.127796e-01    1.825870e+00   4.800654e-02
  3.149900e-01    1.860783e+00   4.826140e-02
  3.172005e-01    1.898777e+00   4.855227e-02
  3.194109e-01    1.913603e+00   4.854026e-02
  3.216214e-01    1.840180e+00   4.740570e-02
  3.238319e-01    1.824878e+00   4.702114e-02
  3.260423e-01    1.890180e+00   4.766445e-02
  3.282528e-01    1.868927e+00   4.720704e-02
  3.304632e-01    1.848460e+00   4.676597e-02
  3.326737e-01    1.836652e+00   4.643448e-02
  3.348841e-01    1.879135e+00   4.678630e-02
  3.370946e-01    1.878420e+00   4.660141e-02
  3.393050e-01    1.805698e+00   4.551736e-02
  3.415155e-01    1.786069e+00   4.509906e-02
  3.437260e-01    1.837506e+00   4.557430e-02
  3.459364e-01    1.862824e+00   4.571746e-02
  3.481469e-01    1.839640e+00   4.526624e-02
  3.503573e-01    1.848057e+00   4.520442e-02
  3.525678e-01    1.803378e+00   4.449548e-02
  3.547782e-01    1.800761e+00   4.430250e-02
  3.569887e-01    1.842528e+00   4.465453e-02
  3.591992e-01    1.776459e+00   4.369149e-02
  3.614096e-01    1.761353e+00   4.335447e-02
  3.636201e-01    1.790584e+00   4.355913e-02
  3.658305e-01    1.781113e+00   4.329560e-02
  3.680410e-01    1.750417e+00   4.277327e-02
  3.702514e-01    1.752193e+00   4.265103e-02
  3.724619e-01    1.755016e+00   4.254002e-02
  3.746724e-01    1.728469e+00   4.207622e-02
  3.768828e-01    1.786880e+00   4.263729e-02
  3.790933e-01    1.793478e+00   4.257675e-02
  3.813037e-01    1.766314e+00   4.211484e-02
  3.835142e-01    1.768996e+00   4.200837e-02
  3.857246e-01    1.755975e+00   4.171805e-02
  3.879351e-01    1.739350e+00   4.138569e-02
  3.901455e-01    1.767691e+00   4.158865e-02
  3.923560e-01    1.733111e+00   4.104903e-02
  3.945665e-01    1.668970e+00   4.015449e-02
  3.967769e-01    1.764000e+00   4.115256e-02
  3.989874e-01    1.817204e+00   4.163815e-02
  4.011978e-01    1.781996e+00   4.110602e-02
  4.034083e-01    1.753735e+00   4.065355e-02
  4.056187e-01    1.797777e+00   4.103406e-02
  4.078292e-01    1.815100e+00   4.110653e-02
  4.100397e-01    1.769896e+00   4.046749e-02
  4.122501e-01    1.744552e+00   4.005652e-02
  4.144606e-01    1.797973e+00   4.054457e-02
  4.166710e-01    1.805053e+00   4.050355e-02
  4.188815e-01    1.828348e+00   4.064364e-02
  4.210919e-01    1.827070e+00   4.051039e-02
  4.233024e-01    1.729393e+00   3.929673e-02
  4.255128e-01    1.719096e+00   3.906628e-02
  4.277233e-01    1.801894e+00   3.988111e-02
  4.299338e-01    1.719358e+00   3.884492e-02
  4.321442e-01    1.755390e+00   3.913753e-02
  4.343547e-01    1.709982e+00   3.851879e-02
  4.365651e-01    1.745391e+00   3.880499e-02
  4.387756e-01    1.761285e+00   3.887211e-02
  4.409860e-01    1.760708e+00   3.875808e-02
  4.431965e-01    1.734096e+00   3.835772e-02
  4.454070e-01    1.747827e+00   3.840212e-02
  4.476174e-01    1.751522e+00   3.833715e-02
  4.498279e-01    1.740391e+00   3.811114e-02
  4.520383e-01    1.700818e+00   3.757202e-02
  4.542488e-01    1.706821e+00   3.753673e-02
  4.564592e-01    1.730157e+00   3.769109e-02
  4.586697e-01    1.683492e+00   3.708065e-02
  4.608801e-01    1.675691e+00   3.689552e-02
  4.630906e-01    1.722722e+00   3.731067e-02
  4.653011e-01    1.707640e+00   3.704930e-02
  4.675115e-01    1.710070e+00   3.697800e-02
  4.697220e-01    1.725077e+00   3.704266e-02
  4.719324e-01    1.678579e+00   3.644551e-02
  4.741429e-01    1.709687e+00   3.668689e-02
  4.763533e-01    1.705940e+00   3.655273e-02
  4.785638e-01    1.660605e+00   3.597061e-02
  4.807743e-01    1.664888e+00   3.592535e-02
  4.829847e-01    1.665869e+00   3.584516e-02
  4.851952e-01    1.717001e+00   3.629903e-02
  4.874056e-01    1.707692e+00   3.610923e-02
  4.896161e-01    1.703148e+00   3.597172e-02
  4.918265e-01    1.646285e+00   3.527831e-02
  4.940370e-01    1.679161e+00   3.554085e-02
  4.962475e-01    1.665650e+00   3.531016e-02
  4.984579e-01    1.679724e+00   3.537164e-02
  5.006684e-01    1.653216e+00   3.500586e-02
  5.028788e-01    1.658224e+00   3.497387e-02
  5.050893e-01    1.732690e+00   3.566359e-02
  5.072997e-01    1.715181e+00   3.539727e-02
  5.095102e-01    1.672664e+00   3.487206e-02
  5.117206e-01    1.688411e+00   3.495250e-02
  5.139311e-01    1.651793e+00   3.448961e-02
  5.161416e-01    1.617471e+00   3.404874e-02
  5.183520e-01    1.610680e+00   3.389644e-02
  5.205625e-01    1.661565e+00   3.434705e-02
  5.227729e-01    1.624968e+00   3.388748e-02
  5.249834e-01    1.621936e+00   3.377723e-02
  5.271938e-01    1.659265e+00   3.408401e-02
  5.294043e-01    1.665007e+00   3.406413e-02
  5.316148e-01    1.738100e+00   3.472410e-02
  5.338252e-01    1.773868e+00   3.499938e-02
  5.360357e-01    1.795909e+00   3.513599e-02
  5.382461e-01    1.763388e+00   3.473772e-02
  5.404566e-01    1.728055e+00   3.430969e-02
  5.426670e-01    1.767551e+00   3.462134e-02
  5.448775e-01    1.756792e+00   3.443874e-02
  5.470879e-01    1.753442e+00   3.432912e-02
  5.492984e-01    1.773492e+00   3.444809e-02
  5.515089e-01    1.750984e+00   3.415288e-02
  5.537193e-01    1.784783e+00   3.440495e-02
  5.559298e-01    1.777857e+00   3.426283e-02
  5.581402e-01    1.743428e+00   3.385530e-02
  5.603507e-01    1.767708e+00   3.401604e-02
  5.625611e-01    1.734745e+00   3.362427e-02
  5.647716e-01    1.754352e+00   3.374033e-02
  5.669821e-01    1.740473e+00   3.353416e-02
  5.691925e-01    1.750201e+00   3.355556e-02
  5.714030e-01    1.791264e+00   3.387453e-02
  5.736134e-01    1.748230e+00   3.339399e-02
  5.758239e-01    1.708652e+00   3.294336e-02
  5.780343e-01    1.677172e+00   3.256943e-02
  5.802448e-01    1.664088e+00   3.237423e-02
  5.824552e-01    1.653582e+00   3.220415e-02
  5.846657e-01    1.604049e+00   3.165204e-02
  5.868762e-01    1.610518e+00   3.164976e-02
  5.890866e-01    1.611736e+00   3.159602e-02
  5.912971e-01    1.625320e+00   3.166322e-02
  5.935075e-01    1.604491e+00   3.139465e-02
  5.957180e-01    1.679780e+00   3.205688e-02
  5.979284e-01    1.645448e+00   3.166284e-02
  6.001389e-01    1.642743e+00   3.157236e-02
  6.023494e-01    1.644544e+00   3.152554e-02
  6.045598e-01    1.617393e+00   3.120056e-02
  6.067703e-01    1.687870e+00   3.180898e-02
  6.089807e-01    1.654420e+00   3.142891e-02
  6.111912e-01    1.699476e+00   3.179037e-02
  6.134016e-01    1.698366e+00   3.171662e-02
  6.156121e-01    1.652309e+00   3.122144e-02
  6.178226e-01    1.676477e+00   3.138666e-02
  6.200330e-01    1.679129e+00   3.134952e-02
  6.222435e-01    1.661479e+00   3.112256e-02
  6.244539e-01    1.659094e+00   3.103930e-02
  6.266644e-01    1.672894e+00   3.110733e-02
  6.288748e-01    1.664508e+00   3.096887e-02
  6.310853e-01    1.684408e+00   3.109295e-02
  6.332957e-01    1.729519e+00   3.144572e-02
  6.355062e-01    1.711708e+00   3.122263e-02
  6.377167e-01    1.701358e+00   3.106835e-02
  6.399271e-01    1.707851e+00   3.106795e-02
  6.421376e-01    1.682280e+00   3.077563e-02
  6.443480e-01    1.692328e+00   3.080867e-02
  6.465585e-01    1.711539e+00   3.092436e-02
  6.487689e-01    1.687819e+00   3.065133e-02
  6.509794e-01    1.648490e+00   3.023499e-02
  6.531899e-01    1.630288e+00   3.001106e-02
  6.554003e-01    1.627569e+00   2.992965e-02
  6.576108e-01    1.568186e+00   2.932388e-02
  6.598212e-01    1.550712e+00   2.910585e-02
  6.620317e-01    1.546272e+00   2.901028e-02
  6.642421e-01    1.587704e+00   2.934198e-02
  6.664526e-01    1.608455e+00   2.947870e-02
  6.686630e-01    1.632337e+00   2.964184e-02
  6.708735e-01    1.588203e+00   2.918475e-02
  6.730840e-01    1.574103e+00   2.900193e-02
  6.752944e-01    1.554278e+00   2.876632e-02
  6.775049e-01    1.573481e+00   2.889090e-02
  6.797153e-01    1.606288e+00   2.913769e-02
  6.819258e-01    1.599229e+00   2.902116e-02
  6.841362e-01    1.585323e+00   2.884276e-02
  6.863467e-01    1.568823e+00   2.864086e-02
  6.885572e-01    1.582247e+00   2.871160e-02
  6.907676e-01    1.585450e+00   2.868916e-02
  6.929781e-01    1.574246e+00   2.853679e-02
  6.951885e-01    1.571173e+00   2.845843e-02
  6.973990e-01    1.567642e+00   2.837618e-02
  6.996094e-01    1.564659e+00   2.829928e-02
  7.018199e-01    1.607255e+00   2.863157e-02
  7.040303e-01    1.581050e+00   2.834733e-02
  7.062408e-01    1.594784e+00   2.842030e-02
  7.084513e-01    1.559981e+00   2.805961e-02
  7.106617e-01    1.557889e+00   2.799203e-02
  7.128722e-01    1.600711e+00   2.832506e-02
  7.150826e-01    1.544992e+00   2.777976e-02
  7.172931e-01    1.555424e+00   2.782532e-02
  7.195035e-01    1.557356e+00   2.779474e-02
  7.217140e-01    1.576716e+00   2.801644e-02
  7.239245e-01    1.562994e+00   2.812018e-02
  7.261349e-01    1.550345e+00   2.811391e-02
  7.283454e-01    1.583257e+00   2.848336e-02
  7.305558e-01    1.586727e+00   2.856876e-02
  7.327663e-01    1.572951e+00   2.848696e-02
  7.349767e-01    1.544412e+00   2.824356e-02
  7.371872e-01    1.533719e+00   2.813458e-02
  7.393976e-01    1.539046e+00   2.816928e-02
  7.416081e-01    1.560643e+00   2.835014e-02
  7.438186e-01    1.588803e+00   2.845981e-02
  7.460290e-01    1.561243e+00   2.791891e-02
  7.482395e-01    1.521451e+00   2.739257e-02
  7.504499e-01    1.561385e+00   2.761403e-02
  7.526604e-01    1.556731e+00   2.745697e-02
  7.548708e-01    1.567021e+00   2.745836e-02
  7.570813e-01    1.561972e+00   2.736331e-02
  7.592918e-01    1.593575e+00   2.760337e-02
  7.615022e-01    1.515695e+00   2.688727e-02
  7.637127e-01    1.517557e+00   2.687156e-02
  7.659231e-01    1.553444e+00   2.715567e-02
  7.681336e-01    1.554204e+00   2.713090e-02
  7.703440e-01    1.572255e+00   2.725681e-02
  7.725545e-01    1.614784e+00   2.759170e-02
  7.747650e-01    1.707246e+00   2.833091e-02
  7.769754e-01    1.599672e+00   2.737072e-02
  7.791859e-01    1.578404e+00   2.713461e-02
  7.813963e-01    1.628688e+00   2.750999e-02
  7.836068e-01    1.667872e+00   2.778564e-02
  7.858172e-01    1.655556e+00   2.763110e-02
  7.880277e-01    1.669590e+00   2.769518e-02
  7.902381e-01    1.671048e+00   2.765694e-02
  7.924486e-01    1.645301e+00   2.739223e-02
  7.946591e-01    1.616881e+00   2.710604e-02
  7.968695e-01    1.627929e+00   2.714985e-02
  7.990800e-01    1.593509e+00   2.681327e-02
  8.012904e-01    1.638770e+00   2.714437e-02
  8.035009e-01    1.614058e+00   2.689101e-02
  8.057113e-01    1.631115e+00   2.698596e-02
  8.079218e-01    1.661294e+00   2.718747e-02
  8.101323e-01    1.651531e+00   2.706145e-02
  8.123427e-01    1.647480e+00   2.698215e-02
  8.145532e-01    1.648472e+00   2.694409e-02
  8.167636e-01    1.655659e+00   2.695736e-02
  8.189741e-01    1.634073e+00   2.673641e-02
  8.211845e-01    1.651000e+00   2.682948e-02
  8.233950e-01    1.642473e+00   2.671660e-02
  8.256054e-01    1.606028e+00   2.637475e-02
  8.278159e-01    1.619004e+00   2.643736e-02
  8.300264e-01    1.649827e+00   2.664459e-02
  8.322368e-01    1.622022e+00   2.637624e-02
  8.344473e-01    1.605389e+00   2.619769e-02
  8.366577e-01    1.634917e+00   2.639499e-02
  8.388682e-01    1.627346e+00   2.629173e-02
  8.410786e-01    1.629924e+00   2.627059e-02
  8.432891e-01    1.612828e+00   2.609095e-02
  8.454996e-01    1.629388e+00   2.618306e-02
  8.477100e-01    1.591272e+00   2.583393e-02
  8.499205e-01    1.619127e+00   2.601811e-02
  8.521309e-01    1.640127e+00   2.614549e-02
  8.543414e-01    1.636892e+00   2.607892e-02
  8.565518e-01    1.609329e+00   2.581820e-02
  8.587623e-01    1.577322e+00   2.552035e-02
  8.609727e-01    1.590064e+00   2.558348e-02
  8.631832e-01    1.616229e+00   2.575335e-02
  8.653937e-01    1.610402e+00   2.566740e-02
  8.676041e-01    1.556463e+00   2.519581e-02
  8.698146e-01    1.565097e+00   2.522696e-02
  8.720250e-01    1.585777e+00   2.535437e-02
  8.742355e-01    1.591524e+00   2.536162e-02
  8.764459e-01    1.576396e+00   2.520229e-02
  8.786564e-01    1.577783e+00   2.517578e-02
  8.808669e-01    1.577115e+00   2.513230e-02
  8.830773e-01    1.607903e+00   2.533821e-02
  8.852878e-01    1.593354e+00   2.518553e-02
  8.874982e-01    1.586614e+00   2.509570e-02
  8.897087e-01    1.578279e+00   2.499231e-02
  8.919191e-01    1.580975e+00   2.497610e-02
  8.941296e-01    1.600856e+00   2.509536e-02
  8.963401e-01    1.565593e+00   2.478140e-02
  8.985505e-01    1.560026e+00   2.470080e-02
  9.007610e-01    1.554732e+00   2.462263e-02
  9.029714e-01    1.589887e+00   2.486373e-02
  9.051819e-01    1.553824e+00   2.454346e-02
  9.073923e-01    1.557401e+00   2.453559e-02
  9.096028e-01    1.561382e+00   2.453245e-02
  9.118132e-01    1.592721e+00   2.474127e-02
  9.140237e-01    1.621066e+00   2.492362e-02
  9.162342e-01    1.573435e+00   2.452044e-02
  9.184446e-01    1.576037e+00   2.450522e-02
  9.206551e-01    1.601177e+00   2.466428e-02
  9.228655e-01    1.612675e+00   2.471731e-02
  9.250760e-01    1.594328e+00   2.454103e-02
  9.272864e-01    1.589966e+00   2.447332e-02
  9.294969e-01    1.588369e+00   2.442536e-02
  9.317074e-01    1.626973e+00   2.468545e-02
  9.339178e-01    1.621376e+00   2.460934e-02
  9.361283e-01    1.601734e+00   2.442374e-02
  9.383387e-01    1.629611e+00   2.460186e-02
  9.405492e-01    1.630065e+00   2.457092e-02
  9.427596e-01    1.641149e+00   2.461883e-02
  9.449701e-01    1.658208e+00   2.471282e-02
  9.471805e-01    1.670743e+00   2.477093e-02
  9.493910e-01    1.664359e+00   2.468961e-02
  9.516015e-01    1.699651e+00   2.491518e-02
  9.538119e-01    1.681660e+00   2.474901e-02
  9.560224e-01    1.707910e+00   2.490630e-02
  9.582328e-01    1.735930e+00   2.507610e-02
  9.604433e-01    1.732818e+00   2.501813e-02
  9.626537e-01    1.738617e+00   2.502626e-02
  9.648642e-01    1.750851e+00   2.507977e-02
  9.670747e-01    1.740041e+00   2.496774e-02
  9.692851e-01    1.749779e+00   2.500423e-02
  9.714956e-01    1.799582e+00   2.532180e-02
  9.737060e-01    1.847520e+00   2.562316e-02
  9.759165e-01    1.826550e+00   2.544141e-02
  9.781269e-01    1.834754e+00   2.546513e-02
  9.803374e-01    1.793612e+00   2.514318e-02
  9.825478e-01    1.776961e+00   2.499318e-02
  9.847583e-01    1.794178e+00   2.507986e-02
  9.869688e-01    1.755161e+00   2.477247e-02
  9.891792e-01    1.768558e+00   2.483377e-02
  9.913897e-01    1.765305e+00   2.477745e-02
  9.936001e-01    1.734135e+00   2.452558e-02
  9.958106e-01    1.763170e+00   2.469640e-02
  9.980210e-01    1.872877e+00   2.542011e-02
  1.000231e+00    1.852884e+00   2.542261e-02
  1.002442e+00    1.793472e+00   2.514458e-02
  1.004652e+00    1.743082e+00   2.485800e-02
  1.006863e+00    1.804153e+00   2.534215e-02
  1.009073e+00    1.796753e+00   2.532888e-02
  1.011284e+00    1.723329e+00   2.483910e-02
  1.013494e+00    1.690379e+00   2.462488e-02
  1.015705e+00    1.696148e+00   2.469018e-02
  1.017915e+00    1.686918e+00   2.463989e-02
  1.020126e+00    1.651937e+00   2.439956e-02
  1.022336e+00    1.590657e+00   2.395452e-02
  1.024547e+00    1.541534e+00   2.359292e-02
  1.026757e+00    1.536786e+00   2.356487e-02
  1.028967e+00    1.525571e+00   2.348639e-02
  1.031178e+00    1.503704e+00   2.332355e-02
  1.033388e+00    1.519743e+00   2.345264e-02
  1.035599e+00    1.521081e+00   2.346639e-02
  1.037809e+00    1.501547e+00   2.331843e-02
  1.040020e+00    1.542644e+00   2.363669e-02
  1.042230e+00    1.477611e+00   2.313501e-02
  1.044441e+00    1.544880e+00   2.365551e-02
  1.046651e+00    1.553210e+00   2.371942e-02
  1.048862e+00    1.528833e+00   2.353172e-02
  1.051072e+00    1.538102e+00   2.360059e-02
  1.053282e+00    1.503891e+00   2.333566e-02
  1.055493e+00    1.498535e+00   2.328980e-02
  1.057703e+00    1.442046e+00   2.284510e-02
  1.059914e+00    1.469044e+00   2.305373e-02
  1.062124e+00    1.473749e+00   2.308659e-02
  1.064335e+00    1.479448e+00   2.312774e-02
  1.066545e+00    1.480842e+00   2.313267e-02
  1.068756e+00    1.452345e+00   2.290530e-02
  1.070966e+00    1.435631e+00   2.276667e-02
  1.073177e+00    1.445875e+00   2.284174e-02
  1.075387e+00    1.443368e+00   2.281676e-02
  1.077597e+00    1.453639e+00   2.289058e-02
  1.079808e+00    1.458458e+00   2.279599e-02
  1.082018e+00    1.464141e+00   2.265124e-02
  1.084229e+00    1.443054e+00   2.237814e-02
  1.086439e+00    1.421308e+00   2.212248e-02
  1.088650e+00    1.383134e+00   2.174958e-02
  1.090860e+00    1.398860e+00   2.180653e-02
  1.093071e+00    1.389347e+00   2.167141e-02
  1.095281e+00    1.424593e+00   2.188773e-02
  1.097492e+00    1.432450e+00   2.189337e-02
  1.099702e+00    1.437724e+00   2.188227e-02
  1.101912e+00    1.411893e+00   2.163645e-02
  1.104123e+00    1.390072e+00   2.142114e-02
  1.106333e+00    1.391611e+00   2.138921e-02
  1.108544e+00    1.413322e+00   2.151141e-02
  1.110754e+00    1.423479e+00   2.154560e-02
  1.112965e+00    1.422616e+00   2.149853e-02
  1.115175e+00    1.425578e+00   2.147964e-02
  1.117386e+00    1.423807e+00   2.142690e-02
  1.119596e+00    1.402380e+00   2.122733e-02
  1.121807e+00    1.424797e+00   2.135729e-02
  1.124017e+00    1.390869e+00   2.106506e-02
  1.126228e+00    1.360151e+00   2.079592e-02
  1.128438e+00    1.379165e+00   2.090432e-02
  1.130648e+00    1.381118e+00   2.088500e-02
  1.132859e+00    1.400112e+00   2.099373e-02
  1.135069e+00    1.372835e+00   2.075376e-02
  1.137280e+00    1.350515e+00   2.055182e-02
  1.139490e+00    1.342551e+00   2.045861e-02
  1.141701e+00    1.360427e+00   2.056153e-02
  1.143911e+00    1.340342e+00   2.037782e-02
  1.146122e+00    1.348702e+00   2.040963e-02
  1.148332e+00    1.335581e+00   2.027876e-02
  1.150543e+00    1.326121e+00   2.017654e-02
  1.152753e+00    1.346274e+00   2.029877e-02
  1.154963e+00    1.346065e+00   2.026646e-02
  1.157174e+00    1.333887e+00   2.014487e-02
  1.159384e+00    1.323136e+00   2.003420e-02
  1.161595e+00    1.334746e+00   2.009244e-02
  1.163805e+00    1.375186e+00   2.036522e-02
  1.166016e+00    1.365680e+00   2.026532e-02
  1.168226e+00    1.351266e+00   2.012928e-02
  1.170437e+00    1.362018e+00   2.018062e-02
  1.172647e+00    1.362825e+00   2.015775e-02
  1.174858e+00    1.357011e+00   2.008668e-02
  1.177068e+00    1.321692e+00   1.979573e-02
  1.179278e+00    1.393641e+00   2.029846e-02
  1.181489e+00    1.401728e+00   2.032988e-02
  1.183699e+00    1.398121e+00   2.027574e-02
  1.185910e+00    1.365375e+00   2.000904e-02
  1.188120e+00    1.358553e+00   1.993227e-02
  1.190331e+00    1.364769e+00   1.995097e-02
  1.192541e+00    1.362955e+00   1.991024e-02
  1.194752e+00    1.360545e+00   1.986551e-02
  1.196962e+00    1.335703e+00   1.965772e-02
  1.199173e+00    1.332822e+00   1.961018e-02
  1.201383e+00    1.344867e+00   1.967146e-02
  1.203593e+00    1.353520e+00   1.970982e-02
  1.205804e+00    1.329441e+00   1.950799e-02
  1.208014e+00    1.345688e+00   1.960002e-02
  1.210225e+00    1.339940e+00   1.953287e-02
  1.212435e+00    1.361924e+00   1.966757e-02
  1.214646e+00    1.354506e+00   1.958779e-02
  1.216856e+00    1.334653e+00   1.941838e-02
  1.219067e+00    1.334432e+00   1.939244e-02
  1.221277e+00    1.330684e+00   1.934034e-02
  1.223488e+00    1.321809e+00   1.925027e-02
  1.225698e+00    1.340099e+00   1.935617e-02
  1.227909e+00    1.333977e+00   1.928195e-02
  1.230119e+00    1.313911e+00   1.910494e-02
  1.232329e+00    1.315707e+00   1.908766e-02
  1.234540e+00    1.312683e+00   1.903585e-02
  1.236750e+00    1.330763e+00   1.913643e-02
  1.238961e+00    1.359006e+00   1.931139e-02
  1.241171e+00    1.346376e+00   1.919730e-02
  1.243382e+00    1.349090e+00   1.919312e-02
  1.245592e+00    1.370060e+00   1.931743e-02
  1.247803e+00    1.374275e+00   1.932327e-02
  1.250013e+00    1.399483e+00   1.947570e-02
  1.252224e+00    1.383083e+00   1.933774e-02
  1.254434e+00    1.352815e+00   1.910120e-02
  1.256644e+00    1.377188e+00   1.924904e-02
  1.258855e+00    1.423666e+00   1.954726e-02
  1.261065e+00    1.450979e+00   1.970967e-02
  1.263276e+00    1.404928e+00   1.937097e-02
  1.265486e+00    1.389327e+00   1.923991e-02
  1.267697e+00    1.360466e+00   1.901591e-02
  1.269907e+00    1.391888e+00   1.921120e-02
  1.272118e+00    1.367676e+00   1.902069e-02
  1.274328e+00    1.386474e+00   1.912788e-02
  1.276539e+00    1.381355e+00   1.906951e-02
  1.278749e+00    1.381371e+00   1.904707e-02
  1.280959e+00    1.369720e+00   1.894388e-02
  1.283170e+00    1.375935e+00   1.896416e-02
  1.285380e+00    1.373249e+00   1.892301e-02
  1.287591e+00    1.365280e+00   1.884586e-02
  1.289801e+00    1.355435e+00   1.875653e-02
  1.292012e+00    1.331023e+00   1.856988e-02
  1.294222e+00    1.340060e+00   1.861661e-02
  1.296433e+00    1.354621e+00   1.870188e-02
  1.298643e+00    1.367101e+00   1.877124e-02
  1.300854e+00    1.366316e+00   1.874934e-02
  1.303064e+00    1.384006e+00   1.885086e-02
  1.305274e+00    1.363214e+00   1.868721e-02
  1.307485e+00    1.337961e+00   1.849184e-02
  1.309695e+00    1.344645e+00   1.851578e-02
  1.311906e+00    1.373532e+00   1.869171e-02
  1.314116e+00    1.366001e+00   1.861949e-02
  1.316327e+00    1.380024e+00   1.869288e-02
  1.318537e+00    1.411961e+00   1.888555e-02
  1.320748e+00    1.422907e+00   1.893650e-02
  1.322958e+00    1.400618e+00   1.876670e-02
  1.325169e+00    1.420154e+00   1.887557e-02
  1.327379e+00    1.392200e+00   1.866673e-02
  1.329589e+00    1.401279e+00   1.870602e-02
  1.331800e+00    1.418269e+00   1.879787e-02
  1.334010e+00    1.404293e+00   1.868398e-02
  1.336221e+00    1.378477e+00   1.848944e-02
  1.338431e+00    1.407738e+00   1.866334e-02
  1.340642e+00    1.431947e+00   1.888922e-02
  1.342852e+00    1.430143e+00   1.898094e-02
  1.345063e+00    1.398303e+00   1.881884e-02
  1.347273e+00    1.364959e+00   1.862852e-02
  1.349484e+00    1.378816e+00   1.875082e-02
  1.351694e+00    1.364530e+00   1.867626e-02
  1.353905e+00    1.380627e+00   1.880429e-02
  1.356115e+00    1.342212e+00   1.855584e-02
  1.358325e+00    1.347107e+00   1.860295e-02
  1.360536e+00    1.368249e+00   1.876003e-02
  1.362746e+00    1.460170e+00   1.938991e-02
  1.364957e+00    1.432669e+00   1.921439e-02
  1.367167e+00    1.365058e+00   1.876272e-02
  1.369378e+00    1.353262e+00   1.868748e-02
  1.371588e+00    1.341417e+00   1.861066e-02
  1.373799e+00    1.335080e+00   1.857030e-02
  1.376009e+00    1.331537e+00   1.854904e-02
  1.378220e+00    1.315331e+00   1.843832e-02
  1.380430e+00    1.307572e+00   1.838654e-02
  1.382640e+00    1.340811e+00   1.861966e-02
  1.384851e+00    1.363407e+00   1.877682e-02
  1.387061e+00    1.357712e+00   1.873785e-02
  1.389272e+00    1.320157e+00   1.847712e-02
  1.391482e+00    1.280352e+00   1.819574e-02
  1.393693e+00    1.259055e+00   1.804291e-02
  1.395903e+00    1.284734e+00   1.822446e-02
  1.398114e+00    1.295678e+00   1.830056e-02
  1.400324e+00    1.269423e+00   1.811206e-02
  1.402535e+00    1.291253e+00   1.826479e-02
  1.404745e+00    1.307938e+00   1.838003e-02
  1.406955e+00    1.307891e+00   1.837699e-02
  1.409166e+00    1.307137e+00   1.836833e-02
  1.411376e+00    1.294951e+00   1.827936e-02
  1.413587e+00    1.301095e+00   1.831881e-02
  1.415797e+00    1.290723e+00   1.824210e-02
  1.418008e+00    1.277550e+00   1.810675e-02
  1.420218e+00    1.294630e+00   1.807623e-02
  1.422429e+00    1.278802e+00   1.787979e-02
  1.424639e+00    1.274312e+00   1.778356e-02
  1.426850e+00    1.285270e+00   1.780483e-02
  1.429060e+00    1.279503e+00   1.771569e-02
  1.431270e+00    1.259542e+00   1.753282e-02
  1.433481e+00    1.272947e+00   1.758485e-02
  1.435691e+00    1.272057e+00   1.754026e-02
  1.437902e+00    1.271131e+00   1.749738e-02
  1.440112e+00    1.266450e+00   1.742986e-02
  1.442323e+00    1.259494e+00   1.734899e-02
  1.444533e+00    1.283433e+00   1.748038e-02
  1.446744e+00    1.265131e+00   1.732425e-02
  1.448954e+00    1.246604e+00   1.716700e-02
  1.451165e+00    1.257767e+00   1.721407e-02
  1.453375e+00    1.267601e+00   1.725323e-02
  1.455586e+00    1.221009e+00   1.690556e-02
  1.457796e+00    1.246369e+00   1.705296e-02
  1.460006e+00    1.250025e+00   1.705091e-02
  1.462217e+00    1.251072e+00   1.703203e-02
  1.464427e+00    1.248902e+00   1.699184e-02
  1.466638e+00    1.259194e+00   1.703652e-02
  1.468848e+00    1.238126e+00   1.686835e-02
  1.471059e+00    1.242553e+00   1.687367e-02
  1.473269e+00    1.240706e+00   1.683701e-02
  1.475480e+00    1.255295e+00   1.691207e-02
  1.477690e+00    1.258630e+00   1.691079e-02
  1.479901e+00    1.256233e+00   1.687094e-02
  1.482111e+00    1.258857e+00   1.686531e-02
  1.484321e+00    1.242282e+00   1.673103e-02
  1.486532e+00    1.226468e+00   1.660222e-02
  1.488742e+00    1.234917e+00   1.663691e-02
  1.490953e+00    1.267382e+00   1.683155e-02
  1.493163e+00    1.240301e+00   1.662870e-02
  1.495374e+00    1.214397e+00   1.643305e-02
  1.497584e+00    1.244482e+00   1.661384e-02
  1.499795e+00    1.231253e+00   1.650392e-02
  1.502005e+00    1.231796e+00   1.648611e-02
  1.504216e+00    1.239362e+00   1.651581e-02
  1.506426e+00    1.217961e+00   1.635209e-02
  1.508636e+00    1.245451e+00   1.651527e-02
  1.510847e+00    1.247264e+00   1.650552e-02
  1.513057e+00    1.264722e+00   1.659548e-02
  1.515268e+00    1.243190e+00   1.642800e-02
  1.517478e+00    1.255855e+00   1.648630e-02
  1.519689e+00    1.235440e+00   1.632699e-02
  1.521899e+00    1.225589e+00   1.623889e-02
  1.524110e+00    1.247699e+00   1.636444e-02
  1.526320e+00    1.263385e+00   1.644731e-02
  1.528531e+00    1.258784e+00   1.639750e-02
  1.530741e+00    1.242857e+00   1.627437e-02
  1.532951e+00    1.225092e+00   1.613822e-02
  1.535162e+00    1.257590e+00   1.643774e-02
  1.537372e+00    1.261333e+00   1.652944e-02
  1.539583e+00    1.252797e+00   1.650770e-02
  1.541793e+00    1.251095e+00   1.650344e-02
  1.544004e+00    1.227922e+00   1.635016e-02
  1.546214e+00    1.222937e+00   1.631542e-02
  1.548425e+00    1.217690e+00   1.628065e-02
  1.550635e+00    1.236304e+00   1.641424e-02
  1.552846e+00    1.250474e+00   1.651774e-02
  1.555056e+00    1.224216e+00   1.630226e-02
  1.557266e+00    1.205405e+00   1.606782e-02
  1.559477e+00    1.203547e+00   1.599728e-02
  1.561687e+00    1.236582e+00   1.618478e-02
  1.563898e+00    1.221402e+00   1.606814e-02
  1.566108e+00    1.245618e+00   1.621065e-02
  1.568319e+00    1.260039e+00   1.628853e-02
  1.570529e+00    1.256572e+00   1.624084e-02
  1.572740e+00    1.243370e+00   1.612771e-02
  1.574950e+00    1.234588e+00   1.604442e-02
  1.577161e+00    1.260616e+00   1.618703e-02
  1.579371e+00    1.250460e+00   1.609800e-02
  1.581582e+00    1.209831e+00   1.581480e-02
  1.583792e+00    1.220716e+00   1.586794e-02
  1.586002e+00    1.239994e+00   1.597515e-02
  1.588213e+00    1.239997e+00   1.595797e-02
  1.590423e+00    1.210360e+00   1.574632e-02
  1.592634e+00    1.222906e+00   1.580626e-02
  1.594844e+00    1.262965e+00   1.604149e-02
  1.597055e+00    1.263267e+00   1.602276e-02
  1.599265e+00    1.244095e+00   1.587997e-02
  1.601476e+00    1.226533e+00   1.574730e-02
  1.603686e+00    1.208465e+00   1.561137e-02
  1.605897e+00    1.216843e+00   1.564540e-02
  1.608107e+00    1.239649e+00   1.577176e-02
  1.610317e+00    1.232596e+00   1.570757e-02
  1.612528e+00    1.251297e+00   1.580697e-02
  1.614738e+00    1.247998e+00   1.576705e-02
  1.616949e+00    1.271661e+00   1.589649e-02
  1.619159e+00    1.244351e+00   1.570601e-02
  1.621370e+00    1.228839e+00   1.558924e-02
  1.623580e+00    1.276934e+00   1.587257e-02
  1.625791e+00    1.343317e+00   1.626068e-02
  1.628001e+00    1.389800e+00   1.651999e-02
  1.630212e+00    1.429551e+00   1.673517e-02
  1.632422e+00    1.328778e+00   1.611564e-02
  1.634632e+00    1.230782e+00   1.549231e-02
  1.636843e+00    1.211824e+00   1.535472e-02
  1.639053e+00    1.177238e+00   1.511672e-02
  1.641264e+00    1.175392e+00   1.508771e-02
  1.643474e+00    1.154454e+00   1.493541e-02
  1.645685e+00    1.153174e+00   1.491046e-02
  1.647895e+00    1.157061e+00   1.491900e-02
  1.650106e+00    1.130941e+00   1.473276e-02
  1.652316e+00    1.161622e+00   1.491471e-02
  1.654527e+00    1.169850e+00   1.495055e-02
  1.656737e+00    1.161622e+00   1.488117e-02
  1.658947e+00    1.142947e+00   1.474467e-02
  1.661158e+00    1.121407e+00   1.458888e-02
  1.663368e+00    1.116308e+00   1.453967e-02
  1.665579e+00    1.128008e+00   1.459947e-02
  1.667789e+00    1.134857e+00   1.462734e-02
  1.670000e+00    1.128460e+00   1.457048e-02
  1.672210e+00    1.119773e+00   1.449831e-02
  1.674421e+00    1.100538e+00   1.435797e-02
  1.676631e+00    1.073528e+00   1.416502e-02
  1.678842e+00    1.102569e+00   1.433951e-02
  1.681052e+00    1.095144e+00   1.427578e-02
  1.683263e+00    1.103783e+00   1.431672e-02
  1.685473e+00    1.073459e+00   1.410365e-02
  1.687683e+00    1.074919e+00   1.409785e-02
  1.689894e+00    1.060132e+00   1.398494e-02
  1.692104e+00    1.051160e+00   1.391089e-02
  1.694315e+00    1.044141e+00   1.385005e-02
  1.696525e+00    1.037542e+00   1.379129e-02
  1.698736e+00    1.058170e+00   1.391294e-02
  1.700946e+00    1.049503e+00   1.384079e-02
  1.703157e+00    1.054540e+00   1.385934e-02
  1.705367e+00    1.037873e+00   1.373500e-02
  1.707578e+00    1.027990e+00   1.365501e-02
  1.709788e+00    1.021211e+00   1.359596e-02
  1.711998e+00    1.031533e+00   1.364956e-02
  1.714209e+00    1.028391e+00   1.361442e-02
  1.716419e+00    1.009266e+00   1.347313e-02
  1.718630e+00    1.018048e+00   1.351743e-02
  1.720840e+00    1.016415e+00   1.349249e-02
  1.723051e+00    9.980257e-01   1.335621e-02
  1.725261e+00    1.013670e+00   1.344583e-02
  1.727472e+00    1.018943e+00   1.346660e-02
  1.729682e+00    9.889908e-01   1.325393e-02
  1.731893e+00    9.671564e-01   1.309318e-02
  1.734103e+00    9.985254e-01   1.329010e-02
  1.736313e+00    9.994510e-01   1.328230e-02
  1.738524e+00    9.832648e-01   1.316062e-02
  1.740734e+00    9.701867e-01   1.305929e-02
  1.742945e+00    9.660251e-01   1.301801e-02
  1.745155e+00    9.679478e-01   1.301768e-02
  1.747366e+00    9.618205e-01   1.296278e-02
  1.749576e+00    9.699642e-01   1.300398e-02
  1.751787e+00    9.643270e-01   1.295293e-02
  1.753997e+00    9.524919e-01   1.286000e-02
  1.756208e+00    9.349791e-01   1.272831e-02
  1.758418e+00    9.470730e-01   1.279740e-02
  1.760628e+00    9.510933e-01   1.281132e-02
  1.762839e+00    9.708869e-01   1.293068e-02
  1.765049e+00    9.487624e-01   1.276948e-02
  1.767260e+00    9.944336e-01   1.306015e-02
  1.769470e+00    9.668861e-01   1.286497e-02
  1.771681e+00    9.397947e-01   1.267038e-02
  1.773891e+00    9.152123e-01   1.249077e-02
  1.776102e+00    9.175229e-01   1.249384e-02
  1.778312e+00    9.258448e-01   1.253778e-02
  1.780523e+00    9.096190e-01   1.241492e-02
  1.782733e+00    9.047880e-01   1.236946e-02
  1.784944e+00    8.920531e-01   1.226951e-02
  1.787154e+00    8.910450e-01   1.225032e-02
  1.789364e+00    9.066656e-01   1.234491e-02
  1.791575e+00    8.815995e-01   1.216086e-02
  1.793785e+00    8.870388e-01   1.218613e-02
  1.795996e+00    8.937408e-01   1.221974e-02
  1.798206e+00    9.522603e-01   1.260070e-02
  1.800417e+00    1.027011e+00   1.307252e-02
  1.802627e+00    1.009284e+00   1.294669e-02
  1.804838e+00    9.889067e-01   1.280271e-02
  1.807048e+00    9.559039e-01   1.257410e-02
  1.809259e+00    9.406560e-01   1.245956e-02
  1.811469e+00    9.240391e-01   1.233390e-02
  1.813679e+00    9.127216e-01   1.224306e-02
  1.815890e+00    9.044368e-01   1.217257e-02
  1.818100e+00    9.172747e-01   1.224337e-02
  1.820311e+00    9.868767e-01   1.268384e-02
  1.822521e+00    1.043731e+00   1.302804e-02
  1.824732e+00    1.017018e+00   1.284443e-02
  1.826942e+00    9.546378e-01   1.243149e-02
  1.829153e+00    9.185014e-01   1.218201e-02
  1.831363e+00    9.231331e-01   1.220037e-02
  1.833574e+00    9.140201e-01   1.212812e-02
  1.835784e+00    8.981032e-01   1.201052e-02
  1.837994e+00    8.816522e-01   1.188826e-02
  1.840205e+00    8.763504e-01   1.184127e-02
  1.842415e+00    8.657542e-01   1.175775e-02
  1.844626e+00    8.485430e-01   1.162887e-02
  1.846836e+00    8.749607e-01   1.179703e-02
  1.849047e+00    8.711782e-01   1.175986e-02
  1.851257e+00    8.633085e-01   1.169707e-02
  1.853468e+00    8.563190e-01   1.164083e-02
  1.855678e+00    8.697048e-01   1.172253e-02
  1.857889e+00    8.887804e-01   1.184174e-02
  1.860099e+00    9.238966e-01   1.206446e-02
  1.862309e+00    8.885514e-01   1.182281e-02
  1.864520e+00    8.501441e-01   1.155588e-02
  1.866730e+00    8.591176e-01   1.160731e-02
  1.868941e+00    8.484768e-01   1.152427e-02
  1.871151e+00    8.920337e-01   1.180473e-02
  1.873362e+00    8.554278e-01   1.154861e-02
  1.875572e+00    8.593318e-01   1.156390e-02
  1.877783e+00    8.647955e-01   1.158909e-02
  1.879993e+00    8.403589e-01   1.141307e-02
  1.882204e+00    8.346528e-01   1.136341e-02
  1.884414e+00    8.283203e-01   1.130925e-02
  1.886624e+00    8.281749e-01   1.129731e-02
  1.888835e+00    8.240208e-01   1.125806e-02
  1.891045e+00    8.312607e-01   1.129658e-02
  1.893256e+00    8.609949e-01   1.148561e-02
  1.895466e+00    8.561790e-01   1.144216e-02
  1.897677e+00    8.434223e-01   1.134563e-02
  1.899887e+00    8.417873e-01   1.132358e-02
  1.902098e+00    8.326464e-01   1.125111e-02
  1.904308e+00    8.171930e-01   1.113569e-02
  1.906519e+00    8.282638e-01   1.120004e-02
  1.908729e+00    8.161318e-01   1.110721e-02
  1.910940e+00    8.110968e-01   1.106186e-02
  1.913150e+00    8.063703e-01   1.101911e-02
  1.915360e+00    8.195928e-01   1.109851e-02
  1.917571e+00    7.975878e-01   1.093780e-02
  1.919781e+00    8.147193e-01   1.104399e-02
  1.921992e+00    7.972838e-01   1.091474e-02
  1.924202e+00    7.963344e-01   1.089757e-02
  1.926413e+00    8.057261e-01   1.095144e-02
  1.928623e+00    8.033863e-01   1.092505e-02
  1.930834e+00    8.013003e-01   1.090050e-02
  1.933044e+00    8.033667e-01   1.090392e-02
  1.935255e+00    8.220890e-01   1.101986e-02
  1.937465e+00    8.053533e-01   1.089672e-02
  1.939675e+00    8.262222e-01   1.102604e-02
  1.941886e+00    8.089721e-01   1.090002e-02
  1.944096e+00    7.916390e-01   1.077251e-02
  1.946307e+00    7.930576e-01   1.077186e-02
  1.948517e+00    8.013502e-01   1.081759e-02
  1.950728e+00    7.979460e-01   1.078434e-02
  1.952938e+00    8.091508e-01   1.084963e-02
  1.955149e+00    7.968190e-01   1.075642e-02
  1.957359e+00    7.767760e-01   1.061035e-02
  1.959570e+00    7.804455e-01   1.062460e-02
  1.961780e+00    7.828237e-01   1.063091e-02
  1.963990e+00    7.895529e-01   1.066643e-02
  1.966201e+00    7.773870e-01   1.057394e-02
  1.968411e+00    7.913247e-01   1.065815e-02
  1.970622e+00    7.898148e-01   1.063788e-02
  1.972832e+00    7.786657e-01   1.055260e-02
  1.975043e+00    7.973726e-01   1.066849e-02
  1.977253e+00    7.931340e-01   1.063012e-02
  1.979464e+00    7.764747e-01   1.050788e-02
  1.981674e+00    7.810022e-01   1.052822e-02
  1.983885e+00    7.670251e-01   1.042367e-02
  1.986095e+00    7.705426e-01   1.043790e-02
  1.988305e+00    7.749126e-01   1.045759e-02
  1.990516e+00    7.796069e-01   1.047929e-02
  1.992726e+00    7.542424e-01   1.029790e-02
  1.994937e+00    7.669598e-01   1.037427e-02
  1.997147e+00    7.803536e-01   1.045471e-02
  1.999358e+00    7.896989e-01   1.050718e-02
  2.001568e+00    7.845281e-01   1.046185e-02
  2.003779e+00    7.628282e-01   1.030430e-02
  2.005989e+00    7.535881e-01   1.022982e-02
  2.008200e+00    7.525600e-01   1.021145e-02
  2.010410e+00    7.410999e-01   1.012186e-02
  2.012621e+00    7.581278e-01   1.022586e-02
  2.014831e+00    7.543127e-01   1.018873e-02
  2.017041e+00    7.615445e-01   1.022710e-02
  2.019252e+00    7.514191e-01   1.014904e-02
  2.021462e+00    7.522482e-01   1.014517e-02
  2.023673e+00    7.548710e-01   1.015355e-02
  2.025883e+00    7.455787e-01   1.008143e-02
  2.028094e+00    7.560621e-01   1.014247e-02
  2.030304e+00    7.491992e-01   1.008688e-02
  2.032515e+00    7.610379e-01   1.015694e-02
  2.034725e+00    7.609457e-01   1.014689e-02
  2.036936e+00    7.320145e-01   9.942953e-03
  2.039146e+00    7.479458e-01   1.004105e-02
  2.041356e+00    7.292060e-01   9.904989e-03
  2.043567e+00    7.564864e-01   1.007925e-02
  2.045777e+00    7.681645e-01   1.014743e-02
  2.047988e+00    7.633207e-01   1.010597e-02
  2.050198e+00    7.656649e-01   1.011297e-02
  2.052409e+00    7.659580e-01   1.010719e-02
  2.054619e+00    7.723657e-01   1.014191e-02
  2.056830e+00    7.496752e-01   9.984663e-03
  2.059040e+00    7.494827e-01   9.975856e-03
  2.061251e+00    7.406422e-01   9.909657e-03
  2.063461e+00    7.501532e-01   9.965469e-03
  2.065671e+00    7.418322e-01   9.901376e-03
  2.067882e+00    7.381085e-01   9.867552e-03
  2.070092e+00    7.419302e-01   9.883894e-03
  2.072303e+00    7.374249e-01   9.844773e-03
  2.074513e+00    7.278045e-01   9.771125e-03
  2.076724e+00    7.143406e-01   9.671054e-03
  2.078934e+00    7.273692e-01   9.749938e-03
  2.081145e+00    7.217528e-01   9.703279e-03
  2.083355e+00    7.293300e-01   9.744974e-03
  2.085566e+00    7.309991e-01   9.747279e-03
  2.087776e+00    7.200817e-01   9.664826e-03
  2.089986e+00    7.221851e-01   9.670268e-03
  2.092197e+00    7.172898e-01   9.628569e-03
  2.094407e+00    7.541086e-01   9.863272e-03
  2.096618e+00    7.276428e-01   9.679816e-03
  2.098828e+00    7.094874e-01   9.549127e-03
  2.101039e+00    7.159439e-01   9.583599e-03
  2.103249e+00    7.104257e-01   9.538058e-03
  2.105460e+00    7.133418e-01   9.548698e-03
  2.107670e+00    7.097121e-01   9.515746e-03
  2.109881e+00    7.097139e-01   9.506715e-03
  2.112091e+00    7.081661e-01   9.487463e-03
  2.114301e+00    7.162520e-01   9.532744e-03
  2.116512e+00    6.989348e-01   9.408156e-03
  2.118722e+00    6.970995e-01   9.387115e-03
  2.120933e+00    7.034259e-01   9.420876e-03
  2.123143e+00    6.884466e-01   9.311284e-03
  2.125354e+00    7.148522e-01   9.479688e-03
  2.127564e+00    6.907893e-01   9.310175e-03
  2.129775e+00    7.076468e-01   9.414433e-03
  2.131985e+00    6.943310e-01   9.316501e-03
  2.134196e+00    6.974596e-01   9.328963e-03
  2.136406e+00    6.958983e-01   9.309890e-03
  2.138617e+00    7.000327e-01   9.329101e-03
  2.140827e+00    6.968797e-01   9.323987e-03
  2.143037e+00    7.017768e-01   9.401996e-03
  2.145248e+00    7.034189e-01   9.434964e-03
  2.147458e+00    7.038181e-01   9.452764e-03
  2.149669e+00    7.010809e-01   9.446207e-03
  2.151879e+00    6.969680e-01   9.427644e-03
  2.154090e+00    7.021934e-01   9.470238e-03
  2.156300e+00    6.932300e-01   9.416183e-03
  2.158511e+00    6.897069e-01   9.397471e-03
  2.160721e+00    6.791862e-01   9.330289e-03
  2.162932e+00    6.899540e-01   9.407661e-03
  2.165142e+00    6.856110e-01   9.381022e-03
  2.167352e+00    6.784219e-01   9.334565e-03
  2.169563e+00    6.805699e-01   9.351275e-03
  2.171773e+00    6.931493e-01   9.439737e-03
  2.173984e+00    6.839837e-01   9.378536e-03
  2.176194e+00    6.942938e-01   9.450130e-03
  2.178405e+00    6.953961e-01   9.458368e-03
  2.180615e+00    6.803691e-01   9.356256e-03
  2.182826e+00    6.928429e-01   9.442335e-03
  2.185036e+00    6.794689e-01   9.350808e-03
  2.187247e+00    6.838602e-01   9.380918e-03
  2.189457e+00    6.934229e-01   9.445876e-03
  2.191667e+00    6.740924e-01   9.313104e-03
  2.193878e+00    6.871665e-01   9.402420e-03
  2.196088e+00    6.885853e-01   9.411436e-03
  2.198299e+00    6.866181e-01   9.396897e-03
  2.200509e+00    6.789326e-01   9.343116e-03
  2.202720e+00    6.835824e-01   9.373870e-03
  2.204930e+00    6.901843e-01   9.417808e-03
  2.207141e+00    6.786091e-01   9.337367e-03
  2.209351e+00    6.880971e-01   9.400532e-03
  2.211562e+00    6.876081e-01   9.395557e-03
  2.213772e+00    6.727528e-01   9.238204e-03
  2.215982e+00    6.791924e-01   9.237989e-03
  2.218193e+00    6.807299e-01   9.218685e-03
  2.220403e+00    6.885318e-01   9.246542e-03
  2.222614e+00    6.939661e-01   9.261702e-03
  2.224824e+00    6.762432e-01   9.123253e-03
  2.227035e+00    6.925380e-01   9.214797e-03
  2.229245e+00    6.976071e-01   9.231175e-03
  2.231456e+00    7.001747e-01   9.232219e-03
  2.233666e+00    6.850633e-01   9.116786e-03
  2.235877e+00    6.875966e-01   9.119177e-03
  2.238087e+00    6.737670e-01   9.013489e-03
  2.240298e+00    6.605449e-01   8.910943e-03
  2.242508e+00    6.607435e-01   8.897224e-03
  2.244718e+00    6.622076e-01   8.891354e-03
  2.246929e+00    6.763533e-01   8.971306e-03
  2.249139e+00    6.618993e-01   8.862616e-03
  2.251350e+00    6.586553e-01   8.829211e-03
  2.253560e+00    6.646825e-01   8.857984e-03
  2.255771e+00    6.660355e-01   8.855576e-03
  2.257981e+00    6.677260e-01   8.855619e-03
  2.260192e+00    6.668718e-01   8.838804e-03
  2.262402e+00    6.646357e-01   8.813133e-03
  2.264613e+00    6.702528e-01   8.839397e-03
  2.266823e+00    6.768404e-01   8.872231e-03
  2.269033e+00    6.687462e-01   8.808595e-03
  2.271244e+00    6.840207e-01   8.898055e-03
  2.273454e+00    6.775493e-01   8.845499e-03
  2.275665e+00    6.927104e-01   8.933355e-03
  2.277875e+00    6.880585e-01   8.893205e-03
  2.280086e+00    6.728758e-01   8.784404e-03
  2.282296e+00    6.727924e-01   8.774336e-03
  2.284507e+00    6.588172e-01   8.672620e-03
  2.286717e+00    6.541317e-01   8.632270e-03
  2.288928e+00    6.687227e-01   8.718058e-03
  2.291138e+00    6.579978e-01   8.638447e-03
  2.293348e+00    6.471106e-01   8.557197e-03
  2.295559e+00    6.576223e-01   8.617093e-03
  2.297769e+00    6.520941e-01   8.571560e-03
  2.299980e+00    6.505204e-01   8.551903e-03
  2.302190e+00    6.548399e-01   8.571104e-03
  2.304401e+00    6.578178e-01   8.581226e-03
  2.306611e+00    6.411383e-01   8.462616e-03
  2.308822e+00    6.401787e-01   8.447940e-03
  2.311032e+00    6.510226e-01   8.512756e-03
  2.313243e+00    6.367274e-01   8.412567e-03
  2.315453e+00    6.309541e-01   8.366868e-03
  2.317663e+00    6.374744e-01   8.400930e-03
  2.319874e+00    6.358940e-01   8.381866e-03
  2.322084e+00    6.435528e-01   8.423222e-03
  2.324295e+00    6.523523e-01   8.472351e-03
  2.326505e+00    6.564365e-01   8.489715e-03
  2.328716e+00    6.325220e-01   8.325133e-03
  2.330926e+00    6.607090e-01   8.499703e-03
  2.333137e+00    6.386952e-01   8.348567e-03
  2.335347e+00    6.457196e-01   8.385430e-03
  2.337558e+00    6.344440e-01   8.303707e-03
  2.339768e+00    6.400266e-01   8.331590e-03
  2.341979e+00    6.250217e-01   8.225069e-03
  2.344189e+00    6.302409e-01   8.250988e-03
  2.346399e+00    6.409293e-01   8.312136e-03
  2.348610e+00    6.474579e-01   8.345828e-03
  2.350820e+00    6.354204e-01   8.259705e-03
  2.353031e+00    6.337851e-01   8.240780e-03
  2.355241e+00    6.313360e-01   8.216801e-03
  2.357452e+00    6.322297e-01   8.214200e-03
  2.359662e+00    6.192918e-01   8.121570e-03
  2.361873e+00    6.221682e-01   8.132232e-03
  2.364083e+00    6.186311e-01   8.101162e-03
  2.366294e+00    6.213626e-01   8.110956e-03
  2.368504e+00    6.217256e-01   8.105291e-03
  2.370714e+00    6.142732e-01   8.048564e-03
  2.372925e+00    6.238142e-01   8.102804e-03
  2.375135e+00    6.263220e-01   8.110992e-03
  2.377346e+00    6.230971e-01   8.082153e-03
  2.379556e+00    6.111651e-01   7.996579e-03
  2.381767e+00    6.155373e-01   8.017277e-03
  2.383977e+00    6.269457e-01   8.083288e-03
  2.386188e+00    6.123338e-01   7.980650e-03
  2.388398e+00    6.161811e-01   7.997749e-03
  2.390609e+00    6.117485e-01   7.961243e-03
  2.392819e+00    6.071194e-01   7.923344e-03
  2.395029e+00    5.989249e-01   7.862130e-03
  2.397240e+00    6.044285e-01   7.890370e-03
  2.399450e+00    5.971103e-01   7.834752e-03
  2.401661e+00    6.102588e-01   7.912872e-03
  2.403871e+00    5.898051e-01   7.771526e-03
  2.406082e+00    6.194370e-01   7.956842e-03
  2.408292e+00    6.203866e-01   7.955094e-03
  2.410503e+00    6.101931e-01   7.881972e-03
  2.412713e+00    5.949149e-01   7.774957e-03
  2.414924e+00    5.949175e-01   7.767533e-03
  2.417134e+00    5.989589e-01   7.786303e-03
  2.419344e+00    5.939909e-01   7.746567e-03
  2.421555e+00    6.047367e-01   7.808810e-03
  2.423765e+00    6.078934e-01   7.821707e-03
  2.425976e+00    5.967903e-01   7.742180e-03
  2.428186e+00    5.959752e-01   7.729668e-03
  2.430397e+00    5.913959e-01   7.692489e-03
  2.432607e+00    5.752386e-01   7.579521e-03
  2.434818e+00    5.854184e-01   7.638807e-03
  2.437028e+00    5.880744e-01   7.649005e-03
  2.439239e+00    5.792082e-01   7.583568e-03
  2.441449e+00    5.831156e-01   7.601969e-03
  2.443659e+00    5.708972e-01   7.514668e-03
  2.445870e+00    5.753531e-01   7.556040e-03
  2.448080e+00    5.683279e-01   7.544136e-03
  2.450291e+00    5.703052e-01   7.573749e-03
  2.452501e+00    5.774265e-01   7.632065e-03
  2.454712e+00    5.695079e-01   7.587950e-03
  2.456922e+00    5.806428e-01   7.668464e-03
  2.459133e+00    5.568295e-01   7.514928e-03
  2.461343e+00    5.736915e-01   7.632252e-03
  2.463554e+00    5.690280e-01   7.604659e-03
  2.465764e+00    5.636848e-01   7.571995e-03
  2.467975e+00    5.509438e-01   7.488220e-03
  2.470185e+00    5.420232e-01   7.429552e-03
  2.472395e+00    5.473145e-01   7.466943e-03
  2.474606e+00    5.391424e-01   7.412525e-03
  2.476816e+00    5.369253e-01   7.398002e-03
  2.479027e+00    5.403594e-01   7.422449e-03
  2.481237e+00    5.509909e-01   7.495397e-03
  2.483448e+00    5.348171e-01   7.384887e-03
  2.485658e+00    5.311215e-01   7.359160e-03
  2.487869e+00    5.433683e-01   7.443570e-03
  2.490079e+00    5.327880e-01   7.370230e-03
  2.492290e+00    5.433668e-01   7.442594e-03
  2.494500e+00    5.354745e-01   7.387636e-03
  2.496710e+00    5.211666e-01   7.287569e-03
  2.498921e+00    5.379156e-01   7.402748e-03
  2.501131e+00    5.327024e-01   7.365858e-03
  2.503342e+00    5.324658e-01   7.362945e-03
  2.505552e+00    5.191358e-01   7.269092e-03
  2.507763e+00    5.086318e-01   7.193777e-03
  2.509973e+00    5.246367e-01   7.304684e-03
  2.512184e+00    5.262582e-01   7.314367e-03
  2.514394e+00    5.310895e-01   7.338455e-03
  2.516605e+00    5.344846e-01   7.314464e-03
  2.518815e+00    5.110071e-01   7.124107e-03
  2.521025e+00    5.249880e-01   7.199928e-03
  2.523236e+00    5.277027e-01   7.200501e-03
  2.525446e+00    5.406173e-01   7.272275e-03
  2.527657e+00    5.254103e-01   7.154651e-03
  2.529867e+00    5.241023e-01   7.131563e-03
  2.532078e+00    5.282722e-01   7.144796e-03
  2.534288e+00    5.254823e-01   7.112011e-03
  2.536499e+00    5.234238e-01   7.086151e-03
  2.538709e+00    5.226897e-01   7.070185e-03
  2.540920e+00    5.266275e-01   7.086101e-03
  2.543130e+00    5.202949e-01   7.033058e-03
  2.545340e+00    5.120625e-01   6.967230e-03
  2.547551e+00    5.141161e-01   6.971338e-03
  2.549761e+00    5.052325e-01   6.901421e-03
  2.551972e+00    4.885193e-01   6.777247e-03
  2.554182e+00    5.159869e-01   6.956046e-03
  2.556393e+00    5.121340e-01   6.921007e-03
  2.558603e+00    5.262046e-01   7.006314e-03
  2.560814e+00    5.219445e-01   6.969186e-03
  2.563024e+00    5.131298e-01   6.901564e-03
  2.565235e+00    5.005369e-01   6.807004e-03
  2.567445e+00    5.174134e-01   6.911255e-03
  2.569656e+00    5.270473e-01   6.965492e-03
  2.571866e+00    5.049552e-01   6.808709e-03
  2.574076e+00    4.949657e-01   6.731940e-03
  2.576287e+00    5.038260e-01   6.783707e-03
  2.578497e+00    5.160517e-01   6.857653e-03
  2.580708e+00    5.219732e-01   6.888774e-03
  2.582918e+00    5.092561e-01   6.796616e-03
  2.585129e+00    4.997940e-01   6.725533e-03
  2.587339e+00    5.159463e-01   6.825654e-03
  2.589550e+00    5.157723e-01   6.816925e-03
  2.591760e+00    5.189111e-01   6.829864e-03
  2.593971e+00    5.047050e-01   6.728244e-03
  2.596181e+00    4.978216e-01   6.676074e-03
  2.598391e+00    4.895456e-01   6.615254e-03
  2.600602e+00    5.087994e-01   6.738177e-03
  2.602812e+00    5.115238e-01   6.748647e-03
  2.605023e+00    5.045470e-01   6.695328e-03
  2.607233e+00    5.004593e-01   6.661070e-03
  2.609444e+00    4.998756e-01   6.650000e-03
  2.611654e+00    5.030553e-01   6.663824e-03
  2.613865e+00    5.028228e-01   6.655273e-03
  2.616075e+00    5.111200e-01   6.702779e-03
  2.618286e+00    5.163092e-01   6.729662e-03
  2.620496e+00    4.944048e-01   6.578734e-03
  2.622706e+00    4.980731e-01   6.597377e-03
  2.624917e+00    5.052434e-01   6.638852e-03
  2.627127e+00    5.016741e-01   6.609634e-03
  2.629338e+00    5.071794e-01   6.639806e-03
  2.631548e+00    5.023098e-01   6.601693e-03
  2.633759e+00    4.970970e-01   6.560226e-03
  2.635969e+00    4.957210e-01   6.544507e-03
  2.638180e+00    5.016595e-01   6.576591e-03
  2.640390e+00    5.013473e-01   6.567962e-03
  2.642601e+00    4.938032e-01   6.511717e-03
  2.644811e+00    4.945118e-01   6.509374e-03
  2.647021e+00    4.922968e-01   6.488242e-03
  2.649232e+00    5.006218e-01   6.536166e-03
  2.651442e+00    4.933930e-01   6.482333e-03
  2.653653e+00    4.927750e-01   6.471522e-03
  2.655863e+00    4.869083e-01   6.426275e-03
  2.658074e+00    4.883268e-01   6.429085e-03
  2.660284e+00    4.902159e-01   6.435195e-03
  2.662495e+00    5.043133e-01   6.520262e-03
  2.664705e+00    4.973659e-01   6.468647e-03
  2.666916e+00    4.932396e-01   6.435293e-03
  2.669126e+00    4.967961e-01   6.452000e-03
  2.671337e+00    4.862074e-01   6.376359e-03
  2.673547e+00    4.889095e-01   6.387692e-03
  2.675757e+00    4.970680e-01   6.434325e-03
  2.677968e+00    4.961048e-01   6.421533e-03
  2.680178e+00    4.949488e-01   6.407649e-03
  2.682389e+00    4.923008e-01   6.384098e-03
  2.684599e+00    4.900183e-01   6.363119e-03
  2.686810e+00    4.854510e-01   6.326818e-03
  2.689020e+00    4.912221e-01   6.358033e-03
  2.691231e+00    4.796098e-01   6.276221e-03
  2.693441e+00    4.791860e-01   6.267369e-03
  2.695652e+00    4.855949e-01   6.302655e-03
  2.697862e+00    4.803596e-01   6.262322e-03
  2.700072e+00    4.788762e-01   6.246606e-03
  2.702283e+00    4.901007e-01   6.313186e-03
  2.704493e+00    4.895533e-01   6.303355e-03
  2.706704e+00    4.823498e-01   6.250462e-03
  2.708914e+00    4.783922e-01   6.218843e-03
  2.711125e+00    4.896911e-01   6.285597e-03
  2.713335e+00    4.871400e-01   6.263124e-03
  2.715546e+00    4.918623e-01   6.286912e-03
  2.717756e+00    4.876076e-01   6.253755e-03
  2.719967e+00    4.922337e-01   6.277132e-03
  2.722177e+00    4.758065e-01   6.165404e-03
  2.724387e+00    4.974480e-01   6.297894e-03
  2.726598e+00    4.814993e-01   6.190092e-03
  2.728808e+00    4.673342e-01   6.092295e-03
  2.731019e+00    4.957941e-01   6.268884e-03
  2.733229e+00    4.683580e-01   6.087255e-03
  2.735440e+00    4.765895e-01   6.134292e-03
  2.737650e+00    4.730368e-01   6.105427e-03
  2.739861e+00    4.861986e-01   6.183700e-03
  2.742071e+00    4.783218e-01   6.127698e-03
  2.744282e+00    4.664715e-01   6.045167e-03
  2.746492e+00    4.896277e-01   6.187304e-03
  2.748702e+00    4.914023e-01   6.192566e-03
  2.750913e+00    4.713521e-01   6.059180e-03
  2.753123e+00    4.722509e-01   6.058884e-03
  2.755334e+00    4.862112e-01   6.141686e-03
  2.757544e+00    4.767733e-01   6.076072e-03
  2.759755e+00    4.854544e-01   6.125221e-03
  2.761965e+00    4.763841e-01   6.061773e-03
  2.764176e+00    4.750225e-01   6.047144e-03
  2.766386e+00    4.644576e-01   5.973828e-03
  2.768597e+00    4.814992e-01   6.076547e-03
  2.770807e+00    4.877665e-01   6.110047e-03
  2.773017e+00    4.817829e-01   6.066476e-03
  2.775228e+00    4.719709e-01   5.998624e-03
  2.777438e+00    4.694315e-01   5.976722e-03
  2.779649e+00    4.772322e-01   6.020291e-03
  2.781859e+00    4.759293e-01   6.006308e-03
  2.784070e+00    4.643552e-01   5.927039e-03
  2.786280e+00    4.817383e-01   6.031172e-03
  2.788491e+00    4.837617e-01   6.037949e-03
  2.790701e+00    4.919395e-01   6.083019e-03
  2.792912e+00    4.796073e-01   6.000337e-03
  2.795122e+00    4.678089e-01   5.920359e-03
  2.797333e+00    4.718905e-01   5.940604e-03
  2.799543e+00    4.585196e-01   5.850082e-03
  2.801753e+00    4.649133e-01   5.884930e-03
  2.803964e+00    4.619711e-01   5.860696e-03
  2.806174e+00    4.711813e-01   5.912704e-03
  2.808385e+00    4.789163e-01   5.954220e-03
  2.810595e+00    4.698572e-01   5.890809e-03
  2.812806e+00    4.711003e-01   5.892016e-03
  2.815016e+00    4.722379e-01   5.894379e-03
  2.817227e+00    4.599395e-01   5.842663e-03
  2.819437e+00    4.782442e-01   5.968919e-03
  2.821648e+00    4.745882e-01   5.948358e-03
  2.823858e+00    4.781386e-01   5.975937e-03
  2.826068e+00    4.739258e-01   5.954532e-03
  2.828279e+00    4.682985e-01   5.923094e-03
  2.830489e+00    4.715966e-01   5.947251e-03
  2.832700e+00    4.730425e-01   5.958925e-03
  2.834910e+00    4.717253e-01   5.952686e-03
  2.837121e+00    4.564231e-01   5.857029e-03
  2.839331e+00    4.673374e-01   5.927847e-03
  2.841542e+00    4.622791e-01   5.896718e-03
  2.843752e+00    4.560140e-01   5.857369e-03
  2.845963e+00    4.661003e-01   5.922197e-03
  2.848173e+00    4.678230e-01   5.933222e-03
  2.850383e+00    4.620020e-01   5.896482e-03
  2.852594e+00    4.638693e-01   5.908302e-03
  2.854804e+00    4.644258e-01   5.911348e-03
  2.857015e+00    4.691631e-01   5.940995e-03
  2.859225e+00    4.618210e-01   5.894067e-03
  2.861436e+00    4.616575e-01   5.892373e-03
  2.863646e+00    4.705857e-01   5.949109e-03
  2.865857e+00    4.578167e-01   5.868203e-03
  2.868067e+00    4.567672e-01   5.861665e-03
  2.870278e+00    4.682218e-01   5.934369e-03
  2.872488e+00    4.613158e-01   5.889285e-03
  2.874698e+00    4.540746e-01   5.841846e-03
  2.876909e+00    4.535019e-01   5.836840e-03
  2.879119e+00    4.544110e-01   5.841080e-03
  2.881330e+00    4.638602e-01   5.900036e-03
  2.883540e+00    4.544601e-01   5.838565e-03
  2.885751e+00    4.665038e-01   5.913767e-03
  2.887961e+00    4.496255e-01   5.803946e-03
  2.890172e+00    4.563182e-01   5.845386e-03
  2.892382e+00    4.644167e-01   5.895207e-03
  2.894593e+00    4.685730e-01   5.919716e-03
  2.896803e+00    4.633936e-01   5.884910e-03
  2.899014e+00    4.609570e-01   5.867520e-03
  2.901224e+00    4.520907e-01   5.808837e-03
  2.903434e+00    4.564451e-01   5.834788e-03
  2.905645e+00    4.617959e-01   5.866676e-03
  2.907855e+00    4.606058e-01   5.857004e-03
  2.910066e+00    4.667201e-01   5.893654e-03
  2.912276e+00    4.689376e-01   5.905502e-03
  2.914487e+00    4.657158e-01   5.882695e-03
  2.916697e+00    4.537550e-01   5.804468e-03
  2.918908e+00    4.439037e-01   5.739133e-03
  2.921118e+00    4.541563e-01   5.802330e-03
  2.923329e+00    4.587985e-01   5.829611e-03
  2.925539e+00    4.454358e-01   5.741840e-03
  2.927749e+00    4.549700e-01   5.800632e-03
  2.929960e+00    4.638764e-01   5.854352e-03
  2.932170e+00    4.551450e-01   5.796677e-03
  2.934381e+00    4.637201e-01   5.848563e-03
  2.936591e+00    4.521365e-01   5.772497e-03
  2.938802e+00    4.416279e-01   5.702340e-03
  2.941012e+00    4.554155e-01   5.788324e-03
  2.943223e+00    4.595152e-01   5.811651e-03
  2.945433e+00    4.322271e-01   5.632789e-03
  2.947644e+00    4.517985e-01   5.754776e-03
  2.949854e+00    4.445038e-01   5.703917e-03
  2.952064e+00    4.548769e-01   5.765865e-03
  2.954275e+00    4.523504e-01   5.745432e-03
  2.956485e+00    4.590659e-01   5.783719e-03
  2.958696e+00    4.529541e-01   5.740734e-03
  2.960906e+00    4.606264e-01   5.784921e-03
  2.963117e+00    4.525209e-01   5.729349e-03
  2.965327e+00    4.270272e-01   5.561847e-03
  2.967538e+00    4.249140e-01   5.545211e-03
  2.969748e+00    4.470391e-01   5.684977e-03
  2.971959e+00    4.482931e-01   5.689822e-03
  2.974169e+00    4.438940e-01   5.659303e-03
  2.976379e+00    4.407547e-01   5.636352e-03
  2.978590e+00    4.471056e-01   5.673716e-03
  2.980800e+00    4.516704e-01   5.699828e-03
  2.983011e+00    4.546746e-01   5.715923e-03
  2.985221e+00    4.529490e-01   5.701951e-03
  2.987432e+00    4.418445e-01   5.628544e-03
  2.989642e+00    4.513439e-01   5.686092e-03
  2.991853e+00    4.520934e-01   5.687568e-03
  2.994063e+00    4.329430e-01   5.562946e-03
  2.996274e+00    4.356044e-01   5.576896e-03
  2.998484e+00    4.428626e-01   5.620503e-03
  3.000694e+00    4.450792e-01   5.631138e-03
  3.002905e+00    4.400005e-01   5.596009e-03
  3.005115e+00    4.544072e-01   5.683918e-03
  3.007326e+00    4.516362e-01   5.663395e-03
  3.009536e+00    4.531724e-01   5.669778e-03
  3.011747e+00    4.447549e-01   5.613999e-03
  3.013957e+00    4.445224e-01   5.609358e-03
  3.016168e+00    4.405702e-01   5.581162e-03
  3.018378e+00    4.501068e-01   5.638209e-03
  3.020589e+00    4.495959e-01   5.631799e-03
  3.022799e+00    4.404297e-01   5.571005e-03
  3.025010e+00    4.390797e-01   5.559233e-03
  3.027220e+00    4.415033e-01   5.571505e-03
  3.029430e+00    4.390159e-01   5.552594e-03
  3.031641e+00    4.433089e-01   5.576548e-03
  3.033851e+00    4.531359e-01   5.634503e-03
  3.036062e+00    4.458858e-01   5.586494e-03
  3.038272e+00    4.371158e-01   5.527749e-03
  3.040483e+00    4.533311e-01   5.626119e-03
  3.042693e+00    4.478846e-01   5.588979e-03
  3.044904e+00    4.380466e-01   5.523280e-03
  3.047114e+00    4.541071e-01   5.618792e-03
  3.049325e+00    4.539025e-01   5.613131e-03
  3.051535e+00    4.458522e-01   5.558760e-03
  3.053745e+00    4.432730e-01   5.537946e-03
  3.055956e+00    4.478976e-01   5.562182e-03
  3.058166e+00    4.601587e-01   5.633523e-03
  3.060377e+00    4.387499e-01   5.496187e-03
  3.062587e+00    4.520224e-01   5.574069e-03
  3.064798e+00    4.498927e-01   5.556654e-03
  3.067008e+00    4.462891e-01   5.529663e-03
  3.069219e+00    4.429095e-01   5.504197e-03
  3.071429e+00    4.405227e-01   5.485868e-03
  3.073640e+00    4.477931e-01   5.527623e-03
  3.075850e+00    4.616186e-01   5.608685e-03
  3.078060e+00    4.435572e-01   5.494783e-03
  3.080271e+00    4.504510e-01   5.533825e-03
  3.082481e+00    4.521159e-01   5.540590e-03
  3.084692e+00    4.552915e-01   5.556610e-03
  3.086902e+00    4.555756e-01   5.555072e-03
  3.089113e+00    4.522289e-01   5.531041e-03
  3.091323e+00    4.544375e-01   5.541148e-03
  3.093534e+00    4.402826e-01   5.450808e-03
  3.095744e+00    4.517102e-01   5.517697e-03
  3.097955e+00    4.574661e-01   5.549167e-03
  3.100165e+00    4.389058e-01   5.432136e-03
  3.102375e+00    4.406880e-01   5.439731e-03
  3.104586e+00    4.527047e-01   5.509897e-03
  3.106796e+00    4.491355e-01   5.484609e-03
  3.109007e+00    4.506209e-01   5.490424e-03
  3.111217e+00    4.578447e-01   5.530530e-03
  3.113428e+00    4.532334e-01   5.499155e-03
  3.115638e+00    4.423184e-01   5.429327e-03
  3.117849e+00    4.514544e-01   5.481334e-03
  3.120059e+00    4.552633e-01   5.500931e-03
  3.122270e+00    4.309953e-01   5.349099e-03
  3.124480e+00    4.434994e-01   5.422447e-03
  3.126691e+00    4.499581e-01   5.458212e-03
  3.128901e+00    4.440168e-01   5.418924e-03
  3.131111e+00    4.464526e-01   5.429944e-03
  3.133322e+00    4.515617e-01   5.457419e-03
  3.135532e+00    4.562872e-01   5.482479e-03
  3.137743e+00    4.432470e-01   5.400093e-03
  3.139953e+00    4.424058e-01   5.391266e-03
  3.142164e+00    4.397351e-01   5.386963e-03
  3.144374e+00    4.398082e-01   5.415726e-03
  3.146585e+00    4.475933e-01   5.478091e-03
  3.148795e+00    4.433711e-01   5.462983e-03
  3.151006e+00    4.379701e-01   5.438125e-03
  3.153216e+00    4.268547e-01   5.375678e-03
  3.155426e+00    4.345021e-01   5.429881e-03
  3.157637e+00    4.312593e-01   5.415055e-03
  3.159847e+00    4.266378e-01   5.390749e-03
  3.162058e+00    4.339526e-01   5.441156e-03
  3.164268e+00    4.377558e-01   5.469024e-03
  3.166479e+00    4.275961e-01   5.408756e-03
  3.168689e+00    4.540220e-01   5.576830e-03
  3.170900e+00    4.320014e-01   5.443059e-03
  3.173110e+00    4.330848e-01   5.452714e-03
  3.175321e+00    4.334863e-01   5.457752e-03
  3.177531e+00    4.293034e-01   5.434042e-03
  3.179741e+00    4.314734e-01   5.449805e-03
  3.181952e+00    4.268610e-01   5.422706e-03
  3.184162e+00    4.390382e-01   5.501695e-03
  3.186373e+00    4.371506e-01   5.491453e-03
  3.188583e+00    4.377129e-01   5.496778e-03
  3.190794e+00    4.255324e-01   5.421500e-03
  3.193004e+00    4.200793e-01   5.387854e-03
  3.195215e+00    4.318406e-01   5.464251e-03
  3.197425e+00    4.367353e-01   5.496357e-03
  3.199636e+00    4.225698e-01   5.405721e-03
  3.201846e+00    4.212416e-01   5.396624e-03
  3.204056e+00    4.233632e-01   5.411073e-03
  3.206267e+00    4.218467e-01   5.402209e-03
  3.208477e+00    4.289257e-01   5.448257e-03
  3.210688e+00    4.234272e-01   5.414078e-03
  3.212898e+00    4.366375e-01   5.498456e-03
  3.215109e+00    4.325536e-01   5.473423e-03
  3.217319e+00    4.320021e-01   5.470578e-03
  3.219530e+00    4.235517e-01   5.417201e-03
  3.221740e+00    4.204752e-01   5.398040e-03
  3.223951e+00    4.405695e-01   5.525995e-03
  3.226161e+00    4.273865e-01   5.442881e-03
  3.228372e+00    4.299390e-01   5.459637e-03
  3.230582e+00    4.270640e-01   5.441494e-03
  3.232792e+00    4.273742e-01   5.443703e-03
  3.235003e+00    4.368545e-01   5.503971e-03
  3.237213e+00    4.425746e-01   5.540017e-03
  3.239424e+00    4.176372e-01   5.381668e-03
  3.241634e+00    4.357589e-01   5.497302e-03
  3.243845e+00    4.255185e-01   5.432404e-03
  3.246055e+00    4.297376e-01   5.458996e-03
  3.248266e+00    4.294625e-01   5.457452e-03
  3.250476e+00    4.228179e-01   5.414763e-03
  3.252687e+00    4.225391e-01   5.412902e-03
  3.254897e+00    4.319800e-01   5.472910e-03
  3.257107e+00    4.254226e-01   5.430911e-03
  3.259318e+00    4.143094e-01   5.359280e-03
  3.261528e+00    4.189875e-01   5.389287e-03
  3.263739e+00    4.186670e-01   5.386700e-03
  3.265949e+00    4.135247e-01   5.353377e-03
  3.268160e+00    4.211818e-01   5.402303e-03
  3.270370e+00    4.062533e-01   5.305222e-03
  3.272581e+00    4.159998e-01   5.368162e-03
  3.274791e+00    4.259808e-01   5.431694e-03
  3.277002e+00    4.310847e-01   5.463548e-03
  3.279212e+00    4.164106e-01   5.369395e-03
  3.281422e+00    4.214562e-01   5.401221e-03
  3.283633e+00    4.312363e-01   5.462870e-03
  3.285843e+00    4.250365e-01   5.423141e-03
  3.288054e+00    4.209825e-01   5.396240e-03
  3.290264e+00    4.326985e-01   5.470519e-03
  3.292475e+00    4.320715e-01   5.465706e-03
  3.294685e+00    4.216338e-01   5.398660e-03
  3.296896e+00    4.153542e-01   5.357550e-03
  3.299106e+00    4.308248e-01   5.455837e-03
  3.301317e+00    4.287401e-01   5.441609e-03
  3.303527e+00    4.221731e-01   5.399323e-03
  3.305737e+00    4.145258e-01   5.349137e-03
  3.307948e+00    4.184514e-01   5.373740e-03
  3.310158e+00    4.266049e-01   5.424986e-03
  3.312369e+00    4.254937e-01   5.417042e-03
  3.314579e+00    4.202328e-01   5.382548e-03
  3.316790e+00    4.264015e-01   5.421176e-03
  3.319000e+00    4.200482e-01   5.379477e-03
  3.321211e+00    4.257257e-01   5.415093e-03
  3.323421e+00    4.250261e-01   5.409428e-03
  3.325632e+00    4.185089e-01   5.366916e-03
  3.327842e+00    4.189575e-01   5.368876e-03
  3.330052e+00    4.223088e-01   5.389241e-03
  3.332263e+00    4.157864e-01   5.346458e-03
  3.334473e+00    4.230508e-01   5.392033e-03
  3.336684e+00    4.234978e-01   5.393634e-03
  3.338894e+00    4.072013e-01   5.288010e-03
  3.341105e+00    3.980434e-01   5.227000e-03
  3.343315e+00    4.216685e-01   5.378782e-03
  3.345526e+00    4.059892e-01   5.276927e-03
  3.347736e+00    4.146692e-01   5.331646e-03
  3.349947e+00    4.164002e-01   5.341842e-03
  3.352157e+00    4.122506e-01   5.313974e-03
  3.354368e+00    4.182359e-01   5.351143e-03
  3.356578e+00    4.139340e-01   5.322521e-03
  3.358788e+00    4.195717e-01   5.357332e-03
  3.360999e+00    3.991038e-01   5.223788e-03
  3.363209e+00    4.154135e-01   5.328455e-03
  3.365420e+00    4.026224e-01   5.244303e-03
  3.367630e+00    4.048074e-01   5.257489e-03
  3.369841e+00    4.127738e-01   5.307567e-03
  3.372051e+00    4.013728e-01   5.231805e-03
  3.374262e+00    4.107441e-01   5.290099e-03
  3.376472e+00    4.292564e-01   5.405529e-03
  3.378683e+00    4.088577e-01   5.273048e-03
  3.380893e+00    4.061899e-01   5.253515e-03
  3.383103e+00    3.948582e-01   5.177054e-03
  3.385314e+00    4.264903e-01   5.378189e-03
  3.387524e+00    4.041319e-01   5.232614e-03
  3.389735e+00    4.265265e-01   5.372946e-03
  3.391945e+00    4.154189e-01   5.298886e-03
  3.394156e+00    4.037068e-01   5.219460e-03
  3.396366e+00    3.993061e-01   5.187581e-03
  3.398577e+00    4.019879e-01   5.201942e-03
  3.400787e+00    4.115583e-01   5.275437e-03
  3.402998e+00    4.177191e-01   5.353202e-03
  3.405208e+00    3.931458e-01   5.213690e-03
  3.407418e+00    3.947565e-01   5.240045e-03
  3.409629e+00    3.896610e-01   5.219865e-03
  3.411839e+00    3.816583e-01   5.177490e-03
  3.414050e+00    3.798704e-01   5.176093e-03
  3.416260e+00    3.843259e-01   5.215889e-03
  3.418471e+00    3.886930e-01   5.254804e-03
  3.420681e+00    3.772603e-01   5.185258e-03
  3.422892e+00    3.896105e-01   5.277443e-03
  3.425102e+00    4.098456e-01   5.420757e-03
  3.427313e+00    3.871274e-01   5.275602e-03
  3.429523e+00    3.721968e-01   5.179755e-03
  3.431733e+00    3.726936e-01   5.189754e-03
  3.433944e+00    3.836946e-01   5.272289e-03
  3.436154e+00    3.766938e-01   5.230148e-03
  3.438365e+00    3.716975e-01   5.201196e-03
  3.440575e+00    3.749723e-01   5.229958e-03
  3.442786e+00    3.631662e-01   5.152435e-03
  3.444996e+00    3.656730e-01   5.175626e-03
  3.447207e+00    3.626357e-01   5.159256e-03
  3.449417e+00    3.758651e-01   5.293604e-03
  3.451628e+00    3.650795e-01   5.246382e-03
  3.453838e+00    3.705840e-01   5.307026e-03
  3.456049e+00    3.543407e-01   5.212922e-03
  3.458259e+00    3.486215e-01   5.192047e-03
  3.460469e+00    3.665025e-01   5.343336e-03
  3.462680e+00    3.576666e-01   5.297367e-03
  3.464890e+00    3.641642e-01   5.363007e-03
  3.467101e+00    3.626598e-01   5.369258e-03
  3.469311e+00    3.743144e-01   5.471500e-03
  3.471522e+00    3.870949e-01   5.580788e-03
  3.473732e+00    3.793639e-01   5.540742e-03
  3.475943e+00    3.821278e-01   5.576578e-03
  3.478153e+00    3.963250e-01   5.694820e-03
  3.480364e+00    4.127784e-01   5.827346e-03
  3.482574e+00    4.077104e-01   5.806916e-03
  3.484784e+00    4.037003e-01   5.792991e-03
  3.486995e+00    4.191359e-01   5.917886e-03
  3.489205e+00    4.200017e-01   5.938579e-03
  3.491416e+00    4.409658e-01   6.100156e-03
  3.493626e+00    4.391570e-01   6.102308e-03
  3.495837e+00    4.409545e-01   6.129525e-03
  3.498047e+00    4.452235e-01   6.173640e-03
  3.500258e+00    4.541735e-01   6.249975e-03
  3.502468e+00    4.637695e-01   6.330255e-03
  3.504679e+00    4.730520e-01   6.407937e-03
  3.506889e+00    4.830356e-01   6.489953e-03
  3.509099e+00    4.711597e-01   6.424007e-03
  3.511310e+00    4.806856e-01   6.503166e-03
  3.513520e+00    4.832064e-01   6.534621e-03
  3.515731e+00    4.998142e-01   6.660551e-03
  3.517941e+00    4.923603e-01   6.625114e-03
  3.520152e+00    4.961995e-01   6.665209e-03
  3.522362e+00    4.890177e-01   6.631131e-03
  3.524573e+00    4.813581e-01   6.592895e-03
  3.526783e+00    5.200849e-01   6.866443e-03
  3.528994e+00    5.305704e-01   6.947759e-03
  3.531204e+00    5.185090e-01   6.880720e-03
  3.533414e+00    5.280163e-01   6.955646e-03
  3.535625e+00    5.333487e-01   7.003098e-03
  3.537835e+00    5.257176e-01   6.964867e-03
  3.540046e+00    5.358558e-01   7.040630e-03
  3.542256e+00    5.428430e-01   7.093963e-03
  3.544467e+00    5.323221e-01   7.032492e-03
  3.546677e+00    5.466920e-01   7.134419e-03
  3.548888e+00    5.517157e-01   7.174731e-03
  3.551098e+00    5.421891e-01   7.119862e-03
  3.553309e+00    5.490544e-01   7.173045e-03
  3.555519e+00    5.391752e-01   7.119553e-03
  3.557729e+00    5.308641e-01   7.076154e-03
  3.559940e+00    5.330571e-01   7.102250e-03
  3.562150e+00    5.181854e-01   7.014003e-03
  3.564361e+00    5.204031e-01   7.042108e-03
  3.566571e+00    5.369253e-01   7.166860e-03
  3.568782e+00    5.426575e-01   7.219219e-03
  3.570992e+00    5.470721e-01   7.262438e-03
  3.573203e+00    5.393521e-01   7.225194e-03
  3.575413e+00    5.454195e-01   7.279610e-03
  3.577624e+00    5.429636e-01   7.277435e-03
  3.579834e+00    5.238570e-01   7.161956e-03
  3.582045e+00    5.297726e-01   7.216253e-03
  3.584255e+00    5.189137e-01   7.155713e-03
  3.586465e+00    5.264523e-01   7.221324e-03
  3.588676e+00    5.474233e-01   7.378052e-03
  3.590886e+00    5.460119e-01   7.382427e-03
  3.593097e+00    5.397193e-01   7.354289e-03
  3.595307e+00    5.341426e-01   7.330130e-03
  3.597518e+00    5.227726e-01   7.265709e-03
  3.599728e+00    5.219292e-01   7.273770e-03
  3.601939e+00    5.251894e-01   7.310386e-03
  3.604149e+00    5.381020e-01   7.414131e-03
  3.606360e+00    5.413572e-01   7.450772e-03
  3.608570e+00    5.346841e-01   7.418842e-03
  3.610780e+00    5.254633e-01   7.365585e-03
  3.612991e+00    5.447524e-01   7.509598e-03
  3.615201e+00    5.397430e-01   7.484891e-03
  3.617412e+00    5.323818e-01   7.440902e-03
  3.619622e+00    5.461756e-01   7.542729e-03
  3.621833e+00    5.281861e-01   7.424121e-03
  3.624043e+00    5.327437e-01   7.465579e-03
  3.626254e+00    5.322992e-01   7.472148e-03
  3.628464e+00    5.257925e-01   7.437246e-03
  3.630675e+00    5.357459e-01   7.521410e-03
  3.632885e+00    5.324829e-01   7.512941e-03
  3.635095e+00    5.289235e-01   7.502094e-03
  3.637306e+00    5.221987e-01   7.468464e-03
  3.639516e+00    5.484818e-01   7.668865e-03
  3.641727e+00    5.315154e-01   7.563850e-03
  3.643937e+00    5.419409e-01   7.652357e-03
  3.646148e+00    5.386901e-01   7.644036e-03
  3.648358e+00    5.340463e-01   7.625896e-03
  3.650569e+00    5.430848e-01   7.705020e-03
  3.652779e+00    5.391040e-01   7.691604e-03
  3.654990e+00    5.241115e-01   7.598682e-03
  3.657200e+00    5.299147e-01   7.655479e-03
  3.659410e+00    5.429977e-01   7.764503e-03
  3.661621e+00    5.428548e-01   7.778781e-03
  3.663831e+00    5.181954e-01   7.614958e-03
  3.666042e+00    5.358688e-01   7.758934e-03
  3.668252e+00    5.383490e-01   7.792206e-03
  3.670463e+00    5.352294e-01   7.784923e-03
  3.672673e+00    5.346579e-01   7.796226e-03
  3.674884e+00    5.256858e-01   7.745850e-03
  3.677094e+00    5.245535e-01   7.752962e-03
  3.679305e+00    5.274750e-01   7.790000e-03
  3.681515e+00    5.220563e-01   7.765432e-03
  3.683726e+00    5.006547e-01   7.619888e-03
  3.685936e+00    5.346324e-01   7.890049e-03
  3.688146e+00    5.237426e-01   7.824966e-03
  3.690357e+00    5.226703e-01   7.832844e-03
  3.692567e+00    5.142885e-01   7.785690e-03
  3.694778e+00    5.149375e-01   7.806499e-03
  3.696988e+00    5.046338e-01   7.743634e-03
  3.699199e+00    5.313628e-01   7.962377e-03
  3.701409e+00    5.394102e-01   8.039094e-03
  3.703620e+00    5.345490e-01   8.019203e-03
  3.705830e+00    5.214387e-01   7.936637e-03
  3.708041e+00    5.143127e-01   7.898667e-03
  3.710251e+00    5.187953e-01   7.949617e-03
  3.712461e+00    5.310302e-01   8.059691e-03
  3.714672e+00    5.278653e-01   8.052467e-03
  3.716882e+00    5.090226e-01   7.923999e-03
  3.719093e+00    5.240578e-01   8.057302e-03
  3.721303e+00    5.287145e-01   8.110191e-03
  3.723514e+00    5.058154e-01   7.949639e-03
  3.725724e+00    5.074832e-01   7.979706e-03
  3.727935e+00    4.944956e-01   7.894018e-03
  3.730145e+00    5.007234e-01   7.960593e-03
  3.732356e+00    4.949918e-01   7.932064e-03
  3.734566e+00    5.217819e-01   8.161508e-03
  3.736776e+00    5.268681e-01   8.219213e-03
  3.738987e+00    5.397396e-01   8.337168e-03
  3.741197e+00    5.268534e-01   8.255261e-03
  3.743408e+00    5.256756e-01   8.264351e-03
  3.745618e+00    5.004112e-01   8.081367e-03
  3.747829e+00    5.035235e-01   8.124385e-03
  3.750039e+00    5.136876e-01   8.224431e-03
  3.752250e+00    4.803050e-01   7.970624e-03
  3.754460e+00    4.862133e-01   8.037546e-03
  3.756671e+00    4.900849e-01   8.087938e-03
  3.758881e+00    5.146872e-01   8.307222e-03
  3.761091e+00    5.034813e-01   8.235337e-03
  3.763302e+00    4.908103e-01   8.149792e-03
  3.765512e+00    4.903646e-01   8.164975e-03
  3.767723e+00    5.363960e-01   8.559550e-03
  3.769933e+00    5.122498e-01   8.384167e-03
  3.772144e+00    5.021052e-01   8.320180e-03
  3.774354e+00    4.856475e-01   8.202167e-03
  3.776565e+00    4.670987e-01   8.063076e-03
  3.778775e+00    4.955652e-01   8.324865e-03
  3.780986e+00    5.198798e-01   8.547357e-03
  3.783196e+00    4.957721e-01   8.366859e-03
  3.785407e+00    5.030119e-01   8.448205e-03
  3.787617e+00    4.949663e-01   8.400910e-03
  3.789827e+00    4.810664e-01   8.302228e-03
  3.792038e+00    5.097232e-01   8.566896e-03
  3.794248e+00    5.048794e-01   8.547395e-03
  3.796459e+00    4.798725e-01   8.353871e-03
  3.798669e+00    4.874624e-01   8.440766e-03
  3.800880e+00    4.861873e-01   8.450868e-03
  3.803090e+00    5.184474e-01   8.748933e-03
  3.805301e+00    5.028984e-01   8.638943e-03
  3.807511e+00    4.993872e-01   8.630675e-03
  3.809722e+00    4.977167e-01   8.638442e-03
  3.811932e+00    4.766107e-01   8.474986e-03
  3.814142e+00    5.030348e-01   8.729701e-03
  3.816353e+00    5.111994e-01   8.823403e-03
  3.818563e+00    4.867250e-01   8.632427e-03
  3.820774e+00    5.020429e-01   8.790405e-03
  3.822984e+00    5.182248e-01   8.954809e-03
  3.825195e+00    5.285737e-01   9.068286e-03
  3.827405e+00    5.265123e-01   9.075103e-03
  3.829616e+00    4.879765e-01   8.760608e-03
  3.831826e+00    4.869490e-01   8.775187e-03
  3.834037e+00    4.935871e-01   8.859266e-03
  3.836247e+00    4.857921e-01   8.813409e-03
  3.838457e+00    4.939359e-01   8.911918e-03
  3.840668e+00    4.971619e-01   8.966268e-03
  3.842878e+00    4.738550e-01   8.778477e-03
  3.845089e+00    4.950917e-01   8.998552e-03
  3.847299e+00    5.036027e-01   9.101625e-03
  3.849510e+00    5.043910e-01   9.134832e-03
  3.851720e+00    4.913250e-01   9.037075e-03
  3.853931e+00    5.096341e-01   9.223152e-03
  3.856141e+00    4.954052e-01   9.112572e-03
  3.858352e+00    4.928112e-01   9.107873e-03
  3.860562e+00    4.816293e-01   9.023028e-03
  3.862772e+00    4.999243e-01   9.212450e-03
  3.864983e+00    4.878555e-01   9.120171e-03
  3.867193e+00    4.972195e-01   9.227144e-03
  3.869404e+00    5.038649e-01   9.308561e-03
  3.871614e+00    4.969920e-01   9.264996e-03
  3.873825e+00    5.042341e-01   9.352740e-03
  3.876035e+00    5.113845e-01   9.439739e-03
  3.878246e+00    5.050157e-01   9.406990e-03
  3.880456e+00    4.815541e-01   9.214431e-03
  3.882667e+00    4.881044e-01   9.306158e-03
  3.884877e+00    5.044107e-01   9.490447e-03
  3.887087e+00    4.813344e-01   9.300457e-03
  3.889298e+00    4.728675e-01   9.248096e-03
  3.891508e+00    4.903732e-01   9.448140e-03
  3.893719e+00    4.936409e-01   9.510779e-03
  3.895929e+00    4.564773e-01   9.176063e-03
  3.898140e+00    4.591415e-01   9.233441e-03
  3.900350e+00    4.682642e-01   9.356048e-03
  3.902561e+00    4.943659e-01   9.645884e-03
  3.904771e+00    4.630993e-01   9.367746e-03
  3.906982e+00    4.845812e-01   9.615493e-03
  3.909192e+00    4.690436e-01   9.492940e-03
  3.911403e+00    4.738395e-01   9.574772e-03
  3.913613e+00    5.230967e-01   1.009559e-02
  3.915823e+00    5.002476e-01   9.907858e-03
  3.918034e+00    4.994627e-01   9.935861e-03
  3.920244e+00    4.693471e-01   9.666572e-03
  3.922455e+00    4.649753e-01   9.656649e-03
  3.924665e+00    4.823237e-01   9.871403e-03
  3.926876e+00    4.922118e-01   1.000933e-02
  3.929086e+00    4.612787e-01   9.726033e-03
  3.931297e+00    4.744101e-01   9.897894e-03
  3.933507e+00    4.944891e-01   1.013428e-02
  3.935718e+00    4.909846e-01   1.012715e-02
  3.937928e+00    4.893427e-01   1.013975e-02
  3.940138e+00    5.014534e-01   1.029423e-02
  3.942349e+00    4.512032e-01   9.793503e-03
  3.944559e+00    4.816535e-01   1.014840e-02
  3.946770e+00    4.803895e-01   1.016511e-02
  3.948980e+00    4.898427e-01   1.029549e-02
  3.951191e+00    4.647532e-01   1.005838e-02
  3.953401e+00    4.663837e-01   1.010689e-02
  3.955612e+00    4.686764e-01   1.016259e-02
  3.957822e+00    4.621927e-01   1.012307e-02
  3.960033e+00    5.005442e-01   1.056778e-02
  3.962243e+00    5.094007e-01   1.069442e-02
  3.964453e+00    5.157758e-01   1.079525e-02
  3.966664e+00    4.913944e-01   1.057075e-02
  3.968874e+00    4.852833e-01   1.053310e-02
  3.971085e+00    4.911284e-01   1.061834e-02
  3.973295e+00    4.922272e-01   1.065194e-02
  3.975506e+00    4.707893e-01   1.043863e-02
  3.977716e+00    4.939319e-01   1.071431e-02
  3.979927e+00    4.749936e-01   1.052880e-02
  3.982137e+00    4.908645e-01   1.072565e-02
  3.984348e+00    4.818218e-01   1.064894e-02
  3.986558e+00    4.721699e-01   1.056363e-02
  3.988768e+00    4.824071e-01   1.070061e-02
  3.990979e+00    4.963175e-01   1.087665e-02
  3.993189e+00    5.126477e-01   1.107797e-02
  3.995400e+00    4.915352e-01   1.087113e-02
  3.997610e+00    5.033775e-01   1.103166e-02
  3.999821e+00    5.074774e-01   1.111494e-02
  4.002031e+00    4.803535e-01   1.085203e-02
  4.004242e+00    4.469447e-01   1.050477e-02
  4.006452e+00    4.812584e-01   1.093980e-02
  4.008663e+00    4.607022e-01   1.074264e-02
  4.010873e+00    4.898888e-01   1.111779e-02
  4.013084e+00    4.799929e-01   1.104585e-02
  4.015294e+00    4.510230e-01   1.074672e-02
  4.017504e+00    4.883749e-01   1.122489e-02
  4.019715e+00    5.051569e-01   1.145967e-02
  4.021925e+00    4.994580e-01   1.143839e-02
  4.024136e+00    4.783149e-01   1.123718e-02
  4.026346e+00    4.618874e-01   1.108565e-02
  4.028557e+00    4.618270e-01   1.112813e-02
  4.030767e+00    4.896739e-01   1.150471e-02
  4.032978e+00    4.646468e-01   1.125218e-02
  4.035188e+00    4.590541e-01   1.122928e-02
  4.037399e+00    4.854642e-01   1.159539e-02
  4.039609e+00    4.541541e-01   1.126166e-02
  4.041819e+00    4.811964e-01   1.164052e-02
  4.044030e+00    4.589822e-01   1.141749e-02
  4.046240e+00    4.674622e-01   1.157146e-02
  4.048451e+00    4.800829e-01   1.177724e-02
  4.050661e+00    4.635083e-01   1.162286e-02
  4.052872e+00    4.958714e-01   1.207490e-02
  4.055082e+00    4.860603e-01   1.200885e-02
  4.057293e+00    4.828957e-01   1.202320e-02
  4.059503e+00    4.949564e-01   1.222801e-02
  4.061714e+00    4.343053e-01   1.150782e-02
  4.063924e+00    5.047193e-01   1.246366e-02
  4.066134e+00    4.868383e-01   1.229876e-02
  4.068345e+00    4.824942e-01   1.230261e-02
  4.070555e+00    4.865622e-01   1.241400e-02
  4.072766e+00    4.899821e-01   1.251890e-02
  4.074976e+00    4.505202e-01   1.206409e-02
  4.077187e+00    4.682230e-01   1.235994e-02
  4.079397e+00    4.792886e-01   1.256891e-02
  4.081608e+00    4.746569e-01   1.257322e-02
  4.083818e+00    4.881235e-01   1.281648e-02
  4.086029e+00    4.829264e-01   1.281550e-02
  4.088239e+00    4.309848e-01   1.217185e-02
  4.090449e+00    4.587184e-01   1.262540e-02
  4.092660e+00    4.712770e-01   1.286731e-02
  4.094870e+00    4.712845e-01   1.293920e-02
  4.097081e+00    4.503815e-01   1.271823e-02
  4.099291e+00    4.991937e-01   1.344513e-02
  4.101502e+00    4.877357e-01   1.333945e-02
  4.103712e+00    4.601945e-01   1.300581e-02
  4.105923e+00    4.371244e-01   1.272448e-02
  4.108133e+00    4.849007e-01   1.345347e-02
  4.110344e+00    4.649518e-01   1.322445e-02
  4.112554e+00    4.959182e-01   1.371154e-02
  4.114764e+00    4.701530e-01   1.340430e-02
  4.116975e+00    4.745201e-01   1.351939e-02
  4.119185e+00    4.757819e-01   1.359243e-02
  4.121396e+00    4.438667e-01   1.318285e-02
  4.123606e+00    4.498407e-01   1.332567e-02
  4.125817e+00    4.883043e-01   1.394184e-02
  4.128027e+00    4.409759e-01   1.330495e-02
  4.130238e+00    4.194537e-01   1.303151e-02
  4.132448e+00    5.077199e-01   1.439964e-02
  4.134659e+00    4.859698e-01   1.414848e-02
  4.136869e+00    4.518220e-01   1.370327e-02
  4.139080e+00    4.620083e-01   1.391914e-02
  4.141290e+00    4.860758e-01   1.434037e-02
  4.143500e+00    4.437822e-01   1.376560e-02
  4.145711e+00    5.023783e-01   1.471459e-02
  4.147921e+00    4.629219e-01   1.418971e-02
  4.150132e+00    4.521677e-01   1.409078e-02
  4.152342e+00    4.790835e-01   1.457455e-02
  4.154553e+00    4.319897e-01   1.390537e-02
  4.156763e+00    4.993606e-01   1.502426e-02
  4.158974e+00    5.385421e-01   1.568121e-02
  4.161184e+00    4.261421e-01   1.401831e-02
  4.163395e+00    4.911215e-01   1.512596e-02
  4.165605e+00    4.513004e-01   1.457524e-02
  4.167815e+00    5.137120e-01   1.563152e-02
  4.170026e+00    4.938456e-01   1.540711e-02
  4.172236e+00    5.363646e-01   1.614337e-02
  4.174447e+00    4.725365e-01   1.523489e-02
  4.176657e+00    5.061986e-01   1.585433e-02
  4.178868e+00    5.009497e-01   1.586141e-02
  4.181078e+00    4.655331e-01   1.537633e-02
  4.183289e+00    5.119519e-01   1.621707e-02
  4.185499e+00    4.753947e-01   1.571977e-02
  4.187710e+00    4.983731e-01   1.618927e-02
  4.189920e+00    4.762807e-01   1.592152e-02
  4.192130e+00    5.378535e-01   1.702323e-02
  4.194341e+00    4.376403e-01   1.544963e-02
  4.196551e+00    4.271550e-01   1.535993e-02
  4.198762e+00    4.744607e-01   1.629107e-02
  4.200972e+00    4.665236e-01   1.625881e-02
  4.203183e+00    4.364824e-01   1.583018e-02
  4.205393e+00    4.469274e-01   1.612503e-02
  4.207604e+00    4.319487e-01   1.596098e-02
  4.209814e+00    4.975931e-01   1.724820e-02
  4.212025e+00    4.841256e-01   1.713359e-02
  4.214235e+00    5.053852e-01   1.763007e-02
  4.216445e+00    5.126964e-01   1.788552e-02
  4.218656e+00    4.729951e-01   1.730778e-02
  4.220866e+00    5.044963e-01   1.800736e-02
  4.223077e+00    4.652053e-01   1.742486e-02
  4.225287e+00    4.481667e-01   1.723694e-02
  4.227498e+00    4.857299e-01   1.808598e-02
  4.229708e+00    4.792103e-01   1.810982e-02
  4.231919e+00    4.946219e-01   1.855120e-02
  4.234129e+00    4.935170e-01   1.868596e-02
  4.236340e+00    4.911564e-01   1.880075e-02
  4.238550e+00    4.921238e-01   1.898522e-02
  4.240761e+00    4.883684e-01   1.907977e-02
  4.242971e+00    4.685269e-01   1.885932e-02
  4.245181e+00    4.452320e-01   1.855707e-02
  4.247392e+00    5.107354e-01   2.006131e-02
  4.249602e+00    5.116888e-01   2.027954e-02
  4.251813e+00    4.887342e-01   2.001465e-02
  4.254023e+00    4.079641e-01   1.847048e-02
  4.256234e+00    4.419773e-01   1.943056e-02
  4.258444e+00    4.791807e-01   2.044341e-02
  4.260655e+00    4.611472e-01   2.027552e-02
  4.262865e+00    4.862887e-01   2.105691e-02
  4.265076e+00    4.569454e-01   2.064408e-02
  4.267286e+00    4.991550e-01   2.183250e-02
  4.269496e+00    4.381918e-01   2.070531e-02
  4.271707e+00    4.729592e-01   2.177668e-02
  4.273917e+00    5.033278e-01   2.275559e-02
  4.276128e+00    4.846821e-01   2.262677e-02
  4.278338e+00    5.027160e-01   2.335109e-02
  4.280549e+00    4.638851e-01   2.275329e-02
  4.282759e+00    4.668854e-01   2.315505e-02
  4.284970e+00    5.346771e-01   2.514509e-02
  4.287180e+00    4.472949e-01   2.327463e-02
  4.289391e+00    5.235901e-01   2.537085e-02
  4.291601e+00    4.623172e-01   2.403090e-02
  4.293811e+00    4.763347e-01   2.458210e-02
  4.296022e+00    5.448731e-01   2.650331e-02
  4.298232e+00    5.630909e-01   2.716810e-02
  4.300443e+00    5.163231e-01   2.623022e-02
  4.302653e+00    4.562986e-01   2.487259e-02
  4.304864e+00    4.621067e-01   2.524599e-02
  4.307074e+00    5.026324e-01   2.656670e-02
  4.309285e+00    4.827430e-01   2.627203e-02
  4.311495e+00    4.930185e-01   2.679955e-02
  4.313706e+00    4.631565e-01   2.621850e-02
  4.315916e+00    4.593852e-01   2.636899e-02
  4.318126e+00    4.600583e-01   2.664946e-02
  4.320337e+00    4.656890e-01   2.708277e-02
  4.322547e+00    4.613641e-01   2.724270e-02
  4.324758e+00    4.689355e-01   2.775065e-02
  4.326968e+00    5.458137e-01   3.027612e-02
  4.329179e+00    5.153294e-01   2.974347e-02
  4.331389e+00    3.750925e-01   2.566834e-02
  4.333600e+00    4.235581e-01   2.760147e-02
  4.335810e+00    3.980244e-01   2.707467e-02
  4.338021e+00    5.230722e-01   3.143576e-02
  4.340231e+00    5.097417e-01   3.142121e-02
  4.342442e+00    5.178131e-01   3.209442e-02
  4.344652e+00    4.643176e-01   3.080405e-02
  4.346862e+00    4.168476e-01   2.959542e-02
  4.349073e+00    3.832609e-01   2.879165e-02
  4.351283e+00    3.462148e-01   2.777319e-02
  4.353494e+00    5.226596e-01   3.465054e-02
  4.355704e+00    4.193229e-01   3.153775e-02
  4.357915e+00    4.333269e-01   3.259299e-02
  4.360125e+00    4.501836e-01   3.378734e-02
  4.362336e+00    5.557356e-01   3.822443e-02
  4.364546e+00    5.734414e-01   3.953604e-02
  4.366757e+00    4.787416e-01   3.684316e-02
  4.368967e+00    4.538449e-01   3.658800e-02
  4.371177e+00    3.812504e-01   3.424684e-02
  4.373388e+00    5.372486e-01   4.156186e-02
  4.375598e+00    5.571102e-01   4.329040e-02
  4.377809e+00    3.982049e-01   3.752527e-02
  4.380019e+00    2.357833e-01   2.960049e-02
  4.382230e+00    3.278004e-01   3.587661e-02
  4.384440e+00    3.361812e-01   3.737865e-02
  4.386651e+00    4.239362e-01   4.326676e-02
  4.388861e+00    5.183049e-01   4.944748e-02
  4.391072e+00    3.730036e-01   4.342429e-02
  4.393282e+00    4.166426e-01   4.766431e-02
  4.395492e+00    4.258721e-01   5.019162e-02
  4.397703e+00    4.468453e-01   5.376383e-02
  4.399913e+00    5.373455e-01   6.194350e-02
  4.402124e+00    2.424362e-01   4.396736e-02
  4.404334e+00    4.388219e-01   6.287343e-02
  4.406545e+00    4.731084e-01   7.014149e-02
  4.408755e+00    5.375102e-01   8.108248e-02
  4.410966e+00    4.349622e-01   8.073970e-02
  4.413176e+00    5.855771e-01   1.060203e-01
  4.415387e+00   -4.294676e-01            nan
  4.417597e+00   -1.900416e+00            nan
  4.419807e+00   -3.766224e-01            nan
