# == pyFAI calibration ==
# Distance Sample to Detector: 0.216 m
# PONI: 1.166e-01, 1.308e-01 m
# Rotations: 0.000000 0.000000 0.000000 rad
# 
# == Fit2d calibration ==
# Distance Sample-beamCenter: 216.000 mm
# Center: x=1744.293, y=1555.000 pix
# Tilt: 0.000 deg  TiltPlanRot: 0.000 deg
# 
# Detector Eiger 9M	 PixelSize= 7.500e-05, 7.500e-05 m
#    Detector has a mask: True 
#    Detector has a dark current: False 
#    detector has a flat field: False 
# 
# Wavelength: 9.8e-11 m
# Mask applied: from detector
# Dark current applied: False
# Flat field applied: False
# Polarization factor: None
# Normalization factor: 1.0
# 
# Headers of the input frame:
# {
# "_array_data.header_convention": "SLS_1.0",
# "_array_data.header_contents": "# Detector: Dectris Eiger 9M, S/N E-18-0102\r\n# Pixel_size 75e-6 m x 75e-6 m\r\n# Silicon sensor, thickness 0.000450 m\r\n# Exposure_time 0.024997 s\r\n# Exposure_period 0.025000 s\r\n# Count_cutoff 62318 counts\r\n# Wavelength 0.980106 A\r\n# Detector_distance 0.215992 m\r\n# Beam_xy (1555, 1744) pixels\r\n# Start_angle 0.000000 deg.\r\n# Angle_increment 0.000000 deg.",
# "Content-Type": "application/octet-stream;",
# "conversions": "x-CBF_BYTE_OFFSET",
# "Content-Transfer-Encoding": "BINARY",
# "X-Binary-Size": "10166594",
# "X-Binary-ID": "1",
# "X-Binary-Element-Type": "signed 32-bit integer",
# "X-Binary-Element-Byte-Order": "LITTLE_ENDIAN",
# "Content-MD5": "fT0C54L1uFYLTzZaZlBt0w==",
# "X-Binary-Number-of-Elements": "10166590",
# "X-Binary-Size-Fastest-Dimension": "3110",
# "X-Binary-Size-Second-Dimension": "3269",
# "X-Binary-Size-Padding": "4095"
# }
# --> H:/Proxima2a_2019-04-05/RAW_DATA/C5_gel17_position5/C5_mesh_1_data.cbf/C5_mesh_1_data.cbf000056.dat
#        q_A^-1              I           sigma 
  1.105228e-03    1.222494e+00   5.982880e-01
  3.315685e-03    9.903520e-01   3.273710e-01
  5.526141e-03    1.103628e+00   2.672290e-01
  7.736597e-03    1.688869e+00   2.792661e-01
  9.947054e-03    1.769060e+00   2.519694e-01
  1.215751e-02    1.515124e+00   2.108592e-01
  1.436797e-02    1.499149e+00   1.929293e-01
  1.657842e-02    1.465992e+00   1.775866e-01
  1.878888e-02    1.305322e+00   1.574064e-01
  2.099934e-02    1.343649e+00   1.510932e-01
  2.320979e-02    1.296662e+00   1.411712e-01
  2.542025e-02    1.516637e+00   1.458983e-01
  2.763070e-02    1.269807e+00   1.280440e-01
  2.984116e-02    1.341855e+00   1.266570e-01
  3.205162e-02    1.445224e+00   1.268393e-01
  3.426207e-02    1.404256e+00   1.209200e-01
  3.647253e-02    1.475804e+00   1.201445e-01
  3.868299e-02    1.416142e+00   1.142876e-01
  4.089344e-02    1.374480e+00   1.095090e-01
  4.310390e-02    1.366757e+00   1.063578e-01
  4.531436e-02    1.416593e+00   1.056059e-01
  4.752481e-02    1.324377e+00   9.970682e-02
  4.973527e-02    1.237580e+00   9.421899e-02
  5.194572e-02    1.274628e+00   9.356096e-02
  5.415618e-02    1.334152e+00   9.374356e-02
  5.636664e-02    1.364859e+00   9.294137e-02
  5.857709e-02    1.375376e+00   9.152194e-02
  6.078755e-02    1.438070e+00   9.186443e-02
  6.299801e-02    1.442545e+00   9.037767e-02
  6.520846e-02    1.403224e+00   8.761414e-02
  6.741892e-02    1.342449e+00   8.427500e-02
  6.962938e-02    1.320705e+00   8.225629e-02
  7.183983e-02    1.585706e+00   8.873265e-02
  7.405029e-02    1.431927e+00   8.305040e-02
  7.626074e-02    1.482030e+00   8.325665e-02
  7.847120e-02    1.360498e+00   7.863628e-02
  8.068166e-02    1.461500e+00   8.037810e-02
  8.289211e-02    1.428592e+00   7.840086e-02
  8.510257e-02    1.415393e+00   7.701724e-02
  8.731303e-02    1.473693e+00   7.758331e-02
  8.952348e-02    1.427196e+00   7.540312e-02
  9.173394e-02    1.466910e+00   7.551543e-02
  9.394439e-02    1.367378e+00   7.204328e-02
  9.615485e-02    1.469932e+00   7.383092e-02
  9.836531e-02    1.503302e+00   7.381856e-02
  1.005758e-01    1.451636e+00   7.173784e-02
  1.027862e-01    1.436273e+00   7.058404e-02
  1.049967e-01    1.497851e+00   7.131718e-02
  1.072071e-01    1.504420e+00   7.073190e-02
  1.094176e-01    1.521279e+00   7.040390e-02
  1.116280e-01    1.569768e+00   7.080392e-02
  1.138385e-01    1.568181e+00   7.007634e-02
  1.160490e-01    1.463637e+00   6.705152e-02
  1.182594e-01    1.480601e+00   6.680428e-02
  1.204699e-01    1.548810e+00   6.769548e-02
  1.226803e-01    1.550027e+00   6.710643e-02
  1.248908e-01    1.548779e+00   6.648234e-02
  1.271012e-01    1.635970e+00   6.772997e-02
  1.293117e-01    1.605260e+00   6.651453e-02
  1.315222e-01    1.497529e+00   6.370021e-02
  1.337326e-01    1.558218e+00   6.443764e-02
  1.359431e-01    1.537883e+00   6.405330e-02
  1.381535e-01    1.562200e+00   6.542426e-02
  1.403640e-01    1.606599e+00   6.663395e-02
  1.425744e-01    1.549548e+00   6.554467e-02
  1.447849e-01    1.643506e+00   6.751814e-02
  1.469953e-01    1.669111e+00   6.799947e-02
  1.492058e-01    1.646810e+00   6.746517e-02
  1.514163e-01    1.576219e+00   6.589380e-02
  1.536267e-01    1.607053e+00   6.640524e-02
  1.558372e-01    1.627423e+00   6.667727e-02
  1.580476e-01    1.578746e+00   6.551315e-02
  1.602581e-01    1.695622e+00   6.772241e-02
  1.624685e-01    1.700888e+00   6.764182e-02
  1.646790e-01    1.684416e+00   6.712017e-02
  1.668895e-01    1.760946e+00   6.842982e-02
  1.690999e-01    1.738231e+00   6.778289e-02
  1.713104e-01    1.754927e+00   6.789629e-02
  1.735208e-01    1.743989e+00   6.747387e-02
  1.757313e-01    1.772218e+00   6.780458e-02
  1.779417e-01    1.797134e+00   6.805689e-02
  1.801522e-01    1.837536e+00   6.859845e-02
  1.823626e-01    1.889201e+00   6.932460e-02
  1.845731e-01    1.792364e+00   6.730579e-02
  1.867836e-01    1.822846e+00   6.764659e-02
  1.889940e-01    1.927307e+00   6.933060e-02
  1.912045e-01    2.026568e+00   7.085613e-02
  1.934149e-01    1.919615e+00   6.873026e-02
  1.956254e-01    1.943804e+00   6.893382e-02
  1.978358e-01    2.014165e+00   6.992990e-02
  2.000463e-01    1.993272e+00   6.933571e-02
  2.022568e-01    2.011194e+00   6.941812e-02
  2.044672e-01    1.967696e+00   6.842812e-02
  2.066777e-01    2.016375e+00   6.903946e-02
  2.088881e-01    1.944203e+00   6.757085e-02
  2.110986e-01    1.883270e+00   6.627549e-02
  2.133090e-01    1.886800e+00   6.612193e-02
  2.155195e-01    1.854109e+00   6.532919e-02
  2.177300e-01    1.940996e+00   6.631724e-02
  2.199404e-01    2.014431e+00   6.577992e-02
  2.221509e-01    2.058270e+00   6.540002e-02
  2.243613e-01    2.056169e+00   6.453794e-02
  2.265718e-01    2.042702e+00   6.361727e-02
  2.287822e-01    2.117377e+00   6.412855e-02
  2.309927e-01    2.113606e+00   6.348778e-02
  2.332031e-01    2.077318e+00   6.240167e-02
  2.354136e-01    2.219943e+00   6.398549e-02
  2.376241e-01    2.039767e+00   6.085790e-02
  2.398345e-01    2.095774e+00   6.123115e-02
  2.420450e-01    2.200302e+00   6.229120e-02
  2.442554e-01    2.173394e+00   6.148265e-02
  2.464659e-01    2.129143e+00   6.044495e-02
  2.486763e-01    2.158998e+00   6.046715e-02
  2.508868e-01    2.111504e+00   5.942117e-02
  2.530973e-01    2.178239e+00   5.997869e-02
  2.553077e-01    2.188313e+00   5.975258e-02
  2.575182e-01    2.079652e+00   5.790555e-02
  2.597286e-01    2.047569e+00   5.712312e-02
  2.619391e-01    2.097664e+00   5.748482e-02
  2.641495e-01    2.061952e+00   5.667796e-02
  2.663600e-01    2.135470e+00   5.736232e-02
  2.685704e-01    2.037684e+00   5.572987e-02
  2.707809e-01    2.024110e+00   5.524911e-02
  2.729914e-01    2.015532e+00   5.484457e-02
  2.752018e-01    2.068510e+00   5.527151e-02
  2.774123e-01    2.048682e+00   5.472501e-02
  2.796227e-01    1.972139e+00   5.342736e-02
  2.818332e-01    1.897562e+00   5.214600e-02
  2.840436e-01    1.917272e+00   5.216202e-02
  2.862541e-01    1.928787e+00   5.206696e-02
  2.884646e-01    1.965133e+00   5.230580e-02
  2.906750e-01    1.946846e+00   5.181502e-02
  2.928855e-01    1.980270e+00   5.201578e-02
  2.950959e-01    1.945645e+00   5.132219e-02
  2.973064e-01    1.881607e+00   5.024368e-02
  2.995168e-01    1.914603e+00   5.045276e-02
  3.017273e-01    1.907312e+00   5.013460e-02
  3.039377e-01    1.908494e+00   4.993051e-02
  3.061482e-01    1.958303e+00   5.035912e-02
  3.083587e-01    1.923745e+00   4.969672e-02
  3.105691e-01    1.897851e+00   4.915031e-02
  3.127796e-01    1.883205e+00   4.875444e-02
  3.149900e-01    1.923764e+00   4.907135e-02
  3.172005e-01    1.873476e+00   4.822773e-02
  3.194109e-01    1.781085e+00   4.682938e-02
  3.216214e-01    1.894293e+00   4.809763e-02
  3.238319e-01    1.925685e+00   4.830243e-02
  3.260423e-01    1.843287e+00   4.706948e-02
  3.282528e-01    1.885079e+00   4.741058e-02
  3.304632e-01    1.848797e+00   4.677024e-02
  3.326737e-01    1.811125e+00   4.611064e-02
  3.348841e-01    1.851051e+00   4.643537e-02
  3.370946e-01    1.819159e+00   4.586040e-02
  3.393050e-01    1.842105e+00   4.597393e-02
  3.415155e-01    1.815730e+00   4.547200e-02
  3.437260e-01    1.779032e+00   4.484330e-02
  3.459364e-01    1.830041e+00   4.531340e-02
  3.481469e-01    1.854700e+00   4.545114e-02
  3.503573e-01    1.794904e+00   4.454961e-02
  3.525678e-01    1.803742e+00   4.449996e-02
  3.547782e-01    1.754526e+00   4.373008e-02
  3.569887e-01    1.744153e+00   4.344609e-02
  3.591992e-01    1.752475e+00   4.339554e-02
  3.614096e-01    1.736253e+00   4.304446e-02
  3.636201e-01    1.778916e+00   4.341697e-02
  3.658305e-01    1.789404e+00   4.339624e-02
  3.680410e-01    1.817788e+00   4.358864e-02
  3.702514e-01    1.796885e+00   4.319154e-02
  3.724619e-01    1.805135e+00   4.314318e-02
  3.746724e-01    1.787710e+00   4.279119e-02
  3.768828e-01    1.753232e+00   4.223394e-02
  3.790933e-01    1.778922e+00   4.240361e-02
  3.813037e-01    1.770348e+00   4.216291e-02
  3.835142e-01    1.778186e+00   4.211735e-02
  3.857246e-01    1.827108e+00   4.255464e-02
  3.879351e-01    1.777775e+00   4.184033e-02
  3.901455e-01    1.820304e+00   4.220305e-02
  3.923560e-01    1.812451e+00   4.197808e-02
  3.945665e-01    1.781872e+00   4.149045e-02
  3.967769e-01    1.811458e+00   4.170248e-02
  3.989874e-01    1.745960e+00   4.081377e-02
  4.011978e-01    1.789702e+00   4.119477e-02
  4.034083e-01    1.858733e+00   4.185285e-02
  4.056187e-01    1.778996e+00   4.081918e-02
  4.078292e-01    1.748294e+00   4.034295e-02
  4.100397e-01    1.779906e+00   4.058176e-02
  4.122501e-01    1.812581e+00   4.083003e-02
  4.144606e-01    1.795848e+00   4.052064e-02
  4.166710e-01    1.766525e+00   4.006893e-02
  4.188815e-01    1.809717e+00   4.043606e-02
  4.210919e-01    1.795057e+00   4.015391e-02
  4.233024e-01    1.758648e+00   3.962769e-02
  4.255128e-01    1.817544e+00   4.016932e-02
  4.277233e-01    1.844230e+00   4.034689e-02
  4.299338e-01    1.809201e+00   3.984691e-02
  4.321442e-01    1.757239e+00   3.915814e-02
  4.343547e-01    1.778638e+00   3.928443e-02
  4.365651e-01    1.765443e+00   3.902726e-02
  4.387756e-01    1.736229e+00   3.859464e-02
  4.409860e-01    1.759300e+00   3.874256e-02
  4.431965e-01    1.746674e+00   3.849656e-02
  4.454070e-01    1.738340e+00   3.829777e-02
  4.476174e-01    1.728618e+00   3.808566e-02
  4.498279e-01    1.742242e+00   3.813142e-02
  4.520383e-01    1.734450e+00   3.794164e-02
  4.542488e-01    1.718859e+00   3.766889e-02
  4.564592e-01    1.726413e+00   3.765029e-02
  4.586697e-01    1.676525e+00   3.700384e-02
  4.608801e-01    1.683899e+00   3.698578e-02
  4.630906e-01    1.732591e+00   3.741737e-02
  4.653011e-01    1.711380e+00   3.708985e-02
  4.675115e-01    1.671522e+00   3.655885e-02
  4.697220e-01    1.668104e+00   3.642585e-02
  4.719324e-01    1.687034e+00   3.653718e-02
  4.741429e-01    1.709515e+00   3.668506e-02
  4.763533e-01    1.669379e+00   3.615892e-02
  4.785638e-01    1.697011e+00   3.636276e-02
  4.807743e-01    1.719917e+00   3.651426e-02
  4.829847e-01    1.711822e+00   3.633618e-02
  4.851952e-01    1.711469e+00   3.624052e-02
  4.874056e-01    1.700750e+00   3.603574e-02
  4.896161e-01    1.745968e+00   3.642110e-02
  4.918265e-01    1.689416e+00   3.573745e-02
  4.940370e-01    1.705290e+00   3.581629e-02
  4.962475e-01    1.755047e+00   3.624533e-02
  4.984579e-01    1.733273e+00   3.593104e-02
  5.006684e-01    1.694186e+00   3.543695e-02
  5.028788e-01    1.730023e+00   3.572303e-02
  5.050893e-01    1.710235e+00   3.543177e-02
  5.072997e-01    1.648843e+00   3.470599e-02
  5.095102e-01    1.611392e+00   3.422739e-02
  5.117206e-01    1.656696e+00   3.462267e-02
  5.139311e-01    1.710866e+00   3.510090e-02
  5.161416e-01    1.712708e+00   3.503679e-02
  5.183520e-01    1.719507e+00   3.502285e-02
  5.205625e-01    1.643521e+00   3.416006e-02
  5.227729e-01    1.644251e+00   3.408794e-02
  5.249834e-01    1.682983e+00   3.440702e-02
  5.271938e-01    1.739810e+00   3.490148e-02
  5.294043e-01    1.703773e+00   3.445841e-02
  5.316148e-01    1.712031e+00   3.446271e-02
  5.338252e-01    1.737745e+00   3.464119e-02
  5.360357e-01    1.717776e+00   3.436321e-02
  5.382461e-01    1.696672e+00   3.407423e-02
  5.404566e-01    1.765391e+00   3.467833e-02
  5.426670e-01    1.770643e+00   3.465163e-02
  5.448775e-01    1.726934e+00   3.414482e-02
  5.470879e-01    1.741698e+00   3.421398e-02
  5.492984e-01    1.762313e+00   3.433933e-02
  5.515089e-01    1.787759e+00   3.450966e-02
  5.537193e-01    1.734077e+00   3.391273e-02
  5.559298e-01    1.746580e+00   3.396008e-02
  5.581402e-01    1.777688e+00   3.418632e-02
  5.603507e-01    1.768049e+00   3.401932e-02
  5.625611e-01    1.777216e+00   3.403338e-02
  5.647716e-01    1.748636e+00   3.368532e-02
  5.669821e-01    1.778695e+00   3.390038e-02
  5.691925e-01    1.727815e+00   3.334029e-02
  5.714030e-01    1.737383e+00   3.336116e-02
  5.736134e-01    1.769143e+00   3.359313e-02
  5.758239e-01    1.721204e+00   3.306414e-02
  5.780343e-01    1.724864e+00   3.302925e-02
  5.802448e-01    1.681367e+00   3.254188e-02
  5.824552e-01    1.666838e+00   3.233298e-02
  5.846657e-01    1.606518e+00   3.167639e-02
  5.868762e-01    1.613438e+00   3.167843e-02
  5.890866e-01    1.647856e+00   3.194812e-02
  5.912971e-01    1.638887e+00   3.179510e-02
  5.935075e-01    1.642291e+00   3.176230e-02
  5.957180e-01    1.676291e+00   3.202359e-02
  5.979284e-01    1.615314e+00   3.137157e-02
  6.001389e-01    1.586775e+00   3.102988e-02
  6.023494e-01    1.608232e+00   3.117554e-02
  6.045598e-01    1.620445e+00   3.122997e-02
  6.067703e-01    1.651012e+00   3.145977e-02
  6.089807e-01    1.636106e+00   3.125446e-02
  6.111912e-01    1.695894e+00   3.175686e-02
  6.134016e-01    1.715362e+00   3.187492e-02
  6.156121e-01    1.671369e+00   3.140100e-02
  6.178226e-01    1.664398e+00   3.127338e-02
  6.200330e-01    1.730940e+00   3.182951e-02
  6.222435e-01    1.687376e+00   3.136416e-02
  6.244539e-01    1.674351e+00   3.118170e-02
  6.266644e-01    1.689060e+00   3.125726e-02
  6.288748e-01    1.717462e+00   3.145763e-02
  6.310853e-01    1.703651e+00   3.127006e-02
  6.332957e-01    1.752450e+00   3.165350e-02
  6.355062e-01    1.753402e+00   3.160061e-02
  6.377167e-01    1.725582e+00   3.128875e-02
  6.399271e-01    1.739301e+00   3.135269e-02
  6.421376e-01    1.725412e+00   3.116765e-02
  6.443480e-01    1.711838e+00   3.098578e-02
  6.465585e-01    1.675321e+00   3.059541e-02
  6.487689e-01    1.717007e+00   3.091522e-02
  6.509794e-01    1.691972e+00   3.063114e-02
  6.531899e-01    1.660535e+00   3.028819e-02
  6.554003e-01    1.619289e+00   2.985342e-02
  6.576108e-01    1.625969e+00   2.985922e-02
  6.598212e-01    1.624963e+00   2.979453e-02
  6.620317e-01    1.607877e+00   2.958253e-02
  6.642421e-01    1.611358e+00   2.955976e-02
  6.664526e-01    1.584123e+00   2.925489e-02
  6.686630e-01    1.555152e+00   2.893254e-02
  6.708735e-01    1.571743e+00   2.903312e-02
  6.730840e-01    1.574281e+00   2.900356e-02
  6.752944e-01    1.609778e+00   2.927540e-02
  6.775049e-01    1.594783e+00   2.908582e-02
  6.797153e-01    1.607147e+00   2.914547e-02
  6.819258e-01    1.582652e+00   2.887036e-02
  6.841362e-01    1.587979e+00   2.886690e-02
  6.863467e-01    1.587403e+00   2.880997e-02
  6.885572e-01    1.577373e+00   2.866735e-02
  6.907676e-01    1.567437e+00   2.852571e-02
  6.929781e-01    1.537269e+00   2.819965e-02
  6.951885e-01    1.582460e+00   2.856045e-02
  6.973990e-01    1.589502e+00   2.857333e-02
  6.996094e-01    1.609377e+00   2.870082e-02
  7.018199e-01    1.633076e+00   2.886064e-02
  7.040303e-01    1.589312e+00   2.842130e-02
  7.062408e-01    1.604936e+00   2.851060e-02
  7.084513e-01    1.615168e+00   2.855161e-02
  7.106617e-01    1.616508e+00   2.851381e-02
  7.128722e-01    1.613026e+00   2.843381e-02
  7.150826e-01    1.588229e+00   2.816579e-02
  7.172931e-01    1.568746e+00   2.794423e-02
  7.195035e-01    1.538835e+00   2.762897e-02
  7.217140e-01    1.543048e+00   2.771571e-02
  7.239245e-01    1.550828e+00   2.801051e-02
  7.261349e-01    1.562695e+00   2.822566e-02
  7.283454e-01    1.577511e+00   2.843163e-02
  7.305558e-01    1.535189e+00   2.810098e-02
  7.327663e-01    1.510490e+00   2.791560e-02
  7.349767e-01    1.575792e+00   2.852904e-02
  7.371872e-01    1.531509e+00   2.811430e-02
  7.393976e-01    1.542682e+00   2.820255e-02
  7.416081e-01    1.562077e+00   2.836317e-02
  7.438186e-01    1.565644e+00   2.825163e-02
  7.460290e-01    1.573173e+00   2.802538e-02
  7.482395e-01    1.519374e+00   2.737389e-02
  7.504499e-01    1.492702e+00   2.699984e-02
  7.526604e-01    1.534684e+00   2.726183e-02
  7.548708e-01    1.551495e+00   2.732199e-02
  7.570813e-01    1.564919e+00   2.738913e-02
  7.592918e-01    1.525730e+00   2.700938e-02
  7.615022e-01    1.552359e+00   2.721049e-02
  7.637127e-01    1.567736e+00   2.731223e-02
  7.659231e-01    1.546395e+00   2.709399e-02
  7.681336e-01    1.569601e+00   2.726496e-02
  7.703440e-01    1.532977e+00   2.691421e-02
  7.725545e-01    1.526051e+00   2.682290e-02
  7.747650e-01    1.569846e+00   2.716695e-02
  7.769754e-01    1.560975e+00   2.703761e-02
  7.791859e-01    1.550226e+00   2.689131e-02
  7.813963e-01    1.565099e+00   2.696763e-02
  7.836068e-01    1.574625e+00   2.699776e-02
  7.858172e-01    1.574359e+00   2.694498e-02
  7.880277e-01    1.590988e+00   2.703541e-02
  7.902381e-01    1.559721e+00   2.671980e-02
  7.924486e-01    1.544047e+00   2.653595e-02
  7.946591e-01    1.605172e+00   2.700771e-02
  7.968695e-01    1.615105e+00   2.704270e-02
  7.990800e-01    1.626856e+00   2.709237e-02
  8.012904e-01    1.638590e+00   2.714289e-02
  8.035009e-01    1.672971e+00   2.737734e-02
  8.057113e-01    1.736856e+00   2.784694e-02
  8.079218e-01    1.732349e+00   2.776280e-02
  8.101323e-01    1.674470e+00   2.724875e-02
  8.123427e-01    1.695332e+00   2.737118e-02
  8.145532e-01    1.716693e+00   2.749599e-02
  8.167636e-01    1.687489e+00   2.721525e-02
  8.189741e-01    1.729812e+00   2.750848e-02
  8.211845e-01    1.756449e+00   2.767302e-02
  8.233950e-01    1.721641e+00   2.735292e-02
  8.256054e-01    1.637675e+00   2.663335e-02
  8.278159e-01    1.624222e+00   2.647992e-02
  8.300264e-01    1.647011e+00   2.662184e-02
  8.322368e-01    1.633545e+00   2.646974e-02
  8.344473e-01    1.627287e+00   2.637576e-02
  8.366577e-01    1.633932e+00   2.638705e-02
  8.388682e-01    1.601482e+00   2.608195e-02
  8.410786e-01    1.636081e+00   2.632016e-02
  8.432891e-01    1.657746e+00   2.645178e-02
  8.454996e-01    1.610607e+00   2.603173e-02
  8.477100e-01    1.613510e+00   2.601380e-02
  8.499205e-01    1.615390e+00   2.598809e-02
  8.521309e-01    1.622994e+00   2.600856e-02
  8.543414e-01    1.635687e+00   2.606933e-02
  8.565518e-01    1.626224e+00   2.595336e-02
  8.587623e-01    1.581254e+00   2.555213e-02
  8.609727e-01    1.597714e+00   2.564497e-02
  8.631832e-01    1.581610e+00   2.547605e-02
  8.653937e-01    1.563554e+00   2.529129e-02
  8.676041e-01    1.575595e+00   2.535017e-02
  8.698146e-01    1.582871e+00   2.536981e-02
  8.720250e-01    1.588685e+00   2.537761e-02
  8.742355e-01    1.580200e+00   2.527124e-02
  8.764459e-01    1.572794e+00   2.517348e-02
  8.786564e-01    1.593338e+00   2.529958e-02
  8.808669e-01    1.602122e+00   2.533076e-02
  8.830773e-01    1.609869e+00   2.535370e-02
  8.852878e-01    1.583558e+00   2.510799e-02
  8.874982e-01    1.562228e+00   2.490209e-02
  8.897087e-01    1.609055e+00   2.523478e-02
  8.919191e-01    1.611691e+00   2.521756e-02
  8.941296e-01    1.597384e+00   2.506813e-02
  8.963401e-01    1.605728e+00   2.509703e-02
  8.985505e-01    1.598487e+00   2.500344e-02
  9.007610e-01    1.579159e+00   2.481530e-02
  9.029714e-01    1.619639e+00   2.509530e-02
  9.051819e-01    1.577245e+00   2.472774e-02
  9.073923e-01    1.550953e+00   2.448475e-02
  9.096028e-01    1.550362e+00   2.444573e-02
  9.118132e-01    1.550589e+00   2.441184e-02
  9.140237e-01    1.575135e+00   2.456797e-02
  9.162342e-01    1.588297e+00   2.463597e-02
  9.184446e-01    1.611931e+00   2.478269e-02
  9.206551e-01    1.588201e+00   2.456415e-02
  9.228655e-01    1.592127e+00   2.455933e-02
  9.250760e-01    1.604851e+00   2.462188e-02
  9.272864e-01    1.615677e+00   2.467039e-02
  9.294969e-01    1.612597e+00   2.461096e-02
  9.317074e-01    1.615202e+00   2.459600e-02
  9.339178e-01    1.650397e+00   2.482859e-02
  9.361283e-01    1.649047e+00   2.478185e-02
  9.383387e-01    1.645620e+00   2.472241e-02
  9.405492e-01    1.663816e+00   2.482400e-02
  9.427596e-01    1.649188e+00   2.467906e-02
  9.449701e-01    1.664917e+00   2.476276e-02
  9.471805e-01    1.657347e+00   2.467142e-02
  9.493910e-01    1.646052e+00   2.455346e-02
  9.516015e-01    1.681745e+00   2.478357e-02
  9.538119e-01    1.699156e+00   2.487742e-02
  9.560224e-01    1.708093e+00   2.490764e-02
  9.582328e-01    1.685317e+00   2.470784e-02
  9.604433e-01    1.695836e+00   2.474971e-02
  9.626537e-01    1.724959e+00   2.492778e-02
  9.648642e-01    1.743589e+00   2.502768e-02
  9.670747e-01    1.736892e+00   2.494515e-02
  9.692851e-01    1.738103e+00   2.492066e-02
  9.714956e-01    1.790663e+00   2.525899e-02
  9.737060e-01    1.790236e+00   2.522281e-02
  9.759165e-01    1.800284e+00   2.525780e-02
  9.781269e-01    1.811985e+00   2.530663e-02
  9.803374e-01    1.793599e+00   2.514307e-02
  9.825478e-01    1.794985e+00   2.511963e-02
  9.847583e-01    1.756149e+00   2.481265e-02
  9.869688e-01    1.727475e+00   2.457631e-02
  9.891792e-01    1.751415e+00   2.471313e-02
  9.913897e-01    1.752190e+00   2.468524e-02
  9.936001e-01    1.759114e+00   2.470158e-02
  9.958106e-01    1.706339e+00   2.429519e-02
  9.980210e-01    1.647795e+00   2.384375e-02
  1.000231e+00    1.652724e+00   2.401021e-02
  1.002442e+00    1.612299e+00   2.384076e-02
  1.004652e+00    1.605152e+00   2.385422e-02
  1.006863e+00    1.598912e+00   2.385720e-02
  1.009073e+00    1.579353e+00   2.374713e-02
  1.011284e+00    1.592894e+00   2.388058e-02
  1.013494e+00    1.568805e+00   2.372286e-02
  1.015705e+00    1.517058e+00   2.335036e-02
  1.017915e+00    1.517064e+00   2.336648e-02
  1.020126e+00    1.553883e+00   2.366432e-02
  1.022336e+00    1.542959e+00   2.359262e-02
  1.024547e+00    1.530251e+00   2.350641e-02
  1.026757e+00    1.522844e+00   2.345775e-02
  1.028967e+00    1.517125e+00   2.342127e-02
  1.031178e+00    1.488534e+00   2.320561e-02
  1.033388e+00    1.470369e+00   2.306852e-02
  1.035599e+00    1.481128e+00   2.315614e-02
  1.037809e+00    1.485774e+00   2.319564e-02
  1.040020e+00    1.493365e+00   2.325607e-02
  1.042230e+00    1.492384e+00   2.325037e-02
  1.044441e+00    1.462393e+00   2.301536e-02
  1.046651e+00    1.478775e+00   2.314404e-02
  1.048862e+00    1.482014e+00   2.316862e-02
  1.051072e+00    1.481776e+00   2.316441e-02
  1.053282e+00    1.469282e+00   2.306560e-02
  1.055493e+00    1.484283e+00   2.317877e-02
  1.057703e+00    1.463446e+00   2.301399e-02
  1.059914e+00    1.471972e+00   2.307670e-02
  1.062124e+00    1.447872e+00   2.288301e-02
  1.064335e+00    1.422689e+00   2.267977e-02
  1.066545e+00    1.444018e+00   2.284322e-02
  1.068756e+00    1.435914e+00   2.277537e-02
  1.070966e+00    1.417478e+00   2.262227e-02
  1.073177e+00    1.427131e+00   2.269320e-02
  1.075387e+00    1.433084e+00   2.273533e-02
  1.077597e+00    1.421309e+00   2.263462e-02
  1.079808e+00    1.398640e+00   2.232362e-02
  1.082018e+00    1.395054e+00   2.211037e-02
  1.084229e+00    1.419134e+00   2.219188e-02
  1.086439e+00    1.402153e+00   2.197290e-02
  1.088650e+00    1.390577e+00   2.180800e-02
  1.090860e+00    1.445293e+00   2.216549e-02
  1.093071e+00    1.422516e+00   2.192858e-02
  1.095281e+00    1.412288e+00   2.179301e-02
  1.097492e+00    1.421089e+00   2.180637e-02
  1.099702e+00    1.403757e+00   2.162224e-02
  1.101912e+00    1.418409e+00   2.168631e-02
  1.104123e+00    1.465026e+00   2.199106e-02
  1.106333e+00    1.424801e+00   2.164281e-02
  1.108544e+00    1.380188e+00   2.125777e-02
  1.110754e+00    1.390898e+00   2.129760e-02
  1.112965e+00    1.376166e+00   2.114463e-02
  1.115175e+00    1.402439e+00   2.130460e-02
  1.117386e+00    1.450620e+00   2.162769e-02
  1.119596e+00    1.503530e+00   2.197953e-02
  1.121807e+00    1.474846e+00   2.172918e-02
  1.124017e+00    1.439863e+00   2.143285e-02
  1.126228e+00    1.404760e+00   2.113422e-02
  1.128438e+00    1.394322e+00   2.101886e-02
  1.130648e+00    1.407163e+00   2.108100e-02
  1.132859e+00    1.489611e+00   2.165429e-02
  1.135069e+00    1.651375e+00   2.276193e-02
  1.137280e+00    1.673408e+00   2.287716e-02
  1.139490e+00    1.521278e+00   2.177788e-02
  1.141701e+00    1.459738e+00   2.129882e-02
  1.143911e+00    1.430234e+00   2.105007e-02
  1.146122e+00    1.393280e+00   2.074420e-02
  1.148332e+00    1.390912e+00   2.069453e-02
  1.150543e+00    1.410877e+00   2.081134e-02
  1.152753e+00    1.428431e+00   2.090896e-02
  1.154963e+00    1.418118e+00   2.080182e-02
  1.157174e+00    1.447105e+00   2.098236e-02
  1.159384e+00    1.467010e+00   2.109532e-02
  1.161595e+00    1.479677e+00   2.115520e-02
  1.163805e+00    1.451476e+00   2.092249e-02
  1.166016e+00    1.447699e+00   2.086497e-02
  1.168226e+00    1.478741e+00   2.105734e-02
  1.170437e+00    1.538692e+00   2.144958e-02
  1.172647e+00    1.541141e+00   2.143597e-02
  1.174858e+00    1.518927e+00   2.125128e-02
  1.177068e+00    1.446486e+00   2.070922e-02
  1.179278e+00    1.417282e+00   2.046995e-02
  1.181489e+00    1.376181e+00   2.014375e-02
  1.183699e+00    1.391557e+00   2.022809e-02
  1.185910e+00    1.372575e+00   2.006171e-02
  1.188120e+00    1.395304e+00   2.020008e-02
  1.190331e+00    1.377758e+00   2.004569e-02
  1.192541e+00    1.368227e+00   1.994871e-02
  1.194752e+00    1.365644e+00   1.990270e-02
  1.196962e+00    1.349425e+00   1.975843e-02
  1.199173e+00    1.355455e+00   1.977598e-02
  1.201383e+00    1.349155e+00   1.970280e-02
  1.203593e+00    1.385928e+00   1.994437e-02
  1.205804e+00    1.375461e+00   1.984277e-02
  1.208014e+00    1.369304e+00   1.977125e-02
  1.210225e+00    1.359793e+00   1.967706e-02
  1.212435e+00    1.334485e+00   1.946843e-02
  1.214646e+00    1.345877e+00   1.952529e-02
  1.216856e+00    1.353727e+00   1.955663e-02
  1.219067e+00    1.349026e+00   1.949820e-02
  1.221277e+00    1.334087e+00   1.936506e-02
  1.223488e+00    1.335412e+00   1.934905e-02
  1.225698e+00    1.313838e+00   1.916561e-02
  1.227909e+00    1.326284e+00   1.922624e-02
  1.230119e+00    1.337562e+00   1.927611e-02
  1.232329e+00    1.364668e+00   1.943957e-02
  1.234540e+00    1.323372e+00   1.911321e-02
  1.236750e+00    1.319469e+00   1.905506e-02
  1.238961e+00    1.332870e+00   1.912478e-02
  1.241171e+00    1.352397e+00   1.924016e-02
  1.243382e+00    1.371607e+00   1.935265e-02
  1.245592e+00    1.342334e+00   1.912098e-02
  1.247803e+00    1.337190e+00   1.906077e-02
  1.250013e+00    1.338430e+00   1.904616e-02
  1.252224e+00    1.328327e+00   1.895108e-02
  1.254434e+00    1.313965e+00   1.882493e-02
  1.256644e+00    1.317161e+00   1.882487e-02
  1.258855e+00    1.311339e+00   1.876030e-02
  1.261065e+00    1.335187e+00   1.890687e-02
  1.263276e+00    1.338659e+00   1.890860e-02
  1.265486e+00    1.330643e+00   1.882918e-02
  1.267697e+00    1.328794e+00   1.879328e-02
  1.269907e+00    1.302946e+00   1.858728e-02
  1.272118e+00    1.318980e+00   1.867899e-02
  1.274328e+00    1.318264e+00   1.865145e-02
  1.276539e+00    1.327880e+00   1.869676e-02
  1.278749e+00    1.340406e+00   1.876252e-02
  1.280959e+00    1.362276e+00   1.889233e-02
  1.283170e+00    1.326852e+00   1.862286e-02
  1.285380e+00    1.324590e+00   1.858472e-02
  1.287591e+00    1.321304e+00   1.853986e-02
  1.289801e+00    1.332109e+00   1.859442e-02
  1.292012e+00    1.355770e+00   1.874170e-02
  1.294222e+00    1.346300e+00   1.865993e-02
  1.296433e+00    1.338192e+00   1.858811e-02
  1.298643e+00    1.370209e+00   1.879256e-02
  1.300854e+00    1.358018e+00   1.869233e-02
  1.303064e+00    1.351130e+00   1.862563e-02
  1.305274e+00    1.357531e+00   1.864820e-02
  1.307485e+00    1.366442e+00   1.868762e-02
  1.309695e+00    1.392048e+00   1.883933e-02
  1.311906e+00    1.369855e+00   1.866669e-02
  1.314116e+00    1.340491e+00   1.844481e-02
  1.316327e+00    1.335142e+00   1.838639e-02
  1.318537e+00    1.338641e+00   1.838869e-02
  1.320748e+00    1.341326e+00   1.838562e-02
  1.322958e+00    1.346463e+00   1.840032e-02
  1.325169e+00    1.360759e+00   1.847662e-02
  1.327379e+00    1.369766e+00   1.851572e-02
  1.329589e+00    1.351062e+00   1.836779e-02
  1.331800e+00    1.345109e+00   1.830663e-02
  1.334010e+00    1.332372e+00   1.819922e-02
  1.336221e+00    1.350963e+00   1.830398e-02
  1.338431e+00    1.358985e+00   1.833733e-02
  1.340642e+00    1.361148e+00   1.841635e-02
  1.342852e+00    1.327301e+00   1.828574e-02
  1.345063e+00    1.349826e+00   1.848972e-02
  1.347273e+00    1.344565e+00   1.848884e-02
  1.349484e+00    1.346524e+00   1.852994e-02
  1.351694e+00    1.318345e+00   1.835747e-02
  1.353905e+00    1.334243e+00   1.848571e-02
  1.356115e+00    1.313342e+00   1.835520e-02
  1.358325e+00    1.329299e+00   1.847956e-02
  1.360536e+00    1.327117e+00   1.847594e-02
  1.362746e+00    1.311309e+00   1.837499e-02
  1.364957e+00    1.313422e+00   1.839735e-02
  1.367167e+00    1.323356e+00   1.847387e-02
  1.369378e+00    1.311918e+00   1.839982e-02
  1.371588e+00    1.290622e+00   1.825489e-02
  1.373799e+00    1.313313e+00   1.841829e-02
  1.376009e+00    1.314988e+00   1.843341e-02
  1.378220e+00    1.315244e+00   1.843771e-02
  1.380430e+00    1.308736e+00   1.839473e-02
  1.382640e+00    1.301121e+00   1.834204e-02
  1.384851e+00    1.284669e+00   1.822655e-02
  1.387061e+00    1.282880e+00   1.821417e-02
  1.389272e+00    1.284342e+00   1.822472e-02
  1.391482e+00    1.331877e+00   1.855825e-02
  1.393693e+00    1.309000e+00   1.839730e-02
  1.395903e+00    1.303017e+00   1.835370e-02
  1.398114e+00    1.289428e+00   1.825637e-02
  1.400324e+00    1.268655e+00   1.810660e-02
  1.402535e+00    1.250309e+00   1.797290e-02
  1.404745e+00    1.261793e+00   1.805289e-02
  1.406955e+00    1.270599e+00   1.811309e-02
  1.409166e+00    1.257658e+00   1.801734e-02
  1.411376e+00    1.249467e+00   1.795546e-02
  1.413587e+00    1.273430e+00   1.812301e-02
  1.415797e+00    1.272391e+00   1.811207e-02
  1.418008e+00    1.285051e+00   1.815984e-02
  1.420218e+00    1.266781e+00   1.788075e-02
  1.422429e+00    1.240177e+00   1.760769e-02
  1.424639e+00    1.249579e+00   1.761013e-02
  1.426850e+00    1.274288e+00   1.772859e-02
  1.429060e+00    1.279882e+00   1.771831e-02
  1.431270e+00    1.281974e+00   1.768824e-02
  1.433481e+00    1.287282e+00   1.768360e-02
  1.435691e+00    1.285133e+00   1.763018e-02
  1.437902e+00    1.276329e+00   1.753313e-02
  1.440112e+00    1.282294e+00   1.753854e-02
  1.442323e+00    1.305430e+00   1.766253e-02
  1.444533e+00    1.358655e+00   1.798535e-02
  1.446744e+00    1.298768e+00   1.755304e-02
  1.448954e+00    1.263097e+00   1.728020e-02
  1.451165e+00    1.243598e+00   1.711684e-02
  1.453375e+00    1.259167e+00   1.719572e-02
  1.455586e+00    1.257719e+00   1.715782e-02
  1.457796e+00    1.258052e+00   1.713271e-02
  1.460006e+00    1.241270e+00   1.699111e-02
  1.462217e+00    1.240586e+00   1.696049e-02
  1.464427e+00    1.270342e+00   1.713709e-02
  1.466638e+00    1.261959e+00   1.705518e-02
  1.468848e+00    1.287115e+00   1.719884e-02
  1.471059e+00    1.262207e+00   1.700660e-02
  1.473269e+00    1.268209e+00   1.702261e-02
  1.475480e+00    1.260427e+00   1.694662e-02
  1.477690e+00    1.244118e+00   1.681302e-02
  1.479901e+00    1.248530e+00   1.681913e-02
  1.482111e+00    1.264977e+00   1.690625e-02
  1.484321e+00    1.273245e+00   1.693824e-02
  1.486532e+00    1.283625e+00   1.698466e-02
  1.488742e+00    1.265533e+00   1.684189e-02
  1.490953e+00    1.276316e+00   1.689078e-02
  1.493163e+00    1.258447e+00   1.674989e-02
  1.495374e+00    1.238231e+00   1.659353e-02
  1.497584e+00    1.215267e+00   1.641769e-02
  1.499795e+00    1.206133e+00   1.633469e-02
  1.502005e+00    1.242008e+00   1.655430e-02
  1.504216e+00    1.249959e+00   1.658626e-02
  1.506426e+00    1.217446e+00   1.634865e-02
  1.508636e+00    1.254297e+00   1.657378e-02
  1.510847e+00    1.273517e+00   1.667836e-02
  1.513057e+00    1.225769e+00   1.633791e-02
  1.515268e+00    1.235600e+00   1.637776e-02
  1.517478e+00    1.269409e+00   1.657502e-02
  1.519689e+00    1.261060e+00   1.649541e-02
  1.521899e+00    1.256817e+00   1.644449e-02
  1.524110e+00    1.252462e+00   1.639562e-02
  1.526320e+00    1.269238e+00   1.648538e-02
  1.528531e+00    1.240052e+00   1.627505e-02
  1.530741e+00    1.241013e+00   1.626227e-02
  1.532951e+00    1.218662e+00   1.609584e-02
  1.535162e+00    1.208622e+00   1.611454e-02
  1.537372e+00    1.231447e+00   1.633243e-02
  1.539583e+00    1.235407e+00   1.639273e-02
  1.541793e+00    1.215092e+00   1.626424e-02
  1.544004e+00    1.226224e+00   1.633884e-02
  1.546214e+00    1.225875e+00   1.633501e-02
  1.548425e+00    1.242373e+00   1.644483e-02
  1.550635e+00    1.219030e+00   1.629918e-02
  1.552846e+00    1.239555e+00   1.644546e-02
  1.555056e+00    1.220973e+00   1.628065e-02
  1.557266e+00    1.217258e+00   1.614663e-02
  1.559477e+00    1.213620e+00   1.606409e-02
  1.561687e+00    1.220970e+00   1.608228e-02
  1.563898e+00    1.228794e+00   1.611669e-02
  1.566108e+00    1.237334e+00   1.615665e-02
  1.568319e+00    1.250101e+00   1.622417e-02
  1.570529e+00    1.247232e+00   1.618037e-02
  1.572740e+00    1.228511e+00   1.603105e-02
  1.574950e+00    1.217558e+00   1.593339e-02
  1.577161e+00    1.234816e+00   1.602053e-02
  1.579371e+00    1.246078e+00   1.606975e-02
  1.581582e+00    1.229901e+00   1.594544e-02
  1.583792e+00    1.217688e+00   1.584825e-02
  1.586002e+00    1.212257e+00   1.579547e-02
  1.588213e+00    1.233716e+00   1.591750e-02
  1.590423e+00    1.223449e+00   1.583122e-02
  1.592634e+00    1.235428e+00   1.588698e-02
  1.594844e+00    1.238902e+00   1.588796e-02
  1.597055e+00    1.222430e+00   1.576165e-02
  1.599265e+00    1.230838e+00   1.579513e-02
  1.601476e+00    1.218798e+00   1.569756e-02
  1.603686e+00    1.207060e+00   1.560229e-02
  1.605897e+00    1.235075e+00   1.576217e-02
  1.608107e+00    1.215296e+00   1.561609e-02
  1.610317e+00    1.206145e+00   1.553811e-02
  1.612528e+00    1.212124e+00   1.555758e-02
  1.614738e+00    1.214352e+00   1.555305e-02
  1.616949e+00    1.214377e+00   1.553433e-02
  1.619159e+00    1.192273e+00   1.537383e-02
  1.621370e+00    1.163250e+00   1.516752e-02
  1.623580e+00    1.183151e+00   1.527859e-02
  1.625791e+00    1.182310e+00   1.525513e-02
  1.628001e+00    1.160810e+00   1.509783e-02
  1.630212e+00    1.164187e+00   1.510224e-02
  1.632422e+00    1.154803e+00   1.502360e-02
  1.634632e+00    1.169399e+00   1.510102e-02
  1.636843e+00    1.149569e+00   1.495513e-02
  1.639053e+00    1.126667e+00   1.478845e-02
  1.641264e+00    1.135538e+00   1.482971e-02
  1.643474e+00    1.123605e+00   1.473450e-02
  1.645685e+00    1.112185e+00   1.464309e-02
  1.647895e+00    1.119308e+00   1.467357e-02
  1.650106e+00    1.126656e+00   1.470484e-02
  1.652316e+00    1.105844e+00   1.455221e-02
  1.654527e+00    1.101670e+00   1.450836e-02
  1.656737e+00    1.102792e+00   1.449942e-02
  1.658947e+00    1.125184e+00   1.462964e-02
  1.661158e+00    1.114234e+00   1.454214e-02
  1.663368e+00    1.121519e+00   1.457356e-02
  1.665579e+00    1.097687e+00   1.440193e-02
  1.667789e+00    1.080825e+00   1.427488e-02
  1.670000e+00    1.086936e+00   1.429988e-02
  1.672210e+00    1.086729e+00   1.428281e-02
  1.674421e+00    1.067434e+00   1.414036e-02
  1.676631e+00    1.073426e+00   1.416435e-02
  1.678842e+00    1.056621e+00   1.403755e-02
  1.681052e+00    1.062967e+00   1.406448e-02
  1.683263e+00    1.067627e+00   1.408029e-02
  1.685473e+00    1.057702e+00   1.399974e-02
  1.687683e+00    1.048818e+00   1.392565e-02
  1.689894e+00    1.022616e+00   1.373526e-02
  1.692104e+00    1.035169e+00   1.380467e-02
  1.694315e+00    1.054991e+00   1.392182e-02
  1.696525e+00    1.033674e+00   1.376558e-02
  1.698736e+00    1.035877e+00   1.376560e-02
  1.700946e+00    1.036513e+00   1.375487e-02
  1.703157e+00    1.010919e+00   1.356967e-02
  1.705367e+00    1.034626e+00   1.371347e-02
  1.707578e+00    1.074578e+00   1.396100e-02
  1.709788e+00    1.055729e+00   1.382384e-02
  1.711998e+00    1.070945e+00   1.390788e-02
  1.714209e+00    1.016459e+00   1.353522e-02
  1.716419e+00    9.965848e-01   1.338821e-02
  1.718630e+00    1.012048e+00   1.347754e-02
  1.720840e+00    1.025787e+00   1.355456e-02
  1.723051e+00    1.019563e+00   1.349953e-02
  1.725261e+00    9.953530e-01   1.332382e-02
  1.727472e+00    9.880661e-01   1.326098e-02
  1.729682e+00    9.790965e-01   1.318744e-02
  1.731893e+00    9.804299e-01   1.318273e-02
  1.734103e+00    1.003900e+00   1.332582e-02
  1.736313e+00    1.033674e+00   1.350779e-02
  1.738524e+00    1.009590e+00   1.333563e-02
  1.740734e+00    1.008900e+00   1.331729e-02
  1.742945e+00    1.021742e+00   1.338816e-02
  1.745155e+00    1.022331e+00   1.337836e-02
  1.747366e+00    9.967597e-01   1.319614e-02
  1.749576e+00    9.967864e-01   1.318256e-02
  1.751787e+00    9.950647e-01   1.315773e-02
  1.753997e+00    1.019472e+00   1.330449e-02
  1.756208e+00    9.979303e-01   1.314983e-02
  1.758418e+00    9.809096e-01   1.302401e-02
  1.760628e+00    9.755533e-01   1.297502e-02
  1.762839e+00    9.514228e-01   1.280042e-02
  1.765049e+00    9.297654e-01   1.264100e-02
  1.767260e+00    9.263608e-01   1.260523e-02
  1.769470e+00    9.475757e-01   1.273583e-02
  1.771681e+00    9.352088e-01   1.263942e-02
  1.773891e+00    9.318743e-01   1.260395e-02
  1.776102e+00    9.305180e-01   1.258202e-02
  1.778312e+00    9.241549e-01   1.252632e-02
  1.780523e+00    9.442747e-01   1.264920e-02
  1.782733e+00    9.283297e-01   1.252933e-02
  1.784944e+00    9.553258e-01   1.269718e-02
  1.787154e+00    9.402745e-01   1.258420e-02
  1.789364e+00    9.128559e-01   1.238698e-02
  1.791575e+00    8.933190e-01   1.224142e-02
  1.793785e+00    8.830839e-01   1.215894e-02
  1.795996e+00    8.900905e-01   1.219478e-02
  1.798206e+00    8.931299e-01   1.220323e-02
  1.800417e+00    8.989865e-01   1.223063e-02
  1.802627e+00    8.972726e-01   1.220714e-02
  1.804838e+00    8.922639e-01   1.216105e-02
  1.807048e+00    8.861671e-01   1.210674e-02
  1.809259e+00    8.860604e-01   1.209259e-02
  1.811469e+00    8.721593e-01   1.198265e-02
  1.813679e+00    8.579649e-01   1.187014e-02
  1.815890e+00    8.595556e-01   1.186669e-02
  1.818100e+00    8.698469e-01   1.192266e-02
  1.820311e+00    8.624977e-01   1.185767e-02
  1.822521e+00    8.761102e-01   1.193615e-02
  1.824732e+00    8.704915e-01   1.188317e-02
  1.826942e+00    8.786955e-01   1.192676e-02
  1.829153e+00    8.570033e-01   1.176713e-02
  1.831363e+00    8.486741e-01   1.169799e-02
  1.833574e+00    8.718556e-01   1.184507e-02
  1.835784e+00    8.617860e-01   1.176517e-02
  1.837994e+00    8.763444e-01   1.185240e-02
  1.840205e+00    8.907736e-01   1.193833e-02
  1.842415e+00    8.634582e-01   1.174215e-02
  1.844626e+00    8.697262e-01   1.177312e-02
  1.846836e+00    8.852382e-01   1.186612e-02
  1.849047e+00    8.612401e-01   1.169261e-02
  1.851257e+00    8.540910e-01   1.163444e-02
  1.853468e+00    8.552583e-01   1.163363e-02
  1.855678e+00    8.464267e-01   1.156461e-02
  1.857889e+00    8.379366e-01   1.149805e-02
  1.860099e+00    8.437247e-01   1.152914e-02
  1.862309e+00    8.552536e-01   1.159913e-02
  1.864520e+00    8.359240e-01   1.145884e-02
  1.866730e+00    8.398754e-01   1.147659e-02
  1.868941e+00    8.414990e-01   1.147680e-02
  1.871151e+00    8.336853e-01   1.141212e-02
  1.873362e+00    8.211809e-01   1.131507e-02
  1.875572e+00    8.178049e-01   1.128104e-02
  1.877783e+00    8.360413e-01   1.139479e-02
  1.879993e+00    8.649937e-01   1.157913e-02
  1.882204e+00    8.833104e-01   1.168994e-02
  1.884414e+00    8.915706e-01   1.173309e-02
  1.886624e+00    8.615029e-01   1.152239e-02
  1.888835e+00    8.364538e-01   1.134269e-02
  1.891045e+00    8.203613e-01   1.122229e-02
  1.893256e+00    8.193891e-01   1.120466e-02
  1.895466e+00    8.287084e-01   1.125710e-02
  1.897677e+00    8.103795e-01   1.112117e-02
  1.899887e+00    8.245935e-01   1.120733e-02
  1.902098e+00    8.455297e-01   1.133779e-02
  1.904308e+00    8.525628e-01   1.137413e-02
  1.906519e+00    8.446888e-01   1.131056e-02
  1.908729e+00    8.369434e-01   1.124791e-02
  1.910940e+00    8.313614e-01   1.119921e-02
  1.913150e+00    8.102746e-01   1.104576e-02
  1.915360e+00    8.179032e-01   1.108707e-02
  1.917571e+00    8.064658e-01   1.099851e-02
  1.919781e+00    7.954948e-01   1.091292e-02
  1.921992e+00    8.048920e-01   1.096667e-02
  1.924202e+00    8.028414e-01   1.094203e-02
  1.926413e+00    8.064578e-01   1.095640e-02
  1.928623e+00    8.149064e-01   1.100310e-02
  1.930834e+00    8.106551e-01   1.096395e-02
  1.933044e+00    7.900525e-01   1.081320e-02
  1.935255e+00    7.973031e-01   1.085246e-02
  1.937465e+00    7.922413e-01   1.080767e-02
  1.939675e+00    7.779654e-01   1.069918e-02
  1.941886e+00    7.959427e-01   1.081188e-02
  1.944096e+00    7.986038e-01   1.081978e-02
  1.946307e+00    7.998441e-01   1.081787e-02
  1.948517e+00    8.021975e-01   1.082330e-02
  1.950728e+00    8.047119e-01   1.082998e-02
  1.952938e+00    7.946055e-01   1.075169e-02
  1.955149e+00    7.622913e-01   1.052077e-02
  1.957359e+00    7.836524e-01   1.065720e-02
  1.959570e+00    7.784988e-01   1.061135e-02
  1.961780e+00    7.776595e-01   1.059580e-02
  1.963990e+00    7.868008e-01   1.064781e-02
  1.966201e+00    8.064131e-01   1.076953e-02
  1.968411e+00    8.135484e-01   1.080678e-02
  1.970622e+00    8.012209e-01   1.071442e-02
  1.972832e+00    7.822983e-01   1.057721e-02
  1.975043e+00    7.680209e-01   1.047029e-02
  1.977253e+00    7.765710e-01   1.051853e-02
  1.979464e+00    7.640283e-01   1.042333e-02
  1.981674e+00    7.633418e-01   1.040850e-02
  1.983885e+00    7.730148e-01   1.046429e-02
  1.986095e+00    7.726381e-01   1.045208e-02
  1.988305e+00    7.789220e-01   1.048461e-02
  1.990516e+00    7.662218e-01   1.038895e-02
  1.992726e+00    7.488832e-01   1.026124e-02
  1.994937e+00    7.694784e-01   1.039129e-02
  1.997147e+00    7.852791e-01   1.048765e-02
  1.999358e+00    7.674886e-01   1.035839e-02
  2.001568e+00    7.722504e-01   1.037964e-02
  2.003779e+00    7.774286e-01   1.040245e-02
  2.005989e+00    7.607865e-01   1.027856e-02
  2.008200e+00    7.580886e-01   1.024889e-02
  2.010410e+00    7.605056e-01   1.025353e-02
  2.012621e+00    7.532008e-01   1.019259e-02
  2.014831e+00    7.518057e-01   1.017178e-02
  2.017041e+00    7.422090e-01   1.009645e-02
  2.019252e+00    7.441170e-01   1.009958e-02
  2.021462e+00    7.711709e-01   1.027200e-02
  2.023673e+00    7.619677e-01   1.020115e-02
  2.025883e+00    7.519738e-01   1.012459e-02
  2.028094e+00    7.523594e-01   1.011759e-02
  2.030304e+00    7.669852e-01   1.020590e-02
  2.032515e+00    7.416537e-01   1.002678e-02
  2.034725e+00    7.550485e-01   1.010748e-02
  2.036936e+00    7.400041e-01   9.997073e-03
  2.039146e+00    7.460698e-01   1.002844e-02
  2.041356e+00    7.448429e-01   1.001063e-02
  2.043567e+00    7.516254e-01   1.004682e-02
  2.045777e+00    7.427639e-01   9.978266e-03
  2.047988e+00    7.306620e-01   9.887413e-03
  2.050198e+00    7.378793e-01   9.927781e-03
  2.052409e+00    7.245795e-01   9.830400e-03
  2.054619e+00    7.256348e-01   9.830299e-03
  2.056830e+00    7.309023e-01   9.858845e-03
  2.059040e+00    7.346356e-01   9.876558e-03
  2.061251e+00    7.358138e-01   9.877292e-03
  2.063461e+00    7.353280e-01   9.866521e-03
  2.065671e+00    7.355115e-01   9.859094e-03
  2.067882e+00    7.352835e-01   9.848653e-03
  2.070092e+00    7.346520e-01   9.835294e-03
  2.072303e+00    7.273030e-01   9.776978e-03
  2.074513e+00    7.312250e-01   9.794047e-03
  2.076724e+00    7.166722e-01   9.686841e-03
  2.078934e+00    7.181195e-01   9.687727e-03
  2.081145e+00    7.299002e-01   9.757902e-03
  2.083355e+00    7.160348e-01   9.655735e-03
  2.085566e+00    7.293916e-01   9.736556e-03
  2.087776e+00    7.290182e-01   9.724624e-03
  2.089986e+00    7.121729e-01   9.602995e-03
  2.092197e+00    7.082999e-01   9.568043e-03
  2.094407e+00    7.376217e-01   9.754862e-03
  2.096618e+00    7.295033e-01   9.692154e-03
  2.098828e+00    7.379456e-01   9.738766e-03
  2.101039e+00    7.299248e-01   9.676726e-03
  2.103249e+00    7.215046e-01   9.612137e-03
  2.105460e+00    7.204884e-01   9.596419e-03
  2.107670e+00    7.212597e-01   9.592852e-03
  2.109881e+00    7.134605e-01   9.531771e-03
  2.112091e+00    7.167027e-01   9.544470e-03
  2.114301e+00    7.203228e-01   9.559797e-03
  2.116512e+00    7.246493e-01   9.579660e-03
  2.118722e+00    7.032765e-01   9.428623e-03
  2.120933e+00    6.972984e-01   9.379739e-03
  2.123143e+00    7.008761e-01   9.394976e-03
  2.125354e+00    7.119460e-01   9.460383e-03
  2.127564e+00    6.911478e-01   9.312619e-03
  2.129775e+00    6.814616e-01   9.238600e-03
  2.131985e+00    6.939417e-01   9.313871e-03
  2.134196e+00    7.073625e-01   9.394974e-03
  2.136406e+00    7.007657e-01   9.342380e-03
  2.138617e+00    7.010260e-01   9.335722e-03
  2.140827e+00    7.026897e-01   9.362777e-03
  2.143037e+00    7.035437e-01   9.413822e-03
  2.145248e+00    7.099243e-01   9.478502e-03
  2.147458e+00    6.918165e-01   9.371825e-03
  2.149669e+00    6.795761e-01   9.300203e-03
  2.151879e+00    6.995947e-01   9.445377e-03
  2.154090e+00    6.938671e-01   9.413954e-03
  2.156300e+00    6.658372e-01   9.228253e-03
  2.158511e+00    6.815264e-01   9.341569e-03
  2.160721e+00    6.852044e-01   9.371536e-03
  2.162932e+00    6.794531e-01   9.335801e-03
  2.165142e+00    6.833135e-01   9.365277e-03
  2.167352e+00    6.789380e-01   9.338138e-03
  2.169563e+00    6.720283e-01   9.292386e-03
  2.171773e+00    6.843792e-01   9.379850e-03
  2.173984e+00    6.739349e-01   9.309372e-03
  2.176194e+00    6.861003e-01   9.394226e-03
  2.178405e+00    6.774582e-01   9.335562e-03
  2.180615e+00    6.720293e-01   9.298746e-03
  2.182826e+00    6.825167e-01   9.371698e-03
  2.185036e+00    6.848091e-01   9.387478e-03
  2.187247e+00    6.764637e-01   9.330064e-03
  2.189457e+00    6.645958e-01   9.247437e-03
  2.191667e+00    6.826003e-01   9.371690e-03
  2.193878e+00    6.749725e-01   9.318629e-03
  2.196088e+00    6.764453e-01   9.328100e-03
  2.198299e+00    6.723503e-01   9.298763e-03
  2.200509e+00    6.653249e-01   9.248991e-03
  2.202720e+00    6.749803e-01   9.314721e-03
  2.204930e+00    6.785734e-01   9.338235e-03
  2.207141e+00    6.783832e-01   9.335832e-03
  2.209351e+00    6.860846e-01   9.386757e-03
  2.211562e+00    6.862684e-01   9.386414e-03
  2.213772e+00    6.810049e-01   9.294681e-03
  2.215982e+00    6.746652e-01   9.207155e-03
  2.218193e+00    6.733842e-01   9.168824e-03
  2.220403e+00    6.700387e-01   9.121534e-03
  2.222614e+00    6.661758e-01   9.074346e-03
  2.224824e+00    6.783693e-01   9.137578e-03
  2.227035e+00    6.572369e-01   8.976892e-03
  2.229245e+00    6.637045e-01   9.004071e-03
  2.231456e+00    6.612032e-01   8.971599e-03
  2.233666e+00    6.854475e-01   9.119322e-03
  2.235877e+00    6.785876e-01   9.059258e-03
  2.238087e+00    6.692706e-01   8.983351e-03
  2.240298e+00    6.744769e-01   9.004422e-03
  2.242508e+00    6.572028e-01   8.873367e-03
  2.244718e+00    6.653222e-01   8.912234e-03
  2.246929e+00    6.570359e-01   8.842271e-03
  2.249139e+00    6.629893e-01   8.869894e-03
  2.251350e+00    6.630414e-01   8.858575e-03
  2.253560e+00    6.771711e-01   8.940793e-03
  2.255771e+00    6.802791e-01   8.949781e-03
  2.257981e+00    6.659479e-01   8.843806e-03
  2.260192e+00    6.805062e-01   8.928712e-03
  2.262402e+00    6.699963e-01   8.848601e-03
  2.264613e+00    6.618866e-01   8.784069e-03
  2.266823e+00    6.556476e-01   8.732221e-03
  2.269033e+00    6.657115e-01   8.788580e-03
  2.271244e+00    6.570125e-01   8.720640e-03
  2.273454e+00    6.487435e-01   8.655418e-03
  2.275665e+00    6.614213e-01   8.729275e-03
  2.277875e+00    6.612580e-01   8.718280e-03
  2.280086e+00    6.631806e-01   8.720874e-03
  2.282296e+00    6.590604e-01   8.684334e-03
  2.284507e+00    6.590303e-01   8.674018e-03
  2.286717e+00    6.394148e-01   8.534614e-03
  2.288928e+00    6.400912e-01   8.529399e-03
  2.291138e+00    6.470779e-01   8.566443e-03
  2.293348e+00    6.518807e-01   8.588686e-03
  2.295559e+00    6.463384e-01   8.542841e-03
  2.297769e+00    6.409501e-01   8.498001e-03
  2.299980e+00    6.454576e-01   8.518565e-03
  2.302190e+00    6.434179e-01   8.496030e-03
  2.304401e+00    6.393116e-01   8.459652e-03
  2.306611e+00    6.400990e-01   8.455739e-03
  2.308822e+00    6.435959e-01   8.470471e-03
  2.311032e+00    6.387002e-01   8.431803e-03
  2.313243e+00    6.423504e-01   8.449635e-03
  2.315453e+00    6.260168e-01   8.334064e-03
  2.317663e+00    6.443408e-01   8.446045e-03
  2.319874e+00    6.438402e-01   8.434076e-03
  2.322084e+00    6.394446e-01   8.396312e-03
  2.324295e+00    6.371416e-01   8.372994e-03
  2.326505e+00    6.439920e-01   8.408844e-03
  2.328716e+00    6.328408e-01   8.327249e-03
  2.330926e+00    6.264755e-01   8.276579e-03
  2.333137e+00    6.340500e-01   8.318123e-03
  2.335347e+00    6.251712e-01   8.250952e-03
  2.337558e+00    6.241608e-01   8.236131e-03
  2.339768e+00    6.254405e-01   8.236101e-03
  2.341979e+00    6.364942e-01   8.300205e-03
  2.344189e+00    6.348014e-01   8.280798e-03
  2.346399e+00    6.334820e-01   8.263712e-03
  2.348610e+00    6.266257e-01   8.210475e-03
  2.350820e+00    6.191179e-01   8.153039e-03
  2.353031e+00    6.238528e-01   8.175961e-03
  2.355241e+00    6.198045e-01   8.141410e-03
  2.357452e+00    6.135030e-01   8.091633e-03
  2.359662e+00    6.196564e-01   8.123946e-03
  2.361873e+00    6.289358e-01   8.176349e-03
  2.364083e+00    6.194758e-01   8.106686e-03
  2.366294e+00    6.238985e-01   8.127490e-03
  2.368504e+00    6.263096e-01   8.135117e-03
  2.370714e+00    6.193483e-01   8.081759e-03
  2.372925e+00    5.979939e-01   7.933350e-03
  2.375135e+00    5.991532e-01   7.933111e-03
  2.377346e+00    6.223434e-01   8.077261e-03
  2.379556e+00    6.053064e-01   7.958159e-03
  2.381767e+00    5.914951e-01   7.859168e-03
  2.383977e+00    5.993654e-01   7.903469e-03
  2.386188e+00    6.152811e-01   7.999830e-03
  2.388398e+00    6.108133e-01   7.962847e-03
  2.390609e+00    5.996535e-01   7.882131e-03
  2.392819e+00    6.141275e-01   7.968946e-03
  2.395029e+00    6.119662e-01   7.947265e-03
  2.397240e+00    6.038724e-01   7.886739e-03
  2.399450e+00    5.982909e-01   7.842501e-03
  2.401661e+00    5.917590e-01   7.792011e-03
  2.403871e+00    6.124899e-01   7.919560e-03
  2.406082e+00    5.950561e-01   7.798702e-03
  2.408292e+00    5.978950e-01   7.809557e-03
  2.410503e+00    5.983642e-01   7.805189e-03
  2.412713e+00    6.097645e-01   7.871387e-03
  2.414924e+00    6.004691e-01   7.803710e-03
  2.417134e+00    5.883918e-01   7.717303e-03
  2.419344e+00    5.903630e-01   7.722879e-03
  2.421555e+00    5.851057e-01   7.681032e-03
  2.423765e+00    5.747653e-01   7.605604e-03
  2.425976e+00    5.712966e-01   7.574988e-03
  2.428186e+00    5.886800e-01   7.682215e-03
  2.430397e+00    5.903019e-01   7.685358e-03
  2.432607e+00    5.957152e-01   7.713241e-03
  2.434818e+00    5.937599e-01   7.693041e-03
  2.437028e+00    5.952105e-01   7.695272e-03
  2.439239e+00    5.898690e-01   7.653047e-03
  2.441449e+00    5.803417e-01   7.583862e-03
  2.443659e+00    5.825663e-01   7.591074e-03
  2.445870e+00    5.749854e-01   7.553637e-03
  2.448080e+00    5.619017e-01   7.501363e-03
  2.450291e+00    5.602428e-01   7.506636e-03
  2.452501e+00    5.634055e-01   7.538829e-03
  2.454712e+00    5.752729e-01   7.626264e-03
  2.456922e+00    5.690948e-01   7.591818e-03
  2.459133e+00    5.586278e-01   7.527065e-03
  2.461343e+00    5.465329e-01   7.449414e-03
  2.463554e+00    5.581807e-01   7.531813e-03
  2.465764e+00    5.529169e-01   7.499339e-03
  2.467975e+00    5.432121e-01   7.435468e-03
  2.470185e+00    5.407865e-01   7.421076e-03
  2.472395e+00    5.445175e-01   7.447834e-03
  2.474606e+00    5.375270e-01   7.401423e-03
  2.476816e+00    5.340210e-01   7.377950e-03
  2.479027e+00    5.438904e-01   7.446680e-03
  2.481237e+00    5.396892e-01   7.418125e-03
  2.483448e+00    5.356931e-01   7.390928e-03
  2.485658e+00    5.342852e-01   7.381042e-03
  2.487869e+00    5.552064e-01   7.524209e-03
  2.490079e+00    5.432514e-01   7.442257e-03
  2.492290e+00    5.297031e-01   7.348446e-03
  2.494500e+00    5.336174e-01   7.374789e-03
  2.496710e+00    5.396457e-01   7.415644e-03
  2.498921e+00    5.340334e-01   7.376005e-03
  2.501131e+00    5.228447e-01   7.297369e-03
  2.503342e+00    5.241362e-01   7.305134e-03
  2.505552e+00    5.188504e-01   7.267074e-03
  2.507763e+00    5.248264e-01   7.307402e-03
  2.509973e+00    5.110304e-01   7.209363e-03
  2.512184e+00    5.123384e-01   7.216979e-03
  2.514394e+00    4.951619e-01   7.085903e-03
  2.516605e+00    5.103906e-01   7.147686e-03
  2.518815e+00    5.133189e-01   7.140190e-03
  2.521025e+00    5.277302e-01   7.218713e-03
  2.523236e+00    5.195772e-01   7.144858e-03
  2.525446e+00    5.245865e-01   7.163632e-03
  2.527657e+00    5.222988e-01   7.133427e-03
  2.529867e+00    5.268584e-01   7.150298e-03
  2.532078e+00    5.252438e-01   7.124286e-03
  2.534288e+00    5.259806e-01   7.115385e-03
  2.536499e+00    5.073940e-01   6.976804e-03
  2.538709e+00    5.002534e-01   6.916782e-03
  2.540920e+00    5.037521e-01   6.930495e-03
  2.543130e+00    5.153759e-01   6.999726e-03
  2.545340e+00    5.095091e-01   6.949833e-03
  2.547551e+00    5.127794e-01   6.962265e-03
  2.549761e+00    5.184537e-01   6.991125e-03
  2.551972e+00    5.160202e-01   6.965404e-03
  2.554182e+00    5.083362e-01   6.904290e-03
  2.556393e+00    5.150179e-01   6.940464e-03
  2.558603e+00    5.166423e-01   6.942373e-03
  2.560814e+00    5.104916e-01   6.892295e-03
  2.563024e+00    5.061430e-01   6.854407e-03
  2.565235e+00    5.083631e-01   6.860016e-03
  2.567445e+00    5.164265e-01   6.904674e-03
  2.569656e+00    5.137579e-01   6.877109e-03
  2.571866e+00    5.040144e-01   6.802363e-03
  2.574076e+00    5.051911e-01   6.801116e-03
  2.576287e+00    5.263548e-01   6.933693e-03
  2.578497e+00    5.420226e-01   7.028115e-03
  2.580708e+00    5.437115e-01   7.030752e-03
  2.582918e+00    5.296118e-01   6.931126e-03
  2.585129e+00    5.125533e-01   6.810852e-03
  2.587339e+00    5.029181e-01   6.738922e-03
  2.589550e+00    5.188842e-01   6.837460e-03
  2.591760e+00    5.202877e-01   6.838917e-03
  2.593971e+00    4.990101e-01   6.690182e-03
  2.596181e+00    4.965175e-01   6.667307e-03
  2.598391e+00    5.188731e-01   6.810521e-03
  2.600602e+00    5.067557e-01   6.724654e-03
  2.602812e+00    5.004134e-01   6.674951e-03
  2.605023e+00    4.910102e-01   6.604905e-03
  2.607233e+00    4.989034e-01   6.650695e-03
  2.609444e+00    5.052986e-01   6.685971e-03
  2.611654e+00    5.054908e-01   6.679951e-03
  2.613865e+00    4.954782e-01   6.606490e-03
  2.616075e+00    4.946087e-01   6.593629e-03
  2.618286e+00    4.958323e-01   6.594854e-03
  2.620496e+00    4.972732e-01   6.597789e-03
  2.622706e+00    4.923227e-01   6.559188e-03
  2.624917e+00    4.931330e-01   6.558810e-03
  2.627127e+00    4.882617e-01   6.520677e-03
  2.629338e+00    4.941955e-01   6.554254e-03
  2.631548e+00    5.012515e-01   6.594735e-03
  2.633759e+00    4.896193e-01   6.510705e-03
  2.635969e+00    4.924631e-01   6.522966e-03
  2.638180e+00    4.926074e-01   6.516982e-03
  2.640390e+00    4.986619e-01   6.550337e-03
  2.642601e+00    4.999814e-01   6.552339e-03
  2.644811e+00    4.960645e-01   6.519571e-03
  2.647021e+00    4.957165e-01   6.510759e-03
  2.649232e+00    4.919080e-01   6.479024e-03
  2.651442e+00    4.978900e-01   6.511805e-03
  2.653653e+00    4.941291e-01   6.480413e-03
  2.655863e+00    4.892865e-01   6.441949e-03
  2.658074e+00    4.881779e-01   6.428102e-03
  2.660284e+00    4.891557e-01   6.428228e-03
  2.662495e+00    4.926362e-01   6.444344e-03
  2.664705e+00    4.961191e-01   6.460513e-03
  2.666916e+00    5.046042e-01   6.509026e-03
  2.669126e+00    4.874842e-01   6.391243e-03
  2.671337e+00    4.949985e-01   6.433740e-03
  2.673547e+00    4.801734e-01   6.330381e-03
  2.675757e+00    4.935283e-01   6.411362e-03
  2.677968e+00    4.750062e-01   6.283512e-03
  2.680178e+00    4.876610e-01   6.360294e-03
  2.682389e+00    4.881570e-01   6.357169e-03
  2.684599e+00    4.843507e-01   6.326210e-03
  2.686810e+00    4.874134e-01   6.339595e-03
  2.689020e+00    4.918567e-01   6.362135e-03
  2.691231e+00    4.889868e-01   6.337277e-03
  2.693441e+00    4.920155e-01   6.350708e-03
  2.695652e+00    5.001258e-01   6.396269e-03
  2.697862e+00    4.860491e-01   6.299286e-03
  2.700072e+00    4.805542e-01   6.257553e-03
  2.702283e+00    4.732433e-01   6.203663e-03
  2.704493e+00    4.949561e-01   6.338041e-03
  2.706704e+00    4.809147e-01   6.241155e-03
  2.708914e+00    4.773482e-01   6.212060e-03
  2.711125e+00    4.791586e-01   6.217632e-03
  2.713335e+00    4.869063e-01   6.261622e-03
  2.715546e+00    4.789307e-01   6.203720e-03
  2.717756e+00    4.735706e-01   6.163096e-03
  2.719967e+00    4.662979e-01   6.109498e-03
  2.722177e+00    4.751546e-01   6.161198e-03
  2.724387e+00    4.700793e-01   6.122192e-03
  2.726598e+00    4.790726e-01   6.174450e-03
  2.728808e+00    4.791784e-01   6.169029e-03
  2.731019e+00    4.907148e-01   6.236682e-03
  2.733229e+00    4.872925e-01   6.209088e-03
  2.735440e+00    4.785946e-01   6.147177e-03
  2.737650e+00    4.749012e-01   6.117458e-03
  2.739861e+00    4.639808e-01   6.040774e-03
  2.742071e+00    4.691446e-01   6.068606e-03
  2.744282e+00    4.831268e-01   6.152146e-03
  2.746492e+00    4.771473e-01   6.107948e-03
  2.748702e+00    4.767047e-01   6.099254e-03
  2.750913e+00    4.633981e-01   6.007831e-03
  2.753123e+00    4.739157e-01   6.069560e-03
  2.755334e+00    4.810313e-01   6.108882e-03
  2.757544e+00    4.687448e-01   6.024696e-03
  2.759755e+00    4.814364e-01   6.099815e-03
  2.761965e+00    4.730299e-01   6.040396e-03
  2.764176e+00    4.926707e-01   6.158445e-03
  2.766386e+00    4.893081e-01   6.131560e-03
  2.768597e+00    4.739443e-01   6.028708e-03
  2.770807e+00    4.714980e-01   6.007294e-03
  2.773017e+00    4.682993e-01   5.980962e-03
  2.775228e+00    4.799211e-01   6.048942e-03
  2.777438e+00    4.673948e-01   5.963752e-03
  2.779649e+00    4.727749e-01   5.992108e-03
  2.781859e+00    4.652424e-01   5.938491e-03
  2.784070e+00    4.777131e-01   6.011679e-03
  2.786280e+00    4.760144e-01   5.995242e-03
  2.788491e+00    4.701485e-01   5.952385e-03
  2.790701e+00    4.689399e-01   5.939126e-03
  2.792912e+00    4.802171e-01   6.004130e-03
  2.795122e+00    4.704218e-01   5.936881e-03
  2.797333e+00    4.680893e-01   5.916622e-03
  2.799543e+00    4.787352e-01   5.977645e-03
  2.801753e+00    4.698253e-01   5.915956e-03
  2.803964e+00    4.588628e-01   5.840936e-03
  2.806174e+00    4.807723e-01   5.972585e-03
  2.808385e+00    4.718659e-01   5.910237e-03
  2.810595e+00    4.600359e-01   5.828919e-03
  2.812806e+00    4.612785e-01   5.830257e-03
  2.815016e+00    4.679188e-01   5.867366e-03
  2.817227e+00    4.651979e-01   5.875967e-03
  2.819437e+00    4.669792e-01   5.898207e-03
  2.821648e+00    4.671222e-01   5.901384e-03
  2.823858e+00    4.665177e-01   5.902872e-03
  2.826068e+00    4.611540e-01   5.873751e-03
  2.828279e+00    4.563760e-01   5.847210e-03
  2.830489e+00    4.553089e-01   5.843651e-03
  2.832700e+00    4.628598e-01   5.894426e-03
  2.834910e+00    4.653564e-01   5.912372e-03
  2.837121e+00    4.709626e-01   5.949568e-03
  2.839331e+00    4.795049e-01   6.004542e-03
  2.841542e+00    4.525919e-01   5.834601e-03
  2.843752e+00    4.604306e-01   5.885660e-03
  2.845963e+00    4.731357e-01   5.966733e-03
  2.848173e+00    4.711878e-01   5.954514e-03
  2.850383e+00    4.598860e-01   5.882975e-03
  2.852594e+00    4.500012e-01   5.819317e-03
  2.854804e+00    4.721980e-01   5.960595e-03
  2.857015e+00    4.762009e-01   5.985394e-03
  2.859225e+00    4.542475e-01   5.845538e-03
  2.861436e+00    4.594236e-01   5.878105e-03
  2.863646e+00    4.434424e-01   5.775000e-03
  2.865857e+00    4.547566e-01   5.848530e-03
  2.868067e+00    4.618654e-01   5.894294e-03
  2.870278e+00    4.520282e-01   5.830852e-03
  2.872488e+00    4.620966e-01   5.894248e-03
  2.874698e+00    4.603327e-01   5.881978e-03
  2.876909e+00    4.585249e-01   5.869070e-03
  2.879119e+00    4.609834e-01   5.883181e-03
  2.881330e+00    4.533845e-01   5.833021e-03
  2.883540e+00    4.577012e-01   5.859353e-03
  2.885751e+00    4.471476e-01   5.789784e-03
  2.887961e+00    4.533308e-01   5.827811e-03
  2.890172e+00    4.525719e-01   5.821330e-03
  2.892382e+00    4.557630e-01   5.840051e-03
  2.894593e+00    4.609352e-01   5.871255e-03
  2.896803e+00    4.459769e-01   5.773271e-03
  2.899014e+00    4.449657e-01   5.764829e-03
  2.901224e+00    4.663479e-01   5.899704e-03
  2.903434e+00    4.626693e-01   5.874461e-03
  2.905645e+00    4.486604e-01   5.782629e-03
  2.907855e+00    4.607342e-01   5.857824e-03
  2.910066e+00    4.486387e-01   5.778370e-03
  2.912276e+00    4.437685e-01   5.744831e-03
  2.914487e+00    4.390784e-01   5.711983e-03
  2.916697e+00    4.486569e-01   5.771752e-03
  2.918908e+00    4.549562e-01   5.810140e-03
  2.921118e+00    4.516496e-01   5.786304e-03
  2.923329e+00    4.524224e-01   5.788961e-03
  2.925539e+00    4.403718e-01   5.709103e-03
  2.927749e+00    4.512484e-01   5.776867e-03
  2.929960e+00    4.526124e-01   5.782837e-03
  2.932170e+00    4.560018e-01   5.802123e-03
  2.934381e+00    4.592482e-01   5.820299e-03
  2.936591e+00    4.436984e-01   5.718380e-03
  2.938802e+00    4.447107e-01   5.722195e-03
  2.941012e+00    4.572315e-01   5.799870e-03
  2.943223e+00    4.597591e-01   5.813177e-03
  2.945433e+00    4.552256e-01   5.780695e-03
  2.947644e+00    4.549628e-01   5.774916e-03
  2.949854e+00    4.481868e-01   5.727497e-03
  2.952064e+00    4.444615e-01   5.699472e-03
  2.954275e+00    4.486316e-01   5.721775e-03
  2.956485e+00    4.590244e-01   5.783454e-03
  2.958696e+00    4.493476e-01   5.717827e-03
  2.960906e+00    4.622904e-01   5.795377e-03
  2.963117e+00    4.448734e-01   5.680724e-03
  2.965327e+00    4.311791e-01   5.588806e-03
  2.967538e+00    4.360290e-01   5.617277e-03
  2.969748e+00    4.417256e-01   5.651092e-03
  2.971959e+00    4.543398e-01   5.728067e-03
  2.974169e+00    4.532567e-01   5.718667e-03
  2.976379e+00    4.355566e-01   5.603043e-03
  2.978590e+00    4.376521e-01   5.613407e-03
  2.980800e+00    4.435730e-01   5.648500e-03
  2.983011e+00    4.379033e-01   5.609522e-03
  2.985221e+00    4.426524e-01   5.636753e-03
  2.987432e+00    4.491353e-01   5.674790e-03
  2.989642e+00    4.424574e-01   5.629843e-03
  2.991853e+00    4.450057e-01   5.642795e-03
  2.994063e+00    4.559691e-01   5.708955e-03
  2.996274e+00    4.476683e-01   5.653606e-03
  2.998484e+00    4.434175e-01   5.624024e-03
  3.000694e+00    4.419451e-01   5.611272e-03
  3.002905e+00    4.533052e-01   5.679985e-03
  3.005115e+00    4.576119e-01   5.703921e-03
  3.007326e+00    4.543255e-01   5.680238e-03
  3.009536e+00    4.524297e-01   5.665139e-03
  3.011747e+00    4.493119e-01   5.642662e-03
  3.013957e+00    4.532903e-01   5.664420e-03
  3.016168e+00    4.555219e-01   5.675074e-03
  3.018378e+00    4.383239e-01   5.563936e-03
  3.020589e+00    4.405783e-01   5.575038e-03
  3.022799e+00    4.393825e-01   5.564358e-03
  3.025010e+00    4.506438e-01   5.631971e-03
  3.027220e+00    4.438512e-01   5.586300e-03
  3.029430e+00    4.511957e-01   5.629077e-03
  3.031641e+00    4.377078e-01   5.541217e-03
  3.033851e+00    4.490319e-01   5.608928e-03
  3.036062e+00    4.529488e-01   5.630565e-03
  3.038272e+00    4.401194e-01   5.546718e-03
  3.040483e+00    4.400424e-01   5.543041e-03
  3.042693e+00    4.350800e-01   5.508508e-03
  3.044904e+00    4.478570e-01   5.584775e-03
  3.047114e+00    4.574452e-01   5.639419e-03
  3.049325e+00    4.489138e-01   5.582194e-03
  3.051535e+00    4.421812e-01   5.535826e-03
  3.053745e+00    4.440532e-01   5.542819e-03
  3.055956e+00    4.411543e-01   5.520170e-03
  3.058166e+00    4.449957e-01   5.539915e-03
  3.060377e+00    4.350769e-01   5.473140e-03
  3.062587e+00    4.396943e-01   5.497528e-03
  3.064798e+00    4.400851e-01   5.495753e-03
  3.067008e+00    4.524398e-01   5.567628e-03
  3.069219e+00    4.440730e-01   5.511420e-03
  3.071429e+00    4.567246e-01   5.585841e-03
  3.073640e+00    4.431710e-01   5.499034e-03
  3.075850e+00    4.427261e-01   5.492705e-03
  3.078060e+00    4.501243e-01   5.535306e-03
  3.080271e+00    4.535862e-01   5.553054e-03
  3.082481e+00    4.567334e-01   5.568811e-03
  3.084692e+00    4.467975e-01   5.504541e-03
  3.086902e+00    4.503474e-01   5.523095e-03
  3.089113e+00    4.484698e-01   5.508021e-03
  3.091323e+00    4.310894e-01   5.396911e-03
  3.093534e+00    4.385995e-01   5.440377e-03
  3.095744e+00    4.556798e-01   5.541895e-03
  3.097955e+00    4.486860e-01   5.495657e-03
  3.100165e+00    4.343123e-01   5.403628e-03
  3.102375e+00    4.397372e-01   5.433870e-03
  3.104586e+00    4.404904e-01   5.435063e-03
  3.106796e+00    4.392166e-01   5.423700e-03
  3.109007e+00    4.375464e-01   5.410203e-03
  3.111217e+00    4.362065e-01   5.398235e-03
  3.113428e+00    4.512657e-01   5.487216e-03
  3.115638e+00    4.415848e-01   5.424817e-03
  3.117849e+00    4.411056e-01   5.418154e-03
  3.120059e+00    4.480019e-01   5.456885e-03
  3.122270e+00    4.368760e-01   5.385470e-03
  3.124480e+00    4.384973e-01   5.391784e-03
  3.126691e+00    4.471988e-01   5.441437e-03
  3.128901e+00    4.472921e-01   5.438890e-03
  3.131111e+00    4.455796e-01   5.424615e-03
  3.133322e+00    4.485667e-01   5.439312e-03
  3.135532e+00    4.366313e-01   5.363087e-03
  3.137743e+00    4.244114e-01   5.284112e-03
  3.139953e+00    4.314590e-01   5.324146e-03
  3.142164e+00    4.465980e-01   5.428830e-03
  3.144374e+00    4.475330e-01   5.463069e-03
  3.146585e+00    4.510621e-01   5.499288e-03
  3.148795e+00    4.410231e-01   5.448496e-03
  3.151006e+00    4.374587e-01   5.434945e-03
  3.153216e+00    4.390706e-01   5.452053e-03
  3.155426e+00    4.433820e-01   5.485089e-03
  3.157637e+00    4.300005e-01   5.407147e-03
  3.159847e+00    4.386963e-01   5.466384e-03
  3.162058e+00    4.400490e-01   5.479265e-03
  3.164268e+00    4.215331e-01   5.366724e-03
  3.166479e+00    4.286820e-01   5.415630e-03
  3.168689e+00    4.326455e-01   5.443957e-03
  3.170900e+00    4.344989e-01   5.458763e-03
  3.173110e+00    4.344948e-01   5.461605e-03
  3.175321e+00    4.326197e-01   5.452261e-03
  3.177531e+00    4.384068e-01   5.491366e-03
  3.179741e+00    4.356374e-01   5.476048e-03
  3.181952e+00    4.366330e-01   5.484418e-03
  3.184162e+00    4.437392e-01   5.531082e-03
  3.186373e+00    4.150169e-01   5.350642e-03
  3.188583e+00    4.206940e-01   5.388845e-03
  3.190794e+00    4.338673e-01   5.474321e-03
  3.193004e+00    4.409325e-01   5.519962e-03
  3.195215e+00    4.390299e-01   5.509564e-03
  3.197425e+00    4.254364e-01   5.424795e-03
  3.199636e+00    4.138161e-01   5.349434e-03
  3.201846e+00    4.394329e-01   5.511905e-03
  3.204056e+00    4.280150e-01   5.440730e-03
  3.206267e+00    4.156902e-01   5.362651e-03
  3.208477e+00    4.161472e-01   5.366486e-03
  3.210688e+00    4.367664e-01   5.498677e-03
  3.212898e+00    4.178098e-01   5.378612e-03
  3.215109e+00    4.303886e-01   5.459710e-03
  3.217319e+00    4.274920e-01   5.441951e-03
  3.219530e+00    4.265376e-01   5.436252e-03
  3.221740e+00    4.324795e-01   5.474554e-03
  3.223951e+00    4.250030e-01   5.427500e-03
  3.226161e+00    4.317610e-01   5.470665e-03
  3.228372e+00    4.254185e-01   5.430861e-03
  3.230582e+00    4.182152e-01   5.384829e-03
  3.232792e+00    4.132881e-01   5.353218e-03
  3.235003e+00    4.333045e-01   5.481579e-03
  3.237213e+00    4.302205e-01   5.462146e-03
  3.239424e+00    4.224743e-01   5.412737e-03
  3.241634e+00    4.181085e-01   5.384834e-03
  3.243845e+00    4.186405e-01   5.388310e-03
  3.246055e+00    4.194168e-01   5.393052e-03
  3.248266e+00    4.157814e-01   5.369808e-03
  3.250476e+00    4.296609e-01   5.458402e-03
  3.252687e+00    4.173527e-01   5.379588e-03
  3.254897e+00    4.147421e-01   5.362589e-03
  3.257107e+00    4.236217e-01   5.419411e-03
  3.259318e+00    4.084410e-01   5.321179e-03
  3.261528e+00    4.206668e-01   5.400081e-03
  3.263739e+00    4.248281e-01   5.426181e-03
  3.265949e+00    4.171596e-01   5.376871e-03
  3.268160e+00    3.976798e-01   5.249416e-03
  3.270370e+00    4.140523e-01   5.355866e-03
  3.272581e+00    4.294392e-01   5.454213e-03
  3.274791e+00    4.114282e-01   5.338111e-03
  3.277002e+00    4.115329e-01   5.338208e-03
  3.279212e+00    4.257004e-01   5.428944e-03
  3.281422e+00    4.268904e-01   5.435945e-03
  3.283633e+00    4.254072e-01   5.425827e-03
  3.285843e+00    4.246319e-01   5.420540e-03
  3.288054e+00    4.175576e-01   5.374259e-03
  3.290264e+00    4.046393e-01   5.290179e-03
  3.292475e+00    4.068906e-01   5.304039e-03
  3.294685e+00    4.169915e-01   5.368849e-03
  3.296896e+00    4.139432e-01   5.348440e-03
  3.299106e+00    4.305314e-01   5.453988e-03
  3.301317e+00    4.200539e-01   5.386208e-03
  3.303527e+00    4.186215e-01   5.376547e-03
  3.305737e+00    4.256826e-01   5.420647e-03
  3.307948e+00    4.259261e-01   5.421524e-03
  3.310158e+00    4.280183e-01   5.433971e-03
  3.312369e+00    4.345327e-01   5.474270e-03
  3.314579e+00    4.149316e-01   5.348502e-03
  3.316790e+00    4.072663e-01   5.298152e-03
  3.319000e+00    4.162921e-01   5.355348e-03
  3.321211e+00    4.265695e-01   5.420464e-03
  3.323421e+00    4.067185e-01   5.291651e-03
  3.325632e+00    4.100521e-01   5.312418e-03
  3.327842e+00    4.091219e-01   5.305475e-03
  3.330052e+00    4.182687e-01   5.363399e-03
  3.332263e+00    4.175192e-01   5.357583e-03
  3.334473e+00    4.184554e-01   5.362675e-03
  3.336684e+00    4.185820e-01   5.362228e-03
  3.338894e+00    4.163409e-01   5.347018e-03
  3.341105e+00    4.076913e-01   5.289998e-03
  3.343315e+00    4.174324e-01   5.351667e-03
  3.345526e+00    4.136182e-01   5.326290e-03
  3.347736e+00    4.112273e-01   5.309475e-03
  3.349947e+00    4.206677e-01   5.369137e-03
  3.352157e+00    4.129499e-01   5.318492e-03
  3.354368e+00    4.082156e-01   5.286643e-03
  3.356578e+00    4.160408e-01   5.336060e-03
  3.358788e+00    4.056343e-01   5.267586e-03
  3.360999e+00    4.085080e-01   5.284992e-03
  3.363209e+00    4.047608e-01   5.259684e-03
  3.365420e+00    4.094379e-01   5.288479e-03
  3.367630e+00    4.178540e-01   5.341565e-03
  3.369841e+00    4.113539e-01   5.298415e-03
  3.372051e+00    4.206558e-01   5.356004e-03
  3.374262e+00    4.274633e-01   5.396702e-03
  3.376472e+00    4.143598e-01   5.310910e-03
  3.378683e+00    4.317352e-01   5.418550e-03
  3.380893e+00    4.280653e-01   5.393125e-03
  3.383103e+00    4.096088e-01   5.272882e-03
  3.385314e+00    3.980169e-01   5.195563e-03
  3.387524e+00    4.041598e-01   5.232784e-03
  3.389735e+00    4.054679e-01   5.238651e-03
  3.391945e+00    4.077247e-01   5.249562e-03
  3.394156e+00    3.985558e-01   5.186060e-03
  3.396366e+00    4.051045e-01   5.225095e-03
  3.398577e+00    3.936647e-01   5.147834e-03
  3.400787e+00    3.981476e-01   5.188770e-03
  3.402998e+00    3.995240e-01   5.235308e-03
  3.405208e+00    4.176132e-01   5.373473e-03
  3.407418e+00    4.003807e-01   5.277240e-03
  3.409629e+00    3.948129e-01   5.254259e-03
  3.411839e+00    3.924885e-01   5.250436e-03
  3.414050e+00    3.930983e-01   5.265447e-03
  3.416260e+00    3.823031e-01   5.202152e-03
  3.418471e+00    3.886846e-01   5.254727e-03
  3.420681e+00    3.815054e-01   5.214369e-03
  3.422892e+00    4.004575e-01   5.350396e-03
  3.425102e+00    3.961067e-01   5.329144e-03
  3.427313e+00    3.901101e-01   5.295843e-03
  3.429523e+00    3.896086e-01   5.299548e-03
  3.431733e+00    3.816710e-01   5.251899e-03
  3.433944e+00    3.853183e-01   5.283433e-03
  3.436154e+00    3.720404e-01   5.197742e-03
  3.438365e+00    3.666697e-01   5.165902e-03
  3.440575e+00    3.685581e-01   5.185022e-03
  3.442786e+00    3.741143e-01   5.229516e-03
  3.444996e+00    3.711656e-01   5.214371e-03
  3.447207e+00    3.577321e-01   5.124256e-03
  3.449417e+00    3.756239e-01   5.291885e-03
  3.451628e+00    3.646826e-01   5.243533e-03
  3.453838e+00    3.492934e-01   5.152343e-03
  3.456049e+00    3.412747e-01   5.115892e-03
  3.458259e+00    3.517500e-01   5.215282e-03
  3.460469e+00    3.673452e-01   5.349460e-03
  3.462680e+00    3.686163e-01   5.377860e-03
  3.464890e+00    3.609444e-01   5.339238e-03
  3.467101e+00    3.778735e-01   5.480718e-03
  3.469311e+00    3.751950e-01   5.477950e-03
  3.471522e+00    3.778522e-01   5.513755e-03
  3.473732e+00    3.874499e-01   5.599466e-03
  3.475943e+00    3.908885e-01   5.640143e-03
  3.478153e+00    4.043901e-01   5.752479e-03
  3.480364e+00    3.938015e-01   5.691837e-03
  3.482574e+00    4.125129e-01   5.840978e-03
  3.484784e+00    4.278436e-01   5.963719e-03
  3.486995e+00    4.302588e-01   5.995889e-03
  3.489205e+00    4.378774e-01   6.063647e-03
  3.491416e+00    4.467874e-01   6.140302e-03
  3.493626e+00    4.373340e-01   6.089608e-03
  3.495837e+00    4.566936e-01   6.237961e-03
  3.498047e+00    4.520125e-01   6.220539e-03
  3.500258e+00    4.488420e-01   6.213188e-03
  3.502468e+00    4.467434e-01   6.212976e-03
  3.504679e+00    4.565596e-01   6.295243e-03
  3.506889e+00    4.652568e-01   6.369382e-03
  3.509099e+00    4.717612e-01   6.428125e-03
  3.511310e+00    4.726656e-01   6.448673e-03
  3.513520e+00    4.882291e-01   6.568504e-03
  3.515731e+00    4.778574e-01   6.512625e-03
  3.517941e+00    4.751411e-01   6.508209e-03
  3.520152e+00    4.850498e-01   6.589897e-03
  3.522362e+00    4.957535e-01   6.676634e-03
  3.524573e+00    5.079890e-01   6.772806e-03
  3.526783e+00    5.185929e-01   6.856607e-03
  3.528994e+00    5.119982e-01   6.825083e-03
  3.531204e+00    5.131986e-01   6.845381e-03
  3.533414e+00    5.337893e-01   6.993565e-03
  3.535625e+00    5.287428e-01   6.972797e-03
  3.537835e+00    5.249777e-01   6.959951e-03
  3.540046e+00    5.483671e-01   7.122353e-03
  3.542256e+00    5.366030e-01   7.053086e-03
  3.544467e+00    5.315006e-01   7.027057e-03
  3.546677e+00    5.284780e-01   7.014567e-03
  3.548888e+00    5.474427e-01   7.146885e-03
  3.551098e+00    5.396277e-01   7.103016e-03
  3.553309e+00    5.450495e-01   7.146867e-03
  3.555519e+00    5.258982e-01   7.031353e-03
  3.557729e+00    5.277045e-01   7.055030e-03
  3.559940e+00    5.392433e-01   7.143344e-03
  3.562150e+00    5.471114e-01   7.207110e-03
  3.564361e+00    5.261518e-01   7.080902e-03
  3.566571e+00    5.394848e-01   7.183915e-03
  3.568782e+00    5.389251e-01   7.194381e-03
  3.570992e+00    5.213220e-01   7.089445e-03
  3.573203e+00    5.365235e-01   7.206207e-03
  3.575413e+00    5.495378e-01   7.307070e-03
  3.577624e+00    5.325334e-01   7.207166e-03
  3.579834e+00    5.310529e-01   7.211002e-03
  3.582045e+00    5.361730e-01   7.259663e-03
  3.584255e+00    5.473846e-01   7.349406e-03
  3.586465e+00    5.325595e-01   7.263095e-03
  3.588676e+00    5.387077e-01   7.319123e-03
  3.590886e+00    5.345782e-01   7.304692e-03
  3.593097e+00    5.208468e-01   7.224610e-03
  3.595307e+00    5.146487e-01   7.195074e-03
  3.597518e+00    5.367115e-01   7.361941e-03
  3.599728e+00    5.392928e-01   7.393782e-03
  3.601939e+00    5.269114e-01   7.322356e-03
  3.604149e+00    5.401781e-01   7.428427e-03
  3.606360e+00    5.379322e-01   7.427158e-03
  3.608570e+00    5.476102e-01   7.507965e-03
  3.610780e+00    5.369028e-01   7.445344e-03
  3.612991e+00    5.279275e-01   7.392752e-03
  3.615201e+00    5.383820e-01   7.475415e-03
  3.617412e+00    5.297889e-01   7.422759e-03
  3.619622e+00    5.499372e-01   7.568653e-03
  3.621833e+00    5.346904e-01   7.469693e-03
  3.624043e+00    5.390074e-01   7.509356e-03
  3.626254e+00    5.407997e-01   7.531579e-03
  3.628464e+00    5.181996e-01   7.383341e-03
  3.630675e+00    5.364428e-01   7.526304e-03
  3.632885e+00    5.324634e-01   7.512792e-03
  3.635095e+00    5.436381e-01   7.605733e-03
  3.637306e+00    5.321814e-01   7.539534e-03
  3.639516e+00    5.397906e-01   7.607850e-03
  3.641727e+00    5.222273e-01   7.497470e-03
  3.643937e+00    5.272890e-01   7.548208e-03
  3.646148e+00    5.154913e-01   7.477647e-03
  3.648358e+00    5.250219e-01   7.561187e-03
  3.650569e+00    5.118184e-01   7.479918e-03
  3.652779e+00    5.457427e-01   7.738829e-03
  3.654990e+00    5.183926e-01   7.557109e-03
  3.657200e+00    5.028410e-01   7.457359e-03
  3.659410e+00    5.216497e-01   7.610339e-03
  3.661621e+00    5.312642e-01   7.695263e-03
  3.663831e+00    5.276375e-01   7.684042e-03
  3.666042e+00    5.272962e-01   7.696622e-03
  3.668252e+00    5.303751e-01   7.734317e-03
  3.670463e+00    5.225000e-01   7.691746e-03
  3.672673e+00    5.259387e-01   7.732400e-03
  3.674884e+00    5.339127e-01   7.806234e-03
  3.677094e+00    5.327809e-01   7.813510e-03
  3.679305e+00    5.295465e-01   7.805294e-03
  3.681515e+00    5.233037e-01   7.774675e-03
  3.683726e+00    5.123886e-01   7.708713e-03
  3.685936e+00    5.311365e-01   7.864181e-03
  3.688146e+00    5.246247e-01   7.831573e-03
  3.690357e+00    5.385317e-01   7.950798e-03
  3.692567e+00    5.296273e-01   7.900951e-03
  3.694778e+00    5.079172e-01   7.753082e-03
  3.696988e+00    5.114670e-01   7.795896e-03
  3.699199e+00    5.208266e-01   7.883075e-03
  3.701409e+00    5.096494e-01   7.814131e-03
  3.703620e+00    5.289216e-01   7.976915e-03
  3.705830e+00    5.183257e-01   7.912893e-03
  3.708041e+00    5.080869e-01   7.850706e-03
  3.710251e+00    5.210964e-01   7.967226e-03
  3.712461e+00    5.237935e-01   8.004584e-03
  3.714672e+00    5.160634e-01   7.961963e-03
  3.716882e+00    5.016893e-01   7.866698e-03
  3.719093e+00    5.004529e-01   7.873779e-03
  3.721303e+00    5.111283e-01   7.974139e-03
  3.723514e+00    5.172792e-01   8.039202e-03
  3.725724e+00    5.139422e-01   8.030326e-03
  3.727935e+00    5.116758e-01   8.029953e-03
  3.730145e+00    5.192026e-01   8.106167e-03
  3.732356e+00    5.240814e-01   8.161818e-03
  3.734566e+00    5.021709e-01   8.006713e-03
  3.736776e+00    5.227922e-01   8.187339e-03
  3.738987e+00    5.243130e-01   8.217127e-03
  3.741197e+00    5.189150e-01   8.192891e-03
  3.743408e+00    5.007653e-01   8.066145e-03
  3.745618e+00    4.928249e-01   8.019852e-03
  3.747829e+00    4.974326e-01   8.075123e-03
  3.750039e+00    5.221830e-01   8.292113e-03
  3.752250e+00    5.045608e-01   8.169405e-03
  3.754460e+00    4.845479e-01   8.023796e-03
  3.756671e+00    4.988057e-01   8.159590e-03
  3.758881e+00    5.172439e-01   8.327779e-03
  3.761091e+00    5.174027e-01   8.348455e-03
  3.763302e+00    5.080069e-01   8.291302e-03
  3.765512e+00    5.052315e-01   8.287883e-03
  3.767723e+00    5.052845e-01   8.307620e-03
  3.769933e+00    5.017794e-01   8.298003e-03
  3.772144e+00    4.833065e-01   8.162967e-03
  3.774354e+00    4.958142e-01   8.287505e-03
  3.776565e+00    5.225611e-01   8.528380e-03
  3.778775e+00    5.110513e-01   8.453961e-03
  3.780986e+00    5.195343e-01   8.544503e-03
  3.783196e+00    4.912649e-01   8.328767e-03
  3.785407e+00    4.811983e-01   8.262943e-03
  3.787617e+00    4.956399e-01   8.406643e-03
  3.789827e+00    4.868585e-01   8.352024e-03
  3.792038e+00    4.911872e-01   8.409741e-03
  3.794248e+00    4.894255e-01   8.415545e-03
  3.796459e+00    4.916230e-01   8.455498e-03
  3.798669e+00    5.019885e-01   8.565619e-03
  3.800880e+00    5.089448e-01   8.646381e-03
  3.803090e+00    5.106157e-01   8.682641e-03
  3.805301e+00    4.884762e-01   8.514142e-03
  3.807511e+00    4.974643e-01   8.614046e-03
  3.809722e+00    4.930972e-01   8.598270e-03
  3.811932e+00    4.853948e-01   8.552717e-03
  3.814142e+00    5.092720e-01   8.783654e-03
  3.816353e+00    4.801556e-01   8.551338e-03
  3.818563e+00    4.800775e-01   8.573245e-03
  3.820774e+00    5.045832e-01   8.812606e-03
  3.822984e+00    5.124168e-01   8.904566e-03
  3.825195e+00    4.939813e-01   8.766480e-03
  3.827405e+00    5.077769e-01   8.912184e-03
  3.829616e+00    4.900090e-01   8.778802e-03
  3.831826e+00    4.880708e-01   8.785244e-03
  3.834037e+00    5.222258e-01   9.112688e-03
  3.836247e+00    4.926502e-01   8.875418e-03
  3.838457e+00    4.873541e-01   8.852367e-03
  3.840668e+00    4.850292e-01   8.856202e-03
  3.842878e+00    4.878536e-01   8.907137e-03
  3.845089e+00    4.934010e-01   8.983249e-03
  3.847299e+00    4.846874e-01   8.929021e-03
  3.849510e+00    5.075091e-01   9.162984e-03
  3.851720e+00    4.992651e-01   9.109848e-03
  3.853931e+00    4.826167e-01   8.975372e-03
  3.856141e+00    4.941360e-01   9.100843e-03
  3.858352e+00    5.028815e-01   9.200472e-03
  3.860562e+00    4.849495e-01   9.054076e-03
  3.862772e+00    4.882041e-01   9.103822e-03
  3.864983e+00    5.125723e-01   9.348338e-03
  3.867193e+00    4.828148e-01   9.092554e-03
  3.869404e+00    4.571572e-01   8.866605e-03
  3.871614e+00    4.964436e-01   9.259799e-03
  3.873825e+00    4.947051e-01   9.264011e-03
  3.876035e+00    4.943115e-01   9.280810e-03
  3.878246e+00    5.186882e-01   9.533432e-03
  3.880456e+00    4.765635e-01   9.166633e-03
  3.882667e+00    4.821217e-01   9.248940e-03
  3.884877e+00    4.689808e-01   9.151067e-03
  3.887087e+00    4.733180e-01   9.222670e-03
  3.889298e+00    4.989340e-01   9.499539e-03
  3.891508e+00    5.061866e-01   9.599357e-03
  3.893719e+00    4.882411e-01   9.458591e-03
  3.895929e+00    5.050465e-01   9.651790e-03
  3.898140e+00    4.942335e-01   9.579875e-03
  3.900350e+00    4.878519e-01   9.549766e-03
  3.902561e+00    4.755811e-01   9.460815e-03
  3.904771e+00    4.908810e-01   9.644617e-03
  3.906982e+00    4.874128e-01   9.643531e-03
  3.909192e+00    4.929695e-01   9.732047e-03
  3.911403e+00    4.919700e-01   9.756276e-03
  3.913613e+00    4.651462e-01   9.519982e-03
  3.915823e+00    4.792087e-01   9.697319e-03
  3.918034e+00    4.838341e-01   9.779033e-03
  3.920244e+00    4.712812e-01   9.686531e-03
  3.922455e+00    4.835414e-01   9.847589e-03
  3.924665e+00    4.908054e-01   9.957816e-03
  3.926876e+00    4.962040e-01   1.004983e-02
  3.929086e+00    4.855540e-01   9.978674e-03
  3.931297e+00    4.794585e-01   9.950410e-03
  3.933507e+00    4.628321e-01   9.804523e-03
  3.935718e+00    5.008557e-01   1.022844e-02
  3.937928e+00    4.986953e-01   1.023620e-02
  3.940138e+00    4.794313e-01   1.006559e-02
  3.942349e+00    4.943505e-01   1.025109e-02
  3.944559e+00    4.849597e-01   1.018326e-02
  3.946770e+00    4.887381e-01   1.025300e-02
  3.948980e+00    4.816162e-01   1.020863e-02
  3.951191e+00    5.023500e-01   1.045740e-02
  3.953401e+00    4.838037e-01   1.029380e-02
  3.955612e+00    4.736524e-01   1.021653e-02
  3.957822e+00    4.552829e-01   1.004706e-02
  3.960033e+00    5.075782e-01   1.064169e-02
  3.962243e+00    4.876441e-01   1.046367e-02
  3.964453e+00    4.636910e-01   1.023569e-02
  3.966664e+00    4.922547e-01   1.057999e-02
  3.968874e+00    4.827587e-01   1.050558e-02
  3.971085e+00    4.899187e-01   1.060534e-02
  3.973295e+00    5.041564e-01   1.078019e-02
  3.975506e+00    4.896316e-01   1.064547e-02
  3.977716e+00    4.932265e-01   1.070669e-02
  3.979927e+00    4.719304e-01   1.049479e-02
  3.982137e+00    4.895660e-01   1.071138e-02
  3.984348e+00    4.927512e-01   1.076906e-02
  3.986558e+00    4.681661e-01   1.051880e-02
  3.988768e+00    4.903708e-01   1.078851e-02
  3.990979e+00    4.704840e-01   1.058990e-02
  3.993189e+00    4.718003e-01   1.062742e-02
  3.995400e+00    4.676811e-01   1.060407e-02
  3.997610e+00    4.748219e-01   1.071421e-02
  3.999821e+00    4.766831e-01   1.077237e-02
  4.002031e+00    4.898489e-01   1.095882e-02
  4.004242e+00    4.725869e-01   1.080189e-02
  4.006452e+00    4.653148e-01   1.075708e-02
  4.008663e+00    4.613216e-01   1.074984e-02
  4.010873e+00    4.790491e-01   1.099417e-02
  4.013084e+00    4.618698e-01   1.083519e-02
  4.015294e+00    4.704982e-01   1.097637e-02
  4.017504e+00    4.616846e-01   1.091390e-02
  4.019715e+00    4.780269e-01   1.114762e-02
  4.021925e+00    4.653894e-01   1.104140e-02
  4.024136e+00    4.661476e-01   1.109334e-02
  4.026346e+00    4.795012e-01   1.129501e-02
  4.028557e+00    4.276201e-01   1.070820e-02
  4.030767e+00    4.465016e-01   1.098567e-02
  4.032978e+00    4.936630e-01   1.159829e-02
  4.035188e+00    4.934574e-01   1.164248e-02
  4.037399e+00    4.712445e-01   1.142434e-02
  4.039609e+00    4.812970e-01   1.159320e-02
  4.041819e+00    4.515147e-01   1.127589e-02
  4.044030e+00    4.974529e-01   1.188619e-02
  4.046240e+00    4.835690e-01   1.176917e-02
  4.048451e+00    4.356968e-01   1.121983e-02
  4.050661e+00    4.410264e-01   1.133726e-02
  4.052872e+00    4.911255e-01   1.201712e-02
  4.055082e+00    4.759568e-01   1.188330e-02
  4.057293e+00    4.645535e-01   1.179274e-02
  4.059503e+00    5.129132e-01   1.244766e-02
  4.061714e+00    4.864469e-01   1.217910e-02
  4.063924e+00    5.023339e-01   1.243425e-02
  4.066134e+00    4.836436e-01   1.225831e-02
  4.068345e+00    4.631232e-01   1.205317e-02
  4.070555e+00    5.023153e-01   1.261327e-02
  4.072766e+00    4.959218e-01   1.259455e-02
  4.074976e+00    4.951298e-01   1.264720e-02
  4.077187e+00    5.043438e-01   1.282795e-02
  4.079397e+00    4.935839e-01   1.275502e-02
  4.081608e+00    4.693399e-01   1.250263e-02
  4.083818e+00    4.325496e-01   1.206491e-02
  4.086029e+00    4.492817e-01   1.236081e-02
  4.088239e+00    4.241432e-01   1.207500e-02
  4.090449e+00    4.431018e-01   1.240858e-02
  4.092660e+00    4.486301e-01   1.255442e-02
  4.094870e+00    4.957482e-01   1.327058e-02
  4.097081e+00    5.140274e-01   1.358722e-02
  4.099291e+00    5.086535e-01   1.357195e-02
  4.101502e+00    4.855984e-01   1.331029e-02
  4.103712e+00    4.663287e-01   1.309200e-02
  4.105923e+00    4.682881e-01   1.317038e-02
  4.108133e+00    5.017418e-01   1.368512e-02
  4.110344e+00    4.581824e-01   1.312778e-02
  4.112554e+00    5.035713e-01   1.381687e-02
  4.114764e+00    4.998970e-01   1.382188e-02
  4.116975e+00    4.537701e-01   1.322051e-02
  4.119185e+00    5.279905e-01   1.431885e-02
  4.121396e+00    4.325807e-01   1.301415e-02
  4.123606e+00    4.838605e-01   1.382019e-02
  4.125817e+00    4.635866e-01   1.358455e-02
  4.128027e+00    5.002054e-01   1.417025e-02
  4.130238e+00    4.471014e-01   1.345425e-02
  4.132448e+00    5.103124e-01   1.443641e-02
  4.134659e+00    4.924936e-01   1.424307e-02
  4.136869e+00    5.032495e-01   1.446196e-02
  4.139080e+00    4.932827e-01   1.438273e-02
  4.141290e+00    4.777612e-01   1.421711e-02
  4.143500e+00    5.003938e-01   1.461727e-02
  4.145711e+00    4.774944e-01   1.434558e-02
  4.147921e+00    4.673954e-01   1.425812e-02
  4.150132e+00    5.100776e-01   1.496601e-02
  4.152342e+00    5.095720e-01   1.503085e-02
  4.154553e+00    4.818098e-01   1.468562e-02
  4.156763e+00    4.871943e-01   1.484027e-02
  4.158974e+00    4.680474e-01   1.461879e-02
  4.161184e+00    4.276733e-01   1.404340e-02
  4.163395e+00    4.755524e-01   1.488424e-02
  4.165605e+00    5.206435e-01   1.565494e-02
  4.167815e+00    4.961898e-01   1.536271e-02
  4.170026e+00    4.617007e-01   1.489720e-02
  4.172236e+00    4.634960e-01   1.500681e-02
  4.174447e+00    4.802990e-01   1.535940e-02
  4.176657e+00    4.562770e-01   1.505232e-02
  4.178868e+00    4.922867e-01   1.572355e-02
  4.181078e+00    4.562457e-01   1.522238e-02
  4.183289e+00    5.018477e-01   1.605614e-02
  4.185499e+00    5.277975e-01   1.656343e-02
  4.187710e+00    4.678650e-01   1.568608e-02
  4.189920e+00    4.529505e-01   1.552683e-02
  4.192130e+00    4.705301e-01   1.592213e-02
  4.194341e+00    4.269754e-01   1.526009e-02
  4.196551e+00    4.503950e-01   1.577242e-02
  4.198762e+00    4.020834e-01   1.499728e-02
  4.200972e+00    4.471762e-01   1.591797e-02
  4.203183e+00    4.861976e-01   1.670732e-02
  4.205393e+00    4.874015e-01   1.683941e-02
  4.207604e+00    5.176274e-01   1.747231e-02
  4.209814e+00    4.814306e-01   1.696567e-02
  4.212025e+00    4.730479e-01   1.693663e-02
  4.214235e+00    4.869759e-01   1.730586e-02
  4.216445e+00    4.411144e-01   1.659005e-02
  4.218656e+00    4.480339e-01   1.684483e-02
  4.220866e+00    4.315954e-01   1.665549e-02
  4.223077e+00    4.615735e-01   1.735652e-02
  4.225287e+00    4.520526e-01   1.731187e-02
  4.227498e+00    4.956835e-01   1.827002e-02
  4.229708e+00    5.264150e-01   1.898093e-02
  4.231919e+00    4.720923e-01   1.812411e-02
  4.234129e+00    4.934237e-01   1.868402e-02
  4.236340e+00    5.129274e-01   1.921275e-02
  4.238550e+00    4.672717e-01   1.849987e-02
  4.240761e+00    4.107505e-01   1.749807e-02
  4.242971e+00    5.129322e-01   1.973265e-02
  4.245181e+00    4.691770e-01   1.904989e-02
  4.247392e+00    4.961858e-01   1.977344e-02
  4.249602e+00    4.757435e-01   1.955425e-02
  4.251813e+00    4.876178e-01   1.999203e-02
  4.254023e+00    4.946104e-01   2.033735e-02
  4.256234e+00    4.960878e-01   2.058553e-02
  4.258444e+00    4.858578e-01   2.058539e-02
  4.260655e+00    5.076752e-01   2.127390e-02
  4.262865e+00    4.845201e-01   2.101834e-02
  4.265076e+00    4.776975e-01   2.110772e-02
  4.267286e+00    4.924828e-01   2.168576e-02
  4.269496e+00    4.271581e-01   2.044356e-02
  4.271707e+00    4.942557e-01   2.226090e-02
  4.273917e+00    5.066968e-01   2.283197e-02
  4.276128e+00    4.301937e-01   2.131673e-02
  4.278338e+00    5.304604e-01   2.398721e-02
  4.280549e+00    4.282544e-01   2.186225e-02
  4.282759e+00    4.668762e-01   2.315426e-02
  4.284970e+00    4.876469e-01   2.401439e-02
  4.287180e+00    4.328738e-01   2.289616e-02
  4.289391e+00    4.354542e-01   2.313700e-02
  4.291601e+00    5.146695e-01   2.535424e-02
  4.293811e+00    4.869097e-01   2.485483e-02
  4.296022e+00    4.788131e-01   2.484395e-02
  4.298232e+00    5.301292e-01   2.636120e-02
  4.300443e+00    4.825383e-01   2.535776e-02
  4.302653e+00    4.526532e-01   2.477208e-02
  4.304864e+00    5.311255e-01   2.706624e-02
  4.307074e+00    4.595366e-01   2.540247e-02
  4.309285e+00    4.406420e-01   2.510072e-02
  4.311495e+00    4.413296e-01   2.535568e-02
  4.313706e+00    5.062717e-01   2.741137e-02
  4.315916e+00    5.376177e-01   2.852583e-02
  4.318126e+00    4.737952e-01   2.704463e-02
  4.320337e+00    3.875780e-01   2.470670e-02
  4.322547e+00    5.054306e-01   2.851400e-02
  4.324758e+00    4.886601e-01   2.832905e-02
  4.326968e+00    4.774879e-01   2.831802e-02
  4.329179e+00    5.374244e-01   3.037385e-02
  4.331389e+00    5.969685e-01   3.238166e-02
  4.333600e+00    4.568726e-01   2.866676e-02
  4.335810e+00    4.315465e-01   2.819235e-02
  4.338021e+00    4.221843e-01   2.824142e-02
  4.340231e+00    4.918099e-01   3.086349e-02
  4.342442e+00    3.668940e-01   2.701601e-02
  4.344652e+00    3.734335e-01   2.762516e-02
  4.346862e+00    3.727579e-01   2.798620e-02
  4.349073e+00    5.415530e-01   3.422421e-02
  4.351283e+00    5.602256e-01   3.532954e-02
  4.353494e+00    3.906978e-01   2.995886e-02
  4.355704e+00    4.803665e-01   3.375498e-02
  4.357915e+00    3.999030e-01   3.131144e-02
  4.360125e+00    4.664531e-01   3.439249e-02
  4.362336e+00    4.340473e-01   3.378265e-02
  4.364546e+00    4.347637e-01   3.442326e-02
  4.366757e+00    4.544885e-01   3.589851e-02
  4.368967e+00    4.039087e-01   3.451454e-02
  4.371177e+00    5.451037e-01   4.095084e-02
  4.373388e+00    4.212041e-01   3.680121e-02
  4.375598e+00    3.797300e-01   3.574049e-02
  4.377809e+00    3.823489e-01   3.676935e-02
  4.380019e+00    3.420377e-01   3.565170e-02
  4.382230e+00    4.201014e-01   4.061555e-02
  4.384440e+00    2.583518e-01   3.276750e-02
  4.386651e+00    3.774900e-01   4.082857e-02
  4.388861e+00    4.922008e-01   4.818558e-02
  4.391072e+00    5.233882e-01   5.143617e-02
  4.393282e+00    4.359810e-01   4.875714e-02
  4.395492e+00    5.241609e-01   5.568603e-02
  4.397703e+00    3.916134e-01   5.033153e-02
  4.399913e+00    3.726889e-01   5.158636e-02
  4.402124e+00    2.541523e-01   4.501963e-02
  4.404334e+00    4.206370e-01   6.155741e-02
  4.406545e+00    1.469360e-01   3.908773e-02
  4.408755e+00    5.750228e-01   8.386867e-02
  4.410966e+00    6.500702e-01   9.869245e-02
  4.413176e+00    3.222573e-01   7.865997e-02
  4.415387e+00   -4.066064e-01            nan
  4.417597e+00   -2.015506e+00            nan
  4.419807e+00   -3.766224e-01            nan
