# == pyFAI calibration ==
# Distance Sample to Detector: 0.216 m
# PONI: 1.166e-01, 1.308e-01 m
# Rotations: 0.000000 0.000000 0.000000 rad
# 
# == Fit2d calibration ==
# Distance Sample-beamCenter: 216.000 mm
# Center: x=1744.293, y=1555.000 pix
# Tilt: 0.000 deg  TiltPlanRot: 0.000 deg
# 
# Detector Eiger 9M	 PixelSize= 7.500e-05, 7.500e-05 m
#    Detector has a mask: True 
#    Detector has a dark current: False 
#    detector has a flat field: False 
# 
# Wavelength: 9.8e-11 m
# Mask applied: from detector
# Dark current applied: False
# Flat field applied: False
# Polarization factor: None
# Normalization factor: 1.0
# 
# Headers of the input frame:
# {
# "_array_data.header_convention": "SLS_1.0",
# "_array_data.header_contents": "# Detector: Dectris Eiger 9M, S/N E-18-0102\r\n# Pixel_size 75e-6 m x 75e-6 m\r\n# Silicon sensor, thickness 0.000450 m\r\n# Exposure_time 0.024997 s\r\n# Exposure_period 0.025000 s\r\n# Count_cutoff 62318 counts\r\n# Wavelength 0.980106 A\r\n# Detector_distance 0.215992 m\r\n# Beam_xy (1555, 1744) pixels\r\n# Start_angle 0.000000 deg.\r\n# Angle_increment 0.000000 deg.",
# "Content-Type": "application/octet-stream;",
# "conversions": "x-CBF_BYTE_OFFSET",
# "Content-Transfer-Encoding": "BINARY",
# "X-Binary-Size": "10166616",
# "X-Binary-ID": "1",
# "X-Binary-Element-Type": "signed 32-bit integer",
# "X-Binary-Element-Byte-Order": "LITTLE_ENDIAN",
# "Content-MD5": "/GCGY4JYlJGMow7//x/ETg==",
# "X-Binary-Number-of-Elements": "10166590",
# "X-Binary-Size-Fastest-Dimension": "3110",
# "X-Binary-Size-Second-Dimension": "3269",
# "X-Binary-Size-Padding": "4095"
# }
# --> H:/Proxima2a_2019-04-05/RAW_DATA/C5_gel17_position5/C5_mesh_1_data.cbf/C5_mesh_1_data.cbf000113.dat
#        q_A^-1              I           sigma 
  1.105228e-03    1.572846e+00   6.786252e-01
  3.315685e-03    1.302231e+00   3.753959e-01
  5.526141e-03    1.251162e+00   2.845305e-01
  7.736597e-03    1.080842e+00   2.234093e-01
  9.947054e-03    1.372255e+00   2.219187e-01
  1.215751e-02    1.421990e+00   2.042758e-01
  1.436797e-02    1.260152e+00   1.768835e-01
  1.657842e-02    1.471332e+00   1.779097e-01
  1.878888e-02    1.226129e+00   1.525568e-01
  2.099934e-02    1.249460e+00   1.457012e-01
  2.320979e-02    1.250573e+00   1.386396e-01
  2.542025e-02    1.449851e+00   1.426498e-01
  2.763070e-02    1.374709e+00   1.332281e-01
  2.984116e-02    1.340665e+00   1.266008e-01
  3.205162e-02    1.360173e+00   1.230505e-01
  3.426207e-02    1.345361e+00   1.183571e-01
  3.647253e-02    1.558281e+00   1.234561e-01
  3.868299e-02    1.456125e+00   1.158897e-01
  4.089344e-02    1.417591e+00   1.112132e-01
  4.310390e-02    1.431010e+00   1.088292e-01
  4.531436e-02    1.334555e+00   1.025024e-01
  4.752481e-02    1.426541e+00   1.034811e-01
  4.973527e-02    1.461359e+00   1.023836e-01
  5.194572e-02    1.422725e+00   9.884700e-02
  5.415618e-02    1.336213e+00   9.381595e-02
  5.636664e-02    1.407989e+00   9.439844e-02
  5.857709e-02    1.432760e+00   9.341171e-02
  6.078755e-02    1.315922e+00   8.787641e-02
  6.299801e-02    1.410363e+00   8.936386e-02
  6.520846e-02    1.484685e+00   9.012139e-02
  6.741892e-02    1.462381e+00   8.795897e-02
  6.962938e-02    1.433811e+00   8.570620e-02
  7.183983e-02    1.470009e+00   8.543426e-02
  7.405029e-02    1.336948e+00   8.024880e-02
  7.626074e-02    1.387380e+00   8.055417e-02
  7.847120e-02    1.472768e+00   8.181655e-02
  8.068166e-02    1.398555e+00   7.862816e-02
  8.289211e-02    1.388596e+00   7.729559e-02
  8.510257e-02    1.344992e+00   7.507740e-02
  8.731303e-02    1.526293e+00   7.895574e-02
  8.952348e-02    1.503319e+00   7.738793e-02
  9.173394e-02    1.506673e+00   7.653205e-02
  9.394439e-02    1.469840e+00   7.469377e-02
  9.615485e-02    1.473616e+00   7.392339e-02
  9.836531e-02    1.527483e+00   7.440988e-02
  1.005758e-01    1.439025e+00   7.142557e-02
  1.027862e-01    1.393053e+00   6.951390e-02
  1.049967e-01    1.393409e+00   6.878588e-02
  1.072071e-01    1.430776e+00   6.897897e-02
  1.094176e-01    1.509711e+00   7.013573e-02
  1.116280e-01    1.537534e+00   7.007321e-02
  1.138385e-01    1.541493e+00   6.947748e-02
  1.160490e-01    1.545202e+00   6.889451e-02
  1.182594e-01    1.592138e+00   6.927486e-02
  1.204699e-01    1.631339e+00   6.947567e-02
  1.226803e-01    1.517291e+00   6.639402e-02
  1.248908e-01    1.533061e+00   6.614412e-02
  1.271012e-01    1.530336e+00   6.550682e-02
  1.293117e-01    1.612865e+00   6.667189e-02
  1.315222e-01    1.584112e+00   6.551580e-02
  1.337326e-01    1.604600e+00   6.538965e-02
  1.359431e-01    1.611812e+00   6.557482e-02
  1.381535e-01    1.586689e+00   6.593506e-02
  1.403640e-01    1.639410e+00   6.731091e-02
  1.425744e-01    1.516669e+00   6.484558e-02
  1.447849e-01    1.578772e+00   6.617510e-02
  1.469953e-01    1.547715e+00   6.547996e-02
  1.492058e-01    1.515609e+00   6.472194e-02
  1.514163e-01    1.507147e+00   6.443383e-02
  1.536267e-01    1.594282e+00   6.614088e-02
  1.558372e-01    1.557956e+00   6.523868e-02
  1.580476e-01    1.533715e+00   6.457208e-02
  1.602581e-01    1.607020e+00   6.592932e-02
  1.624685e-01    1.601808e+00   6.564210e-02
  1.646790e-01    1.609584e+00   6.561231e-02
  1.668895e-01    1.675796e+00   6.675486e-02
  1.690999e-01    1.788777e+00   6.876134e-02
  1.713104e-01    1.756259e+00   6.792203e-02
  1.735208e-01    1.776853e+00   6.810666e-02
  1.757313e-01    1.728753e+00   6.696796e-02
  1.779417e-01    1.814945e+00   6.839330e-02
  1.801522e-01    1.835546e+00   6.856132e-02
  1.823626e-01    1.793517e+00   6.754623e-02
  1.845731e-01    1.820177e+00   6.782597e-02
  1.867836e-01    1.865260e+00   6.842908e-02
  1.889940e-01    1.998064e+00   7.059180e-02
  1.912045e-01    1.995654e+00   7.031363e-02
  1.934149e-01    1.933949e+00   6.898639e-02
  1.956254e-01    1.957439e+00   6.917518e-02
  1.978358e-01    2.001296e+00   6.970611e-02
  2.000463e-01    2.021854e+00   6.983107e-02
  2.022568e-01    2.019518e+00   6.956165e-02
  2.044672e-01    1.991959e+00   6.884870e-02
  2.066777e-01    1.985387e+00   6.850691e-02
  2.088881e-01    1.948479e+00   6.764509e-02
  2.110986e-01    1.979058e+00   6.794006e-02
  2.133090e-01    1.969184e+00   6.755008e-02
  2.155195e-01    1.897638e+00   6.609159e-02
  2.177300e-01    1.951804e+00   6.650162e-02
  2.199404e-01    2.007040e+00   6.565916e-02
  2.221509e-01    1.980769e+00   6.415693e-02
  2.243613e-01    1.984368e+00   6.340112e-02
  2.265718e-01    2.030246e+00   6.342298e-02
  2.287822e-01    2.131680e+00   6.434479e-02
  2.309927e-01    2.041622e+00   6.239728e-02
  2.332031e-01    2.129892e+00   6.318639e-02
  2.354136e-01    2.157322e+00   6.307657e-02
  2.376241e-01    2.038956e+00   6.084581e-02
  2.398345e-01    2.040638e+00   6.042035e-02
  2.420450e-01    2.135750e+00   6.137067e-02
  2.442554e-01    2.065087e+00   5.993113e-02
  2.464659e-01    2.011933e+00   5.875765e-02
  2.486763e-01    2.131444e+00   6.008006e-02
  2.508868e-01    2.079764e+00   5.897288e-02
  2.530973e-01    2.078527e+00   5.858981e-02
  2.553077e-01    2.079072e+00   5.824204e-02
  2.575182e-01    2.088199e+00   5.802441e-02
  2.597286e-01    2.044191e+00   5.707600e-02
  2.619391e-01    1.984918e+00   5.591863e-02
  2.641495e-01    2.042495e+00   5.640991e-02
  2.663600e-01    2.032684e+00   5.596479e-02
  2.685704e-01    2.089317e+00   5.643149e-02
  2.707809e-01    2.077206e+00   5.596906e-02
  2.729914e-01    1.953015e+00   5.398730e-02
  2.752018e-01    2.012399e+00   5.451670e-02
  2.774123e-01    1.984547e+00   5.386160e-02
  2.796227e-01    1.987834e+00   5.363952e-02
  2.818332e-01    2.037442e+00   5.403382e-02
  2.840436e-01    1.959104e+00   5.272801e-02
  2.862541e-01    1.977875e+00   5.272534e-02
  2.884646e-01    1.964913e+00   5.230289e-02
  2.906750e-01    1.941276e+00   5.174084e-02
  2.928855e-01    1.992943e+00   5.218194e-02
  2.950959e-01    1.958992e+00   5.149792e-02
  2.973064e-01    1.988066e+00   5.164551e-02
  2.995168e-01    1.896797e+00   5.021761e-02
  3.017273e-01    1.912637e+00   5.020452e-02
  3.039377e-01    1.942997e+00   5.037985e-02
  3.061482e-01    1.940656e+00   5.013167e-02
  3.083587e-01    1.929918e+00   4.977641e-02
  3.105691e-01    1.870183e+00   4.879072e-02
  3.127796e-01    1.851719e+00   4.834515e-02
  3.149900e-01    1.849719e+00   4.811772e-02
  3.172005e-01    1.868195e+00   4.815968e-02
  3.194109e-01    1.928926e+00   4.873420e-02
  3.216214e-01    1.884336e+00   4.797109e-02
  3.238319e-01    1.867672e+00   4.756927e-02
  3.260423e-01    1.890916e+00   4.767374e-02
  3.282528e-01    1.782372e+00   4.610094e-02
  3.304632e-01    1.828636e+00   4.651451e-02
  3.326737e-01    1.831986e+00   4.637545e-02
  3.348841e-01    1.837935e+00   4.627056e-02
  3.370946e-01    1.794652e+00   4.555045e-02
  3.393050e-01    1.866262e+00   4.627438e-02
  3.415155e-01    1.875171e+00   4.621031e-02
  3.437260e-01    1.843945e+00   4.565409e-02
  3.459364e-01    1.846521e+00   4.551697e-02
  3.481469e-01    1.800105e+00   4.477721e-02
  3.503573e-01    1.806267e+00   4.469038e-02
  3.525678e-01    1.809806e+00   4.457473e-02
  3.547782e-01    1.781006e+00   4.405881e-02
  3.569887e-01    1.794365e+00   4.406704e-02
  3.591992e-01    1.877185e+00   4.491305e-02
  3.614096e-01    1.830855e+00   4.420160e-02
  3.636201e-01    1.807194e+00   4.376069e-02
  3.658305e-01    1.800489e+00   4.353047e-02
  3.680410e-01    1.730273e+00   4.252642e-02
  3.702514e-01    1.763515e+00   4.278863e-02
  3.724619e-01    1.771163e+00   4.273526e-02
  3.746724e-01    1.811162e+00   4.307095e-02
  3.768828e-01    1.813558e+00   4.295439e-02
  3.790933e-01    1.807996e+00   4.274874e-02
  3.813037e-01    1.743660e+00   4.184389e-02
  3.835142e-01    1.801543e+00   4.239305e-02
  3.857246e-01    1.798364e+00   4.221857e-02
  3.879351e-01    1.782896e+00   4.190054e-02
  3.901455e-01    1.800636e+00   4.197443e-02
  3.923560e-01    1.788105e+00   4.169518e-02
  3.945665e-01    1.797683e+00   4.167413e-02
  3.967769e-01    1.741042e+00   4.088391e-02
  3.989874e-01    1.696771e+00   4.023474e-02
  4.011978e-01    1.744828e+00   4.067504e-02
  4.034083e-01    1.791528e+00   4.108927e-02
  4.056187e-01    1.776661e+00   4.079238e-02
  4.078292e-01    1.758644e+00   4.046218e-02
  4.100397e-01    1.797220e+00   4.077868e-02
  4.122501e-01    1.741520e+00   4.002168e-02
  4.144606e-01    1.777101e+00   4.030857e-02
  4.166710e-01    1.818819e+00   4.065770e-02
  4.188815e-01    1.767920e+00   3.996638e-02
  4.210919e-01    1.765627e+00   3.982336e-02
  4.233024e-01    1.784894e+00   3.992230e-02
  4.255128e-01    1.799638e+00   3.997098e-02
  4.277233e-01    1.766839e+00   3.949127e-02
  4.299338e-01    1.768648e+00   3.939779e-02
  4.321442e-01    1.772196e+00   3.932444e-02
  4.343547e-01    1.756404e+00   3.903814e-02
  4.365651e-01    1.726102e+00   3.858997e-02
  4.387756e-01    1.747754e+00   3.872252e-02
  4.409860e-01    1.748901e+00   3.862790e-02
  4.431965e-01    1.818491e+00   3.928000e-02
  4.454070e-01    1.755839e+00   3.849006e-02
  4.476174e-01    1.713116e+00   3.791450e-02
  4.498279e-01    1.705141e+00   3.772322e-02
  4.520383e-01    1.751651e+00   3.812931e-02
  4.542488e-01    1.744179e+00   3.794532e-02
  4.564592e-01    1.739169e+00   3.778912e-02
  4.586697e-01    1.763572e+00   3.795232e-02
  4.608801e-01    1.697180e+00   3.713137e-02
  4.630906e-01    1.720329e+00   3.728473e-02
  4.653011e-01    1.735375e+00   3.734897e-02
  4.675115e-01    1.773727e+00   3.765996e-02
  4.697220e-01    1.716323e+00   3.694857e-02
  4.719324e-01    1.704807e+00   3.672914e-02
  4.741429e-01    1.675480e+00   3.631803e-02
  4.763533e-01    1.690311e+00   3.638489e-02
  4.785638e-01    1.685411e+00   3.623828e-02
  4.807743e-01    1.672826e+00   3.601089e-02
  4.829847e-01    1.693897e+00   3.614546e-02
  4.851952e-01    1.676336e+00   3.586661e-02
  4.874056e-01    1.684320e+00   3.586127e-02
  4.896161e-01    1.670188e+00   3.562196e-02
  4.918265e-01    1.711555e+00   3.597083e-02
  4.940370e-01    1.755941e+00   3.634432e-02
  4.962475e-01    1.710277e+00   3.578007e-02
  4.984579e-01    1.671300e+00   3.528282e-02
  5.006684e-01    1.688353e+00   3.537591e-02
  5.028788e-01    1.670826e+00   3.510654e-02
  5.050893e-01    1.655363e+00   3.485872e-02
  5.072997e-01    1.653048e+00   3.475020e-02
  5.095102e-01    1.652501e+00   3.466124e-02
  5.117206e-01    1.693408e+00   3.500419e-02
  5.139311e-01    1.693137e+00   3.491855e-02
  5.161416e-01    1.668178e+00   3.457834e-02
  5.183520e-01    1.652097e+00   3.432947e-02
  5.205625e-01    1.671862e+00   3.445332e-02
  5.227729e-01    1.666288e+00   3.431562e-02
  5.249834e-01    1.624352e+00   3.380240e-02
  5.271938e-01    1.646803e+00   3.395576e-02
  5.294043e-01    1.700798e+00   3.442831e-02
  5.316148e-01    1.745102e+00   3.479397e-02
  5.338252e-01    1.732845e+00   3.459233e-02
  5.360357e-01    1.735053e+00   3.453556e-02
  5.382461e-01    1.736473e+00   3.447159e-02
  5.404566e-01    1.716329e+00   3.419307e-02
  5.426670e-01    1.705156e+00   3.400481e-02
  5.448775e-01    1.734193e+00   3.421648e-02
  5.470879e-01    1.732696e+00   3.412546e-02
  5.492984e-01    1.756393e+00   3.428161e-02
  5.515089e-01    1.786225e+00   3.449484e-02
  5.537193e-01    1.768013e+00   3.424295e-02
  5.559298e-01    1.710137e+00   3.360393e-02
  5.581402e-01    1.779512e+00   3.420386e-02
  5.603507e-01    1.787518e+00   3.420612e-02
  5.625611e-01    1.770493e+00   3.396895e-02
  5.647716e-01    1.743846e+00   3.363916e-02
  5.669821e-01    1.739341e+00   3.352325e-02
  5.691925e-01    1.710253e+00   3.317041e-02
  5.714030e-01    1.721727e+00   3.321050e-02
  5.736134e-01    1.744137e+00   3.335488e-02
  5.758239e-01    1.696771e+00   3.282861e-02
  5.780343e-01    1.670561e+00   3.250518e-02
  5.802448e-01    1.690515e+00   3.263026e-02
  5.824552e-01    1.702913e+00   3.268099e-02
  5.846657e-01    1.655617e+00   3.215681e-02
  5.868762e-01    1.602501e+00   3.157089e-02
  5.890866e-01    1.650201e+00   3.197084e-02
  5.912971e-01    1.648403e+00   3.188727e-02
  5.935075e-01    1.620075e+00   3.154676e-02
  5.957180e-01    1.623488e+00   3.151517e-02
  5.979284e-01    1.650722e+00   3.171353e-02
  6.001389e-01    1.649009e+00   3.163253e-02
  6.023494e-01    1.645043e+00   3.153031e-02
  6.045598e-01    1.656822e+00   3.157858e-02
  6.067703e-01    1.658979e+00   3.153557e-02
  6.089807e-01    1.682477e+00   3.169429e-02
  6.111912e-01    1.664691e+00   3.146337e-02
  6.134016e-01    1.657254e+00   3.133038e-02
  6.156121e-01    1.657568e+00   3.127107e-02
  6.178226e-01    1.681056e+00   3.142950e-02
  6.200330e-01    1.685532e+00   3.140924e-02
  6.222435e-01    1.700494e+00   3.148584e-02
  6.244539e-01    1.664647e+00   3.109120e-02
  6.266644e-01    1.683896e+00   3.120945e-02
  6.288748e-01    1.650758e+00   3.084071e-02
  6.310853e-01    1.637273e+00   3.065482e-02
  6.332957e-01    1.678655e+00   3.097988e-02
  6.355062e-01    1.678602e+00   3.091921e-02
  6.377167e-01    1.706511e+00   3.111537e-02
  6.399271e-01    1.699165e+00   3.098885e-02
  6.421376e-01    1.669153e+00   3.065532e-02
  6.443480e-01    1.681427e+00   3.070929e-02
  6.465585e-01    1.685453e+00   3.068779e-02
  6.487689e-01    1.697640e+00   3.074038e-02
  6.509794e-01    1.678600e+00   3.050986e-02
  6.531899e-01    1.641679e+00   3.011573e-02
  6.554003e-01    1.586528e+00   2.954988e-02
  6.576108e-01    1.601129e+00   2.963027e-02
  6.598212e-01    1.572166e+00   2.930650e-02
  6.620317e-01    1.584926e+00   2.937065e-02
  6.642421e-01    1.584730e+00   2.931448e-02
  6.664526e-01    1.644166e+00   2.980414e-02
  6.686630e-01    1.622109e+00   2.954884e-02
  6.708735e-01    1.613573e+00   2.941691e-02
  6.730840e-01    1.615309e+00   2.937908e-02
  6.752944e-01    1.619090e+00   2.935994e-02
  6.775049e-01    1.592868e+00   2.906837e-02
  6.797153e-01    1.578806e+00   2.888734e-02
  6.819258e-01    1.607698e+00   2.909790e-02
  6.841362e-01    1.614049e+00   2.910289e-02
  6.863467e-01    1.573936e+00   2.868751e-02
  6.885572e-01    1.604999e+00   2.891728e-02
  6.907676e-01    1.594431e+00   2.877031e-02
  6.929781e-01    1.608709e+00   2.884744e-02
  6.951885e-01    1.602549e+00   2.874119e-02
  6.973990e-01    1.573902e+00   2.843278e-02
  6.996094e-01    1.562690e+00   2.828147e-02
  7.018199e-01    1.596921e+00   2.853938e-02
  7.040303e-01    1.575742e+00   2.829970e-02
  7.062408e-01    1.577801e+00   2.826857e-02
  7.084513e-01    1.602518e+00   2.843958e-02
  7.106617e-01    1.575452e+00   2.814939e-02
  7.128722e-01    1.530049e+00   2.769281e-02
  7.150826e-01    1.603496e+00   2.830081e-02
  7.172931e-01    1.585715e+00   2.809497e-02
  7.195035e-01    1.562585e+00   2.784136e-02
  7.217140e-01    1.581896e+00   2.806242e-02
  7.239245e-01    1.591830e+00   2.837838e-02
  7.261349e-01    1.600298e+00   2.856324e-02
  7.283454e-01    1.611733e+00   2.873838e-02
  7.305558e-01    1.566274e+00   2.838404e-02
  7.327663e-01    1.548257e+00   2.826245e-02
  7.349767e-01    1.558976e+00   2.837641e-02
  7.371872e-01    1.574224e+00   2.850366e-02
  7.393976e-01    1.576502e+00   2.851001e-02
  7.416081e-01    1.578768e+00   2.851431e-02
  7.438186e-01    1.540067e+00   2.801991e-02
  7.460290e-01    1.540540e+00   2.773318e-02
  7.482395e-01    1.550669e+00   2.765434e-02
  7.504499e-01    1.589582e+00   2.786226e-02
  7.526604e-01    1.553101e+00   2.742494e-02
  7.548708e-01    1.544375e+00   2.725923e-02
  7.570813e-01    1.553905e+00   2.729256e-02
  7.592918e-01    1.577538e+00   2.746411e-02
  7.615022e-01    1.580692e+00   2.745769e-02
  7.637127e-01    1.573987e+00   2.736663e-02
  7.659231e-01    1.555780e+00   2.717607e-02
  7.681336e-01    1.564361e+00   2.721941e-02
  7.703440e-01    1.577434e+00   2.730167e-02
  7.725545e-01    1.549216e+00   2.702573e-02
  7.747650e-01    1.609191e+00   2.750528e-02
  7.769754e-01    1.606668e+00   2.743049e-02
  7.791859e-01    1.581838e+00   2.716412e-02
  7.813963e-01    1.540523e+00   2.675508e-02
  7.836068e-01    1.544434e+00   2.673766e-02
  7.858172e-01    1.573327e+00   2.693616e-02
  7.880277e-01    1.579709e+00   2.693940e-02
  7.902381e-01    1.597477e+00   2.704125e-02
  7.924486e-01    1.623732e+00   2.721207e-02
  7.946591e-01    1.605956e+00   2.701432e-02
  7.968695e-01    1.611978e+00   2.701651e-02
  7.990800e-01    1.587058e+00   2.675895e-02
  8.012904e-01    1.590177e+00   2.673890e-02
  8.035009e-01    1.622269e+00   2.695929e-02
  8.057113e-01    1.650314e+00   2.714433e-02
  8.079218e-01    1.664684e+00   2.721519e-02
  8.101323e-01    1.603965e+00   2.666892e-02
  8.123427e-01    1.595561e+00   2.655357e-02
  8.145532e-01    1.619135e+00   2.670327e-02
  8.167636e-01    1.615452e+00   2.662802e-02
  8.189741e-01    1.617249e+00   2.659841e-02
  8.211845e-01    1.627038e+00   2.663408e-02
  8.233950e-01    1.597694e+00   2.634989e-02
  8.256054e-01    1.647259e+00   2.671115e-02
  8.278159e-01    1.629376e+00   2.652191e-02
  8.300264e-01    1.621196e+00   2.641240e-02
  8.322368e-01    1.655760e+00   2.664910e-02
  8.344473e-01    1.671863e+00   2.673459e-02
  8.366577e-01    1.622584e+00   2.629526e-02
  8.388682e-01    1.595642e+00   2.603435e-02
  8.410786e-01    1.636032e+00   2.631976e-02
  8.432891e-01    1.622162e+00   2.616636e-02
  8.454996e-01    1.604934e+00   2.598582e-02
  8.477100e-01    1.624436e+00   2.610174e-02
  8.499205e-01    1.629254e+00   2.609938e-02
  8.521309e-01    1.613417e+00   2.593171e-02
  8.543414e-01    1.620236e+00   2.594593e-02
  8.565518e-01    1.576107e+00   2.555030e-02
  8.587623e-01    1.590320e+00   2.562528e-02
  8.609727e-01    1.620277e+00   2.582539e-02
  8.631832e-01    1.640027e+00   2.594227e-02
  8.653937e-01    1.601063e+00   2.559286e-02
  8.676041e-01    1.590077e+00   2.546641e-02
  8.698146e-01    1.614259e+00   2.562012e-02
  8.720250e-01    1.586314e+00   2.535868e-02
  8.742355e-01    1.567969e+00   2.517323e-02
  8.764459e-01    1.596398e+00   2.536167e-02
  8.786564e-01    1.598034e+00   2.533684e-02
  8.808669e-01    1.590455e+00   2.523836e-02
  8.830773e-01    1.585969e+00   2.516481e-02
  8.852878e-01    1.597662e+00   2.521953e-02
  8.874982e-01    1.570297e+00   2.496634e-02
  8.897087e-01    1.562662e+00   2.486834e-02
  8.919191e-01    1.575379e+00   2.493186e-02
  8.941296e-01    1.549341e+00   2.468830e-02
  8.963401e-01    1.569989e+00   2.481614e-02
  8.985505e-01    1.601849e+00   2.502973e-02
  9.007610e-01    1.561530e+00   2.467640e-02
  9.029714e-01    1.567103e+00   2.468493e-02
  9.051819e-01    1.595125e+00   2.486749e-02
  9.073923e-01    1.580616e+00   2.471779e-02
  9.096028e-01    1.590592e+00   2.476086e-02
  9.118132e-01    1.602185e+00   2.481469e-02
  9.140237e-01    1.583313e+00   2.463168e-02
  9.162342e-01    1.562935e+00   2.443849e-02
  9.184446e-01    1.583863e+00   2.456597e-02
  9.206551e-01    1.603167e+00   2.467962e-02
  9.228655e-01    1.575158e+00   2.442811e-02
  9.250760e-01    1.594464e+00   2.454208e-02
  9.272864e-01    1.597284e+00   2.452956e-02
  9.294969e-01    1.591076e+00   2.444618e-02
  9.317074e-01    1.601966e+00   2.449503e-02
  9.339178e-01    1.592161e+00   2.438660e-02
  9.361283e-01    1.645945e+00   2.475852e-02
  9.383387e-01    1.631623e+00   2.461705e-02
  9.405492e-01    1.625973e+00   2.454006e-02
  9.427596e-01    1.646449e+00   2.465855e-02
  9.449701e-01    1.642575e+00   2.459607e-02
  9.471805e-01    1.655191e+00   2.465534e-02
  9.493910e-01    1.688148e+00   2.486544e-02
  9.516015e-01    1.707988e+00   2.497620e-02
  9.538119e-01    1.693466e+00   2.483574e-02
  9.560224e-01    1.703322e+00   2.487283e-02
  9.582328e-01    1.716635e+00   2.493634e-02
  9.604433e-01    1.718314e+00   2.491322e-02
  9.626537e-01    1.737684e+00   2.501954e-02
  9.648642e-01    1.754304e+00   2.510448e-02
  9.670747e-01    1.756132e+00   2.508293e-02
  9.692851e-01    1.760052e+00   2.507752e-02
  9.714956e-01    1.790781e+00   2.525982e-02
  9.737060e-01    1.788001e+00   2.520705e-02
  9.759165e-01    1.791557e+00   2.519652e-02
  9.781269e-01    1.806629e+00   2.526920e-02
  9.803374e-01    1.786272e+00   2.509167e-02
  9.825478e-01    1.789839e+00   2.508359e-02
  9.847583e-01    1.795020e+00   2.508574e-02
  9.869688e-01    1.767501e+00   2.485941e-02
  9.891792e-01    1.730029e+00   2.456177e-02
  9.913897e-01    1.763039e+00   2.476154e-02
  9.936001e-01    1.742579e+00   2.458522e-02
  9.958106e-01    1.701786e+00   2.426274e-02
  9.980210e-01    1.647833e+00   2.384404e-02
  1.000231e+00    1.621003e+00   2.377867e-02
  1.002442e+00    1.602734e+00   2.376993e-02
  1.004652e+00    1.602086e+00   2.383143e-02
  1.006863e+00    1.596439e+00   2.383874e-02
  1.009073e+00    1.577644e+00   2.373428e-02
  1.011284e+00    1.571780e+00   2.372179e-02
  1.013494e+00    1.561074e+00   2.366432e-02
  1.015705e+00    1.528968e+00   2.344183e-02
  1.017915e+00    1.540008e+00   2.354252e-02
  1.020126e+00    1.488998e+00   2.316502e-02
  1.022336e+00    1.458899e+00   2.294095e-02
  1.024547e+00    1.491163e+00   2.320423e-02
  1.026757e+00    1.522522e+00   2.345526e-02
  1.028967e+00    1.513560e+00   2.339374e-02
  1.031178e+00    1.501747e+00   2.330837e-02
  1.033388e+00    1.464235e+00   2.302035e-02
  1.035599e+00    1.492242e+00   2.324286e-02
  1.037809e+00    1.485781e+00   2.319570e-02
  1.040020e+00    1.460943e+00   2.300225e-02
  1.042230e+00    1.445727e+00   2.288403e-02
  1.044441e+00    1.469088e+00   2.306797e-02
  1.046651e+00    1.486406e+00   2.320370e-02
  1.048862e+00    1.460290e+00   2.299819e-02
  1.051072e+00    1.444608e+00   2.287203e-02
  1.053282e+00    1.448346e+00   2.290070e-02
  1.055493e+00    1.431218e+00   2.276065e-02
  1.057703e+00    1.459072e+00   2.297957e-02
  1.059914e+00    1.467975e+00   2.304535e-02
  1.062124e+00    1.463253e+00   2.300424e-02
  1.064335e+00    1.467284e+00   2.303247e-02
  1.066545e+00    1.448256e+00   2.287673e-02
  1.068756e+00    1.414872e+00   2.260786e-02
  1.070966e+00    1.454529e+00   2.291600e-02
  1.073177e+00    1.469149e+00   2.302488e-02
  1.075387e+00    1.423660e+00   2.266044e-02
  1.077597e+00    1.444840e+00   2.282120e-02
  1.079808e+00    1.423368e+00   2.252011e-02
  1.082018e+00    1.434490e+00   2.242070e-02
  1.084229e+00    1.422098e+00   2.221505e-02
  1.086439e+00    1.436149e+00   2.223766e-02
  1.088650e+00    1.437214e+00   2.217069e-02
  1.090860e+00    1.403590e+00   2.184339e-02
  1.093071e+00    1.351329e+00   2.137285e-02
  1.095281e+00    1.365966e+00   2.143263e-02
  1.097492e+00    1.367988e+00   2.139506e-02
  1.099702e+00    1.397547e+00   2.157436e-02
  1.101912e+00    1.392735e+00   2.148915e-02
  1.104123e+00    1.372016e+00   2.128156e-02
  1.106333e+00    1.391078e+00   2.138512e-02
  1.108544e+00    1.375896e+00   2.122468e-02
  1.110754e+00    1.386146e+00   2.126120e-02
  1.112965e+00    1.394221e+00   2.128288e-02
  1.115175e+00    1.416935e+00   2.141443e-02
  1.117386e+00    1.389222e+00   2.116508e-02
  1.119596e+00    1.380984e+00   2.106477e-02
  1.121807e+00    1.369637e+00   2.093980e-02
  1.124017e+00    1.360642e+00   2.083488e-02
  1.126228e+00    1.402396e+00   2.111641e-02
  1.128438e+00    1.415488e+00   2.117781e-02
  1.130648e+00    1.480472e+00   2.162314e-02
  1.132859e+00    1.658539e+00   2.284914e-02
  1.135069e+00    1.662666e+00   2.283973e-02
  1.137280e+00    1.458022e+00   2.135421e-02
  1.139490e+00    1.393362e+00   2.084216e-02
  1.141701e+00    1.369445e+00   2.062956e-02
  1.143911e+00    1.355679e+00   2.049408e-02
  1.146122e+00    1.342773e+00   2.036472e-02
  1.148332e+00    1.376984e+00   2.059066e-02
  1.150543e+00    1.383985e+00   2.061205e-02
  1.152753e+00    1.362578e+00   2.042133e-02
  1.154963e+00    1.351065e+00   2.030407e-02
  1.157174e+00    1.351756e+00   2.027934e-02
  1.159384e+00    1.348032e+00   2.022181e-02
  1.161595e+00    1.345181e+00   2.017083e-02
  1.163805e+00    1.372750e+00   2.034718e-02
  1.166016e+00    1.351067e+00   2.015660e-02
  1.168226e+00    1.375607e+00   2.030976e-02
  1.170437e+00    1.510746e+00   2.125386e-02
  1.172647e+00    1.739721e+00   2.277511e-02
  1.174858e+00    1.709624e+00   2.254592e-02
  1.177068e+00    1.495595e+00   2.105788e-02
  1.179278e+00    1.389007e+00   2.026471e-02
  1.181489e+00    1.372894e+00   2.011971e-02
  1.183699e+00    1.339394e+00   1.984534e-02
  1.185910e+00    1.319171e+00   1.966756e-02
  1.188120e+00    1.361973e+00   1.995734e-02
  1.190331e+00    1.371105e+00   1.999722e-02
  1.192541e+00    1.367500e+00   1.994341e-02
  1.194752e+00    1.350927e+00   1.979518e-02
  1.196962e+00    1.315320e+00   1.950715e-02
  1.199173e+00    1.340012e+00   1.966299e-02
  1.201383e+00    1.356580e+00   1.975696e-02
  1.203593e+00    1.354663e+00   1.971814e-02
  1.205804e+00    1.335732e+00   1.955409e-02
  1.208014e+00    1.320893e+00   1.941862e-02
  1.210225e+00    1.312784e+00   1.933393e-02
  1.212435e+00    1.327724e+00   1.941905e-02
  1.214646e+00    1.327199e+00   1.938934e-02
  1.216856e+00    1.313653e+00   1.926500e-02
  1.219067e+00    1.343759e+00   1.946009e-02
  1.221277e+00    1.335828e+00   1.937769e-02
  1.223488e+00    1.331677e+00   1.932199e-02
  1.225698e+00    1.339665e+00   1.935304e-02
  1.227909e+00    1.327988e+00   1.923862e-02
  1.230119e+00    1.298218e+00   1.899049e-02
  1.232329e+00    1.320289e+00   1.912087e-02
  1.234540e+00    1.335763e+00   1.920246e-02
  1.236750e+00    1.308105e+00   1.897283e-02
  1.238961e+00    1.318288e+00   1.901988e-02
  1.241171e+00    1.347210e+00   1.920322e-02
  1.243382e+00    1.348526e+00   1.918912e-02
  1.245592e+00    1.335285e+00   1.907070e-02
  1.247803e+00    1.328825e+00   1.900105e-02
  1.250013e+00    1.320848e+00   1.892065e-02
  1.252224e+00    1.315040e+00   1.885606e-02
  1.254434e+00    1.301510e+00   1.873549e-02
  1.256644e+00    1.318773e+00   1.883639e-02
  1.258855e+00    1.314922e+00   1.878591e-02
  1.261065e+00    1.320238e+00   1.880074e-02
  1.263276e+00    1.321867e+00   1.878962e-02
  1.265486e+00    1.321017e+00   1.876095e-02
  1.267697e+00    1.345473e+00   1.891083e-02
  1.269907e+00    1.320016e+00   1.870865e-02
  1.272118e+00    1.338875e+00   1.881932e-02
  1.274328e+00    1.311983e+00   1.860697e-02
  1.276539e+00    1.323485e+00   1.866579e-02
  1.278749e+00    1.325483e+00   1.865778e-02
  1.280959e+00    1.351586e+00   1.881805e-02
  1.283170e+00    1.344524e+00   1.874647e-02
  1.285380e+00    1.325701e+00   1.859250e-02
  1.287591e+00    1.335868e+00   1.864176e-02
  1.289801e+00    1.365114e+00   1.882336e-02
  1.292012e+00    1.336936e+00   1.861109e-02
  1.294222e+00    1.310861e+00   1.841269e-02
  1.296433e+00    1.344970e+00   1.863511e-02
  1.298643e+00    1.357976e+00   1.870851e-02
  1.300854e+00    1.329473e+00   1.849483e-02
  1.303064e+00    1.340826e+00   1.855446e-02
  1.305274e+00    1.364143e+00   1.869356e-02
  1.307485e+00    1.342066e+00   1.852020e-02
  1.309695e+00    1.350836e+00   1.855835e-02
  1.311906e+00    1.357504e+00   1.858234e-02
  1.314116e+00    1.356244e+00   1.855287e-02
  1.316327e+00    1.360733e+00   1.856178e-02
  1.318537e+00    1.335309e+00   1.836578e-02
  1.320748e+00    1.330457e+00   1.831100e-02
  1.322958e+00    1.323749e+00   1.824446e-02
  1.325169e+00    1.334703e+00   1.829887e-02
  1.327379e+00    1.365926e+00   1.848975e-02
  1.329589e+00    1.348858e+00   1.835281e-02
  1.331800e+00    1.325463e+00   1.817244e-02
  1.334010e+00    1.334886e+00   1.821638e-02
  1.336221e+00    1.346473e+00   1.827355e-02
  1.338431e+00    1.344474e+00   1.823915e-02
  1.340642e+00    1.370572e+00   1.847997e-02
  1.342852e+00    1.342709e+00   1.839158e-02
  1.345063e+00    1.346073e+00   1.846400e-02
  1.347273e+00    1.323498e+00   1.834343e-02
  1.349484e+00    1.308733e+00   1.826806e-02
  1.351694e+00    1.310849e+00   1.830519e-02
  1.353905e+00    1.316931e+00   1.836540e-02
  1.356115e+00    1.313466e+00   1.835605e-02
  1.358325e+00    1.318513e+00   1.840446e-02
  1.360536e+00    1.318973e+00   1.841913e-02
  1.362746e+00    1.335054e+00   1.854061e-02
  1.364957e+00    1.317752e+00   1.842765e-02
  1.367167e+00    1.323648e+00   1.847593e-02
  1.369378e+00    1.296717e+00   1.829289e-02
  1.371588e+00    1.326355e+00   1.850588e-02
  1.373799e+00    1.316644e+00   1.844165e-02
  1.376009e+00    1.312794e+00   1.841801e-02
  1.378220e+00    1.302028e+00   1.834484e-02
  1.380430e+00    1.290232e+00   1.826422e-02
  1.382640e+00    1.299468e+00   1.833036e-02
  1.384851e+00    1.291027e+00   1.827161e-02
  1.387061e+00    1.279182e+00   1.818788e-02
  1.389272e+00    1.282644e+00   1.821270e-02
  1.391482e+00    1.277937e+00   1.817855e-02
  1.393693e+00    1.295267e+00   1.830054e-02
  1.395903e+00    1.271924e+00   1.813341e-02
  1.398114e+00    1.239033e+00   1.789605e-02
  1.400324e+00    1.249974e+00   1.797277e-02
  1.402535e+00    1.259339e+00   1.803768e-02
  1.404745e+00    1.270365e+00   1.811412e-02
  1.406955e+00    1.253692e+00   1.799218e-02
  1.409166e+00    1.244575e+00   1.792336e-02
  1.411376e+00    1.274615e+00   1.813526e-02
  1.413587e+00    1.257474e+00   1.800912e-02
  1.415797e+00    1.249582e+00   1.794900e-02
  1.418008e+00    1.269233e+00   1.804773e-02
  1.420218e+00    1.255281e+00   1.779941e-02
  1.422429e+00    1.234213e+00   1.756530e-02
  1.424639e+00    1.247080e+00   1.759251e-02
  1.426850e+00    1.292370e+00   1.785394e-02
  1.429060e+00    1.271496e+00   1.766016e-02
  1.431270e+00    1.276044e+00   1.764729e-02
  1.433481e+00    1.269513e+00   1.756113e-02
  1.435691e+00    1.285758e+00   1.763447e-02
  1.437902e+00    1.270429e+00   1.749256e-02
  1.440112e+00    1.301328e+00   1.766822e-02
  1.442323e+00    1.273141e+00   1.744276e-02
  1.444533e+00    1.264299e+00   1.734960e-02
  1.446744e+00    1.260944e+00   1.729554e-02
  1.448954e+00    1.270719e+00   1.733225e-02
  1.451165e+00    1.271223e+00   1.730592e-02
  1.453375e+00    1.247521e+00   1.711602e-02
  1.455586e+00    1.254078e+00   1.713297e-02
  1.457796e+00    1.246130e+00   1.705131e-02
  1.460006e+00    1.259260e+00   1.711379e-02
  1.462217e+00    1.271326e+00   1.716934e-02
  1.464427e+00    1.262946e+00   1.708714e-02
  1.466638e+00    1.261453e+00   1.705178e-02
  1.468848e+00    1.250585e+00   1.695302e-02
  1.471059e+00    1.272880e+00   1.707833e-02
  1.473269e+00    1.260997e+00   1.697414e-02
  1.475480e+00    1.273147e+00   1.703190e-02
  1.477690e+00    1.286882e+00   1.709954e-02
  1.479901e+00    1.236974e+00   1.674113e-02
  1.482111e+00    1.228253e+00   1.665903e-02
  1.484321e+00    1.251579e+00   1.679351e-02
  1.486532e+00    1.260165e+00   1.682874e-02
  1.488742e+00    1.256459e+00   1.678139e-02
  1.490953e+00    1.263307e+00   1.680448e-02
  1.493163e+00    1.237376e+00   1.660908e-02
  1.495374e+00    1.246365e+00   1.664793e-02
  1.497584e+00    1.260115e+00   1.671787e-02
  1.499795e+00    1.240531e+00   1.656598e-02
  1.502005e+00    1.245284e+00   1.657613e-02
  1.504216e+00    1.241626e+00   1.653086e-02
  1.506426e+00    1.275825e+00   1.673604e-02
  1.508636e+00    1.257142e+00   1.659259e-02
  1.510847e+00    1.269257e+00   1.665043e-02
  1.513057e+00    1.236651e+00   1.641027e-02
  1.515268e+00    1.250026e+00   1.647310e-02
  1.517478e+00    1.265945e+00   1.655239e-02
  1.519689e+00    1.256231e+00   1.646379e-02
  1.521899e+00    1.264813e+00   1.649671e-02
  1.524110e+00    1.269921e+00   1.650952e-02
  1.526320e+00    1.286688e+00   1.659829e-02
  1.528531e+00    1.286562e+00   1.657746e-02
  1.530741e+00    1.234467e+00   1.621934e-02
  1.532951e+00    1.232526e+00   1.618710e-02
  1.535162e+00    1.240458e+00   1.632542e-02
  1.537372e+00    1.238015e+00   1.637593e-02
  1.539583e+00    1.209998e+00   1.622329e-02
  1.541793e+00    1.216838e+00   1.627591e-02
  1.544004e+00    1.242387e+00   1.644617e-02
  1.546214e+00    1.231313e+00   1.637120e-02
  1.548425e+00    1.240388e+00   1.643169e-02
  1.550635e+00    1.233259e+00   1.639403e-02
  1.552846e+00    1.223731e+00   1.634016e-02
  1.555056e+00    1.196807e+00   1.611874e-02
  1.557266e+00    1.195826e+00   1.600382e-02
  1.559477e+00    1.259359e+00   1.636400e-02
  1.561687e+00    1.256544e+00   1.631491e-02
  1.563898e+00    1.232835e+00   1.614315e-02
  1.566108e+00    1.252284e+00   1.625399e-02
  1.568319e+00    1.259304e+00   1.628377e-02
  1.570529e+00    1.254464e+00   1.622721e-02
  1.572740e+00    1.245163e+00   1.613933e-02
  1.574950e+00    1.220024e+00   1.594951e-02
  1.577161e+00    1.222715e+00   1.594184e-02
  1.579371e+00    1.207386e+00   1.581830e-02
  1.581582e+00    1.220726e+00   1.588585e-02
  1.583792e+00    1.230369e+00   1.593056e-02
  1.586002e+00    1.218648e+00   1.583706e-02
  1.588213e+00    1.241739e+00   1.596917e-02
  1.590423e+00    1.243161e+00   1.595826e-02
  1.592634e+00    1.207882e+00   1.570889e-02
  1.594844e+00    1.194221e+00   1.559881e-02
  1.597055e+00    1.235240e+00   1.584401e-02
  1.599265e+00    1.231248e+00   1.579777e-02
  1.601476e+00    1.215940e+00   1.567914e-02
  1.603686e+00    1.219497e+00   1.568247e-02
  1.605897e+00    1.218332e+00   1.565498e-02
  1.608107e+00    1.222958e+00   1.566523e-02
  1.610317e+00    1.220600e+00   1.563095e-02
  1.612528e+00    1.208189e+00   1.553230e-02
  1.614738e+00    1.217128e+00   1.557083e-02
  1.616949e+00    1.193667e+00   1.540129e-02
  1.619159e+00    1.192890e+00   1.537781e-02
  1.621370e+00    1.185980e+00   1.531497e-02
  1.623580e+00    1.191208e+00   1.533055e-02
  1.625791e+00    1.174491e+00   1.520460e-02
  1.628001e+00    1.185391e+00   1.525684e-02
  1.630212e+00    1.175216e+00   1.517362e-02
  1.632422e+00    1.151095e+00   1.499947e-02
  1.634632e+00    1.139368e+00   1.490586e-02
  1.636843e+00    1.146090e+00   1.493247e-02
  1.639053e+00    1.129086e+00   1.480433e-02
  1.641264e+00    1.115434e+00   1.469785e-02
  1.643474e+00    1.119114e+00   1.470501e-02
  1.645685e+00    1.137916e+00   1.481151e-02
  1.647895e+00    1.142098e+00   1.482219e-02
  1.650106e+00    1.149097e+00   1.485057e-02
  1.652316e+00    1.119352e+00   1.464083e-02
  1.654527e+00    1.120717e+00   1.463324e-02
  1.656737e+00    1.110189e+00   1.454797e-02
  1.658947e+00    1.094392e+00   1.442810e-02
  1.661158e+00    1.098763e+00   1.444081e-02
  1.663368e+00    1.086075e+00   1.434144e-02
  1.665579e+00    1.081354e+00   1.429436e-02
  1.667789e+00    1.086381e+00   1.431154e-02
  1.670000e+00    1.075561e+00   1.422486e-02
  1.672210e+00    1.076118e+00   1.421290e-02
  1.674421e+00    1.087422e+00   1.427215e-02
  1.676631e+00    1.063192e+00   1.409665e-02
  1.678842e+00    1.092286e+00   1.427249e-02
  1.681052e+00    1.075603e+00   1.414784e-02
  1.683263e+00    1.069483e+00   1.409252e-02
  1.685473e+00    1.057924e+00   1.400122e-02
  1.687683e+00    1.024389e+00   1.376251e-02
  1.689894e+00    1.027879e+00   1.377056e-02
  1.692104e+00    1.026333e+00   1.374563e-02
  1.694315e+00    1.041840e+00   1.383478e-02
  1.696525e+00    1.057605e+00   1.392400e-02
  1.698736e+00    1.053946e+00   1.388514e-02
  1.700946e+00    1.033452e+00   1.373455e-02
  1.703157e+00    1.026438e+00   1.367343e-02
  1.705367e+00    1.018331e+00   1.360508e-02
  1.707578e+00    1.015049e+00   1.356879e-02
  1.709788e+00    1.002852e+00   1.347320e-02
  1.711998e+00    1.006342e+00   1.348187e-02
  1.714209e+00    9.829836e-01   1.331046e-02
  1.716419e+00    9.789633e-01   1.326932e-02
  1.718630e+00    9.963962e-01   1.337290e-02
  1.720840e+00    1.022106e+00   1.353021e-02
  1.723051e+00    1.004451e+00   1.339913e-02
  1.725261e+00    9.884626e-01   1.327761e-02
  1.727472e+00    9.932638e-01   1.329582e-02
  1.729682e+00    9.925978e-01   1.327805e-02
  1.731893e+00    9.911314e-01   1.325448e-02
  1.734103e+00    9.952418e-01   1.326823e-02
  1.736313e+00    9.777404e-01   1.313726e-02
  1.738524e+00    9.860444e-01   1.317918e-02
  1.740734e+00    9.890395e-01   1.318559e-02
  1.742945e+00    9.657598e-01   1.301622e-02
  1.745155e+00    9.586608e-01   1.295508e-02
  1.747366e+00    9.598985e-01   1.294983e-02
  1.749576e+00    9.453904e-01   1.283820e-02
  1.751787e+00    9.330304e-01   1.274100e-02
  1.753997e+00    9.516470e-01   1.285429e-02
  1.756208e+00    9.498167e-01   1.282890e-02
  1.758418e+00    9.448940e-01   1.278268e-02
  1.760628e+00    9.396525e-01   1.273403e-02
  1.762839e+00    9.427013e-01   1.274161e-02
  1.765049e+00    9.413548e-01   1.271953e-02
  1.767260e+00    9.517258e-01   1.277665e-02
  1.769470e+00    9.346986e-01   1.264900e-02
  1.771681e+00    9.325359e-01   1.262135e-02
  1.773891e+00    9.131234e-01   1.247650e-02
  1.776102e+00    9.102229e-01   1.244406e-02
  1.778312e+00    9.004865e-01   1.236488e-02
  1.780523e+00    9.017506e-01   1.236110e-02
  1.782733e+00    8.965628e-01   1.231309e-02
  1.784944e+00    9.156376e-01   1.243064e-02
  1.787154e+00    8.947060e-01   1.227548e-02
  1.789364e+00    8.836798e-01   1.218741e-02
  1.791575e+00    8.913555e-01   1.222795e-02
  1.793785e+00    8.845716e-01   1.216918e-02
  1.795996e+00    9.039662e-01   1.228945e-02
  1.798206e+00    8.996149e-01   1.224748e-02
  1.800417e+00    8.911645e-01   1.217730e-02
  1.802627e+00    8.725780e-01   1.203798e-02
  1.804838e+00    8.973030e-01   1.219533e-02
  1.807048e+00    8.916633e-01   1.214423e-02
  1.809259e+00    8.848240e-01   1.208414e-02
  1.811469e+00    8.705581e-01   1.197166e-02
  1.813679e+00    8.399047e-01   1.174452e-02
  1.815890e+00    8.551831e-01   1.183649e-02
  1.818100e+00    8.548217e-01   1.181923e-02
  1.820311e+00    8.645140e-01   1.187152e-02
  1.822521e+00    8.688000e-01   1.188625e-02
  1.824732e+00    8.612059e-01   1.181962e-02
  1.826942e+00    8.549065e-01   1.176420e-02
  1.829153e+00    8.552687e-01   1.175520e-02
  1.831363e+00    8.581170e-01   1.176289e-02
  1.833574e+00    8.738238e-01   1.185844e-02
  1.835784e+00    8.522004e-01   1.169955e-02
  1.837994e+00    8.650496e-01   1.177577e-02
  1.840205e+00    8.564680e-01   1.170620e-02
  1.842415e+00    8.382092e-01   1.156919e-02
  1.844626e+00    8.482594e-01   1.162692e-02
  1.846836e+00    8.504449e-01   1.163059e-02
  1.849047e+00    8.572160e-01   1.166525e-02
  1.851257e+00    8.408860e-01   1.154417e-02
  1.853468e+00    8.352898e-01   1.149702e-02
  1.855678e+00    8.472115e-01   1.156995e-02
  1.857889e+00    8.467224e-01   1.155818e-02
  1.860099e+00    8.393667e-01   1.149933e-02
  1.862309e+00    8.232310e-01   1.137992e-02
  1.864520e+00    8.332524e-01   1.144051e-02
  1.866730e+00    8.268592e-01   1.138730e-02
  1.868941e+00    8.314732e-01   1.140822e-02
  1.871151e+00    8.228024e-01   1.133740e-02
  1.873362e+00    8.133085e-01   1.126069e-02
  1.875572e+00    8.304884e-01   1.136819e-02
  1.877783e+00    8.250819e-01   1.131985e-02
  1.879993e+00    8.345034e-01   1.137323e-02
  1.882204e+00    8.326252e-01   1.134961e-02
  1.884414e+00    8.233982e-01   1.127560e-02
  1.886624e+00    8.241921e-01   1.127011e-02
  1.888835e+00    8.040614e-01   1.112089e-02
  1.891045e+00    8.251179e-01   1.125476e-02
  1.893256e+00    8.259374e-01   1.124937e-02
  1.895466e+00    8.090139e-01   1.112253e-02
  1.897677e+00    8.160931e-01   1.116028e-02
  1.899887e+00    8.325968e-01   1.126159e-02
  1.902098e+00    8.602793e-01   1.143624e-02
  1.904308e+00    9.258983e-01   1.185320e-02
  1.906519e+00    9.201679e-01   1.180512e-02
  1.908729e+00    8.346822e-01   1.123274e-02
  1.910940e+00    8.159000e-01   1.109457e-02
  1.913150e+00    8.025943e-01   1.099329e-02
  1.915360e+00    8.174301e-01   1.108386e-02
  1.917571e+00    8.258902e-01   1.113017e-02
  1.919781e+00    8.102808e-01   1.101388e-02
  1.921992e+00    8.110877e-01   1.100880e-02
  1.924202e+00    8.244582e-01   1.108835e-02
  1.926413e+00    8.232461e-01   1.106986e-02
  1.928623e+00    7.948293e-01   1.086672e-02
  1.930834e+00    7.780002e-01   1.074085e-02
  1.933044e+00    7.784565e-01   1.073355e-02
  1.935255e+00    7.891135e-01   1.079657e-02
  1.937465e+00    7.991065e-01   1.085438e-02
  1.939675e+00    7.947734e-01   1.081417e-02
  1.941886e+00    7.937015e-01   1.079664e-02
  1.944096e+00    7.960423e-01   1.080242e-02
  1.946307e+00    8.051417e-01   1.085362e-02
  1.948517e+00    7.954324e-01   1.077758e-02
  1.950728e+00    7.854360e-01   1.069947e-02
  1.952938e+00    7.967222e-01   1.076598e-02
  1.955149e+00    8.099705e-01   1.084481e-02
  1.957359e+00    7.916770e-01   1.071164e-02
  1.959570e+00    7.796217e-01   1.061899e-02
  1.961780e+00    7.884451e-01   1.066903e-02
  1.963990e+00    7.853194e-01   1.063778e-02
  1.966201e+00    7.912748e-01   1.066798e-02
  1.968411e+00    7.960271e-01   1.068977e-02
  1.970622e+00    8.004978e-01   1.070958e-02
  1.972832e+00    7.674009e-01   1.047602e-02
  1.975043e+00    7.797052e-01   1.054963e-02
  1.977253e+00    7.906219e-01   1.061327e-02
  1.979464e+00    7.775462e-01   1.051513e-02
  1.981674e+00    8.015065e-01   1.066553e-02
  1.983885e+00    7.920830e-01   1.059256e-02
  1.986095e+00    7.801768e-01   1.050296e-02
  1.988305e+00    7.670390e-01   1.040432e-02
  1.990516e+00    7.856699e-01   1.051995e-02
  1.992726e+00    7.803644e-01   1.047471e-02
  1.994937e+00    7.683000e-01   1.038334e-02
  1.997147e+00    7.721649e-01   1.039971e-02
  1.999358e+00    7.644805e-01   1.033805e-02
  2.001568e+00    7.838314e-01   1.045719e-02
  2.003779e+00    7.938854e-01   1.051196e-02
  2.005989e+00    7.864211e-01   1.045030e-02
  2.008200e+00    7.747101e-01   1.036064e-02
  2.010410e+00    7.626609e-01   1.026805e-02
  2.012621e+00    7.611271e-01   1.024607e-02
  2.014831e+00    7.621393e-01   1.024146e-02
  2.017041e+00    7.511403e-01   1.015701e-02
  2.019252e+00    7.536076e-01   1.016377e-02
  2.021462e+00    7.669276e-01   1.024370e-02
  2.023673e+00    7.502387e-01   1.012234e-02
  2.025883e+00    7.456512e-01   1.008192e-02
  2.028094e+00    7.371953e-01   1.001512e-02
  2.030304e+00    7.568448e-01   1.013820e-02
  2.032515e+00    7.371379e-01   9.996196e-03
  2.034725e+00    7.476704e-01   1.005797e-02
  2.036936e+00    7.532634e-01   1.008624e-02
  2.039146e+00    7.472326e-01   1.003626e-02
  2.041356e+00    7.428328e-01   9.997106e-03
  2.043567e+00    7.581517e-01   1.009035e-02
  2.045777e+00    7.462404e-01   1.000158e-02
  2.047988e+00    7.418053e-01   9.962531e-03
  2.050198e+00    7.465571e-01   9.985982e-03
  2.052409e+00    7.468043e-01   9.980018e-03
  2.054619e+00    7.503031e-01   9.996002e-03
  2.056830e+00    7.485400e-01   9.977091e-03
  2.059040e+00    7.385125e-01   9.902584e-03
  2.061251e+00    7.547763e-01   1.000375e-02
  2.063461e+00    7.390844e-01   9.891689e-03
  2.065671e+00    7.185454e-01   9.744732e-03
  2.067882e+00    7.237552e-01   9.771130e-03
  2.070092e+00    7.266460e-01   9.781567e-03
  2.072303e+00    7.263031e-01   9.770233e-03
  2.074513e+00    7.269456e-01   9.765367e-03
  2.076724e+00    7.085847e-01   9.632011e-03
  2.078934e+00    7.181399e-01   9.687882e-03
  2.081145e+00    7.184577e-01   9.681108e-03
  2.083355e+00    7.219661e-01   9.695641e-03
  2.085566e+00    7.412923e-01   9.815664e-03
  2.087776e+00    7.348884e-01   9.763694e-03
  2.089986e+00    7.188825e-01   9.648127e-03
  2.092197e+00    7.108166e-01   9.585036e-03
  2.094407e+00    7.234944e-01   9.660988e-03
  2.096618e+00    7.295344e-01   9.692376e-03
  2.098828e+00    7.260874e-01   9.660194e-03
  2.101039e+00    7.320696e-01   9.690925e-03
  2.103249e+00    7.263629e-01   9.644451e-03
  2.105460e+00    7.178349e-01   9.578733e-03
  2.107670e+00    7.100884e-01   9.518274e-03
  2.109881e+00    7.058245e-01   9.480625e-03
  2.112091e+00    6.942978e-01   9.394115e-03
  2.114301e+00    7.049903e-01   9.457490e-03
  2.116512e+00    7.112191e-01   9.490469e-03
  2.118722e+00    7.228648e-01   9.559013e-03
  2.120933e+00    7.303147e-01   9.599236e-03
  2.123143e+00    7.323204e-01   9.603413e-03
  2.125354e+00    7.189533e-01   9.506851e-03
  2.127564e+00    6.945879e-01   9.335747e-03
  2.129775e+00    6.930194e-01   9.316616e-03
  2.131985e+00    6.998402e-01   9.353388e-03
  2.134196e+00    6.948276e-01   9.311347e-03
  2.136406e+00    6.959689e-01   9.310347e-03
  2.138617e+00    7.028056e-01   9.347564e-03
  2.140827e+00    6.948652e-01   9.310515e-03
  2.143037e+00    6.878674e-01   9.308347e-03
  2.145248e+00    6.975444e-01   9.395481e-03
  2.147458e+00    6.925112e-01   9.376533e-03
  2.149669e+00    6.931736e-01   9.392769e-03
  2.151879e+00    6.952688e-01   9.416156e-03
  2.154090e+00    6.854304e-01   9.356526e-03
  2.156300e+00    6.747885e-01   9.290076e-03
  2.158511e+00    6.810480e-01   9.338302e-03
  2.160721e+00    6.969034e-01   9.451184e-03
  2.162932e+00    6.983612e-01   9.464824e-03
  2.165142e+00    6.845553e-01   9.373780e-03
  2.167352e+00    6.980765e-01   9.468827e-03
  2.169563e+00    6.839069e-01   9.374175e-03
  2.171773e+00    6.938492e-01   9.444506e-03
  2.173984e+00    6.755340e-01   9.320421e-03
  2.176194e+00    6.886147e-01   9.411414e-03
  2.178405e+00    6.818233e-01   9.365603e-03
  2.180615e+00    6.676260e-01   9.268225e-03
  2.182826e+00    6.763198e-01   9.329065e-03
  2.185036e+00    6.812237e-01   9.362867e-03
  2.187247e+00    6.683989e-01   9.274276e-03
  2.189457e+00    6.777303e-01   9.338361e-03
  2.191667e+00    6.867278e-01   9.399996e-03
  2.193878e+00    6.847761e-01   9.386048e-03
  2.196088e+00    6.794181e-01   9.348594e-03
  2.198299e+00    6.787609e-01   9.342957e-03
  2.200509e+00    6.894121e-01   9.414944e-03
  2.202720e+00    6.763815e-01   9.324381e-03
  2.204930e+00    6.898021e-01   9.415183e-03
  2.207141e+00    6.747310e-01   9.310661e-03
  2.209351e+00    6.816766e-01   9.356569e-03
  2.211562e+00    6.656855e-01   9.244581e-03
  2.213772e+00    6.504793e-01   9.083987e-03
  2.215982e+00    6.390339e-01   8.960721e-03
  2.218193e+00    6.666898e-01   9.123121e-03
  2.220403e+00    6.490067e-01   8.977232e-03
  2.222614e+00    6.582890e-01   9.020481e-03
  2.224824e+00    6.533192e-01   8.967269e-03
  2.227035e+00    6.574038e-01   8.978032e-03
  2.229245e+00    6.472939e-01   8.892070e-03
  2.231456e+00    6.482172e-01   8.883053e-03
  2.233666e+00    6.547544e-01   8.912824e-03
  2.235877e+00    6.489537e-01   8.859232e-03
  2.238087e+00    6.486794e-01   8.844087e-03
  2.240298e+00    6.569112e-01   8.886376e-03
  2.242508e+00    6.708511e-01   8.965028e-03
  2.244718e+00    6.684132e-01   8.932908e-03
  2.246929e+00    6.622840e-01   8.877521e-03
  2.249139e+00    6.474719e-01   8.765490e-03
  2.251350e+00    6.457447e-01   8.742259e-03
  2.253560e+00    6.651573e-01   8.861127e-03
  2.255771e+00    6.771592e-01   8.929228e-03
  2.257981e+00    6.563715e-01   8.780004e-03
  2.260192e+00    6.514403e-01   8.735955e-03
  2.262402e+00    6.494623e-01   8.711937e-03
  2.264613e+00    6.652315e-01   8.806233e-03
  2.266823e+00    6.532189e-01   8.716040e-03
  2.269033e+00    6.625485e-01   8.767666e-03
  2.271244e+00    6.693074e-01   8.801849e-03
  2.273454e+00    6.719903e-01   8.809132e-03
  2.275665e+00    6.657453e-01   8.757775e-03
  2.277875e+00    6.468775e-01   8.622961e-03
  2.280086e+00    6.403142e-01   8.569208e-03
  2.282296e+00    6.609921e-01   8.697056e-03
  2.284507e+00    6.452321e-01   8.582720e-03
  2.286717e+00    6.521846e-01   8.619417e-03
  2.288928e+00    6.456789e-01   8.566533e-03
  2.291138e+00    6.437883e-01   8.544669e-03
  2.293348e+00    6.229080e-01   8.395653e-03
  2.295559e+00    6.341795e-01   8.462090e-03
  2.297769e+00    6.430220e-01   8.511740e-03
  2.299980e+00    6.329860e-01   8.435857e-03
  2.302190e+00    6.376299e-01   8.457731e-03
  2.304401e+00    6.440921e-01   8.491208e-03
  2.306611e+00    6.630535e-01   8.606024e-03
  2.308822e+00    6.549705e-01   8.544998e-03
  2.311032e+00    6.418871e-01   8.452817e-03
  2.313243e+00    6.362016e-01   8.409092e-03
  2.315453e+00    6.433652e-01   8.448754e-03
  2.317663e+00    6.319511e-01   8.364470e-03
  2.319874e+00    6.278120e-01   8.328426e-03
  2.322084e+00    6.328624e-01   8.352972e-03
  2.324295e+00    6.424535e-01   8.407835e-03
  2.326505e+00    6.258368e-01   8.289474e-03
  2.328716e+00    6.160029e-01   8.215703e-03
  2.330926e+00    6.316115e-01   8.310437e-03
  2.333137e+00    6.332791e-01   8.313084e-03
  2.335347e+00    6.328490e-01   8.301442e-03
  2.337558e+00    6.167909e-01   8.187382e-03
  2.339768e+00    6.214772e-01   8.209954e-03
  2.341979e+00    6.268339e-01   8.236987e-03
  2.344189e+00    6.336596e-01   8.273328e-03
  2.346399e+00    6.420253e-01   8.319253e-03
  2.348610e+00    6.231208e-01   8.187471e-03
  2.350820e+00    6.233484e-01   8.180866e-03
  2.353031e+00    6.279273e-01   8.202607e-03
  2.355241e+00    6.258031e-01   8.180711e-03
  2.357452e+00    6.156716e-01   8.105931e-03
  2.359662e+00    6.213063e-01   8.134745e-03
  2.361873e+00    6.392847e-01   8.243347e-03
  2.364083e+00    6.262780e-01   8.151071e-03
  2.366294e+00    6.280183e-01   8.154285e-03
  2.368504e+00    6.307092e-01   8.163629e-03
  2.370714e+00    6.199098e-01   8.085436e-03
  2.372925e+00    6.015885e-01   7.957146e-03
  2.375135e+00    6.080537e-01   7.991821e-03
  2.377346e+00    6.328943e-01   8.145438e-03
  2.379556e+00    6.237415e-01   8.078435e-03
  2.381767e+00    6.216239e-01   8.056826e-03
  2.383977e+00    6.061734e-01   7.948258e-03
  2.386188e+00    6.057518e-01   7.937635e-03
  2.388398e+00    6.145731e-01   7.987306e-03
  2.390609e+00    6.101269e-01   7.950673e-03
  2.392819e+00    6.143818e-01   7.970594e-03
  2.395029e+00    6.019794e-01   7.882147e-03
  2.397240e+00    6.242269e-01   8.018558e-03
  2.399450e+00    6.148821e-01   7.950494e-03
  2.401661e+00    5.964670e-01   7.822958e-03
  2.403871e+00    5.910358e-01   7.779622e-03
  2.406082e+00    5.965896e-01   7.808733e-03
  2.408292e+00    5.991565e-01   7.817795e-03
  2.410503e+00    6.075686e-01   7.864991e-03
  2.412713e+00    6.024019e-01   7.823720e-03
  2.414924e+00    5.967679e-01   7.779628e-03
  2.417134e+00    5.789891e-01   7.655386e-03
  2.419344e+00    6.017596e-01   7.797057e-03
  2.421555e+00    5.946906e-01   7.743693e-03
  2.423765e+00    5.755884e-01   7.611050e-03
  2.425976e+00    5.753673e-01   7.601928e-03
  2.428186e+00    5.815923e-01   7.635836e-03
  2.430397e+00    5.910555e-01   7.690257e-03
  2.432607e+00    5.907201e-01   7.680838e-03
  2.434818e+00    5.924830e-01   7.684764e-03
  2.437028e+00    5.921926e-01   7.675734e-03
  2.439239e+00    6.084233e-01   7.772469e-03
  2.441449e+00    5.931480e-01   7.667081e-03
  2.443659e+00    5.780996e-01   7.561939e-03
  2.445870e+00    5.702975e-01   7.522766e-03
  2.448080e+00    5.760915e-01   7.595486e-03
  2.450291e+00    5.757933e-01   7.610107e-03
  2.452501e+00    5.688012e-01   7.574853e-03
  2.454712e+00    5.472061e-01   7.437907e-03
  2.456922e+00    5.524496e-01   7.479956e-03
  2.459133e+00    5.462669e-01   7.443327e-03
  2.461343e+00    5.433757e-01   7.427854e-03
  2.463554e+00    5.443981e-01   7.438256e-03
  2.465764e+00    5.500609e-01   7.479923e-03
  2.467975e+00    5.534390e-01   7.505149e-03
  2.470185e+00    5.464403e-01   7.459767e-03
  2.472395e+00    5.343247e-01   7.377801e-03
  2.474606e+00    5.377830e-01   7.403173e-03
  2.476816e+00    5.493203e-01   7.482908e-03
  2.479027e+00    5.342053e-01   7.380067e-03
  2.481237e+00    5.398284e-01   7.419085e-03
  2.483448e+00    5.453638e-01   7.457334e-03
  2.485658e+00    5.363664e-01   7.395417e-03
  2.487869e+00    5.357206e-01   7.391011e-03
  2.490079e+00    5.291463e-01   7.344978e-03
  2.492290e+00    5.473360e-01   7.469747e-03
  2.494500e+00    5.408875e-01   7.424856e-03
  2.496710e+00    5.527741e-01   7.505310e-03
  2.498921e+00    5.440673e-01   7.444977e-03
  2.501131e+00    5.231496e-01   7.299511e-03
  2.503342e+00    5.088421e-01   7.197759e-03
  2.505552e+00    5.234302e-01   7.299074e-03
  2.507763e+00    5.197194e-01   7.271776e-03
  2.509973e+00    5.176780e-01   7.256077e-03
  2.512184e+00    5.140712e-01   7.229187e-03
  2.514394e+00    5.082443e-01   7.178889e-03
  2.516605e+00    5.250149e-01   7.249368e-03
  2.518815e+00    5.177248e-01   7.170780e-03
  2.521025e+00    5.215068e-01   7.176017e-03
  2.523236e+00    5.200154e-01   7.147874e-03
  2.525446e+00    5.212544e-01   7.140840e-03
  2.527657e+00    5.201902e-01   7.119011e-03
  2.529867e+00    5.334557e-01   7.194931e-03
  2.532078e+00    5.295195e-01   7.153222e-03
  2.534288e+00    5.149208e-01   7.040187e-03
  2.536499e+00    5.060871e-01   6.967802e-03
  2.538709e+00    5.275737e-01   7.103134e-03
  2.540920e+00    5.217856e-01   7.053467e-03
  2.543130e+00    5.193285e-01   7.026518e-03
  2.545340e+00    5.063602e-01   6.928330e-03
  2.547551e+00    5.068750e-01   6.922071e-03
  2.549761e+00    5.016118e-01   6.876635e-03
  2.551972e+00    5.042952e-01   6.885808e-03
  2.554182e+00    5.192609e-01   6.978080e-03
  2.556393e+00    5.135192e-01   6.930381e-03
  2.558603e+00    5.093407e-01   6.893130e-03
  2.560814e+00    5.074382e-01   6.871656e-03
  2.563024e+00    4.952281e-01   6.780091e-03
  2.565235e+00    5.113361e-01   6.880051e-03
  2.567445e+00    5.106472e-01   6.865923e-03
  2.569656e+00    5.056243e-01   6.822458e-03
  2.571866e+00    5.091973e-01   6.837237e-03
  2.574076e+00    5.089005e-01   6.826041e-03
  2.576287e+00    5.219302e-01   6.904501e-03
  2.578497e+00    5.381002e-01   7.002630e-03
  2.580708e+00    5.255438e-01   6.912303e-03
  2.582918e+00    5.159900e-01   6.841397e-03
  2.585129e+00    5.175894e-01   6.844234e-03
  2.587339e+00    5.085009e-01   6.776223e-03
  2.589550e+00    4.999834e-01   6.711788e-03
  2.591760e+00    4.950582e-01   6.671035e-03
  2.593971e+00    5.054922e-01   6.733479e-03
  2.596181e+00    5.026335e-01   6.708258e-03
  2.598391e+00    5.002425e-01   6.687138e-03
  2.600602e+00    5.014314e-01   6.689222e-03
  2.602812e+00    5.104238e-01   6.741382e-03
  2.605023e+00    4.977138e-01   6.649842e-03
  2.607233e+00    4.880770e-01   6.578148e-03
  2.609444e+00    5.013137e-01   6.659550e-03
  2.611654e+00    5.106888e-01   6.714195e-03
  2.613865e+00    5.098114e-01   6.701363e-03
  2.616075e+00    5.024647e-01   6.645796e-03
  2.618286e+00    5.034469e-01   6.645297e-03
  2.620496e+00    4.940642e-01   6.576484e-03
  2.622706e+00    4.778300e-01   6.461915e-03
  2.624917e+00    5.040171e-01   6.630781e-03
  2.627127e+00    5.122942e-01   6.679228e-03
  2.629338e+00    5.075015e-01   6.641909e-03
  2.631548e+00    5.021623e-01   6.600725e-03
  2.633759e+00    4.946933e-01   6.544360e-03
  2.635969e+00    4.854010e-01   6.476013e-03
  2.638180e+00    4.941593e-01   6.527254e-03
  2.640390e+00    5.069141e-01   6.604301e-03
  2.642601e+00    4.895853e-01   6.483874e-03
  2.644811e+00    4.937682e-01   6.504455e-03
  2.647021e+00    5.031713e-01   6.559529e-03
  2.649232e+00    4.964060e-01   6.508574e-03
  2.651442e+00    4.981219e-01   6.513327e-03
  2.653653e+00    4.993743e-01   6.514711e-03
  2.655863e+00    4.960045e-01   6.486018e-03
  2.658074e+00    5.063761e-01   6.546826e-03
  2.660284e+00    4.949912e-01   6.466476e-03
  2.662495e+00    4.824722e-01   6.377501e-03
  2.664705e+00    4.953382e-01   6.455443e-03
  2.666916e+00    4.894830e-01   6.410744e-03
  2.669126e+00    4.901569e-01   6.408753e-03
  2.671337e+00    4.936841e-01   6.425162e-03
  2.673547e+00    5.159971e-01   6.562280e-03
  2.675757e+00    4.955523e-01   6.424501e-03
  2.677968e+00    5.053771e-01   6.481272e-03
  2.680178e+00    4.903229e-01   6.377645e-03
  2.682389e+00    4.834368e-01   6.326361e-03
  2.684599e+00    4.864073e-01   6.339620e-03
  2.686810e+00    4.745311e-01   6.255270e-03
  2.689020e+00    4.829352e-01   6.304164e-03
  2.691231e+00    4.833768e-01   6.300814e-03
  2.693441e+00    4.952839e-01   6.371777e-03
  2.695652e+00    4.818839e-01   6.278540e-03
  2.697862e+00    4.717517e-01   6.205945e-03
  2.700072e+00    4.744016e-01   6.217364e-03
  2.702283e+00    4.851553e-01   6.281247e-03
  2.704493e+00    4.805710e-01   6.245266e-03
  2.706704e+00    4.810290e-01   6.241890e-03
  2.708914e+00    4.824649e-01   6.245268e-03
  2.711125e+00    4.778992e-01   6.209451e-03
  2.713335e+00    4.907541e-01   6.286310e-03
  2.715546e+00    4.947602e-01   6.305404e-03
  2.717756e+00    4.771624e-01   6.186429e-03
  2.719967e+00    4.709597e-01   6.139979e-03
  2.722177e+00    4.685634e-01   6.118299e-03
  2.724387e+00    4.839955e-01   6.212149e-03
  2.726598e+00    4.744669e-01   6.144708e-03
  2.728808e+00    4.766726e-01   6.152879e-03
  2.731019e+00    4.815107e-01   6.177916e-03
  2.733229e+00    4.684715e-01   6.087997e-03
  2.735440e+00    4.683380e-01   6.080952e-03
  2.737650e+00    4.679455e-01   6.072488e-03
  2.739861e+00    4.799840e-01   6.144043e-03
  2.742071e+00    4.891354e-01   6.196572e-03
  2.744282e+00    4.701514e-01   6.068976e-03
  2.746492e+00    4.732582e-01   6.083003e-03
  2.748702e+00    4.839365e-01   6.145326e-03
  2.750913e+00    4.747162e-01   6.080776e-03
  2.753123e+00    4.642339e-01   6.007245e-03
  2.755334e+00    4.706239e-01   6.042424e-03
  2.757544e+00    4.815100e-01   6.106175e-03
  2.759755e+00    4.899593e-01   6.153577e-03
  2.761965e+00    4.767008e-01   6.063788e-03
  2.764176e+00    4.680372e-01   6.002525e-03
  2.766386e+00    4.716939e-01   6.020179e-03
  2.768597e+00    4.676228e-01   5.988360e-03
  2.770807e+00    4.667883e-01   5.977205e-03
  2.773017e+00    4.752530e-01   6.025212e-03
  2.775228e+00    4.846389e-01   6.078595e-03
  2.777438e+00    4.668913e-01   5.960540e-03
  2.779649e+00    4.750887e-01   6.006747e-03
  2.781859e+00    4.659734e-01   5.943155e-03
  2.784070e+00    4.750361e-01   5.994826e-03
  2.786280e+00    4.739237e-01   5.982052e-03
  2.788491e+00    4.793353e-01   6.010260e-03
  2.790701e+00    4.722808e-01   5.960255e-03
  2.792912e+00    4.751495e-01   5.972351e-03
  2.795122e+00    4.758237e-01   5.970871e-03
  2.797333e+00    4.760635e-01   5.966811e-03
  2.799543e+00    4.756568e-01   5.958396e-03
  2.801753e+00    4.735246e-01   5.939184e-03
  2.803964e+00    4.777484e-01   5.959934e-03
  2.806174e+00    4.758071e-01   5.941666e-03
  2.808385e+00    4.786848e-01   5.952779e-03
  2.810595e+00    4.768118e-01   5.934242e-03
  2.812806e+00    4.726934e-01   5.901976e-03
  2.815016e+00    4.561984e-01   5.793413e-03
  2.817227e+00    4.619885e-01   5.855655e-03
  2.819437e+00    4.737147e-01   5.940598e-03
  2.821648e+00    4.607362e-01   5.860903e-03
  2.823858e+00    4.766146e-01   5.966406e-03
  2.826068e+00    4.645334e-01   5.895224e-03
  2.828279e+00    4.701050e-01   5.934514e-03
  2.830489e+00    4.629024e-01   5.892175e-03
  2.832700e+00    4.641848e-01   5.902877e-03
  2.834910e+00    4.553856e-01   5.848674e-03
  2.837121e+00    4.634635e-01   5.902020e-03
  2.839331e+00    4.640710e-01   5.907123e-03
  2.841542e+00    4.660435e-01   5.920654e-03
  2.843752e+00    4.579355e-01   5.869715e-03
  2.845963e+00    4.557529e-01   5.856081e-03
  2.848173e+00    4.693033e-01   5.942605e-03
  2.850383e+00    4.622079e-01   5.897792e-03
  2.852594e+00    4.598816e-01   5.882869e-03
  2.854804e+00    4.634691e-01   5.905248e-03
  2.857015e+00    4.594394e-01   5.879106e-03
  2.859225e+00    4.697159e-01   5.944223e-03
  2.861436e+00    4.756376e-01   5.980926e-03
  2.863646e+00    4.618359e-01   5.893564e-03
  2.865857e+00    4.454943e-01   5.788671e-03
  2.868067e+00    4.564146e-01   5.859412e-03
  2.870278e+00    4.596342e-01   5.879687e-03
  2.872488e+00    4.602860e-01   5.882707e-03
  2.874698e+00    4.547657e-01   5.846288e-03
  2.876909e+00    4.609655e-01   5.884667e-03
  2.879119e+00    4.675896e-01   5.925189e-03
  2.881330e+00    4.588021e-01   5.867768e-03
  2.883540e+00    4.638169e-01   5.898362e-03
  2.885751e+00    4.596668e-01   5.870277e-03
  2.887961e+00    4.572519e-01   5.852960e-03
  2.890172e+00    4.602132e-01   5.870285e-03
  2.892382e+00    4.576108e-01   5.851861e-03
  2.894593e+00    4.536007e-01   5.824366e-03
  2.896803e+00    4.539103e-01   5.824394e-03
  2.899014e+00    4.656742e-01   5.897439e-03
  2.901224e+00    4.547737e-01   5.826054e-03
  2.903434e+00    4.545029e-01   5.822374e-03
  2.905645e+00    4.467724e-01   5.770459e-03
  2.907855e+00    4.529287e-01   5.807982e-03
  2.910066e+00    4.491952e-01   5.781954e-03
  2.912276e+00    4.489007e-01   5.777963e-03
  2.914487e+00    4.447903e-01   5.749006e-03
  2.916697e+00    4.512732e-01   5.788568e-03
  2.918908e+00    4.589554e-01   5.835604e-03
  2.921118e+00    4.685733e-01   5.893729e-03
  2.923329e+00    4.582762e-01   5.826283e-03
  2.925539e+00    4.604819e-01   5.838004e-03
  2.927749e+00    4.560230e-01   5.807352e-03
  2.929960e+00    4.411464e-01   5.709128e-03
  2.932170e+00    4.498383e-01   5.762774e-03
  2.934381e+00    4.590315e-01   5.818913e-03
  2.936591e+00    4.610345e-01   5.829021e-03
  2.938802e+00    4.522646e-01   5.770613e-03
  2.941012e+00    4.521841e-01   5.767760e-03
  2.943223e+00    4.525290e-01   5.767277e-03
  2.945433e+00    4.521758e-01   5.761311e-03
  2.947644e+00    4.405968e-01   5.682998e-03
  2.949854e+00    4.532202e-01   5.759567e-03
  2.952064e+00    4.527782e-01   5.752549e-03
  2.954275e+00    4.460216e-01   5.705122e-03
  2.956485e+00    4.429273e-01   5.681127e-03
  2.958696e+00    4.619517e-01   5.797473e-03
  2.960906e+00    4.563102e-01   5.757756e-03
  2.963117e+00    4.611415e-01   5.783660e-03
  2.965327e+00    4.454170e-01   5.680330e-03
  2.967538e+00    4.582389e-01   5.758569e-03
  2.969748e+00    4.522000e-01   5.717700e-03
  2.971959e+00    4.493425e-01   5.696489e-03
  2.974169e+00    4.471645e-01   5.680094e-03
  2.976379e+00    4.523200e-01   5.709827e-03
  2.978590e+00    4.499891e-01   5.691991e-03
  2.980800e+00    4.426029e-01   5.642313e-03
  2.983011e+00    4.520486e-01   5.699403e-03
  2.985221e+00    4.499774e-01   5.683209e-03
  2.987432e+00    4.436450e-01   5.639997e-03
  2.989642e+00    4.407697e-01   5.619103e-03
  2.991853e+00    4.532599e-01   5.694875e-03
  2.994063e+00    4.472360e-01   5.654032e-03
  2.996274e+00    4.480530e-01   5.656027e-03
  2.998484e+00    4.437502e-01   5.626136e-03
  3.000694e+00    4.337935e-01   5.559286e-03
  3.002905e+00    4.479600e-01   5.646401e-03
  3.005115e+00    4.517769e-01   5.667432e-03
  3.007326e+00    4.499028e-01   5.652530e-03
  3.009536e+00    4.463172e-01   5.626735e-03
  3.011747e+00    4.566561e-01   5.688581e-03
  3.013957e+00    4.563132e-01   5.683279e-03
  3.016168e+00    4.606625e-01   5.707009e-03
  3.018378e+00    4.441981e-01   5.601093e-03
  3.020589e+00    4.453935e-01   5.605417e-03
  3.022799e+00    4.509985e-01   5.637431e-03
  3.025010e+00    4.380591e-01   5.552788e-03
  3.027220e+00    4.482085e-01   5.613638e-03
  3.029430e+00    4.512012e-01   5.629122e-03
  3.031641e+00    4.536575e-01   5.641259e-03
  3.033851e+00    4.591675e-01   5.671885e-03
  3.036062e+00    4.528582e-01   5.630002e-03
  3.038272e+00    4.462599e-01   5.585274e-03
  3.040483e+00    4.285856e-01   5.470421e-03
  3.042693e+00    4.374104e-01   5.523222e-03
  3.044904e+00    4.529461e-01   5.616429e-03
  3.047114e+00    4.408670e-01   5.536288e-03
  3.049325e+00    4.482480e-01   5.578053e-03
  3.051535e+00    4.312978e-01   5.467283e-03
  3.053745e+00    4.410633e-01   5.524105e-03
  3.055956e+00    4.442908e-01   5.539770e-03
  3.058166e+00    4.387291e-01   5.500771e-03
  3.060377e+00    4.438444e-01   5.527997e-03
  3.062587e+00    4.513004e-01   5.569617e-03
  3.064798e+00    4.459944e-01   5.532535e-03
  3.067008e+00    4.439479e-01   5.515131e-03
  3.069219e+00    4.409962e-01   5.492304e-03
  3.071429e+00    4.372715e-01   5.465585e-03
  3.073640e+00    4.468726e-01   5.521942e-03
  3.075850e+00    4.396545e-01   5.473631e-03
  3.078060e+00    4.466598e-01   5.513957e-03
  3.080271e+00    4.475541e-01   5.516010e-03
  3.082481e+00    4.268361e-01   5.383474e-03
  3.084692e+00    4.385554e-01   5.453502e-03
  3.086902e+00    4.556696e-01   5.555653e-03
  3.089113e+00    4.501137e-01   5.518091e-03
  3.091323e+00    4.430996e-01   5.471579e-03
  3.093534e+00    4.408258e-01   5.454175e-03
  3.095744e+00    4.399367e-01   5.445318e-03
  3.097955e+00    4.378170e-01   5.428682e-03
  3.100165e+00    4.372229e-01   5.421699e-03
  3.102375e+00    4.426128e-01   5.451603e-03
  3.104586e+00    4.535587e-01   5.515089e-03
  3.106796e+00    4.388016e-01   5.421153e-03
  3.109007e+00    4.499507e-01   5.486334e-03
  3.111217e+00    4.422611e-01   5.435602e-03
  3.113428e+00    4.372749e-01   5.401474e-03
  3.115638e+00    4.342022e-01   5.379273e-03
  3.117849e+00    4.370096e-01   5.392941e-03
  3.120059e+00    4.470561e-01   5.451128e-03
  3.122270e+00    4.165661e-01   5.258785e-03
  3.124480e+00    4.453699e-01   5.433870e-03
  3.126691e+00    4.423026e-01   5.411579e-03
  3.128901e+00    4.501618e-01   5.456300e-03
  3.131111e+00    4.389278e-01   5.383990e-03
  3.133322e+00    4.295563e-01   5.322795e-03
  3.135532e+00    4.359444e-01   5.358862e-03
  3.137743e+00    4.369316e-01   5.361488e-03
  3.139953e+00    4.223218e-01   5.267481e-03
  3.142164e+00    4.208454e-01   5.269979e-03
  3.144374e+00    4.336101e-01   5.377416e-03
  3.146585e+00    4.421530e-01   5.444692e-03
  3.148795e+00    4.507450e-01   5.508226e-03
  3.151006e+00    4.490682e-01   5.506587e-03
  3.153216e+00    4.391820e-01   5.452755e-03
  3.155426e+00    4.391458e-01   5.458810e-03
  3.157637e+00    4.364535e-01   5.447567e-03
  3.159847e+00    4.284056e-01   5.401910e-03
  3.162058e+00    4.443928e-01   5.506223e-03
  3.164268e+00    4.436308e-01   5.505589e-03
  3.166479e+00    4.378591e-01   5.473305e-03
  3.168689e+00    4.397672e-01   5.488589e-03
  3.170900e+00    4.253143e-01   5.400757e-03
  3.173110e+00    4.368964e-01   5.476668e-03
  3.175321e+00    4.346767e-01   5.465217e-03
  3.177531e+00    4.303375e-01   5.440583e-03
  3.179741e+00    4.289078e-01   5.433609e-03
  3.181952e+00    4.348823e-01   5.473394e-03
  3.184162e+00    4.438666e-01   5.531874e-03
  3.186373e+00    4.301187e-01   5.447124e-03
  3.188583e+00    4.206158e-01   5.388353e-03
  3.190794e+00    4.246874e-01   5.416101e-03
  3.193004e+00    4.361375e-01   5.489864e-03
  3.195215e+00    4.265232e-01   5.430518e-03
  3.197425e+00    4.254022e-01   5.424574e-03
  3.199636e+00    4.268013e-01   5.432709e-03
  3.201846e+00    4.147926e-01   5.355177e-03
  3.204056e+00    4.265808e-01   5.431571e-03
  3.206267e+00    4.247961e-01   5.421088e-03
  3.208477e+00    4.129199e-01   5.345630e-03
  3.210688e+00    4.220583e-01   5.405305e-03
  3.212898e+00    4.198125e-01   5.391482e-03
  3.215109e+00    4.074253e-01   5.312069e-03
  3.217319e+00    4.215689e-01   5.404112e-03
  3.219530e+00    4.311304e-01   5.465434e-03
  3.221740e+00    4.562004e-01   5.622657e-03
  3.223951e+00    4.865788e-01   5.807388e-03
  3.226161e+00    4.691646e-01   5.702722e-03
  3.228372e+00    4.279835e-01   5.447232e-03
  3.230582e+00    4.224568e-01   5.412052e-03
  3.232792e+00    4.246447e-01   5.426289e-03
  3.235003e+00    4.170798e-01   5.377978e-03
  3.237213e+00    4.140304e-01   5.358377e-03
  3.239424e+00    4.275759e-01   5.445304e-03
  3.241634e+00    4.330093e-01   5.479951e-03
  3.243845e+00    4.255623e-01   5.432687e-03
  3.246055e+00    4.240992e-01   5.423046e-03
  3.248266e+00    4.326613e-01   5.477744e-03
  3.250476e+00    4.205898e-01   5.400488e-03
  3.252687e+00    4.096182e-01   5.329486e-03
  3.254897e+00    4.171621e-01   5.378233e-03
  3.257107e+00    4.200933e-01   5.396779e-03
  3.259318e+00    4.130983e-01   5.351430e-03
  3.261528e+00    4.218810e-01   5.407870e-03
  3.263739e+00    4.314757e-01   5.468475e-03
  3.265949e+00    4.181367e-01   5.383146e-03
  3.268160e+00    4.229102e-01   5.413384e-03
  3.270370e+00    4.127358e-01   5.347370e-03
  3.272581e+00    4.172542e-01   5.376269e-03
  3.274791e+00    4.265900e-01   5.435560e-03
  3.277002e+00    4.228882e-01   5.411379e-03
  3.279212e+00    4.271429e-01   5.438128e-03
  3.281422e+00    4.210588e-01   5.398700e-03
  3.283633e+00    4.187246e-01   5.383029e-03
  3.285843e+00    4.272255e-01   5.437058e-03
  3.288054e+00    4.262553e-01   5.429945e-03
  3.290264e+00    4.311310e-01   5.460602e-03
  3.292475e+00    4.208357e-01   5.394172e-03
  3.294685e+00    4.216363e-01   5.398675e-03
  3.296896e+00    4.134187e-01   5.345057e-03
  3.299106e+00    4.164502e-01   5.364054e-03
  3.301317e+00    4.117276e-01   5.332553e-03
  3.303527e+00    4.181857e-01   5.373752e-03
  3.305737e+00    4.198301e-01   5.383254e-03
  3.307948e+00    4.188968e-01   5.376611e-03
  3.310158e+00    4.169923e-01   5.363514e-03
  3.312369e+00    4.214678e-01   5.391357e-03
  3.314579e+00    4.155736e-01   5.352608e-03
  3.316790e+00    4.306549e-01   5.448155e-03
  3.319000e+00    4.160140e-01   5.353585e-03
  3.321211e+00    4.051886e-01   5.282879e-03
  3.323421e+00    4.105580e-01   5.316552e-03
  3.325632e+00    3.994216e-01   5.243105e-03
  3.327842e+00    4.245388e-01   5.404498e-03
  3.330052e+00    4.249789e-01   5.406263e-03
  3.332263e+00    4.174842e-01   5.357369e-03
  3.334473e+00    4.124865e-01   5.324283e-03
  3.336684e+00    4.197786e-01   5.369893e-03
  3.338894e+00    4.124689e-01   5.322095e-03
  3.341105e+00    4.243203e-01   5.396790e-03
  3.343315e+00    4.141551e-01   5.330638e-03
  3.345526e+00    4.094787e-01   5.299569e-03
  3.347736e+00    4.169272e-01   5.346138e-03
  3.349947e+00    4.013222e-01   5.244237e-03
  3.352157e+00    4.122961e-01   5.314271e-03
  3.354368e+00    4.221161e-01   5.375898e-03
  3.356578e+00    4.145350e-01   5.326394e-03
  3.358788e+00    4.013321e-01   5.239582e-03
  3.360999e+00    4.142193e-01   5.321796e-03
  3.363209e+00    4.057814e-01   5.266326e-03
  3.365420e+00    4.035470e-01   5.250291e-03
  3.367630e+00    4.228592e-01   5.373452e-03
  3.369841e+00    4.005290e-01   5.228242e-03
  3.372051e+00    4.000752e-01   5.223363e-03
  3.374262e+00    4.040680e-01   5.246929e-03
  3.376472e+00    4.059857e-01   5.256968e-03
  3.378683e+00    4.120928e-01   5.293851e-03
  3.380893e+00    4.121277e-01   5.291775e-03
  3.383103e+00    3.971447e-01   5.192031e-03
  3.385314e+00    4.083609e-01   5.262638e-03
  3.387524e+00    4.145242e-01   5.299465e-03
  3.389735e+00    3.933111e-01   5.159516e-03
  3.391945e+00    4.042688e-01   5.227268e-03
  3.394156e+00    3.993699e-01   5.191344e-03
  3.396366e+00    3.962656e-01   5.167793e-03
  3.398577e+00    3.944435e-01   5.152915e-03
  3.400787e+00    3.909869e-01   5.141895e-03
  3.402998e+00    4.054278e-01   5.273856e-03
  3.405208e+00    3.986569e-01   5.250108e-03
  3.407418e+00    3.900227e-01   5.208527e-03
  3.409629e+00    3.784751e-01   5.144386e-03
  3.411839e+00    3.927911e-01   5.252457e-03
  3.414050e+00    4.079354e-01   5.363890e-03
  3.416260e+00    4.033167e-01   5.343214e-03
  3.418471e+00    3.821465e-01   5.210355e-03
  3.420681e+00    3.779831e-01   5.190236e-03
  3.422892e+00    3.753842e-01   5.180204e-03
  3.425102e+00    3.671718e-01   5.130808e-03
  3.427313e+00    3.663990e-01   5.132385e-03
  3.429523e+00    3.777479e-01   5.218246e-03
  3.431733e+00    3.648664e-01   5.134975e-03
  3.433944e+00    3.764286e-01   5.222120e-03
  3.436154e+00    3.621155e-01   5.127943e-03
  3.438365e+00    3.774499e-01   5.241288e-03
  3.440575e+00    3.770432e-01   5.244371e-03
  3.442786e+00    3.694376e-01   5.196739e-03
  3.444996e+00    3.657650e-01   5.176272e-03
  3.447207e+00    3.535071e-01   5.093941e-03
  3.449417e+00    3.571197e-01   5.159882e-03
  3.451628e+00    3.671861e-01   5.261488e-03
  3.453838e+00    3.659137e-01   5.273490e-03
  3.456049e+00    3.672506e-01   5.307011e-03
  3.458259e+00    3.766192e-01   5.396526e-03
  3.460469e+00    3.698277e-01   5.367510e-03
  3.462680e+00    3.495792e-01   5.237147e-03
  3.464890e+00    3.664336e-01   5.379691e-03
  3.467101e+00    3.683562e-01   5.411254e-03
  3.469311e+00    3.733835e-01   5.464705e-03
  3.471522e+00    3.929460e-01   5.622792e-03
  3.473732e+00    3.868457e-01   5.595111e-03
  3.475943e+00    3.855189e-01   5.601281e-03
  3.478153e+00    3.874027e-01   5.630364e-03
  3.480364e+00    3.925527e-01   5.682785e-03
  3.482574e+00    4.052190e-01   5.789130e-03
  3.484784e+00    4.180363e-01   5.894964e-03
  3.486995e+00    4.330042e-01   6.014951e-03
  3.489205e+00    4.385523e-01   6.068354e-03
  3.491416e+00    4.427685e-01   6.112603e-03
  3.493626e+00    4.445362e-01   6.139550e-03
  3.495837e+00    4.406925e-01   6.127737e-03
  3.498047e+00    4.352937e-01   6.104393e-03
  3.500258e+00    4.513054e-01   6.230219e-03
  3.502468e+00    4.565154e-01   6.280550e-03
  3.504679e+00    4.477434e-01   6.234190e-03
  3.506889e+00    4.632351e-01   6.355512e-03
  3.509099e+00    4.884865e-01   6.541055e-03
  3.511310e+00    4.951090e-01   6.600023e-03
  3.513520e+00    4.779829e-01   6.499213e-03
  3.515731e+00    4.763359e-01   6.502247e-03
  3.517941e+00    4.866567e-01   6.586595e-03
  3.520152e+00    4.975452e-01   6.674261e-03
  3.522362e+00    4.996990e-01   6.703132e-03
  3.524573e+00    5.083922e-01   6.775517e-03
  3.526783e+00    4.962792e-01   6.707481e-03
  3.528994e+00    5.041816e-01   6.772752e-03
  3.531204e+00    5.177094e-01   6.875415e-03
  3.533414e+00    5.148915e-01   6.868667e-03
  3.535625e+00    5.262827e-01   6.956534e-03
  3.537835e+00    5.280129e-01   6.980055e-03
  3.540046e+00    5.315922e-01   7.012552e-03
  3.542256e+00    5.312212e-01   7.017646e-03
  3.544467e+00    5.201468e-01   6.951596e-03
  3.546677e+00    5.303536e-01   7.026996e-03
  3.548888e+00    5.036639e-01   6.855196e-03
  3.551098e+00    5.172113e-01   6.953916e-03
  3.553309e+00    5.174924e-01   6.963822e-03
  3.555519e+00    5.374262e-01   7.107988e-03
  3.557729e+00    5.356590e-01   7.108020e-03
  3.559940e+00    5.342436e-01   7.110158e-03
  3.562150e+00    5.264000e-01   7.069372e-03
  3.564361e+00    5.501832e-01   7.240783e-03
  3.566571e+00    5.363773e-01   7.163227e-03
  3.568782e+00    5.386967e-01   7.192838e-03
  3.570992e+00    5.350136e-01   7.181928e-03
  3.573203e+00    5.455885e-01   7.266858e-03
  3.575413e+00    5.370286e-01   7.223389e-03
  3.577624e+00    5.407565e-01   7.262634e-03
  3.579834e+00    5.297382e-01   7.202038e-03
  3.582045e+00    5.448651e-01   7.318292e-03
  3.584255e+00    5.424143e-01   7.315966e-03
  3.586465e+00    5.273895e-01   7.227755e-03
  3.588676e+00    5.277153e-01   7.244066e-03
  3.590886e+00    5.161467e-01   7.177660e-03
  3.593097e+00    5.229831e-01   7.239370e-03
  3.595307e+00    5.453863e-01   7.406843e-03
  3.597518e+00    5.494303e-01   7.448670e-03
  3.599728e+00    5.254472e-01   7.298253e-03
  3.601939e+00    5.490059e-01   7.474300e-03
  3.604149e+00    5.330072e-01   7.378961e-03
  3.606360e+00    5.174274e-01   7.284256e-03
  3.608570e+00    5.167671e-01   7.293456e-03
  3.610780e+00    5.255592e-01   7.366254e-03
  3.612991e+00    5.286974e-01   7.398125e-03
  3.615201e+00    5.223777e-01   7.363503e-03
  3.617412e+00    5.394174e-01   7.489910e-03
  3.619622e+00    5.219731e-01   7.373702e-03
  3.621833e+00    5.214005e-01   7.376286e-03
  3.624043e+00    5.260987e-01   7.418865e-03
  3.626254e+00    5.176389e-01   7.368556e-03
  3.628464e+00    5.244175e-01   7.427473e-03
  3.630675e+00    5.282071e-01   7.468338e-03
  3.632885e+00    5.209059e-01   7.430809e-03
  3.635095e+00    5.269725e-01   7.488243e-03
  3.637306e+00    5.295067e-01   7.520553e-03
  3.639516e+00    5.399836e-01   7.609227e-03
  3.641727e+00    5.181108e-01   7.467858e-03
  3.643937e+00    5.186950e-01   7.486422e-03
  3.646148e+00    5.411162e-01   7.661220e-03
  3.648358e+00    5.349998e-01   7.632722e-03
  3.650569e+00    5.182570e-01   7.526852e-03
  3.652779e+00    5.190580e-01   7.547237e-03
  3.654990e+00    5.312257e-01   7.650062e-03
  3.657200e+00    5.459112e-01   7.770146e-03
  3.659410e+00    5.404984e-01   7.746649e-03
  3.661621e+00    5.215764e-01   7.624810e-03
  3.663831e+00    5.200220e-01   7.628349e-03
  3.666042e+00    5.389725e-01   7.781356e-03
  3.668252e+00    5.456050e-01   7.844578e-03
  3.670463e+00    5.338764e-01   7.775055e-03
  3.672673e+00    5.302068e-01   7.763712e-03
  3.674884e+00    5.206831e-01   7.708936e-03
  3.677094e+00    5.405197e-01   7.870024e-03
  3.679305e+00    5.313275e-01   7.818422e-03
  3.681515e+00    5.226344e-01   7.769681e-03
  3.683726e+00    5.382204e-01   7.900603e-03
  3.685936e+00    5.427023e-01   7.949364e-03
  3.688146e+00    5.251934e-01   7.835837e-03
  3.690357e+00    5.257630e-01   7.855982e-03
  3.692567e+00    5.276574e-01   7.886216e-03
  3.694778e+00    5.195882e-01   7.841675e-03
  3.696988e+00    5.237298e-01   7.888800e-03
  3.699199e+00    5.178128e-01   7.860224e-03
  3.701409e+00    4.981185e-01   7.725281e-03
  3.703620e+00    4.967072e-01   7.730118e-03
  3.705830e+00    5.459830e-01   8.121255e-03
  3.708041e+00    5.300360e-01   8.018495e-03
  3.710251e+00    5.067855e-01   7.857089e-03
  3.712461e+00    5.014637e-01   7.832095e-03
  3.714672e+00    5.192959e-01   7.986841e-03
  3.716882e+00    4.906345e-01   7.779556e-03
  3.719093e+00    5.008972e-01   7.877254e-03
  3.721303e+00    4.863902e-01   7.778805e-03
  3.723514e+00    5.185706e-01   8.049207e-03
  3.725724e+00    5.069268e-01   7.975325e-03
  3.727935e+00    5.188892e-01   8.086361e-03
  3.730145e+00    5.105147e-01   8.038054e-03
  3.732356e+00    5.221907e-01   8.147098e-03
  3.734566e+00    5.176349e-01   8.129060e-03
  3.736776e+00    4.998488e-01   8.005667e-03
  3.738987e+00    5.033633e-01   8.051306e-03
  3.741197e+00    5.106867e-01   8.127637e-03
  3.743408e+00    5.065225e-01   8.112381e-03
  3.745618e+00    5.024658e-01   8.097921e-03
  3.747829e+00    5.137857e-01   8.206791e-03
  3.750039e+00    5.032615e-01   8.140514e-03
  3.752250e+00    5.070889e-01   8.189838e-03
  3.754460e+00    4.815443e-01   7.998891e-03
  3.756671e+00    5.044507e-01   8.205602e-03
  3.758881e+00    5.218323e-01   8.364655e-03
  3.761091e+00    5.101249e-01   8.289528e-03
  3.763302e+00    4.909188e-01   8.150698e-03
  3.765512e+00    4.971242e-01   8.221102e-03
  3.767723e+00    4.972529e-01   8.241321e-03
  3.769933e+00    5.153042e-01   8.409040e-03
  3.772144e+00    5.265300e-01   8.520198e-03
  3.774354e+00    4.925654e-01   8.260353e-03
  3.776565e+00    4.980368e-01   8.325840e-03
  3.778775e+00    5.138984e-01   8.477461e-03
  3.780986e+00    4.908291e-01   8.305130e-03
  3.783196e+00    4.879627e-01   8.300692e-03
  3.785407e+00    5.057944e-01   8.471499e-03
  3.787617e+00    5.052366e-01   8.487619e-03
  3.789827e+00    5.085187e-01   8.535839e-03
  3.792038e+00    4.980996e-01   8.468660e-03
  3.794248e+00    5.000734e-01   8.506595e-03
  3.796459e+00    4.885161e-01   8.428773e-03
  3.798669e+00    4.801701e-01   8.377425e-03
  3.800880e+00    4.840907e-01   8.432648e-03
  3.803090e+00    4.770009e-01   8.391901e-03
  3.805301e+00    4.920735e-01   8.545476e-03
  3.807511e+00    4.877250e-01   8.529248e-03
  3.809722e+00    4.988954e-01   8.648705e-03
  3.811932e+00    4.874953e-01   8.571195e-03
  3.814142e+00    4.972696e-01   8.679550e-03
  3.816353e+00    5.165349e-01   8.869261e-03
  3.818563e+00    5.171037e-01   8.897777e-03
  3.820774e+00    5.068655e-01   8.832506e-03
  3.822984e+00    5.256680e-01   9.018956e-03
  3.825195e+00    4.910604e-01   8.740564e-03
  3.827405e+00    4.833362e-01   8.695069e-03
  3.829616e+00    4.822886e-01   8.709298e-03
  3.831826e+00    4.989504e-01   8.882700e-03
  3.834037e+00    4.911283e-01   8.837181e-03
  3.836247e+00    4.916697e-01   8.866557e-03
  3.838457e+00    4.945799e-01   8.917780e-03
  3.840668e+00    4.704518e-01   8.722063e-03
  3.842878e+00    4.832155e-01   8.864732e-03
  3.845089e+00    4.825400e-01   8.883806e-03
  3.847299e+00    4.734498e-01   8.824934e-03
  3.849510e+00    4.884777e-01   8.989546e-03
  3.851720e+00    4.895714e-01   9.020924e-03
  3.853931e+00    4.964621e-01   9.103226e-03
  3.856141e+00    5.049290e-01   9.199705e-03
  3.858352e+00    5.035779e-01   9.206858e-03
  3.860562e+00    4.746125e-01   8.957031e-03
  3.862772e+00    4.765538e-01   8.994540e-03
  3.864983e+00    5.054668e-01   9.283329e-03
  3.867193e+00    4.827593e-01   9.091984e-03
  3.869404e+00    4.859816e-01   9.141913e-03
  3.871614e+00    4.860026e-01   9.161946e-03
  3.873825e+00    4.892625e-01   9.212871e-03
  3.876035e+00    4.948121e-01   9.285551e-03
  3.878246e+00    4.917012e-01   9.282088e-03
  3.880456e+00    5.007219e-01   9.396059e-03
  3.882667e+00    5.027772e-01   9.444988e-03
  3.884877e+00    5.098581e-01   9.541549e-03
  3.887087e+00    4.944381e-01   9.426191e-03
  3.889298e+00    4.850196e-01   9.366204e-03
  3.891508e+00    4.843279e-01   9.389783e-03
  3.893719e+00    4.894912e-01   9.470630e-03
  3.895929e+00    5.171334e-01   9.766669e-03
  3.898140e+00    4.775733e-01   9.417002e-03
  3.900350e+00    4.865404e-01   9.536957e-03
  3.902561e+00    4.896041e-01   9.599238e-03
  3.904771e+00    4.995643e-01   9.729563e-03
  3.906982e+00    5.078146e-01   9.843287e-03
  3.909192e+00    5.010007e-01   9.811019e-03
  3.911403e+00    4.879931e-01   9.716757e-03
  3.913613e+00    4.900114e-01   9.771137e-03
  3.915823e+00    4.802585e-01   9.707891e-03
  3.918034e+00    5.122604e-01   1.006224e-02
  3.920244e+00    5.000663e-01   9.977955e-03
  3.922455e+00    5.185348e-01   1.019768e-02
  3.924665e+00    4.779200e-01   9.826222e-03
  3.926876e+00    5.017887e-01   1.010624e-02
  3.929086e+00    5.037080e-01   1.016358e-02
  3.931297e+00    4.774307e-01   9.929296e-03
  3.933507e+00    4.800980e-01   9.985751e-03
  3.935718e+00    4.850706e-01   1.006599e-02
  3.937928e+00    4.589552e-01   9.819836e-03
  3.940138e+00    4.885681e-01   1.016108e-02
  3.942349e+00    4.877001e-01   1.018190e-02
  3.944559e+00    4.750532e-01   1.007866e-02
  3.946770e+00    4.969306e-01   1.033867e-02
  3.948980e+00    4.576229e-01   9.951061e-03
  3.951191e+00    4.925025e-01   1.035434e-02
  3.953401e+00    5.050540e-01   1.051745e-02
  3.955612e+00    4.788536e-01   1.027253e-02
  3.957822e+00    4.585040e-01   1.008257e-02
  3.960033e+00    4.586298e-01   1.011558e-02
  3.962243e+00    4.914518e-01   1.050429e-02
  3.964453e+00    4.997658e-01   1.062652e-02
  3.966664e+00    4.803137e-01   1.045079e-02
  3.968874e+00    4.865398e-01   1.054671e-02
  3.971085e+00    4.704836e-01   1.039284e-02
  3.973295e+00    4.864006e-01   1.058869e-02
  3.975506e+00    4.550011e-01   1.026212e-02
  3.977716e+00    5.024737e-01   1.080648e-02
  3.979927e+00    4.938467e-01   1.073581e-02
  3.982137e+00    4.824558e-01   1.063334e-02
  3.984348e+00    4.728645e-01   1.054945e-02
  3.986558e+00    5.077145e-01   1.095404e-02
  3.988768e+00    4.769035e-01   1.063944e-02
  3.990979e+00    4.623163e-01   1.049752e-02
  3.993189e+00    4.571973e-01   1.046167e-02
  3.995400e+00    4.679984e-01   1.060767e-02
  3.997610e+00    4.984911e-01   1.097795e-02
  3.999821e+00    4.805094e-01   1.081560e-02
  4.002031e+00    4.696461e-01   1.073038e-02
  4.004242e+00    4.640496e-01   1.070388e-02
  4.006452e+00    4.945399e-01   1.108971e-02
  4.008663e+00    4.911441e-01   1.109193e-02
  4.010873e+00    4.454099e-01   1.060109e-02
  4.013084e+00    4.649059e-01   1.087077e-02
  4.015294e+00    4.986917e-01   1.130038e-02
  4.017504e+00    4.774732e-01   1.109901e-02
  4.019715e+00    4.687617e-01   1.103906e-02
  4.021925e+00    5.005515e-01   1.145096e-02
  4.024136e+00    4.739470e-01   1.118574e-02
  4.026346e+00    4.549733e-01   1.100233e-02
  4.028557e+00    4.755008e-01   1.129171e-02
  4.030767e+00    4.757789e-01   1.134030e-02
  4.032978e+00    4.753469e-01   1.138097e-02
  4.035188e+00    4.766423e-01   1.144237e-02
  4.037399e+00    5.417631e-01   1.224932e-02
  4.039609e+00    5.032375e-01   1.185459e-02
  4.041819e+00    4.722680e-01   1.153214e-02
  4.044030e+00    4.612111e-01   1.144509e-02
  4.046240e+00    4.688930e-01   1.158913e-02
  4.048451e+00    4.693685e-01   1.164523e-02
  4.050661e+00    4.453490e-01   1.139276e-02
  4.052872e+00    4.853972e-01   1.194680e-02
  4.055082e+00    4.749513e-01   1.187072e-02
  4.057293e+00    4.773096e-01   1.195349e-02
  4.059503e+00    4.882636e-01   1.214500e-02
  4.061714e+00    4.570434e-01   1.180536e-02
  4.063924e+00    4.324088e-01   1.153637e-02
  4.066134e+00    4.569594e-01   1.191514e-02
  4.068345e+00    4.901940e-01   1.240051e-02
  4.070555e+00    4.834157e-01   1.237373e-02
  4.072766e+00    4.663200e-01   1.221296e-02
  4.074976e+00    4.396868e-01   1.191812e-02
  4.077187e+00    4.715709e-01   1.240399e-02
  4.079397e+00    4.641505e-01   1.236885e-02
  4.081608e+00    4.793022e-01   1.263459e-02
  4.083818e+00    4.716690e-01   1.259864e-02
  4.086029e+00    4.610000e-01   1.252114e-02
  4.088239e+00    4.622371e-01   1.260542e-02
  4.090449e+00    4.765750e-01   1.286867e-02
  4.092660e+00    4.907913e-01   1.313122e-02
  4.094870e+00    4.778012e-01   1.302830e-02
  4.097081e+00    4.591621e-01   1.284157e-02
  4.099291e+00    4.531291e-01   1.280981e-02
  4.101502e+00    4.991753e-01   1.349494e-02
  4.103712e+00    4.791478e-01   1.327089e-02
  4.105923e+00    4.754611e-01   1.327069e-02
  4.108133e+00    4.466207e-01   1.291171e-02
  4.110344e+00    4.865032e-01   1.352719e-02
  4.112554e+00    5.309231e-01   1.418723e-02
  4.114764e+00    4.780000e-01   1.351563e-02
  4.116975e+00    4.909322e-01   1.375133e-02
  4.119185e+00    4.934635e-01   1.384262e-02
  4.121396e+00    5.030852e-01   1.403464e-02
  4.123606e+00    5.060883e-01   1.413437e-02
  4.125817e+00    4.640976e-01   1.359189e-02
  4.128027e+00    4.793826e-01   1.387199e-02
  4.130238e+00    4.654181e-01   1.372729e-02
  4.132448e+00    5.118562e-01   1.445809e-02
  4.134659e+00    4.867062e-01   1.415934e-02
  4.136869e+00    5.015144e-01   1.443698e-02
  4.139080e+00    4.570471e-01   1.384429e-02
  4.141290e+00    5.109771e-01   1.470323e-02
  4.143500e+00    5.059555e-01   1.469816e-02
  4.145711e+00    4.727175e-01   1.427368e-02
  4.147921e+00    4.730668e-01   1.434419e-02
  4.150132e+00    5.165657e-01   1.506099e-02
  4.152342e+00    4.617776e-01   1.430874e-02
  4.154553e+00    4.862563e-01   1.475308e-02
  4.156763e+00    4.581328e-01   1.439085e-02
  4.158974e+00    4.890207e-01   1.494276e-02
  4.161184e+00    4.376316e-01   1.420612e-02
  4.163395e+00    4.867239e-01   1.505791e-02
  4.165605e+00    4.685039e-01   1.485053e-02
  4.167815e+00    4.770421e-01   1.506328e-02
  4.170026e+00    4.726481e-01   1.507268e-02
  4.172236e+00    4.915192e-01   1.545385e-02
  4.174447e+00    4.502006e-01   1.487056e-02
  4.176657e+00    3.955061e-01   1.401407e-02
  4.178868e+00    5.054767e-01   1.593259e-02
  4.181078e+00    5.005758e-01   1.594475e-02
  4.183289e+00    4.823954e-01   1.574202e-02
  4.185499e+00    4.642693e-01   1.553461e-02
  4.187710e+00    5.010517e-01   1.623263e-02
  4.189920e+00    4.525100e-01   1.551947e-02
  4.192130e+00    5.001961e-01   1.641602e-02
  4.194341e+00    4.711737e-01   1.603075e-02
  4.196551e+00    4.864295e-01   1.639101e-02
  4.198762e+00    5.012134e-01   1.674417e-02
  4.200972e+00    4.925382e-01   1.670609e-02
  4.203183e+00    4.351107e-01   1.580504e-02
  4.205393e+00    4.887020e-01   1.686213e-02
  4.207604e+00    5.047055e-01   1.725261e-02
  4.209814e+00    5.162368e-01   1.756839e-02
  4.212025e+00    4.546900e-01   1.660498e-02
  4.214235e+00    4.820868e-01   1.721860e-02
  4.216445e+00    5.177506e-01   1.797338e-02
  4.218656e+00    5.127515e-01   1.802053e-02
  4.220866e+00    5.104110e-01   1.811243e-02
  4.223077e+00    4.986022e-01   1.803938e-02
  4.225287e+00    4.344926e-01   1.697239e-02
  4.227498e+00    4.221993e-01   1.686175e-02
  4.229708e+00    4.196144e-01   1.694634e-02
  4.231919e+00    4.912308e-01   1.848746e-02
  4.234129e+00    4.904029e-01   1.862708e-02
  4.236340e+00    4.039139e-01   1.704914e-02
  4.238550e+00    4.702284e-01   1.855822e-02
  4.240761e+00    4.810252e-01   1.893580e-02
  4.242971e+00    5.067218e-01   1.961286e-02
  4.245181e+00    4.590813e-01   1.884395e-02
  4.247392e+00    4.311831e-01   1.843260e-02
  4.249602e+00    4.694865e-01   1.942531e-02
  4.251813e+00    4.288726e-01   1.874933e-02
  4.254023e+00    3.906042e-01   1.807297e-02
  4.256234e+00    4.448332e-01   1.949308e-02
  4.258444e+00    4.412533e-01   1.961752e-02
  4.260655e+00    4.266223e-01   1.950192e-02
  4.262865e+00    4.731376e-01   2.077019e-02
  4.265076e+00    4.527677e-01   2.054947e-02
  4.267286e+00    5.276125e-01   2.244582e-02
  4.269496e+00    4.157550e-01   2.016868e-02
  4.271707e+00    4.146948e-01   2.039135e-02
  4.273917e+00    4.299096e-01   2.103020e-02
  4.276128e+00    4.341224e-01   2.141402e-02
  4.278338e+00    4.889597e-01   2.303008e-02
  4.280549e+00    4.116447e-01   2.143367e-02
  4.282759e+00    4.607046e-01   2.300058e-02
  4.284970e+00    4.833091e-01   2.390743e-02
  4.287180e+00    4.891749e-01   2.433965e-02
  4.289391e+00    5.667980e-01   2.639666e-02
  4.291601e+00    4.865080e-01   2.465113e-02
  4.293811e+00    4.509621e-01   2.391900e-02
  4.296022e+00    4.510362e-01   2.411316e-02
  4.298232e+00    5.070006e-01   2.577959e-02
  4.300443e+00    5.108768e-01   2.609143e-02
  4.302653e+00    5.835876e-01   2.812784e-02
  4.304864e+00    4.217174e-01   2.411782e-02
  4.307074e+00    4.760154e-01   2.585359e-02
  4.309285e+00    5.295730e-01   2.751780e-02
  4.311495e+00    5.100299e-01   2.725735e-02
  4.313706e+00    4.572147e-01   2.605007e-02
  4.315916e+00    5.185192e-01   2.801405e-02
  4.318126e+00    4.900822e-01   2.750595e-02
  4.320337e+00    4.768137e-01   2.740384e-02
  4.322547e+00    4.653755e-01   2.736089e-02
  4.324758e+00    5.196072e-01   2.921169e-02
  4.326968e+00    5.874292e-01   3.140932e-02
  4.329179e+00    4.795605e-01   2.869275e-02
  4.331389e+00    6.112719e-01   3.276687e-02
  4.333600e+00    5.237766e-01   3.069426e-02
  4.335810e+00    5.406926e-01   3.155627e-02
  4.338021e+00    4.686813e-01   2.975674e-02
  4.340231e+00    4.567792e-01   2.974419e-02
  4.342442e+00    4.802209e-01   3.090764e-02
  4.344652e+00    4.864458e-01   3.152989e-02
  4.346862e+00    3.361403e-01   2.657652e-02
  4.349073e+00    3.401069e-01   2.712196e-02
  4.351283e+00    3.751197e-01   2.890865e-02
  4.353494e+00    5.906610e-01   3.683589e-02
  4.355704e+00    4.831530e-01   3.385261e-02
  4.357915e+00    3.795936e-01   3.050626e-02
  4.360125e+00    4.470375e-01   3.366957e-02
  4.362336e+00    4.914952e-01   3.594704e-02
  4.364546e+00    3.793283e-01   3.215575e-02
  4.366757e+00    4.583963e-01   3.605196e-02
  4.368967e+00    3.647428e-01   3.280042e-02
  4.371177e+00    3.970679e-01   3.494960e-02
  4.373388e+00    5.609042e-01   4.246680e-02
  4.375598e+00    5.126244e-01   4.152638e-02
  4.377809e+00    4.314447e-01   3.905952e-02
  4.380019e+00    4.474422e-01   4.077855e-02
  4.382230e+00    3.465931e-01   3.688868e-02
  4.384440e+00    4.259643e-01   4.207569e-02
  4.386651e+00    4.030936e-01   4.219208e-02
  4.388861e+00    4.880016e-01   4.797899e-02
  4.391072e+00    5.222422e-01   5.137846e-02
  4.393282e+00    4.780778e-01   5.105891e-02
  4.395492e+00    5.407142e-01   5.655703e-02
  4.397703e+00    3.892000e-01   5.017891e-02
  4.399913e+00    3.248613e-01   4.816416e-02
  4.402124e+00    3.570341e-01   5.335068e-02
  4.404334e+00    6.588218e-01   7.704052e-02
  4.406545e+00    3.641337e-01   6.153721e-02
  4.408755e+00    5.301964e-01   8.053215e-02
  4.410966e+00    6.120734e-01   9.576560e-02
  4.413176e+00    4.937275e-01   9.735347e-02
  4.415387e+00   -4.219933e-01            nan
  4.417597e+00   -2.044852e+00            nan
  4.419807e+00    2.807437e-01   1.902519e-01
