# == pyFAI calibration ==
# Distance Sample to Detector: 0.216 m
# PONI: 1.166e-01, 1.308e-01 m
# Rotations: 0.000000 0.000000 0.000000 rad
# 
# == Fit2d calibration ==
# Distance Sample-beamCenter: 216.000 mm
# Center: x=1744.293, y=1555.000 pix
# Tilt: 0.000 deg  TiltPlanRot: 0.000 deg
# 
# Detector Eiger 9M	 PixelSize= 7.500e-05, 7.500e-05 m
#    Detector has a mask: True 
#    Detector has a dark current: False 
#    detector has a flat field: False 
# 
# Wavelength: 9.8e-11 m
# Mask applied: from detector
# Dark current applied: False
# Flat field applied: False
# Polarization factor: None
# Normalization factor: 1.0
# 
# Headers of the input frame:
# {
# "_array_data.header_convention": "SLS_1.0",
# "_array_data.header_contents": "# Detector: Dectris Eiger 9M, S/N E-18-0102\r\n# Pixel_size 75e-6 m x 75e-6 m\r\n# Silicon sensor, thickness 0.000450 m\r\n# Exposure_time 0.024997 s\r\n# Exposure_period 0.025000 s\r\n# Count_cutoff 62318 counts\r\n# Wavelength 0.980106 A\r\n# Detector_distance 0.215992 m\r\n# Beam_xy (1555, 1744) pixels\r\n# Start_angle 0.000000 deg.\r\n# Angle_increment 0.000000 deg.",
# "Content-Type": "application/octet-stream;",
# "conversions": "x-CBF_BYTE_OFFSET",
# "Content-Transfer-Encoding": "BINARY",
# "X-Binary-Size": "10166608",
# "X-Binary-ID": "1",
# "X-Binary-Element-Type": "signed 32-bit integer",
# "X-Binary-Element-Byte-Order": "LITTLE_ENDIAN",
# "Content-MD5": "4BhDWWp5d5uWrrpaC7HmPQ==",
# "X-Binary-Number-of-Elements": "10166590",
# "X-Binary-Size-Fastest-Dimension": "3110",
# "X-Binary-Size-Second-Dimension": "3269",
# "X-Binary-Size-Padding": "4095"
# }
# --> H:/Proxima2a_2019-04-05/RAW_DATA/C5_gel17_position5/C5_mesh_1_data.cbf/C5_mesh_1_data.cbf000028.dat
#        q_A^-1              I           sigma 
  1.105228e-03    1.442483e+00   6.498938e-01
  3.315685e-03    1.603526e+00   4.165656e-01
  5.526141e-03    1.320533e+00   2.923121e-01
  7.736597e-03    1.041917e+00   2.193496e-01
  9.947054e-03    8.063593e-01   1.701143e-01
  1.215751e-02    1.182874e+00   1.863107e-01
  1.436797e-02    1.342530e+00   1.825735e-01
  1.657842e-02    1.272314e+00   1.654404e-01
  1.878888e-02    1.228753e+00   1.527200e-01
  2.099934e-02    1.277174e+00   1.473083e-01
  2.320979e-02    1.341611e+00   1.435972e-01
  2.542025e-02    1.365398e+00   1.384328e-01
  2.763070e-02    1.186782e+00   1.237872e-01
  2.984116e-02    1.259784e+00   1.227226e-01
  3.205162e-02    1.216683e+00   1.163791e-01
  3.426207e-02    1.333761e+00   1.178457e-01
  3.647253e-02    1.322091e+00   1.137157e-01
  3.868299e-02    1.346230e+00   1.114308e-01
  4.089344e-02    1.317323e+00   1.072079e-01
  4.310390e-02    1.358957e+00   1.060539e-01
  4.531436e-02    1.365747e+00   1.036934e-01
  4.752481e-02    1.457242e+00   1.045887e-01
  4.973527e-02    1.370131e+00   9.913635e-02
  5.194572e-02    1.272382e+00   9.347847e-02
  5.415618e-02    1.394451e+00   9.583859e-02
  5.636664e-02    1.435777e+00   9.532543e-02
  5.857709e-02    1.346488e+00   9.055571e-02
  6.078755e-02    1.448725e+00   9.220412e-02
  6.299801e-02    1.367425e+00   8.799302e-02
  6.520846e-02    1.307852e+00   8.458434e-02
  6.741892e-02    1.331795e+00   8.393992e-02
  6.962938e-02    1.459254e+00   8.646329e-02
  7.183983e-02    1.457770e+00   8.507785e-02
  7.405029e-02    1.375336e+00   8.139273e-02
  7.626074e-02    1.395430e+00   8.078756e-02
  7.847120e-02    1.390654e+00   7.950301e-02
  8.068166e-02    1.391613e+00   7.843276e-02
  8.289211e-02    1.362597e+00   7.656854e-02
  8.510257e-02    1.448547e+00   7.791402e-02
  8.731303e-02    1.488075e+00   7.796095e-02
  8.952348e-02    1.384402e+00   7.426406e-02
  9.173394e-02    1.331419e+00   7.194343e-02
  9.394439e-02    1.398474e+00   7.285787e-02
  9.615485e-02    1.428653e+00   7.278687e-02
  9.836531e-02    1.473796e+00   7.309052e-02
  1.005758e-01    1.390810e+00   7.021880e-02
  1.027862e-01    1.406441e+00   6.984712e-02
  1.049967e-01    1.472822e+00   7.071884e-02
  1.072071e-01    1.465879e+00   6.982001e-02
  1.094176e-01    1.403055e+00   6.761293e-02
  1.116280e-01    1.405140e+00   6.698838e-02
  1.138385e-01    1.446893e+00   6.731185e-02
  1.160490e-01    1.473007e+00   6.726582e-02
  1.182594e-01    1.424385e+00   6.552379e-02
  1.204699e-01    1.455142e+00   6.561654e-02
  1.226803e-01    1.494651e+00   6.589679e-02
  1.248908e-01    1.461545e+00   6.458292e-02
  1.271012e-01    1.366070e+00   6.189133e-02
  1.293117e-01    1.433122e+00   6.284711e-02
  1.315222e-01    1.438257e+00   6.242687e-02
  1.337326e-01    1.432019e+00   6.177319e-02
  1.359431e-01    1.517025e+00   6.361744e-02
  1.381535e-01    1.484264e+00   6.377144e-02
  1.403640e-01    1.459058e+00   6.350061e-02
  1.425744e-01    1.518797e+00   6.489103e-02
  1.447849e-01    1.548728e+00   6.554244e-02
  1.469953e-01    1.463707e+00   6.367807e-02
  1.492058e-01    1.518100e+00   6.477509e-02
  1.514163e-01    1.515272e+00   6.460726e-02
  1.536267e-01    1.449074e+00   6.305692e-02
  1.558372e-01    1.521186e+00   6.446419e-02
  1.580476e-01    1.595660e+00   6.586315e-02
  1.602581e-01    1.618240e+00   6.615910e-02
  1.624685e-01    1.581834e+00   6.523155e-02
  1.646790e-01    1.582213e+00   6.505204e-02
  1.668895e-01    1.609137e+00   6.541372e-02
  1.690999e-01    1.689945e+00   6.683478e-02
  1.713104e-01    1.706266e+00   6.694835e-02
  1.735208e-01    1.675754e+00   6.614070e-02
  1.757313e-01    1.759640e+00   6.756355e-02
  1.779417e-01    1.749256e+00   6.714421e-02
  1.801522e-01    1.724269e+00   6.645060e-02
  1.823626e-01    1.773918e+00   6.717614e-02
  1.845731e-01    1.751253e+00   6.652940e-02
  1.867836e-01    1.837968e+00   6.792662e-02
  1.889940e-01    1.849010e+00   6.790772e-02
  1.912045e-01    1.853836e+00   6.776922e-02
  1.934149e-01    1.896535e+00   6.831583e-02
  1.956254e-01    1.896555e+00   6.809088e-02
  1.978358e-01    1.855106e+00   6.711192e-02
  2.000463e-01    1.949926e+00   6.857768e-02
  2.022568e-01    1.868371e+00   6.690793e-02
  2.044672e-01    1.882019e+00   6.692180e-02
  2.066777e-01    1.848310e+00   6.609964e-02
  2.088881e-01    1.980730e+00   6.820264e-02
  2.110986e-01    1.914465e+00   6.682214e-02
  2.133090e-01    1.926797e+00   6.681908e-02
  2.155195e-01    1.987390e+00   6.763649e-02
  2.177300e-01    1.884410e+00   6.534345e-02
  2.199404e-01    1.877614e+00   6.350682e-02
  2.221509e-01    1.888229e+00   6.264032e-02
  2.243613e-01    1.908593e+00   6.217883e-02
  2.265718e-01    1.970770e+00   6.248708e-02
  2.287822e-01    2.000774e+00   6.233779e-02
  2.309927e-01    2.002736e+00   6.180018e-02
  2.332031e-01    2.059221e+00   6.212929e-02
  2.354136e-01    1.995664e+00   6.066724e-02
  2.376241e-01    2.107564e+00   6.186100e-02
  2.398345e-01    2.079526e+00   6.099337e-02
  2.420450e-01    2.086133e+00   6.065361e-02
  2.442554e-01    2.030770e+00   5.943108e-02
  2.464659e-01    2.061373e+00   5.947519e-02
  2.486763e-01    2.092810e+00   5.953308e-02
  2.508868e-01    2.090783e+00   5.912888e-02
  2.530973e-01    2.105376e+00   5.896700e-02
  2.553077e-01    2.069946e+00   5.811410e-02
  2.575182e-01    2.010949e+00   5.694100e-02
  2.597286e-01    2.120371e+00   5.812978e-02
  2.619391e-01    2.014003e+00   5.632686e-02
  2.641495e-01    1.945175e+00   5.504961e-02
  2.663600e-01    1.945872e+00   5.475670e-02
  2.685704e-01    1.987814e+00   5.504366e-02
  2.707809e-01    1.918356e+00   5.378644e-02
  2.729914e-01    1.990378e+00   5.450126e-02
  2.752018e-01    1.985795e+00   5.415516e-02
  2.774123e-01    1.918857e+00   5.296266e-02
  2.796227e-01    1.913221e+00   5.262322e-02
  2.818332e-01    1.936711e+00   5.268117e-02
  2.840436e-01    1.871130e+00   5.153054e-02
  2.862541e-01    1.837220e+00   5.081599e-02
  2.884646e-01    1.846287e+00   5.069948e-02
  2.906750e-01    1.871432e+00   5.080155e-02
  2.928855e-01    1.882180e+00   5.071114e-02
  2.950959e-01    1.914788e+00   5.091358e-02
  2.973064e-01    1.837624e+00   4.965299e-02
  2.995168e-01    1.820206e+00   4.919330e-02
  3.017273e-01    1.827005e+00   4.906778e-02
  3.039377e-01    1.874053e+00   4.947794e-02
  3.061482e-01    1.852730e+00   4.898285e-02
  3.083587e-01    1.837727e+00   4.857296e-02
  3.105691e-01    1.797436e+00   4.783235e-02
  3.127796e-01    1.831806e+00   4.808450e-02
  3.149900e-01    1.873782e+00   4.842968e-02
  3.172005e-01    1.852828e+00   4.796122e-02
  3.194109e-01    1.814180e+00   4.726245e-02
  3.216214e-01    1.775410e+00   4.656394e-02
  3.238319e-01    1.783209e+00   4.648121e-02
  3.260423e-01    1.823252e+00   4.681299e-02
  3.282528e-01    1.824612e+00   4.664400e-02
  3.304632e-01    1.847042e+00   4.674803e-02
  3.326737e-01    1.831722e+00   4.637210e-02
  3.348841e-01    1.761121e+00   4.529336e-02
  3.370946e-01    1.741604e+00   4.487220e-02
  3.393050e-01    1.738584e+00   4.466343e-02
  3.415155e-01    1.743353e+00   4.455651e-02
  3.437260e-01    1.762944e+00   4.464007e-02
  3.459364e-01    1.773597e+00   4.460913e-02
  3.481469e-01    1.738956e+00   4.401010e-02
  3.503573e-01    1.716338e+00   4.356367e-02
  3.525678e-01    1.746519e+00   4.378841e-02
  3.547782e-01    1.735811e+00   4.349621e-02
  3.569887e-01    1.661624e+00   4.240577e-02
  3.591992e-01    1.702027e+00   4.276637e-02
  3.614096e-01    1.705222e+00   4.265806e-02
  3.636201e-01    1.746652e+00   4.302145e-02
  3.658305e-01    1.735797e+00   4.274127e-02
  3.680410e-01    1.720256e+00   4.240315e-02
  3.702514e-01    1.744968e+00   4.256302e-02
  3.724619e-01    1.755419e+00   4.254491e-02
  3.746724e-01    1.723162e+00   4.201156e-02
  3.768828e-01    1.759347e+00   4.230753e-02
  3.790933e-01    1.668575e+00   4.106743e-02
  3.813037e-01    1.679329e+00   4.106473e-02
  3.835142e-01    1.712497e+00   4.133209e-02
  3.857246e-01    1.683112e+00   4.084332e-02
  3.879351e-01    1.711387e+00   4.105167e-02
  3.901455e-01    1.705813e+00   4.085428e-02
  3.923560e-01    1.687198e+00   4.050162e-02
  3.945665e-01    1.713153e+00   4.068253e-02
  3.967769e-01    1.688349e+00   4.026047e-02
  3.989874e-01    1.678605e+00   4.001876e-02
  4.011978e-01    1.690992e+00   4.004264e-02
  4.034083e-01    1.713361e+00   4.018288e-02
  4.056187e-01    1.710074e+00   4.002065e-02
  4.078292e-01    1.686305e+00   3.962129e-02
  4.100397e-01    1.675066e+00   3.936844e-02
  4.122501e-01    1.731022e+00   3.990086e-02
  4.144606e-01    1.769596e+00   4.022336e-02
  4.166710e-01    1.735062e+00   3.971053e-02
  4.188815e-01    1.710280e+00   3.930943e-02
  4.210919e-01    1.745461e+00   3.959532e-02
  4.233024e-01    1.754888e+00   3.958531e-02
  4.255128e-01    1.734647e+00   3.924260e-02
  4.277233e-01    1.735771e+00   3.914253e-02
  4.299338e-01    1.674090e+00   3.833016e-02
  4.321442e-01    1.706039e+00   3.858345e-02
  4.343547e-01    1.702306e+00   3.843223e-02
  4.365651e-01    1.691062e+00   3.819628e-02
  4.387756e-01    1.703079e+00   3.822440e-02
  4.409860e-01    1.668930e+00   3.773442e-02
  4.431965e-01    1.647820e+00   3.739133e-02
  4.454070e-01    1.660824e+00   3.743413e-02
  4.476174e-01    1.712510e+00   3.790781e-02
  4.498279e-01    1.666541e+00   3.729380e-02
  4.520383e-01    1.703018e+00   3.759628e-02
  4.542488e-01    1.683795e+00   3.728269e-02
  4.564592e-01    1.706760e+00   3.743536e-02
  4.586697e-01    1.691934e+00   3.717351e-02
  4.608801e-01    1.670434e+00   3.683760e-02
  4.630906e-01    1.675177e+00   3.679221e-02
  4.653011e-01    1.612952e+00   3.600747e-02
  4.675115e-01    1.608850e+00   3.586693e-02
  4.697220e-01    1.639655e+00   3.611389e-02
  4.719324e-01    1.662717e+00   3.627290e-02
  4.741429e-01    1.637856e+00   3.590796e-02
  4.763533e-01    1.578161e+00   3.515713e-02
  4.785638e-01    1.635350e+00   3.569603e-02
  4.807743e-01    1.630770e+00   3.555535e-02
  4.829847e-01    1.623425e+00   3.538559e-02
  4.851952e-01    1.633834e+00   3.540899e-02
  4.874056e-01    1.619406e+00   3.516345e-02
  4.896161e-01    1.648421e+00   3.538905e-02
  4.918265e-01    1.635682e+00   3.516452e-02
  4.940370e-01    1.615365e+00   3.485917e-02
  4.962475e-01    1.593452e+00   3.453642e-02
  4.984579e-01    1.602971e+00   3.455404e-02
  5.006684e-01    1.583456e+00   3.425935e-02
  5.028788e-01    1.583254e+00   3.417414e-02
  5.050893e-01    1.624796e+00   3.453537e-02
  5.072997e-01    1.616208e+00   3.436080e-02
  5.095102e-01    1.602913e+00   3.413723e-02
  5.117206e-01    1.588510e+00   3.390270e-02
  5.139311e-01    1.625198e+00   3.421082e-02
  5.161416e-01    1.626537e+00   3.414402e-02
  5.183520e-01    1.622404e+00   3.401960e-02
  5.205625e-01    1.604037e+00   3.374721e-02
  5.227729e-01    1.589559e+00   3.351623e-02
  5.249834e-01    1.619950e+00   3.375655e-02
  5.271938e-01    1.650559e+00   3.399447e-02
  5.294043e-01    1.675915e+00   3.417553e-02
  5.316148e-01    1.707645e+00   3.441855e-02
  5.338252e-01    1.703630e+00   3.429947e-02
  5.360357e-01    1.700146e+00   3.418641e-02
  5.382461e-01    1.692635e+00   3.403366e-02
  5.404566e-01    1.718233e+00   3.421203e-02
  5.426670e-01    1.717647e+00   3.412912e-02
  5.448775e-01    1.682157e+00   3.369925e-02
  5.470879e-01    1.709327e+00   3.389454e-02
  5.492984e-01    1.677428e+00   3.350214e-02
  5.515089e-01    1.709233e+00   3.374323e-02
  5.537193e-01    1.710627e+00   3.368264e-02
  5.559298e-01    1.716192e+00   3.366334e-02
  5.581402e-01    1.767729e+00   3.409044e-02
  5.603507e-01    1.728841e+00   3.364001e-02
  5.625611e-01    1.740200e+00   3.367708e-02
  5.647716e-01    1.692796e+00   3.314314e-02
  5.669821e-01    1.679195e+00   3.293853e-02
  5.691925e-01    1.689602e+00   3.296952e-02
  5.714030e-01    1.680785e+00   3.281329e-02
  5.736134e-01    1.634766e+00   3.229215e-02
  5.758239e-01    1.625288e+00   3.212966e-02
  5.780343e-01    1.640989e+00   3.221618e-02
  5.802448e-01    1.631499e+00   3.205565e-02
  5.824552e-01    1.571466e+00   3.139437e-02
  5.846657e-01    1.568560e+00   3.129991e-02
  5.868762e-01    1.621502e+00   3.175750e-02
  5.890866e-01    1.567172e+00   3.115617e-02
  5.912971e-01    1.587242e+00   3.129011e-02
  5.935075e-01    1.578735e+00   3.114167e-02
  5.957180e-01    1.586443e+00   3.115354e-02
  5.979284e-01    1.566960e+00   3.089845e-02
  6.001389e-01    1.559670e+00   3.076370e-02
  6.023494e-01    1.601019e+00   3.110555e-02
  6.045598e-01    1.628606e+00   3.130852e-02
  6.067703e-01    1.602316e+00   3.099236e-02
  6.089807e-01    1.628272e+00   3.117955e-02
  6.111912e-01    1.620504e+00   3.104297e-02
  6.134016e-01    1.606134e+00   3.084339e-02
  6.156121e-01    1.612258e+00   3.084071e-02
  6.178226e-01    1.639287e+00   3.103658e-02
  6.200330e-01    1.614062e+00   3.073613e-02
  6.222435e-01    1.635681e+00   3.087997e-02
  6.244539e-01    1.596768e+00   3.045071e-02
  6.266644e-01    1.661005e+00   3.099659e-02
  6.288748e-01    1.687981e+00   3.118647e-02
  6.310853e-01    1.654242e+00   3.081328e-02
  6.332957e-01    1.661746e+00   3.082345e-02
  6.355062e-01    1.687271e+00   3.099895e-02
  6.377167e-01    1.641706e+00   3.051886e-02
  6.399271e-01    1.613861e+00   3.020096e-02
  6.421376e-01    1.680281e+00   3.075731e-02
  6.443480e-01    1.656168e+00   3.047777e-02
  6.465585e-01    1.654969e+00   3.040900e-02
  6.487689e-01    1.616732e+00   2.999892e-02
  6.509794e-01    1.588048e+00   2.967552e-02
  6.531899e-01    1.574936e+00   2.949720e-02
  6.554003e-01    1.537523e+00   2.908994e-02
  6.576108e-01    1.524173e+00   2.890943e-02
  6.598212e-01    1.547377e+00   2.907452e-02
  6.620317e-01    1.563104e+00   2.916776e-02
  6.642421e-01    1.546373e+00   2.895755e-02
  6.664526e-01    1.588655e+00   2.929671e-02
  6.686630e-01    1.550073e+00   2.888527e-02
  6.708735e-01    1.538424e+00   2.872374e-02
  6.730840e-01    1.513653e+00   2.843959e-02
  6.752944e-01    1.525859e+00   2.850212e-02
  6.775049e-01    1.528630e+00   2.847617e-02
  6.797153e-01    1.573501e+00   2.883879e-02
  6.819258e-01    1.510476e+00   2.820437e-02
  6.841362e-01    1.536603e+00   2.839609e-02
  6.863467e-01    1.522831e+00   2.821793e-02
  6.885572e-01    1.530099e+00   2.823449e-02
  6.907676e-01    1.554504e+00   2.840778e-02
  6.929781e-01    1.555781e+00   2.836894e-02
  6.951885e-01    1.533751e+00   2.811748e-02
  6.973990e-01    1.549564e+00   2.821209e-02
  6.996094e-01    1.496129e+00   2.767263e-02
  7.018199e-01    1.526563e+00   2.790357e-02
  7.040303e-01    1.578823e+00   2.832735e-02
  7.062408e-01    1.521825e+00   2.776262e-02
  7.084513e-01    1.501869e+00   2.753200e-02
  7.106617e-01    1.514903e+00   2.760316e-02
  7.128722e-01    1.558467e+00   2.794880e-02
  7.150826e-01    1.532515e+00   2.766736e-02
  7.172931e-01    1.534540e+00   2.763789e-02
  7.195035e-01    1.509970e+00   2.736862e-02
  7.217140e-01    1.497423e+00   2.730290e-02
  7.239245e-01    1.483094e+00   2.739198e-02
  7.261349e-01    1.500159e+00   2.765514e-02
  7.283454e-01    1.514148e+00   2.785477e-02
  7.305558e-01    1.511660e+00   2.788480e-02
  7.327663e-01    1.498217e+00   2.780198e-02
  7.349767e-01    1.488847e+00   2.773084e-02
  7.371872e-01    1.474432e+00   2.758542e-02
  7.393976e-01    1.478285e+00   2.760764e-02
  7.416081e-01    1.514990e+00   2.793241e-02
  7.438186e-01    1.504583e+00   2.769522e-02
  7.460290e-01    1.528146e+00   2.762141e-02
  7.482395e-01    1.531163e+00   2.747985e-02
  7.504499e-01    1.504263e+00   2.710423e-02
  7.526604e-01    1.497446e+00   2.692905e-02
  7.548708e-01    1.559822e+00   2.739522e-02
  7.570813e-01    1.501669e+00   2.682991e-02
  7.592918e-01    1.568759e+00   2.738758e-02
  7.615022e-01    1.533744e+00   2.704688e-02
  7.637127e-01    1.468964e+00   2.643787e-02
  7.659231e-01    1.467718e+00   2.639575e-02
  7.681336e-01    1.487504e+00   2.654234e-02
  7.703440e-01    1.525998e+00   2.685287e-02
  7.725545e-01    1.494340e+00   2.654276e-02
  7.747650e-01    1.555260e+00   2.704045e-02
  7.769754e-01    1.524722e+00   2.672181e-02
  7.791859e-01    1.534259e+00   2.675247e-02
  7.813963e-01    1.504865e+00   2.644361e-02
  7.836068e-01    1.525135e+00   2.657008e-02
  7.858172e-01    1.563846e+00   2.685489e-02
  7.880277e-01    1.528359e+00   2.649794e-02
  7.902381e-01    1.533526e+00   2.649446e-02
  7.924486e-01    1.534788e+00   2.645626e-02
  7.946591e-01    1.535518e+00   2.641524e-02
  7.968695e-01    1.545323e+00   2.645204e-02
  7.990800e-01    1.539384e+00   2.635397e-02
  8.012904e-01    1.560765e+00   2.649046e-02
  8.035009e-01    1.559632e+00   2.643373e-02
  8.057113e-01    1.595067e+00   2.668610e-02
  8.079218e-01    1.592236e+00   2.661640e-02
  8.101323e-01    1.584966e+00   2.651048e-02
  8.123427e-01    1.589199e+00   2.650061e-02
  8.145532e-01    1.523786e+00   2.590507e-02
  8.167636e-01    1.570938e+00   2.625858e-02
  8.189741e-01    1.593867e+00   2.640544e-02
  8.211845e-01    1.573771e+00   2.619447e-02
  8.233950e-01    1.551858e+00   2.596917e-02
  8.256054e-01    1.547842e+00   2.589256e-02
  8.278159e-01    1.559806e+00   2.594952e-02
  8.300264e-01    1.589031e+00   2.614906e-02
  8.322368e-01    1.579411e+00   2.602746e-02
  8.344473e-01    1.579177e+00   2.598294e-02
  8.366577e-01    1.569237e+00   2.585939e-02
  8.388682e-01    1.589560e+00   2.598467e-02
  8.410786e-01    1.620690e+00   2.619608e-02
  8.432891e-01    1.641878e+00   2.632487e-02
  8.454996e-01    1.644354e+00   2.630301e-02
  8.477100e-01    1.667184e+00   2.644295e-02
  8.499205e-01    1.677535e+00   2.648327e-02
  8.521309e-01    1.652338e+00   2.624264e-02
  8.543414e-01    1.627716e+00   2.600573e-02
  8.565518e-01    1.615005e+00   2.586368e-02
  8.587623e-01    1.579539e+00   2.553828e-02
  8.609727e-01    1.587410e+00   2.556214e-02
  8.631832e-01    1.555842e+00   2.526767e-02
  8.653937e-01    1.559717e+00   2.526023e-02
  8.676041e-01    1.590333e+00   2.546846e-02
  8.698146e-01    1.561898e+00   2.520118e-02
  8.720250e-01    1.541507e+00   2.499796e-02
  8.742355e-01    1.562955e+00   2.513296e-02
  8.764459e-01    1.569039e+00   2.514342e-02
  8.786564e-01    1.560599e+00   2.503830e-02
  8.808669e-01    1.564309e+00   2.503007e-02
  8.830773e-01    1.563944e+00   2.498944e-02
  8.852878e-01    1.582344e+00   2.509835e-02
  8.874982e-01    1.561663e+00   2.489760e-02
  8.897087e-01    1.539508e+00   2.468342e-02
  8.919191e-01    1.528737e+00   2.456002e-02
  8.941296e-01    1.539109e+00   2.460661e-02
  8.963401e-01    1.531750e+00   2.451209e-02
  8.985505e-01    1.556995e+00   2.467678e-02
  9.007610e-01    1.562377e+00   2.468310e-02
  9.029714e-01    1.539867e+00   2.446949e-02
  9.051819e-01    1.518183e+00   2.426033e-02
  9.073923e-01    1.481254e+00   2.392828e-02
  9.096028e-01    1.498053e+00   2.402977e-02
  9.118132e-01    1.538164e+00   2.431384e-02
  9.140237e-01    1.515419e+00   2.409778e-02
  9.162342e-01    1.526669e+00   2.415329e-02
  9.184446e-01    1.511313e+00   2.399676e-02
  9.206551e-01    1.514826e+00   2.399000e-02
  9.228655e-01    1.527915e+00   2.405898e-02
  9.250760e-01    1.545371e+00   2.416129e-02
  9.272864e-01    1.565810e+00   2.428670e-02
  9.294969e-01    1.580262e+00   2.436295e-02
  9.317074e-01    1.587445e+00   2.438377e-02
  9.339178e-01    1.587279e+00   2.434917e-02
  9.361283e-01    1.601406e+00   2.442124e-02
  9.383387e-01    1.569737e+00   2.414569e-02
  9.405492e-01    1.576704e+00   2.416540e-02
  9.427596e-01    1.616505e+00   2.443329e-02
  9.449701e-01    1.614175e+00   2.438251e-02
  9.471805e-01    1.599832e+00   2.423955e-02
  9.493910e-01    1.598827e+00   2.419867e-02
  9.516015e-01    1.627651e+00   2.438173e-02
  9.538119e-01    1.660965e+00   2.459625e-02
  9.560224e-01    1.668659e+00   2.461845e-02
  9.582328e-01    1.680022e+00   2.466898e-02
  9.604433e-01    1.701790e+00   2.479313e-02
  9.626537e-01    1.732854e+00   2.498475e-02
  9.648642e-01    1.736817e+00   2.497905e-02
  9.670747e-01    1.779278e+00   2.524766e-02
  9.692851e-01    1.820184e+00   2.550230e-02
  9.714956e-01    1.871097e+00   2.582005e-02
  9.737060e-01    1.864324e+00   2.573943e-02
  9.759165e-01    1.935862e+00   2.619160e-02
  9.781269e-01    1.970330e+00   2.638923e-02
  9.803374e-01    1.915598e+00   2.598413e-02
  9.825478e-01    1.828651e+00   2.535412e-02
  9.847583e-01    1.756942e+00   2.481825e-02
  9.869688e-01    1.758160e+00   2.479361e-02
  9.891792e-01    1.774819e+00   2.487770e-02
  9.913897e-01    1.755487e+00   2.470845e-02
  9.936001e-01    1.749450e+00   2.463365e-02
  9.958106e-01    1.680130e+00   2.410787e-02
  9.980210e-01    1.657826e+00   2.391622e-02
  1.000231e+00    1.637100e+00   2.389644e-02
  1.002442e+00    1.680375e+00   2.433886e-02
  1.004652e+00    1.619703e+00   2.396211e-02
  1.006863e+00    1.584416e+00   2.374881e-02
  1.009073e+00    1.555821e+00   2.356956e-02
  1.011284e+00    1.544482e+00   2.351489e-02
  1.013494e+00    1.518813e+00   2.334181e-02
  1.015705e+00    1.486653e+00   2.311518e-02
  1.017915e+00    1.489899e+00   2.315635e-02
  1.020126e+00    1.490432e+00   2.317614e-02
  1.022336e+00    1.479616e+00   2.310327e-02
  1.024547e+00    1.454970e+00   2.292091e-02
  1.026757e+00    1.475512e+00   2.309032e-02
  1.028967e+00    1.468660e+00   2.304413e-02
  1.031178e+00    1.484575e+00   2.317472e-02
  1.033388e+00    1.466927e+00   2.304152e-02
  1.035599e+00    1.470857e+00   2.307571e-02
  1.037809e+00    1.461795e+00   2.300771e-02
  1.040020e+00    1.450776e+00   2.292207e-02
  1.042230e+00    1.467140e+00   2.305287e-02
  1.044441e+00    1.482108e+00   2.316996e-02
  1.046651e+00    1.500241e+00   2.331144e-02
  1.048862e+00    1.470344e+00   2.307723e-02
  1.051072e+00    1.457044e+00   2.297028e-02
  1.053282e+00    1.451018e+00   2.292181e-02
  1.055493e+00    1.419121e+00   2.266427e-02
  1.057703e+00    1.422743e+00   2.269169e-02
  1.059914e+00    1.417738e+00   2.264758e-02
  1.062124e+00    1.428431e+00   2.272887e-02
  1.064335e+00    1.407655e+00   2.255962e-02
  1.066545e+00    1.399201e+00   2.248595e-02
  1.068756e+00    1.393841e+00   2.243920e-02
  1.070966e+00    1.412451e+00   2.258212e-02
  1.073177e+00    1.425189e+00   2.267775e-02
  1.075387e+00    1.430459e+00   2.271449e-02
  1.077597e+00    1.474761e+00   2.305626e-02
  1.079808e+00    1.557473e+00   2.355709e-02
  1.082018e+00    1.601922e+00   2.369305e-02
  1.084229e+00    1.614028e+00   2.366670e-02
  1.086439e+00    1.741826e+00   2.449014e-02
  1.088650e+00    1.737500e+00   2.437707e-02
  1.090860e+00    1.598580e+00   2.331136e-02
  1.093071e+00    1.509252e+00   2.258722e-02
  1.095281e+00    1.524741e+00   2.264402e-02
  1.097492e+00    1.567543e+00   2.290247e-02
  1.099702e+00    1.560875e+00   2.280020e-02
  1.101912e+00    1.606596e+00   2.308011e-02
  1.104123e+00    1.602222e+00   2.299774e-02
  1.106333e+00    1.558205e+00   2.263335e-02
  1.108544e+00    1.497491e+00   2.214270e-02
  1.110754e+00    1.489900e+00   2.204255e-02
  1.112965e+00    1.458918e+00   2.177111e-02
  1.115175e+00    1.404476e+00   2.132009e-02
  1.117386e+00    1.396607e+00   2.122125e-02
  1.119596e+00    1.391440e+00   2.114438e-02
  1.121807e+00    1.396539e+00   2.114442e-02
  1.124017e+00    1.437158e+00   2.141270e-02
  1.126228e+00    1.379278e+00   2.094166e-02
  1.128438e+00    1.327169e+00   2.050648e-02
  1.130648e+00    1.334223e+00   2.052737e-02
  1.132859e+00    1.379889e+00   2.084156e-02
  1.135069e+00    1.352843e+00   2.060210e-02
  1.137280e+00    1.323651e+00   2.034637e-02
  1.139490e+00    1.336638e+00   2.041351e-02
  1.141701e+00    1.321463e+00   2.026494e-02
  1.143911e+00    1.309772e+00   2.014409e-02
  1.146122e+00    1.321130e+00   2.019993e-02
  1.148332e+00    1.310799e+00   2.008973e-02
  1.150543e+00    1.331021e+00   2.021377e-02
  1.152753e+00    1.361787e+00   2.041539e-02
  1.154963e+00    1.349884e+00   2.029519e-02
  1.157174e+00    1.337591e+00   2.017281e-02
  1.159384e+00    1.317629e+00   1.999247e-02
  1.161595e+00    1.303108e+00   1.985289e-02
  1.163805e+00    1.305959e+00   1.984601e-02
  1.166016e+00    1.324560e+00   1.995789e-02
  1.168226e+00    1.328879e+00   1.996185e-02
  1.170437e+00    1.301075e+00   1.972397e-02
  1.172647e+00    1.328768e+00   1.990427e-02
  1.174858e+00    1.340479e+00   1.996394e-02
  1.177068e+00    1.352857e+00   2.002775e-02
  1.179278e+00    1.384037e+00   2.022843e-02
  1.181489e+00    1.353420e+00   1.997650e-02
  1.183699e+00    1.334926e+00   1.981221e-02
  1.185910e+00    1.318385e+00   1.966171e-02
  1.188120e+00    1.303902e+00   1.952725e-02
  1.190331e+00    1.325914e+00   1.966491e-02
  1.192541e+00    1.293833e+00   1.939880e-02
  1.194752e+00    1.308278e+00   1.948019e-02
  1.196962e+00    1.308808e+00   1.945881e-02
  1.199173e+00    1.304300e+00   1.939922e-02
  1.201383e+00    1.307240e+00   1.939435e-02
  1.203593e+00    1.289595e+00   1.923875e-02
  1.205804e+00    1.296012e+00   1.926115e-02
  1.208014e+00    1.315180e+00   1.937658e-02
  1.210225e+00    1.283214e+00   1.911496e-02
  1.212435e+00    1.296041e+00   1.918595e-02
  1.214646e+00    1.318836e+00   1.932814e-02
  1.216856e+00    1.317973e+00   1.929666e-02
  1.219067e+00    1.279574e+00   1.898965e-02
  1.221277e+00    1.309791e+00   1.918790e-02
  1.223488e+00    1.302860e+00   1.911178e-02
  1.225698e+00    1.296294e+00   1.903720e-02
  1.227909e+00    1.311249e+00   1.911696e-02
  1.230119e+00    1.318223e+00   1.913626e-02
  1.232329e+00    1.318454e+00   1.910758e-02
  1.234540e+00    1.337935e+00   1.921807e-02
  1.236750e+00    1.329158e+00   1.912492e-02
  1.238961e+00    1.313651e+00   1.898640e-02
  1.241171e+00    1.324160e+00   1.903825e-02
  1.243382e+00    1.321628e+00   1.899677e-02
  1.245592e+00    1.306731e+00   1.886571e-02
  1.247803e+00    1.290198e+00   1.872285e-02
  1.250013e+00    1.303259e+00   1.879424e-02
  1.252224e+00    1.311515e+00   1.883077e-02
  1.254434e+00    1.313267e+00   1.881992e-02
  1.256644e+00    1.319381e+00   1.884074e-02
  1.258855e+00    1.305386e+00   1.871766e-02
  1.261065e+00    1.303113e+00   1.867840e-02
  1.263276e+00    1.303609e+00   1.865942e-02
  1.265486e+00    1.279265e+00   1.846209e-02
  1.267697e+00    1.305787e+00   1.862985e-02
  1.269907e+00    1.288257e+00   1.848221e-02
  1.272118e+00    1.296893e+00   1.852193e-02
  1.274328e+00    1.309020e+00   1.858594e-02
  1.276539e+00    1.291929e+00   1.844192e-02
  1.278749e+00    1.277514e+00   1.831706e-02
  1.280959e+00    1.290292e+00   1.838641e-02
  1.283170e+00    1.299547e+00   1.843022e-02
  1.285380e+00    1.324759e+00   1.858592e-02
  1.287591e+00    1.299621e+00   1.838711e-02
  1.289801e+00    1.316918e+00   1.848809e-02
  1.292012e+00    1.312837e+00   1.844259e-02
  1.294222e+00    1.298830e+00   1.832799e-02
  1.296433e+00    1.299951e+00   1.832059e-02
  1.298643e+00    1.305316e+00   1.834217e-02
  1.300854e+00    1.321668e+00   1.844046e-02
  1.303064e+00    1.330901e+00   1.848566e-02
  1.305274e+00    1.367592e+00   1.871716e-02
  1.307485e+00    1.357563e+00   1.862682e-02
  1.309695e+00    1.352558e+00   1.857018e-02
  1.311906e+00    1.324952e+00   1.835820e-02
  1.314116e+00    1.311075e+00   1.824131e-02
  1.316327e+00    1.325844e+00   1.832226e-02
  1.318537e+00    1.337373e+00   1.837998e-02
  1.320748e+00    1.329141e+00   1.830194e-02
  1.322958e+00    1.326208e+00   1.826140e-02
  1.325169e+00    1.313387e+00   1.815217e-02
  1.327379e+00    1.316875e+00   1.815472e-02
  1.329589e+00    1.325761e+00   1.819499e-02
  1.331800e+00    1.332359e+00   1.821966e-02
  1.334010e+00    1.328331e+00   1.817160e-02
  1.336221e+00    1.328093e+00   1.814839e-02
  1.338431e+00    1.336612e+00   1.818575e-02
  1.340642e+00    1.317299e+00   1.811727e-02
  1.342852e+00    1.360852e+00   1.851540e-02
  1.345063e+00    1.372095e+00   1.864164e-02
  1.347273e+00    1.332225e+00   1.840380e-02
  1.349484e+00    1.329156e+00   1.841006e-02
  1.351694e+00    1.304746e+00   1.826254e-02
  1.353905e+00    1.303855e+00   1.827400e-02
  1.356115e+00    1.298903e+00   1.825400e-02
  1.358325e+00    1.315469e+00   1.838319e-02
  1.360536e+00    1.300414e+00   1.828912e-02
  1.362746e+00    1.278502e+00   1.814367e-02
  1.364957e+00    1.283471e+00   1.818638e-02
  1.367167e+00    1.309214e+00   1.837489e-02
  1.369378e+00    1.305578e+00   1.835531e-02
  1.371588e+00    1.258298e+00   1.802485e-02
  1.373799e+00    1.274106e+00   1.814129e-02
  1.376009e+00    1.289792e+00   1.825595e-02
  1.378220e+00    1.303353e+00   1.835417e-02
  1.380430e+00    1.289431e+00   1.825856e-02
  1.382640e+00    1.264021e+00   1.807864e-02
  1.384851e+00    1.228558e+00   1.782408e-02
  1.387061e+00    1.244122e+00   1.793689e-02
  1.389272e+00    1.246362e+00   1.795325e-02
  1.391482e+00    1.223072e+00   1.778407e-02
  1.393693e+00    1.208307e+00   1.767554e-02
  1.395903e+00    1.223707e+00   1.778635e-02
  1.398114e+00    1.268878e+00   1.811028e-02
  1.400324e+00    1.262530e+00   1.806283e-02
  1.402535e+00    1.277249e+00   1.816549e-02
  1.404745e+00    1.246627e+00   1.794409e-02
  1.406955e+00    1.234573e+00   1.785446e-02
  1.409166e+00    1.250772e+00   1.796792e-02
  1.411376e+00    1.243991e+00   1.791609e-02
  1.413587e+00    1.214768e+00   1.770066e-02
  1.415797e+00    1.208228e+00   1.764950e-02
  1.418008e+00    1.230536e+00   1.777048e-02
  1.420218e+00    1.209698e+00   1.747324e-02
  1.422429e+00    1.203779e+00   1.734738e-02
  1.424639e+00    1.214375e+00   1.736030e-02
  1.426850e+00    1.213834e+00   1.730296e-02
  1.429060e+00    1.212803e+00   1.724774e-02
  1.431270e+00    1.238490e+00   1.738566e-02
  1.433481e+00    1.255414e+00   1.746334e-02
  1.435691e+00    1.247496e+00   1.737010e-02
  1.437902e+00    1.244556e+00   1.731351e-02
  1.440112e+00    1.266309e+00   1.742888e-02
  1.442323e+00    1.253308e+00   1.730636e-02
  1.444533e+00    1.221873e+00   1.705601e-02
  1.446744e+00    1.238623e+00   1.714179e-02
  1.448954e+00    1.224911e+00   1.701696e-02
  1.451165e+00    1.212817e+00   1.690369e-02
  1.453375e+00    1.210633e+00   1.686107e-02
  1.455586e+00    1.239356e+00   1.703208e-02
  1.457796e+00    1.237461e+00   1.699193e-02
  1.460006e+00    1.234811e+00   1.694683e-02
  1.462217e+00    1.239062e+00   1.695009e-02
  1.464427e+00    1.228492e+00   1.685244e-02
  1.466638e+00    1.202716e+00   1.665006e-02
  1.468848e+00    1.221769e+00   1.675655e-02
  1.471059e+00    1.224684e+00   1.675191e-02
  1.473269e+00    1.210163e+00   1.662848e-02
  1.475480e+00    1.214922e+00   1.663790e-02
  1.477690e+00    1.210096e+00   1.658153e-02
  1.479901e+00    1.215786e+00   1.659711e-02
  1.482111e+00    1.231231e+00   1.667923e-02
  1.484321e+00    1.222493e+00   1.659722e-02
  1.486532e+00    1.251588e+00   1.677136e-02
  1.488742e+00    1.262858e+00   1.682409e-02
  1.490953e+00    1.232942e+00   1.660131e-02
  1.493163e+00    1.202687e+00   1.637458e-02
  1.495374e+00    1.267779e+00   1.679033e-02
  1.497584e+00    1.244664e+00   1.661508e-02
  1.499795e+00    1.216682e+00   1.640597e-02
  1.502005e+00    1.201218e+00   1.628021e-02
  1.504216e+00    1.205775e+00   1.629046e-02
  1.506426e+00    1.209856e+00   1.629760e-02
  1.508636e+00    1.221651e+00   1.635670e-02
  1.510847e+00    1.221725e+00   1.633568e-02
  1.513057e+00    1.213256e+00   1.625430e-02
  1.515268e+00    1.196741e+00   1.611819e-02
  1.517478e+00    1.222045e+00   1.626286e-02
  1.519689e+00    1.237759e+00   1.634229e-02
  1.521899e+00    1.241580e+00   1.634450e-02
  1.524110e+00    1.223903e+00   1.620764e-02
  1.526320e+00    1.199214e+00   1.602417e-02
  1.528531e+00    1.203831e+00   1.603557e-02
  1.530741e+00    1.220877e+00   1.612982e-02
  1.532951e+00    1.189573e+00   1.590256e-02
  1.535162e+00    1.208133e+00   1.611128e-02
  1.537372e+00    1.206910e+00   1.616891e-02
  1.539583e+00    1.213624e+00   1.624756e-02
  1.541793e+00    1.219133e+00   1.629126e-02
  1.544004e+00    1.225815e+00   1.633611e-02
  1.546214e+00    1.220762e+00   1.630092e-02
  1.548425e+00    1.184829e+00   1.605948e-02
  1.550635e+00    1.167581e+00   1.595152e-02
  1.552846e+00    1.198527e+00   1.617100e-02
  1.555056e+00    1.199599e+00   1.613751e-02
  1.557266e+00    1.200405e+00   1.603445e-02
  1.559477e+00    1.217143e+00   1.608739e-02
  1.561687e+00    1.208235e+00   1.599820e-02
  1.563898e+00    1.210948e+00   1.599921e-02
  1.566108e+00    1.214573e+00   1.600739e-02
  1.568319e+00    1.200571e+00   1.589950e-02
  1.570529e+00    1.199936e+00   1.587063e-02
  1.572740e+00    1.199741e+00   1.584221e-02
  1.574950e+00    1.210082e+00   1.588440e-02
  1.577161e+00    1.220292e+00   1.592603e-02
  1.579371e+00    1.199746e+00   1.576817e-02
  1.581582e+00    1.195990e+00   1.572408e-02
  1.583792e+00    1.210779e+00   1.580323e-02
  1.586002e+00    1.215964e+00   1.581962e-02
  1.588213e+00    1.189443e+00   1.562929e-02
  1.590423e+00    1.190609e+00   1.561731e-02
  1.592634e+00    1.174667e+00   1.549139e-02
  1.594844e+00    1.184952e+00   1.553816e-02
  1.597055e+00    1.205453e+00   1.565181e-02
  1.599265e+00    1.191674e+00   1.554182e-02
  1.601476e+00    1.178311e+00   1.543462e-02
  1.603686e+00    1.186334e+00   1.546777e-02
  1.605897e+00    1.190375e+00   1.547430e-02
  1.608107e+00    1.188985e+00   1.544612e-02
  1.610317e+00    1.188007e+00   1.542083e-02
  1.612528e+00    1.182417e+00   1.536576e-02
  1.614738e+00    1.181221e+00   1.533941e-02
  1.616949e+00    1.180470e+00   1.531594e-02
  1.619159e+00    1.157962e+00   1.515099e-02
  1.621370e+00    1.158553e+00   1.513687e-02
  1.623580e+00    1.143860e+00   1.502277e-02
  1.625791e+00    1.148406e+00   1.503481e-02
  1.628001e+00    1.135181e+00   1.493024e-02
  1.630212e+00    1.138015e+00   1.493152e-02
  1.632422e+00    1.132774e+00   1.487961e-02
  1.634632e+00    1.141165e+00   1.491761e-02
  1.636843e+00    1.133989e+00   1.485343e-02
  1.639053e+00    1.129697e+00   1.480834e-02
  1.641264e+00    1.105495e+00   1.463223e-02
  1.643474e+00    1.109221e+00   1.463987e-02
  1.645685e+00    1.095377e+00   1.453201e-02
  1.647895e+00    1.117554e+00   1.466208e-02
  1.650106e+00    1.120285e+00   1.466320e-02
  1.652316e+00    1.110986e+00   1.458602e-02
  1.654527e+00    1.082264e+00   1.438000e-02
  1.656737e+00    1.110032e+00   1.454694e-02
  1.658947e+00    1.109833e+00   1.452952e-02
  1.661158e+00    1.130851e+00   1.465015e-02
  1.663368e+00    1.109873e+00   1.449773e-02
  1.665579e+00    1.093520e+00   1.437454e-02
  1.667789e+00    1.132281e+00   1.461073e-02
  1.670000e+00    1.127325e+00   1.456314e-02
  1.672210e+00    1.120003e+00   1.449981e-02
  1.674421e+00    1.111843e+00   1.443152e-02
  1.676631e+00    1.091640e+00   1.428403e-02
  1.678842e+00    1.050054e+00   1.399386e-02
  1.681052e+00    1.080376e+00   1.417917e-02
  1.683263e+00    1.074711e+00   1.412693e-02
  1.685473e+00    1.083668e+00   1.417055e-02
  1.687683e+00    1.083150e+00   1.415173e-02
  1.689894e+00    1.069867e+00   1.404900e-02
  1.692104e+00    1.090581e+00   1.416933e-02
  1.694315e+00    1.104480e+00   1.424462e-02
  1.696525e+00    1.087106e+00   1.411687e-02
  1.698736e+00    1.042024e+00   1.380639e-02
  1.700946e+00    1.045923e+00   1.381716e-02
  1.703157e+00    1.009634e+00   1.356106e-02
  1.705367e+00    1.006769e+00   1.352760e-02
  1.707578e+00    1.018695e+00   1.359314e-02
  1.709788e+00    1.007700e+00   1.350573e-02
  1.711998e+00    1.002830e+00   1.345833e-02
  1.714209e+00    9.955801e-01   1.339545e-02
  1.716419e+00    9.847655e-01   1.330861e-02
  1.718630e+00    9.812746e-01   1.327104e-02
  1.720840e+00    1.010041e+00   1.345011e-02
  1.723051e+00    1.002348e+00   1.338510e-02
  1.725261e+00    9.811248e-01   1.322823e-02
  1.727472e+00    9.776092e-01   1.319064e-02
  1.729682e+00    9.399625e-01   1.292122e-02
  1.731893e+00    9.530083e-01   1.299705e-02
  1.734103e+00    9.544561e-01   1.299354e-02
  1.736313e+00    9.747788e-01   1.311731e-02
  1.738524e+00    9.847234e-01   1.317036e-02
  1.740734e+00    1.033159e+00   1.347643e-02
  1.742945e+00    1.081322e+00   1.377298e-02
  1.745155e+00    1.061748e+00   1.363384e-02
  1.747366e+00    1.041910e+00   1.349170e-02
  1.749576e+00    1.089425e+00   1.378151e-02
  1.751787e+00    1.072647e+00   1.366107e-02
  1.753997e+00    9.909641e-01   1.311717e-02
  1.756208e+00    9.564615e-01   1.287368e-02
  1.758418e+00    9.743556e-01   1.298045e-02
  1.760628e+00    9.582334e-01   1.285930e-02
  1.762839e+00    9.823979e-01   1.300711e-02
  1.765049e+00    1.003955e+00   1.313564e-02
  1.767260e+00    1.039652e+00   1.335379e-02
  1.769470e+00    1.090560e+00   1.366295e-02
  1.771681e+00    1.150637e+00   1.401977e-02
  1.773891e+00    1.127824e+00   1.386596e-02
  1.776102e+00    1.049317e+00   1.336109e-02
  1.778312e+00    1.052536e+00   1.336810e-02
  1.780523e+00    1.076998e+00   1.350892e-02
  1.782733e+00    1.081541e+00   1.352380e-02
  1.784944e+00    1.038412e+00   1.323784e-02
  1.787154e+00    9.762426e-01   1.282264e-02
  1.789364e+00    9.367768e-01   1.254824e-02
  1.791575e+00    9.191543e-01   1.241716e-02
  1.793785e+00    9.098938e-01   1.234212e-02
  1.795996e+00    9.480995e-01   1.258589e-02
  1.798206e+00    9.508802e-01   1.259159e-02
  1.800417e+00    9.290071e-01   1.243317e-02
  1.802627e+00    9.306890e-01   1.243237e-02
  1.804838e+00    9.275495e-01   1.239916e-02
  1.807048e+00    9.730927e-01   1.268661e-02
  1.809259e+00    1.062252e+00   1.324039e-02
  1.811469e+00    9.906276e-01   1.277060e-02
  1.813679e+00    9.185493e-01   1.228210e-02
  1.815890e+00    9.132209e-01   1.223154e-02
  1.818100e+00    9.106711e-01   1.219923e-02
  1.820311e+00    8.982784e-01   1.210114e-02
  1.822521e+00    8.766800e-01   1.194003e-02
  1.824732e+00    8.798336e-01   1.194677e-02
  1.826942e+00    8.651213e-01   1.183427e-02
  1.829153e+00    8.594152e-01   1.178367e-02
  1.831363e+00    8.441916e-01   1.166707e-02
  1.833574e+00    8.416110e-01   1.163781e-02
  1.835784e+00    8.459363e-01   1.165647e-02
  1.837994e+00    8.494015e-01   1.166879e-02
  1.840205e+00    8.633938e-01   1.175340e-02
  1.842415e+00    8.792478e-01   1.184902e-02
  1.844626e+00    8.584495e-01   1.169658e-02
  1.846836e+00    8.412684e-01   1.156766e-02
  1.849047e+00    8.632301e-01   1.170610e-02
  1.851257e+00    8.492417e-01   1.160138e-02
  1.853468e+00    8.318963e-01   1.147364e-02
  1.855678e+00    8.447259e-01   1.155297e-02
  1.857889e+00    8.348973e-01   1.147721e-02
  1.860099e+00    8.185674e-01   1.135595e-02
  1.862309e+00    8.195783e-01   1.135464e-02
  1.864520e+00    8.351333e-01   1.145341e-02
  1.866730e+00    8.373628e-01   1.145940e-02
  1.868941e+00    8.155888e-01   1.129874e-02
  1.871151e+00    8.158248e-01   1.128920e-02
  1.873362e+00    8.435484e-01   1.146812e-02
  1.875572e+00    8.569527e-01   1.154790e-02
  1.877783e+00    8.636749e-01   1.158157e-02
  1.879993e+00    8.499131e-01   1.147776e-02
  1.882204e+00    8.434460e-01   1.142311e-02
  1.884414e+00    8.353922e-01   1.135744e-02
  1.886624e+00    8.090243e-01   1.116591e-02
  1.888835e+00    8.352199e-01   1.133430e-02
  1.891045e+00    8.143547e-01   1.118113e-02
  1.893256e+00    8.170559e-01   1.118870e-02
  1.895466e+00    8.038915e-01   1.108727e-02
  1.897677e+00    8.032644e-01   1.107222e-02
  1.899887e+00    8.208464e-01   1.118185e-02
  1.902098e+00    8.063535e-01   1.107203e-02
  1.904308e+00    8.037447e-01   1.104368e-02
  1.906519e+00    8.101394e-01   1.107684e-02
  1.908729e+00    7.843984e-01   1.088912e-02
  1.910940e+00    8.014095e-01   1.099558e-02
  1.913150e+00    8.325657e-01   1.119668e-02
  1.915360e+00    8.050913e-01   1.099989e-02
  1.917571e+00    7.948746e-01   1.091919e-02
  1.919781e+00    7.909192e-01   1.088149e-02
  1.921992e+00    7.986176e-01   1.092385e-02
  1.924202e+00    7.802897e-01   1.078726e-02
  1.926413e+00    7.844689e-01   1.080600e-02
  1.928623e+00    7.759545e-01   1.073691e-02
  1.930834e+00    7.930858e-01   1.084448e-02
  1.933044e+00    7.822243e-01   1.075950e-02
  1.935255e+00    7.721533e-01   1.067994e-02
  1.937465e+00    7.846328e-01   1.075562e-02
  1.939675e+00    7.885248e-01   1.077157e-02
  1.941886e+00    7.736665e-01   1.065952e-02
  1.944096e+00    7.723680e-01   1.064056e-02
  1.946307e+00    7.856085e-01   1.072117e-02
  1.948517e+00    7.552707e-01   1.050198e-02
  1.950728e+00    7.538476e-01   1.048210e-02
  1.952938e+00    7.692599e-01   1.057882e-02
  1.955149e+00    7.805502e-01   1.064602e-02
  1.957359e+00    7.733001e-01   1.058659e-02
  1.959570e+00    7.670527e-01   1.053304e-02
  1.961780e+00    7.729857e-01   1.056392e-02
  1.963990e+00    7.570051e-01   1.044425e-02
  1.966201e+00    7.760706e-01   1.056498e-02
  1.968411e+00    7.615893e-01   1.045599e-02
  1.970622e+00    7.750422e-01   1.053792e-02
  1.972832e+00    7.670976e-01   1.047393e-02
  1.975043e+00    7.612126e-01   1.042378e-02
  1.977253e+00    7.824506e-01   1.055827e-02
  1.979464e+00    7.692566e-01   1.045894e-02
  1.981674e+00    7.402897e-01   1.025014e-02
  1.983885e+00    7.613336e-01   1.038493e-02
  1.986095e+00    7.464108e-01   1.027315e-02
  1.988305e+00    7.472895e-01   1.026952e-02
  1.990516e+00    7.475712e-01   1.026172e-02
  1.992726e+00    7.545015e-01   1.029965e-02
  1.994937e+00    7.637942e-01   1.035285e-02
  1.997147e+00    7.522288e-01   1.026459e-02
  1.999358e+00    7.475411e-01   1.022288e-02
  2.001568e+00    7.533364e-01   1.025175e-02
  2.003779e+00    7.619421e-01   1.029831e-02
  2.005989e+00    7.565090e-01   1.024963e-02
  2.008200e+00    7.545955e-01   1.022524e-02
  2.010410e+00    7.573032e-01   1.023192e-02
  2.012621e+00    7.469419e-01   1.015015e-02
  2.014831e+00    7.381429e-01   1.007893e-02
  2.017041e+00    7.478575e-01   1.013478e-02
  2.019252e+00    7.457950e-01   1.011096e-02
  2.021462e+00    7.431866e-01   1.008391e-02
  2.023673e+00    7.460716e-01   1.009417e-02
  2.025883e+00    7.407722e-01   1.004891e-02
  2.028094e+00    7.365186e-01   1.001050e-02
  2.030304e+00    7.473087e-01   1.007414e-02
  2.032515e+00    7.306986e-01   9.952439e-03
  2.034725e+00    7.233517e-01   9.893059e-03
  2.036936e+00    7.367367e-01   9.974958e-03
  2.039146e+00    7.382876e-01   9.976013e-03
  2.041356e+00    7.274107e-01   9.892792e-03
  2.043567e+00    7.403226e-01   9.970989e-03
  2.045777e+00    7.577600e-01   1.007848e-02
  2.047988e+00    7.412173e-01   9.958570e-03
  2.050198e+00    7.540745e-01   1.003613e-02
  2.052409e+00    7.608476e-01   1.007342e-02
  2.054619e+00    7.363675e-01   9.902737e-03
  2.056830e+00    7.481789e-01   9.974679e-03
  2.059040e+00    7.436298e-01   9.936845e-03
  2.061251e+00    7.328806e-01   9.857588e-03
  2.063461e+00    7.412404e-01   9.906094e-03
  2.065671e+00    7.335548e-01   9.845977e-03
  2.067882e+00    7.150004e-01   9.711867e-03
  2.070092e+00    7.173783e-01   9.718987e-03
  2.072303e+00    7.251874e-01   9.762716e-03
  2.074513e+00    7.399753e-01   9.852492e-03
  2.076724e+00    7.372305e-01   9.824768e-03
  2.078934e+00    7.346836e-01   9.798849e-03
  2.081145e+00    7.269421e-01   9.738096e-03
  2.083355e+00    7.298157e-01   9.748218e-03
  2.085566e+00    7.531414e-01   9.893805e-03
  2.087776e+00    7.297515e-01   9.729509e-03
  2.089986e+00    7.299203e-01   9.721899e-03
  2.092197e+00    7.223404e-01   9.662434e-03
  2.094407e+00    7.057686e-01   9.541913e-03
  2.096618e+00    7.201659e-01   9.629928e-03
  2.098828e+00    7.225258e-01   9.636474e-03
  2.101039e+00    7.184336e-01   9.600257e-03
  2.103249e+00    6.971414e-01   9.448463e-03
  2.105460e+00    7.001007e-01   9.459654e-03
  2.107670e+00    7.088287e-01   9.509829e-03
  2.109881e+00    6.937284e-01   9.399046e-03
  2.112091e+00    6.827363e-01   9.315561e-03
  2.114301e+00    6.962506e-01   9.398688e-03
  2.116512e+00    7.119102e-01   9.495080e-03
  2.118722e+00    7.067424e-01   9.451822e-03
  2.120933e+00    7.173316e-01   9.513522e-03
  2.123143e+00    7.132204e-01   9.477364e-03
  2.125354e+00    6.821070e-01   9.260021e-03
  2.127564e+00    6.845805e-01   9.268240e-03
  2.129775e+00    6.969047e-01   9.342707e-03
  2.131985e+00    6.887428e-01   9.278923e-03
  2.134196e+00    7.121814e-01   9.426914e-03
  2.136406e+00    6.845245e-01   9.233501e-03
  2.138617e+00    6.715267e-01   9.137185e-03
  2.140827e+00    6.736629e-01   9.167360e-03
  2.143037e+00    6.924680e-01   9.339424e-03
  2.145248e+00    6.846127e-01   9.307989e-03
  2.147458e+00    7.031637e-01   9.448354e-03
  2.149669e+00    6.907874e-01   9.376633e-03
  2.151879e+00    6.625645e-01   9.192018e-03
  2.154090e+00    6.654026e-01   9.218804e-03
  2.156300e+00    6.796774e-01   9.323666e-03
  2.158511e+00    6.755673e-01   9.300659e-03
  2.160721e+00    6.754974e-01   9.304907e-03
  2.162932e+00    6.705012e-01   9.274093e-03
  2.165142e+00    6.751307e-01   9.309052e-03
  2.167352e+00    6.615487e-01   9.217750e-03
  2.169563e+00    6.681971e-01   9.265880e-03
  2.171773e+00    6.673148e-01   9.262170e-03
  2.173984e+00    6.617670e-01   9.224942e-03
  2.176194e+00    6.770529e-01   9.332082e-03
  2.178405e+00    6.753124e-01   9.320758e-03
  2.180615e+00    6.670130e-01   9.263992e-03
  2.182826e+00    6.660318e-01   9.257823e-03
  2.185036e+00    6.787441e-01   9.345803e-03
  2.187247e+00    6.914420e-01   9.432790e-03
  2.189457e+00    6.559191e-01   9.186885e-03
  2.191667e+00    6.617927e-01   9.227758e-03
  2.193878e+00    6.606864e-01   9.219476e-03
  2.196088e+00    6.599983e-01   9.214007e-03
  2.198299e+00    6.615438e-01   9.223722e-03
  2.200509e+00    6.629363e-01   9.232369e-03
  2.202720e+00    6.788611e-01   9.341460e-03
  2.204930e+00    6.659854e-01   9.251233e-03
  2.207141e+00    6.652036e-01   9.244680e-03
  2.209351e+00    6.661500e-01   9.249397e-03
  2.211562e+00    6.758552e-01   9.314910e-03
  2.213772e+00    6.816622e-01   9.299180e-03
  2.215982e+00    6.664345e-01   9.150812e-03
  2.218193e+00    6.655179e-01   9.115122e-03
  2.220403e+00    6.550573e-01   9.018968e-03
  2.222614e+00    6.508286e-01   8.969227e-03
  2.224824e+00    6.561620e-01   8.986763e-03
  2.227035e+00    6.626488e-01   9.013764e-03
  2.229245e+00    6.609212e-01   8.985181e-03
  2.231456e+00    6.582565e-01   8.951584e-03
  2.233666e+00    6.468593e-01   8.858935e-03
  2.235877e+00    6.577837e-01   8.919287e-03
  2.238087e+00    6.436793e-01   8.809945e-03
  2.240298e+00    6.522348e-01   8.854697e-03
  2.242508e+00    6.410438e-01   8.763600e-03
  2.244718e+00    6.396192e-01   8.738387e-03
  2.246929e+00    6.475949e-01   8.778510e-03
  2.249139e+00    6.322992e-01   8.662183e-03
  2.251350e+00    6.207944e-01   8.571697e-03
  2.253560e+00    6.406269e-01   8.696204e-03
  2.255771e+00    6.557688e-01   8.787057e-03
  2.257981e+00    6.478570e-01   8.722862e-03
  2.260192e+00    6.428804e-01   8.678374e-03
  2.262402e+00    6.191072e-01   8.505915e-03
  2.264613e+00    6.345096e-01   8.600474e-03
  2.266823e+00    6.487822e-01   8.686380e-03
  2.269033e+00    6.512345e-01   8.692500e-03
  2.271244e+00    6.408072e-01   8.612413e-03
  2.273454e+00    6.389050e-01   8.589545e-03
  2.275665e+00    6.113029e-01   8.392058e-03
  2.277875e+00    6.212419e-01   8.450342e-03
  2.280086e+00    6.457973e-01   8.605815e-03
  2.282296e+00    6.591813e-01   8.685138e-03
  2.284507e+00    6.341872e-01   8.508956e-03
  2.286717e+00    6.245307e-01   8.434702e-03
  2.288928e+00    6.121055e-01   8.340848e-03
  2.291138e+00    6.266286e-01   8.430008e-03
  2.293348e+00    6.205791e-01   8.379940e-03
  2.295559e+00    6.311930e-01   8.442150e-03
  2.297769e+00    6.402327e-01   8.493246e-03
  2.299980e+00    6.304671e-01   8.419064e-03
  2.302190e+00    6.343061e-01   8.435645e-03
  2.304401e+00    6.457562e-01   8.502194e-03
  2.306611e+00    6.233899e-01   8.344648e-03
  2.308822e+00    6.328030e-01   8.399146e-03
  2.311032e+00    6.179517e-01   8.293726e-03
  2.313243e+00    6.118090e-01   8.246304e-03
  2.315453e+00    6.256281e-01   8.331471e-03
  2.317663e+00    6.406508e-01   8.421833e-03
  2.319874e+00    6.494859e-01   8.470969e-03
  2.322084e+00    6.341122e-01   8.361221e-03
  2.324295e+00    6.424191e-01   8.407611e-03
  2.326505e+00    6.250160e-01   8.284030e-03
  2.328716e+00    6.278214e-01   8.294148e-03
  2.330926e+00    6.187054e-01   8.225093e-03
  2.333137e+00    6.199663e-01   8.225244e-03
  2.335347e+00    6.243424e-01   8.245460e-03
  2.337558e+00    6.249593e-01   8.241399e-03
  2.339768e+00    6.336638e-01   8.290070e-03
  2.341979e+00    6.187209e-01   8.183514e-03
  2.344189e+00    6.183633e-01   8.172870e-03
  2.346399e+00    6.162811e-01   8.150745e-03
  2.348610e+00    6.169559e-01   8.146876e-03
  2.350820e+00    5.966580e-01   8.003805e-03
  2.353031e+00    6.008255e-01   8.023639e-03
  2.355241e+00    6.120828e-01   8.090531e-03
  2.357452e+00    6.241349e-01   8.161432e-03
  2.359662e+00    6.244239e-01   8.155162e-03
  2.361873e+00    6.158717e-01   8.090979e-03
  2.364083e+00    6.183783e-01   8.099500e-03
  2.366294e+00    6.107101e-01   8.041139e-03
  2.368504e+00    5.999407e-01   7.962020e-03
  2.370714e+00    5.931721e-01   7.909130e-03
  2.372925e+00    5.950199e-01   7.913576e-03
  2.375135e+00    6.002144e-01   7.940141e-03
  2.377346e+00    6.098630e-01   7.995877e-03
  2.379556e+00    5.877132e-01   7.841642e-03
  2.381767e+00    5.969724e-01   7.895453e-03
  2.383977e+00    6.089908e-01   7.966691e-03
  2.386188e+00    5.998151e-01   7.898659e-03
  2.388398e+00    5.885496e-01   7.816373e-03
  2.390609e+00    5.776506e-01   7.736181e-03
  2.392819e+00    5.874708e-01   7.794078e-03
  2.395029e+00    5.862764e-01   7.778659e-03
  2.397240e+00    5.913622e-01   7.804620e-03
  2.399450e+00    5.973495e-01   7.836325e-03
  2.401661e+00    5.831220e-01   7.734943e-03
  2.403871e+00    5.987785e-01   7.830409e-03
  2.406082e+00    5.877300e-01   7.750547e-03
  2.408292e+00    5.873634e-01   7.740465e-03
  2.410503e+00    5.788965e-01   7.677182e-03
  2.412713e+00    5.807576e-01   7.681878e-03
  2.414924e+00    5.854158e-01   7.705254e-03
  2.417134e+00    6.018066e-01   7.804781e-03
  2.419344e+00    5.931675e-01   7.741221e-03
  2.421555e+00    5.651462e-01   7.548874e-03
  2.423765e+00    5.747479e-01   7.605483e-03
  2.425976e+00    5.913122e-01   7.706536e-03
  2.428186e+00    6.145396e-01   7.849135e-03
  2.430397e+00    5.920502e-01   7.696751e-03
  2.432607e+00    5.788270e-01   7.603118e-03
  2.434818e+00    5.744076e-01   7.566642e-03
  2.437028e+00    5.754214e-01   7.566274e-03
  2.439239e+00    5.680123e-01   7.509914e-03
  2.441449e+00    5.718601e-01   7.528231e-03
  2.443659e+00    5.616634e-01   7.453657e-03
  2.445870e+00    5.737416e-01   7.545443e-03
  2.448080e+00    5.776185e-01   7.605547e-03
  2.450291e+00    5.700136e-01   7.571823e-03
  2.452501e+00    5.537462e-01   7.473938e-03
  2.454712e+00    5.570772e-01   7.504670e-03
  2.456922e+00    5.650982e-01   7.565112e-03
  2.459133e+00    5.608407e-01   7.541963e-03
  2.461343e+00    5.391060e-01   7.398618e-03
  2.463554e+00    5.394556e-01   7.404414e-03
  2.465764e+00    5.199284e-01   7.272171e-03
  2.467975e+00    5.368710e-01   7.391943e-03
  2.470185e+00    5.417081e-01   7.427394e-03
  2.472395e+00    5.344825e-01   7.378891e-03
  2.474606e+00    5.284281e-01   7.338512e-03
  2.476816e+00    5.181936e-01   7.267806e-03
  2.479027e+00    5.362602e-01   7.394232e-03
  2.481237e+00    5.407174e-01   7.425206e-03
  2.483448e+00    5.270938e-01   7.331355e-03
  2.485658e+00    5.160444e-01   7.253976e-03
  2.487869e+00    5.221510e-01   7.296781e-03
  2.490079e+00    5.252315e-01   7.317780e-03
  2.492290e+00    5.232858e-01   7.303787e-03
  2.494500e+00    5.172978e-01   7.261149e-03
  2.496710e+00    5.217291e-01   7.291509e-03
  2.498921e+00    5.186470e-01   7.268954e-03
  2.501131e+00    5.387208e-01   7.407334e-03
  2.503342e+00    5.186052e-01   7.266495e-03
  2.505552e+00    5.167785e-01   7.252557e-03
  2.507763e+00    5.143640e-01   7.234198e-03
  2.509973e+00    5.107200e-01   7.207165e-03
  2.512184e+00    5.043637e-01   7.160592e-03
  2.514394e+00    5.187340e-01   7.252587e-03
  2.516605e+00    5.253310e-01   7.251564e-03
  2.518815e+00    5.111177e-01   7.124872e-03
  2.521025e+00    5.144761e-01   7.127489e-03
  2.523236e+00    5.141727e-01   7.107601e-03
  2.525446e+00    5.142945e-01   7.093007e-03
  2.527657e+00    5.238199e-01   7.143806e-03
  2.529867e+00    5.214713e-01   7.113646e-03
  2.532078e+00    5.121285e-01   7.034784e-03
  2.534288e+00    5.090528e-01   6.999943e-03
  2.536499e+00    5.276094e-01   7.114410e-03
  2.538709e+00    5.188369e-01   7.044105e-03
  2.540920e+00    5.047285e-01   6.937208e-03
  2.543130e+00    5.111309e-01   6.970834e-03
  2.545340e+00    5.043830e-01   6.914792e-03
  2.547551e+00    5.087150e-01   6.934607e-03
  2.549761e+00    5.094501e-01   6.930163e-03
  2.551972e+00    5.125267e-01   6.941776e-03
  2.554182e+00    5.110012e-01   6.922368e-03
  2.556393e+00    5.011314e-01   6.846266e-03
  2.558603e+00    5.029134e-01   6.849508e-03
  2.560814e+00    4.955067e-01   6.790385e-03
  2.563024e+00    4.948754e-01   6.777683e-03
  2.565235e+00    4.982179e-01   6.791214e-03
  2.567445e+00    5.006826e-01   6.798606e-03
  2.569656e+00    5.150072e-01   6.885465e-03
  2.571866e+00    4.983519e-01   6.764032e-03
  2.574076e+00    5.102798e-01   6.835293e-03
  2.576287e+00    5.015887e-01   6.768622e-03
  2.578497e+00    4.988951e-01   6.742726e-03
  2.580708e+00    5.040757e-01   6.769625e-03
  2.582918e+00    4.919442e-01   6.680103e-03
  2.585129e+00    4.878308e-01   6.644557e-03
  2.587339e+00    4.919439e-01   6.664994e-03
  2.589550e+00    4.738149e-01   6.533788e-03
  2.591760e+00    4.908103e-01   6.642341e-03
  2.593971e+00    4.856234e-01   6.599837e-03
  2.596181e+00    4.999791e-01   6.690502e-03
  2.598391e+00    4.960462e-01   6.659043e-03
  2.600602e+00    4.993641e-01   6.675402e-03
  2.602812e+00    4.913078e-01   6.613960e-03
  2.605023e+00    4.856451e-01   6.568707e-03
  2.607233e+00    4.990375e-01   6.651598e-03
  2.609444e+00    4.811085e-01   6.523991e-03
  2.611654e+00    4.755578e-01   6.479135e-03
  2.613865e+00    4.874651e-01   6.552842e-03
  2.616075e+00    5.028811e-01   6.648537e-03
  2.618286e+00    4.945347e-01   6.586231e-03
  2.620496e+00    4.843147e-01   6.511243e-03
  2.622706e+00    4.944469e-01   6.573332e-03
  2.624917e+00    4.915566e-01   6.548304e-03
  2.627127e+00    4.935349e-01   6.555796e-03
  2.629338e+00    4.986700e-01   6.583864e-03
  2.631548e+00    5.021102e-01   6.600379e-03
  2.633759e+00    4.802944e-01   6.448419e-03
  2.635969e+00    4.845454e-01   6.470309e-03
  2.638180e+00    4.711331e-01   6.373364e-03
  2.640390e+00    4.781794e-01   6.414390e-03
  2.642601e+00    4.933412e-01   6.508676e-03
  2.644811e+00    4.872342e-01   6.461290e-03
  2.647021e+00    4.900507e-01   6.473430e-03
  2.649232e+00    4.916738e-01   6.477483e-03
  2.651442e+00    4.891523e-01   6.454418e-03
  2.653653e+00    4.752709e-01   6.355550e-03
  2.655863e+00    4.757506e-01   6.352222e-03
  2.658074e+00    4.773237e-01   6.356239e-03
  2.660284e+00    4.829772e-01   6.387501e-03
  2.662495e+00    4.758429e-01   6.333559e-03
  2.664705e+00    4.980050e-01   6.472770e-03
  2.666916e+00    4.924908e-01   6.430433e-03
  2.669126e+00    4.842482e-01   6.369988e-03
  2.671337e+00    4.755021e-01   6.305774e-03
  2.673547e+00    4.745385e-01   6.293114e-03
  2.675757e+00    4.774881e-01   6.306318e-03
  2.677968e+00    4.696796e-01   6.248180e-03
  2.680178e+00    4.711662e-01   6.251801e-03
  2.682389e+00    4.811710e-01   6.311517e-03
  2.684599e+00    4.893331e-01   6.358649e-03
  2.686810e+00    4.891650e-01   6.350995e-03
  2.689020e+00    4.789093e-01   6.277839e-03
  2.691231e+00    4.767903e-01   6.257745e-03
  2.693441e+00    4.778791e-01   6.258817e-03
  2.695652e+00    4.711553e-01   6.208249e-03
  2.697862e+00    4.814423e-01   6.269348e-03
  2.700072e+00    4.799444e-01   6.253594e-03
  2.702283e+00    4.736629e-01   6.206405e-03
  2.704493e+00    4.772847e-01   6.223867e-03
  2.706704e+00    4.782911e-01   6.224112e-03
  2.708914e+00    4.711547e-01   6.171627e-03
  2.711125e+00    4.694566e-01   6.154376e-03
  2.713335e+00    4.680093e-01   6.138899e-03
  2.715546e+00    4.855676e-01   6.246549e-03
  2.717756e+00    4.708928e-01   6.145655e-03
  2.719967e+00    4.648158e-01   6.099790e-03
  2.722177e+00    4.661378e-01   6.102446e-03
  2.724387e+00    4.624058e-01   6.072029e-03
  2.726598e+00    4.650039e-01   6.083108e-03
  2.728808e+00    4.745946e-01   6.139456e-03
  2.731019e+00    4.645891e-01   6.068399e-03
  2.733229e+00    4.685220e-01   6.088310e-03
  2.735440e+00    4.683628e-01   6.081126e-03
  2.737650e+00    4.649479e-01   6.052993e-03
  2.739861e+00    4.606833e-01   6.019268e-03
  2.742071e+00    4.681997e-01   6.062507e-03
  2.744282e+00    4.773317e-01   6.115119e-03
  2.746492e+00    4.832024e-01   6.146597e-03
  2.748702e+00    4.604384e-01   5.994291e-03
  2.750913e+00    4.474788e-01   5.903735e-03
  2.753123e+00    4.627322e-01   5.997515e-03
  2.755334e+00    4.668349e-01   6.018059e-03
  2.757544e+00    4.662237e-01   6.008473e-03
  2.759755e+00    4.668003e-01   6.006378e-03
  2.761965e+00    4.714151e-01   6.030076e-03
  2.764176e+00    4.719218e-01   6.027380e-03
  2.766386e+00    4.611388e-01   5.952440e-03
  2.768597e+00    4.549658e-01   5.906768e-03
  2.770807e+00    4.580020e-01   5.920684e-03
  2.773017e+00    4.634035e-01   5.949628e-03
  2.775228e+00    4.470691e-01   5.838237e-03
  2.777438e+00    4.633981e-01   5.938184e-03
  2.779649e+00    4.533246e-01   5.867559e-03
  2.781859e+00    4.540348e-01   5.866522e-03
  2.784070e+00    4.547974e-01   5.865736e-03
  2.786280e+00    4.661266e-01   5.932623e-03
  2.788491e+00    4.684931e-01   5.941904e-03
  2.790701e+00    4.560770e-01   5.857106e-03
  2.792912e+00    4.655543e-01   5.911753e-03
  2.795122e+00    4.602499e-01   5.872347e-03
  2.797333e+00    4.621210e-01   5.878781e-03
  2.799543e+00    4.651767e-01   5.892389e-03
  2.801753e+00    4.724415e-01   5.932392e-03
  2.803964e+00    4.741347e-01   5.937342e-03
  2.806174e+00    4.728426e-01   5.923136e-03
  2.808385e+00    4.697995e-01   5.897274e-03
  2.810595e+00    4.741073e-01   5.917380e-03
  2.812806e+00    4.682109e-01   5.873928e-03
  2.815016e+00    4.547472e-01   5.784195e-03
  2.817227e+00    4.608543e-01   5.848465e-03
  2.819437e+00    4.731657e-01   5.937141e-03
  2.821648e+00    4.692813e-01   5.915020e-03
  2.823858e+00    4.582506e-01   5.850328e-03
  2.826068e+00    4.522523e-01   5.816784e-03
  2.828279e+00    4.562210e-01   5.846221e-03
  2.830489e+00    4.485120e-01   5.799866e-03
  2.832700e+00    4.503430e-01   5.814196e-03
  2.834910e+00    4.521369e-01   5.827768e-03
  2.837121e+00    4.698949e-01   5.942830e-03
  2.839331e+00    4.652140e-01   5.914384e-03
  2.841542e+00    4.654704e-01   5.917025e-03
  2.843752e+00    4.563338e-01   5.859434e-03
  2.845963e+00    4.569354e-01   5.863680e-03
  2.848173e+00    4.542488e-01   5.846520e-03
  2.850383e+00    4.568805e-01   5.863693e-03
  2.852594e+00    4.593861e-01   5.879691e-03
  2.854804e+00    4.452550e-01   5.788064e-03
  2.857015e+00    4.542978e-01   5.846105e-03
  2.859225e+00    4.515551e-01   5.828189e-03
  2.861436e+00    4.597917e-01   5.880450e-03
  2.863646e+00    4.725974e-01   5.961814e-03
  2.865857e+00    4.509371e-01   5.823942e-03
  2.868067e+00    4.526401e-01   5.835130e-03
  2.870278e+00    4.474870e-01   5.801488e-03
  2.872488e+00    4.391008e-01   5.745724e-03
  2.874698e+00    4.474344e-01   5.798976e-03
  2.876909e+00    4.503271e-01   5.816370e-03
  2.879119e+00    4.476666e-01   5.797573e-03
  2.881330e+00    4.467749e-01   5.790357e-03
  2.883540e+00    4.366515e-01   5.723026e-03
  2.885751e+00    4.532155e-01   5.828928e-03
  2.887961e+00    4.541609e-01   5.833156e-03
  2.890172e+00    4.473584e-01   5.787713e-03
  2.892382e+00    4.380603e-01   5.725489e-03
  2.894593e+00    4.480176e-01   5.788409e-03
  2.896803e+00    4.495233e-01   5.796170e-03
  2.899014e+00    4.597482e-01   5.859809e-03
  2.901224e+00    4.557435e-01   5.832250e-03
  2.903434e+00    4.544043e-01   5.821741e-03
  2.905645e+00    4.501879e-01   5.792469e-03
  2.907855e+00    4.480135e-01   5.776396e-03
  2.910066e+00    4.466954e-01   5.765841e-03
  2.912276e+00    4.412468e-01   5.728481e-03
  2.914487e+00    4.387821e-01   5.710071e-03
  2.916697e+00    4.345674e-01   5.680399e-03
  2.918908e+00    4.499910e-01   5.778342e-03
  2.921118e+00    4.475351e-01   5.759898e-03
  2.923329e+00    4.363581e-01   5.685249e-03
  2.925539e+00    4.409769e-01   5.713022e-03
  2.927749e+00    4.455459e-01   5.740254e-03
  2.929960e+00    4.571537e-01   5.811777e-03
  2.932170e+00    4.309046e-01   5.640212e-03
  2.934381e+00    4.336612e-01   5.655821e-03
  2.936591e+00    4.380737e-01   5.681999e-03
  2.938802e+00    4.443322e-01   5.719785e-03
  2.941012e+00    4.435991e-01   5.712744e-03
  2.943223e+00    4.417807e-01   5.698385e-03
  2.945433e+00    4.405713e-01   5.686894e-03
  2.947644e+00    4.468913e-01   5.723446e-03
  2.949854e+00    4.526407e-01   5.755892e-03
  2.952064e+00    4.449751e-01   5.702766e-03
  2.954275e+00    4.372712e-01   5.648867e-03
  2.956485e+00    4.445831e-01   5.691754e-03
  2.958696e+00    4.420164e-01   5.670997e-03
  2.960906e+00    4.475815e-01   5.702423e-03
  2.963117e+00    4.384772e-01   5.639745e-03
  2.965327e+00    4.329354e-01   5.600160e-03
  2.967538e+00    4.442482e-01   5.669991e-03
  2.969748e+00    4.421224e-01   5.653624e-03
  2.971959e+00    4.470354e-01   5.681837e-03
  2.974169e+00    4.504479e-01   5.700917e-03
  2.976379e+00    4.452556e-01   5.665073e-03
  2.978590e+00    4.494427e-01   5.688520e-03
  2.980800e+00    4.531345e-01   5.709053e-03
  2.983011e+00    4.523386e-01   5.701237e-03
  2.985221e+00    4.410100e-01   5.626300e-03
  2.987432e+00    4.334857e-01   5.575046e-03
  2.989642e+00    4.352727e-01   5.583948e-03
  2.991853e+00    4.427365e-01   5.628378e-03
  2.994063e+00    4.578453e-01   5.720689e-03
  2.996274e+00    4.443527e-01   5.632648e-03
  2.998484e+00    4.377437e-01   5.587912e-03
  3.000694e+00    4.450000e-01   5.630637e-03
  3.002905e+00    4.433945e-01   5.617555e-03
  3.005115e+00    4.441728e-01   5.619539e-03
  3.007326e+00    4.389478e-01   5.583283e-03
  3.009536e+00    4.457299e-01   5.623027e-03
  3.011747e+00    4.420001e-01   5.596571e-03
  3.013957e+00    4.535225e-01   5.665858e-03
  3.016168e+00    4.566132e-01   5.681875e-03
  3.018378e+00    4.502446e-01   5.639075e-03
  3.020589e+00    4.593366e-01   5.692483e-03
  3.022799e+00    4.533874e-01   5.652350e-03
  3.025010e+00    4.424273e-01   5.580398e-03
  3.027220e+00    4.500002e-01   5.624848e-03
  3.029430e+00    4.471669e-01   5.603907e-03
  3.031641e+00    4.474904e-01   5.602783e-03
  3.033851e+00    4.413025e-01   5.560458e-03
  3.036062e+00    4.379722e-01   5.536694e-03
  3.038272e+00    4.230413e-01   5.438034e-03
  3.040483e+00    4.355076e-01   5.514412e-03
  3.042693e+00    4.393138e-01   5.535226e-03
  3.044904e+00    4.478563e-01   5.584791e-03
  3.047114e+00    4.435405e-01   5.553045e-03
  3.049325e+00    4.434561e-01   5.548160e-03
  3.051535e+00    4.353342e-01   5.492795e-03
  3.053745e+00    4.377961e-01   5.503625e-03
  3.055956e+00    4.395701e-01   5.510249e-03
  3.058166e+00    4.332117e-01   5.466069e-03
  3.060377e+00    4.415521e-01   5.513718e-03
  3.062587e+00    4.462944e-01   5.538638e-03
  3.064798e+00    4.367211e-01   5.474712e-03
  3.067008e+00    4.469895e-01   5.533991e-03
  3.069219e+00    4.403753e-01   5.488441e-03
  3.071429e+00    4.390045e-01   5.476392e-03
  3.073640e+00    4.530886e-01   5.560223e-03
  3.075850e+00    4.404838e-01   5.478790e-03
  3.078060e+00    4.248671e-01   5.377768e-03
  3.080271e+00    4.404099e-01   5.471791e-03
  3.082481e+00    4.434975e-01   5.487528e-03
  3.084692e+00    4.375225e-01   5.447119e-03
  3.086902e+00    4.270884e-01   5.378585e-03
  3.089113e+00    4.287497e-01   5.385539e-03
  3.091323e+00    4.274564e-01   5.374135e-03
  3.093534e+00    4.352822e-01   5.419762e-03
  3.095744e+00    4.253310e-01   5.354169e-03
  3.097955e+00    4.223171e-01   5.331710e-03
  3.100165e+00    4.387611e-01   5.431228e-03
  3.102375e+00    4.515742e-01   5.506517e-03
  3.104586e+00    4.473326e-01   5.477108e-03
  3.106796e+00    4.415426e-01   5.438063e-03
  3.109007e+00    4.323834e-01   5.378179e-03
  3.111217e+00    4.273309e-01   5.343051e-03
  3.113428e+00    4.387855e-01   5.410786e-03
  3.115638e+00    4.280677e-01   5.341150e-03
  3.117849e+00    4.360638e-01   5.387109e-03
  3.120059e+00    4.280605e-01   5.334044e-03
  3.122270e+00    4.356945e-01   5.378177e-03
  3.124480e+00    4.329338e-01   5.357472e-03
  3.126691e+00    4.337299e-01   5.358885e-03
  3.128901e+00    4.401497e-01   5.395273e-03
  3.131111e+00    4.422814e-01   5.404505e-03
  3.133322e+00    4.378240e-01   5.373793e-03
  3.135532e+00    4.291704e-01   5.317060e-03
  3.137743e+00    4.258428e-01   5.293007e-03
  3.139953e+00    4.274124e-01   5.299135e-03
  3.142164e+00    4.250951e-01   5.296525e-03
  3.144374e+00    4.260893e-01   5.330584e-03
  3.146585e+00    4.254415e-01   5.340816e-03
  3.148795e+00    4.229204e-01   5.335501e-03
  3.151006e+00    4.325466e-01   5.404346e-03
  3.153216e+00    4.331300e-01   5.415050e-03
  3.155426e+00    4.270326e-01   5.383010e-03
  3.157637e+00    4.254334e-01   5.378342e-03
  3.159847e+00    4.195463e-01   5.345763e-03
  3.162058e+00    4.366640e-01   5.458139e-03
  3.164268e+00    4.381078e-01   5.471204e-03
  3.166479e+00    4.268827e-01   5.404267e-03
  3.168689e+00    4.301242e-01   5.428071e-03
  3.170900e+00    4.328933e-01   5.448661e-03
  3.173110e+00    4.365613e-01   5.474566e-03
  3.175321e+00    4.343340e-01   5.463072e-03
  3.177531e+00    4.332649e-01   5.459044e-03
  3.179741e+00    4.381368e-01   5.491766e-03
  3.181952e+00    4.307988e-01   5.447632e-03
  3.184162e+00    4.415626e-01   5.517501e-03
  3.186373e+00    4.265594e-01   5.424538e-03
  3.188583e+00    4.174361e-01   5.367945e-03
  3.190794e+00    4.206800e-01   5.390492e-03
  3.193004e+00    4.180042e-01   5.374542e-03
  3.195215e+00    4.141279e-01   5.351017e-03
  3.197425e+00    4.229262e-01   5.408757e-03
  3.199636e+00    4.212103e-01   5.397017e-03
  3.201846e+00    4.231932e-01   5.409104e-03
  3.204056e+00    4.295390e-01   5.450390e-03
  3.206267e+00    4.232805e-01   5.411403e-03
  3.208477e+00    4.089721e-01   5.320036e-03
  3.210688e+00    4.086518e-01   5.318751e-03
  3.212898e+00    4.144664e-01   5.357044e-03
  3.215109e+00    4.138802e-01   5.353982e-03
  3.217319e+00    4.173269e-01   5.376857e-03
  3.219530e+00    4.137056e-01   5.353865e-03
  3.221740e+00    4.142603e-01   5.357993e-03
  3.223951e+00    4.222133e-01   5.409643e-03
  3.226161e+00    4.240052e-01   5.421321e-03
  3.228372e+00    4.222740e-01   5.410756e-03
  3.230582e+00    4.118467e-01   5.343667e-03
  3.232792e+00    4.252369e-01   5.430062e-03
  3.235003e+00    4.265607e-01   5.438744e-03
  3.237213e+00    4.175555e-01   5.381162e-03
  3.239424e+00    4.170049e-01   5.377566e-03
  3.241634e+00    4.239405e-01   5.422260e-03
  3.243845e+00    4.265117e-01   5.438734e-03
  3.246055e+00    4.230515e-01   5.416371e-03
  3.248266e+00    4.182642e-01   5.385822e-03
  3.250476e+00    4.193469e-01   5.392493e-03
  3.252687e+00    4.140003e-01   5.357934e-03
  3.254897e+00    4.127128e-01   5.349467e-03
  3.257107e+00    4.111483e-01   5.339011e-03
  3.259318e+00    4.134672e-01   5.353821e-03
  3.261528e+00    4.116848e-01   5.342144e-03
  3.263739e+00    4.049891e-01   5.297954e-03
  3.265949e+00    4.142320e-01   5.357965e-03
  3.268160e+00    4.057748e-01   5.302571e-03
  3.270370e+00    4.109586e-01   5.335848e-03
  3.272581e+00    4.028592e-01   5.282713e-03
  3.274791e+00    4.109612e-01   5.335064e-03
  3.277002e+00    4.231414e-01   5.412979e-03
  3.279212e+00    4.234435e-01   5.414543e-03
  3.281422e+00    4.059932e-01   5.301239e-03
  3.283633e+00    4.058677e-01   5.299744e-03
  3.285843e+00    4.141895e-01   5.353462e-03
  3.288054e+00    4.116549e-01   5.336142e-03
  3.290264e+00    4.017482e-01   5.271235e-03
  3.292475e+00    4.205619e-01   5.392414e-03
  3.294685e+00    4.186082e-01   5.379246e-03
  3.296896e+00    4.123566e-01   5.338192e-03
  3.299106e+00    4.086692e-01   5.313715e-03
  3.301317e+00    4.053158e-01   5.290869e-03
  3.303527e+00    4.240344e-01   5.411190e-03
  3.305737e+00    3.982603e-01   5.243163e-03
  3.307948e+00    4.020597e-01   5.267430e-03
  3.310158e+00    4.000647e-01   5.253535e-03
  3.312369e+00    4.136147e-01   5.340883e-03
  3.314579e+00    4.106781e-01   5.320997e-03
  3.316790e+00    4.101547e-01   5.316904e-03
  3.319000e+00    4.181671e-01   5.367406e-03
  3.321211e+00    4.053531e-01   5.283953e-03
  3.323421e+00    3.993940e-01   5.243784e-03
  3.325632e+00    3.944015e-01   5.210037e-03
  3.327842e+00    4.115044e-01   5.320906e-03
  3.330052e+00    4.044584e-01   5.274123e-03
  3.332263e+00    4.043559e-01   5.272455e-03
  3.334473e+00    4.087827e-01   5.300332e-03
  3.336684e+00    4.133403e-01   5.328544e-03
  3.338894e+00    4.092102e-01   5.301026e-03
  3.341105e+00    4.092461e-01   5.300065e-03
  3.343315e+00    4.063649e-01   5.280258e-03
  3.345526e+00    4.136715e-01   5.326635e-03
  3.347736e+00    4.015535e-01   5.246665e-03
  3.349947e+00    3.919871e-01   5.182868e-03
  3.352157e+00    4.166908e-01   5.342505e-03
  3.354368e+00    4.132328e-01   5.319057e-03
  3.356578e+00    4.021136e-01   5.245973e-03
  3.358788e+00    4.065335e-01   5.273429e-03
  3.360999e+00    4.021139e-01   5.243457e-03
  3.363209e+00    3.952027e-01   5.197226e-03
  3.365420e+00    4.023107e-01   5.242238e-03
  3.367630e+00    4.036045e-01   5.249696e-03
  3.369841e+00    4.088910e-01   5.282542e-03
  3.372051e+00    4.004379e-01   5.225702e-03
  3.374262e+00    3.936017e-01   5.178550e-03
  3.376472e+00    3.893182e-01   5.147940e-03
  3.378683e+00    3.891075e-01   5.144086e-03
  3.380893e+00    3.953398e-01   5.182859e-03
  3.383103e+00    4.019213e-01   5.223170e-03
  3.385314e+00    4.001930e-01   5.209726e-03
  3.387524e+00    4.126475e-01   5.287465e-03
  3.389735e+00    3.955383e-01   5.174107e-03
  3.391945e+00    3.987762e-01   5.191636e-03
  3.394156e+00    3.962505e-01   5.171028e-03
  3.396366e+00    3.944528e-01   5.155957e-03
  3.398577e+00    4.048251e-01   5.220274e-03
  3.400787e+00    4.109100e-01   5.271285e-03
  3.402998e+00    4.004503e-01   5.241382e-03
  3.405208e+00    4.014129e-01   5.268225e-03
  3.407418e+00    3.802715e-01   5.143002e-03
  3.409629e+00    3.765436e-01   5.131245e-03
  3.411839e+00    3.799753e-01   5.166071e-03
  3.414050e+00    3.779762e-01   5.163170e-03
  3.416260e+00    3.880393e-01   5.241023e-03
  3.418471e+00    3.787991e-01   5.187489e-03
  3.420681e+00    3.768257e-01   5.182281e-03
  3.422892e+00    3.848376e-01   5.245022e-03
  3.425102e+00    3.668453e-01   5.128536e-03
  3.427313e+00    3.661838e-01   5.130875e-03
  3.429523e+00    3.606688e-01   5.098917e-03
  3.431733e+00    3.575350e-01   5.083125e-03
  3.433944e+00    3.619714e-01   5.120866e-03
  3.436154e+00    3.585366e-01   5.102524e-03
  3.438365e+00    3.698716e-01   5.188412e-03
  3.440575e+00    3.749672e-01   5.229901e-03
  3.442786e+00    3.697714e-01   5.199104e-03
  3.444996e+00    3.556399e-01   5.104118e-03
  3.447207e+00    3.410868e-01   5.003643e-03
  3.449417e+00    3.446592e-01   5.069076e-03
  3.451628e+00    3.357943e-01   5.031556e-03
  3.453838e+00    3.559448e-01   5.201138e-03
  3.456049e+00    3.603529e-01   5.256962e-03
  3.458259e+00    3.402345e-01   5.129234e-03
  3.460469e+00    3.370607e-01   5.124212e-03
  3.462680e+00    3.362622e-01   5.136408e-03
  3.464890e+00    3.516845e-01   5.270299e-03
  3.467101e+00    3.663719e-01   5.396673e-03
  3.469311e+00    3.873067e-01   5.565642e-03
  3.471522e+00    3.844840e-01   5.561945e-03
  3.473732e+00    3.800403e-01   5.545666e-03
  3.475943e+00    3.941334e-01   5.663502e-03
  3.478153e+00    3.951369e-01   5.686292e-03
  3.480364e+00    4.111673e-01   5.815967e-03
  3.482574e+00    3.984940e-01   5.740901e-03
  3.484784e+00    3.980969e-01   5.752653e-03
  3.486995e+00    4.186457e-01   5.914399e-03
  3.489205e+00    4.225124e-01   5.956330e-03
  3.491416e+00    4.221461e-01   5.968567e-03
  3.493626e+00    4.331558e-01   6.060446e-03
  3.495837e+00    4.414240e-01   6.132799e-03
  3.498047e+00    4.459022e-01   6.178333e-03
  3.500258e+00    4.510729e-01   6.228616e-03
  3.502468e+00    4.588763e-01   6.296758e-03
  3.504679e+00    4.580203e-01   6.305347e-03
  3.506889e+00    4.520686e-01   6.278447e-03
  3.509099e+00    4.679230e-01   6.401914e-03
  3.511310e+00    4.680592e-01   6.417191e-03
  3.513520e+00    4.716343e-01   6.455895e-03
  3.515731e+00    4.945782e-01   6.625564e-03
  3.517941e+00    4.851173e-01   6.576208e-03
  3.520152e+00    4.896544e-01   6.621087e-03
  3.522362e+00    5.072694e-01   6.753740e-03
  3.524573e+00    4.996597e-01   6.717079e-03
  3.526783e+00    4.940531e-01   6.692410e-03
  3.528994e+00    4.941664e-01   6.705152e-03
  3.531204e+00    5.095210e-01   6.820826e-03
  3.533414e+00    5.250471e-01   6.936056e-03
  3.535625e+00    5.395682e-01   7.043821e-03
  3.537835e+00    5.251769e-01   6.961255e-03
  3.540046e+00    5.402065e-01   7.069170e-03
  3.542256e+00    5.268824e-01   6.988923e-03
  3.544467e+00    5.207524e-01   6.955641e-03
  3.546677e+00    5.115613e-01   6.901399e-03
  3.548888e+00    5.309480e-01   7.038380e-03
  3.551098e+00    5.232504e-01   6.994409e-03
  3.553309e+00    5.271868e-01   7.028735e-03
  3.555519e+00    5.267785e-01   7.037250e-03
  3.557729e+00    5.368049e-01   7.115608e-03
  3.559940e+00    5.309410e-01   7.088153e-03
  3.562150e+00    5.376102e-01   7.144226e-03
  3.564361e+00    5.213872e-01   7.048788e-03
  3.566571e+00    5.417188e-01   7.198767e-03
  3.568782e+00    5.352104e-01   7.169535e-03
  3.570992e+00    5.355132e-01   7.185298e-03
  3.573203e+00    5.284275e-01   7.151642e-03
  3.575413e+00    5.299572e-01   7.175699e-03
  3.577624e+00    5.276491e-01   7.174064e-03
  3.579834e+00    5.263119e-01   7.178706e-03
  3.582045e+00    5.269806e-01   7.197208e-03
  3.584255e+00    5.340170e-01   7.259077e-03
  3.586465e+00    5.321519e-01   7.260325e-03
  3.588676e+00    5.107704e-01   7.126810e-03
  3.590886e+00    5.416067e-01   7.352555e-03
  3.593097e+00    5.183812e-01   7.207469e-03
  3.595307e+00    5.243348e-01   7.262489e-03
  3.597518e+00    5.200829e-01   7.247012e-03
  3.599728e+00    5.239404e-01   7.287767e-03
  3.601939e+00    5.249876e-01   7.308990e-03
  3.604149e+00    5.138991e-01   7.245481e-03
  3.606360e+00    5.256301e-01   7.341723e-03
  3.608570e+00    5.336674e-01   7.411789e-03
  3.610780e+00    5.395995e-01   7.463995e-03
  3.612991e+00    5.441574e-01   7.505517e-03
  3.615201e+00    5.309684e-01   7.423789e-03
  3.617412e+00    5.234251e-01   7.378069e-03
  3.619622e+00    5.190316e-01   7.352888e-03
  3.621833e+00    5.184857e-01   7.355640e-03
  3.624043e+00    5.092056e-01   7.298799e-03
  3.626254e+00    5.261976e-01   7.429168e-03
  3.628464e+00    5.386741e-01   7.527798e-03
  3.630675e+00    5.299724e-01   7.480797e-03
  3.632885e+00    5.282822e-01   7.483229e-03
  3.635095e+00    5.295689e-01   7.506688e-03
  3.637306e+00    5.248471e-01   7.487378e-03
  3.639516e+00    5.249336e-01   7.502445e-03
  3.641727e+00    5.365800e-01   7.599757e-03
  3.643937e+00    5.500110e-01   7.709138e-03
  3.646148e+00    5.277393e-01   7.565940e-03
  3.648358e+00    5.373235e-01   7.649268e-03
  3.650569e+00    5.262386e-01   7.584609e-03
  3.652779e+00    5.105685e-01   7.485237e-03
  3.654990e+00    5.481635e-01   7.771070e-03
  3.657200e+00    5.398053e-01   7.726592e-03
  3.659410e+00    5.191075e-01   7.591811e-03
  3.661621e+00    5.215342e-01   7.624480e-03
  3.663831e+00    5.019411e-01   7.494576e-03
  3.666042e+00    5.234598e-01   7.668571e-03
  3.668252e+00    5.215569e-01   7.669707e-03
  3.670463e+00    5.397742e-01   7.817913e-03
  3.672673e+00    5.101749e-01   7.615640e-03
  3.674884e+00    5.015517e-01   7.565974e-03
  3.677094e+00    5.105228e-01   7.648548e-03
  3.679305e+00    5.182360e-01   7.721497e-03
  3.681515e+00    5.184838e-01   7.738773e-03
  3.683726e+00    5.043295e-01   7.647818e-03
  3.685936e+00    5.268229e-01   7.832199e-03
  3.688146e+00    5.187818e-01   7.787835e-03
  3.690357e+00    5.138426e-01   7.766382e-03
  3.692567e+00    5.357435e-01   7.946461e-03
  3.694778e+00    5.113621e-01   7.779330e-03
  3.696988e+00    5.118583e-01   7.798882e-03
  3.699199e+00    5.256753e-01   7.919653e-03
  3.701409e+00    5.133204e-01   7.842280e-03
  3.703620e+00    5.185038e-01   7.897924e-03
  3.705830e+00    5.023223e-01   7.789814e-03
  3.708041e+00    4.972609e-01   7.766591e-03
  3.710251e+00    5.136062e-01   7.909765e-03
  3.712461e+00    5.029295e-01   7.843577e-03
  3.714672e+00    4.974071e-01   7.816696e-03
  3.716882e+00    5.141172e-01   7.963502e-03
  3.719093e+00    4.894075e-01   7.786433e-03
  3.721303e+00    5.025144e-01   7.906645e-03
  3.723514e+00    5.253115e-01   8.101372e-03
  3.725724e+00    5.181249e-01   8.062963e-03
  3.727935e+00    5.099466e-01   8.016382e-03
  3.730145e+00    5.011765e-01   7.964173e-03
  3.732356e+00    5.084788e-01   8.039436e-03
  3.734566e+00    4.970064e-01   7.965411e-03
  3.736776e+00    5.018691e-01   8.021850e-03
  3.738987e+00    5.015515e-01   8.036809e-03
  3.741197e+00    5.119123e-01   8.137377e-03
  3.743408e+00    4.894722e-01   7.974680e-03
  3.745618e+00    4.910591e-01   8.005480e-03
  3.747829e+00    5.006375e-01   8.101081e-03
  3.750039e+00    5.161051e-01   8.243714e-03
  3.752250e+00    4.912679e-01   8.061093e-03
  3.754460e+00    4.800891e-01   7.986788e-03
  3.756671e+00    4.933567e-01   8.114863e-03
  3.758881e+00    4.921810e-01   8.123579e-03
  3.761091e+00    4.946162e-01   8.162504e-03
  3.763302e+00    5.044665e-01   8.262390e-03
  3.765512e+00    5.082846e-01   8.312882e-03
  3.767723e+00    4.862900e-01   8.149977e-03
  3.769933e+00    4.943223e-01   8.236102e-03
  3.772144e+00    4.823549e-01   8.154922e-03
  3.774354e+00    4.891251e-01   8.231439e-03
  3.776565e+00    4.924735e-01   8.279200e-03
  3.778775e+00    4.969161e-01   8.336209e-03
  3.780986e+00    4.935844e-01   8.328401e-03
  3.783196e+00    4.799931e-01   8.232645e-03
  3.785407e+00    4.920931e-01   8.355974e-03
  3.787617e+00    4.928189e-01   8.382685e-03
  3.789827e+00    4.850108e-01   8.336188e-03
  3.792038e+00    4.786084e-01   8.301313e-03
  3.794248e+00    4.834996e-01   8.364471e-03
  3.796459e+00    4.743944e-01   8.306053e-03
  3.798669e+00    4.914528e-01   8.475248e-03
  3.800880e+00    5.164474e-01   8.709829e-03
  3.803090e+00    5.153508e-01   8.722830e-03
  3.805301e+00    4.824565e-01   8.461528e-03
  3.807511e+00    4.951028e-01   8.593556e-03
  3.809722e+00    4.953590e-01   8.617975e-03
  3.811932e+00    4.670361e-01   8.389447e-03
  3.814142e+00    4.750589e-01   8.483480e-03
  3.816353e+00    4.890544e-01   8.630116e-03
  3.818563e+00    4.848914e-01   8.616175e-03
  3.820774e+00    4.990786e-01   8.764432e-03
  3.822984e+00    4.948460e-01   8.750572e-03
  3.825195e+00    4.669732e-01   8.523451e-03
  3.827405e+00    4.684642e-01   8.560237e-03
  3.829616e+00    4.739000e-01   8.633257e-03
  3.831826e+00    4.705479e-01   8.626181e-03
  3.834037e+00    4.803398e-01   8.739548e-03
  3.836247e+00    4.728501e-01   8.695229e-03
  3.838457e+00    4.926954e-01   8.900738e-03
  3.840668e+00    4.920273e-01   8.919813e-03
  3.842878e+00    4.970273e-01   8.990543e-03
  3.845089e+00    4.909675e-01   8.961073e-03
  3.847299e+00    4.842560e-01   8.925040e-03
  3.849510e+00    4.959310e-01   9.057889e-03
  3.851720e+00    5.049413e-01   9.161459e-03
  3.853931e+00    4.751755e-01   8.905897e-03
  3.856141e+00    4.798273e-01   8.968122e-03
  3.858352e+00    4.903394e-01   9.084997e-03
  3.860562e+00    4.796030e-01   9.004015e-03
  3.862772e+00    5.003204e-01   9.216143e-03
  3.864983e+00    4.929343e-01   9.167493e-03
  3.867193e+00    5.038286e-01   9.288259e-03
  3.869404e+00    4.910591e-01   9.189555e-03
  3.871614e+00    4.711269e-01   9.020661e-03
  3.873825e+00    4.908900e-01   9.228147e-03
  3.876035e+00    4.671431e-01   9.022248e-03
  3.878246e+00    4.956915e-01   9.319643e-03
  3.880456e+00    4.932719e-01   9.325890e-03
  3.882667e+00    5.210176e-01   9.614823e-03
  3.884877e+00    4.849613e-01   9.305693e-03
  3.887087e+00    4.815826e-01   9.302859e-03
  3.889298e+00    4.528947e-01   9.050648e-03
  3.891508e+00    4.626871e-01   9.177597e-03
  3.893719e+00    4.745247e-01   9.324795e-03
  3.895929e+00    4.720970e-01   9.331697e-03
  3.898140e+00    4.637269e-01   9.279435e-03
  3.900350e+00    4.621170e-01   9.294522e-03
  3.902561e+00    4.738300e-01   9.443309e-03
  3.904771e+00    4.855618e-01   9.592243e-03
  3.906982e+00    4.767964e-01   9.537997e-03
  3.909192e+00    4.858353e-01   9.661308e-03
  3.911403e+00    4.991857e-01   9.827534e-03
  3.913613e+00    5.050430e-01   9.919889e-03
  3.915823e+00    4.727759e-01   9.631992e-03
  3.918034e+00    4.985467e-01   9.926611e-03
  3.920244e+00    5.060589e-01   1.003759e-02
  3.922455e+00    4.747834e-01   9.757983e-03
  3.924665e+00    4.877722e-01   9.927000e-03
  3.926876e+00    4.652495e-01   9.731338e-03
  3.929086e+00    4.953211e-01   1.007855e-02
  3.931297e+00    4.688862e-01   9.840102e-03
  3.933507e+00    4.710870e-01   9.891564e-03
  3.935718e+00    4.680535e-01   9.887883e-03
  3.937928e+00    4.695094e-01   9.932069e-03
  3.940138e+00    4.859570e-01   1.013385e-02
  3.942349e+00    4.945254e-01   1.025292e-02
  3.944559e+00    4.782369e-01   1.011245e-02
  3.946770e+00    4.629214e-01   9.978518e-03
  3.948980e+00    4.766546e-01   1.015592e-02
  3.951191e+00    4.980530e-01   1.041258e-02
  3.953401e+00    5.044323e-01   1.051098e-02
  3.955612e+00    4.807925e-01   1.029315e-02
  3.957822e+00    4.831270e-01   1.034983e-02
  3.960033e+00    4.935655e-01   1.049378e-02
  3.962243e+00    4.674480e-01   1.024463e-02
  3.964453e+00    5.003627e-01   1.063273e-02
  3.966664e+00    5.023462e-01   1.068792e-02
  3.968874e+00    4.694536e-01   1.035985e-02
  3.971085e+00    4.711445e-01   1.040013e-02
  3.973295e+00    4.627605e-01   1.032818e-02
  3.975506e+00    4.819300e-01   1.056137e-02
  3.977716e+00    4.576221e-01   1.031305e-02
  3.979927e+00    4.676567e-01   1.044712e-02
  3.982137e+00    4.536306e-01   1.031090e-02
  3.984348e+00    4.451990e-01   1.023614e-02
  3.986558e+00    4.910088e-01   1.077237e-02
  3.988768e+00    4.687026e-01   1.054746e-02
  3.990979e+00    4.745181e-01   1.063520e-02
  3.993189e+00    4.604988e-01   1.049938e-02
  3.995400e+00    4.678671e-01   1.060615e-02
  3.997610e+00    4.762198e-01   1.072996e-02
  3.999821e+00    4.627940e-01   1.061437e-02
  4.002031e+00    4.729097e-01   1.076752e-02
  4.004242e+00    4.710879e-01   1.078481e-02
  4.006452e+00    4.977375e-01   1.112549e-02
  4.008663e+00    4.836338e-01   1.100682e-02
  4.010873e+00    4.638891e-01   1.081876e-02
  4.013084e+00    4.949439e-01   1.121646e-02
  4.015294e+00    4.639353e-01   1.089945e-02
  4.017504e+00    4.709119e-01   1.102256e-02
  4.019715e+00    4.668581e-01   1.101660e-02
  4.021925e+00    4.858167e-01   1.128113e-02
  4.024136e+00    4.707105e-01   1.114752e-02
  4.026346e+00    4.547693e-01   1.099979e-02
  4.028557e+00    4.515261e-01   1.100338e-02
  4.030767e+00    4.690133e-01   1.125937e-02
  4.032978e+00    4.891415e-01   1.154496e-02
  4.035188e+00    4.766105e-01   1.144195e-02
  4.037399e+00    4.985179e-01   1.175031e-02
  4.039609e+00    4.645684e-01   1.138998e-02
  4.041819e+00    5.107914e-01   1.199327e-02
  4.044030e+00    4.704658e-01   1.155942e-02
  4.046240e+00    4.592530e-01   1.146938e-02
  4.048451e+00    4.116434e-01   1.090566e-02
  4.050661e+00    4.520741e-01   1.147845e-02
  4.052872e+00    4.436847e-01   1.142192e-02
  4.055082e+00    4.774730e-01   1.190223e-02
  4.057293e+00    4.661025e-01   1.181239e-02
  4.059503e+00    4.759462e-01   1.199069e-02
  4.061714e+00    4.907952e-01   1.223341e-02
  4.063924e+00    4.789869e-01   1.214195e-02
  4.066134e+00    4.471319e-01   1.178642e-02
  4.068345e+00    4.537056e-01   1.193001e-02
  4.070555e+00    4.608641e-01   1.208164e-02
  4.072766e+00    4.785552e-01   1.237211e-02
  4.074976e+00    4.732505e-01   1.236457e-02
  4.077187e+00    4.840299e-01   1.256691e-02
  4.079397e+00    4.458051e-01   1.212191e-02
  4.081608e+00    4.950159e-01   1.284001e-02
  4.083818e+00    4.737390e-01   1.262622e-02
  4.086029e+00    4.880197e-01   1.288284e-02
  4.088239e+00    5.182060e-01   1.334674e-02
  4.090449e+00    4.872975e-01   1.301280e-02
  4.092660e+00    4.968413e-01   1.321185e-02
  4.094870e+00    4.841766e-01   1.311497e-02
  4.097081e+00    4.314242e-01   1.244774e-02
  4.099291e+00    4.687504e-01   1.302860e-02
  4.101502e+00    4.857187e-01   1.331186e-02
  4.103712e+00    4.924604e-01   1.345388e-02
  4.105923e+00    4.652399e-01   1.312753e-02
  4.108133e+00    4.473836e-01   1.292253e-02
  4.110344e+00    4.346206e-01   1.278574e-02
  4.112554e+00    4.169073e-01   1.257195e-02
  4.114764e+00    4.630257e-01   1.330209e-02
  4.116975e+00    4.474030e-01   1.312761e-02
  4.119185e+00    4.634405e-01   1.341488e-02
  4.121396e+00    4.687937e-01   1.354788e-02
  4.123606e+00    4.478440e-01   1.329612e-02
  4.125817e+00    4.557751e-01   1.346948e-02
  4.128027e+00    5.180599e-01   1.442089e-02
  4.130238e+00    4.426688e-01   1.338751e-02
  4.132448e+00    4.537655e-01   1.361309e-02
  4.134659e+00    4.902823e-01   1.421108e-02
  4.136869e+00    4.885228e-01   1.424870e-02
  4.139080e+00    4.704595e-01   1.404602e-02
  4.141290e+00    4.730907e-01   1.414773e-02
  4.143500e+00    4.553970e-01   1.394439e-02
  4.145711e+00    4.654325e-01   1.416316e-02
  4.147921e+00    4.780854e-01   1.442026e-02
  4.150132e+00    4.558726e-01   1.414856e-02
  4.152342e+00    4.439234e-01   1.402945e-02
  4.154553e+00    4.616618e-01   1.437493e-02
  4.156763e+00    4.972410e-01   1.499256e-02
  4.158974e+00    4.116243e-01   1.370941e-02
  4.161184e+00    4.896892e-01   1.502713e-02
  4.163395e+00    4.726377e-01   1.483857e-02
  4.165605e+00    4.985418e-01   1.531923e-02
  4.167815e+00    4.282514e-01   1.427218e-02
  4.170026e+00    4.372506e-01   1.449737e-02
  4.172236e+00    4.517382e-01   1.481521e-02
  4.174447e+00    4.286956e-01   1.451092e-02
  4.176657e+00    5.027252e-01   1.579977e-02
  4.178868e+00    5.359198e-01   1.640568e-02
  4.181078e+00    4.938193e-01   1.583680e-02
  4.183289e+00    4.571939e-01   1.532528e-02
  4.185499e+00    4.508156e-01   1.530779e-02
  4.187710e+00    4.762537e-01   1.582594e-02
  4.189920e+00    5.496885e-01   1.710463e-02
  4.192130e+00    5.175634e-01   1.669905e-02
  4.194341e+00    4.897946e-01   1.634430e-02
  4.196551e+00    4.427741e-01   1.563839e-02
  4.198762e+00    4.547942e-01   1.594995e-02
  4.200972e+00    4.417196e-01   1.582057e-02
  4.203183e+00    4.578242e-01   1.621250e-02
  4.205393e+00    4.819646e-01   1.674554e-02
  4.207604e+00    4.812995e-01   1.684771e-02
  4.209814e+00    5.091897e-01   1.744813e-02
  4.212025e+00    5.006843e-01   1.742421e-02
  4.214235e+00    5.068467e-01   1.765544e-02
  4.216445e+00    5.541565e-01   1.859460e-02
  4.218656e+00    4.537909e-01   1.695297e-02
  4.220866e+00    4.696977e-01   1.737504e-02
  4.223077e+00    4.421370e-01   1.698728e-02
  4.225287e+00    4.151217e-01   1.658975e-02
  4.227498e+00    4.537106e-01   1.747924e-02
  4.229708e+00    4.603985e-01   1.775123e-02
  4.231919e+00    4.088241e-01   1.686558e-02
  4.234129e+00    4.780514e-01   1.839084e-02
  4.236340e+00    5.083028e-01   1.912588e-02
  4.238550e+00    4.776791e-01   1.870454e-02
  4.240761e+00    5.097228e-01   1.949246e-02
  4.242971e+00    5.053012e-01   1.958552e-02
  4.245181e+00    5.003991e-01   1.967319e-02
  4.247392e+00    5.079141e-01   2.000614e-02
  4.249602e+00    4.564542e-01   1.915355e-02
  4.251813e+00    4.427048e-01   1.904896e-02
  4.254023e+00    4.420126e-01   1.922564e-02
  4.256234e+00    4.452888e-01   1.950321e-02
  4.258444e+00    4.994424e-01   2.087093e-02
  4.260655e+00    4.752501e-01   2.058346e-02
  4.262865e+00    4.668766e-01   2.063233e-02
  4.265076e+00    4.326186e-01   2.008715e-02
  4.267286e+00    4.882139e-01   2.159147e-02
  4.269496e+00    5.320007e-01   2.281453e-02
  4.271707e+00    4.816160e-01   2.197514e-02
  4.273917e+00    4.753702e-01   2.211476e-02
  4.276128e+00    3.689879e-01   1.974233e-02
  4.278338e+00    4.040591e-01   2.093462e-02
  4.280549e+00    4.729089e-01   2.297339e-02
  4.282759e+00    4.510603e-01   2.275942e-02
  4.284970e+00    4.896796e-01   2.406415e-02
  4.287180e+00    5.254530e-01   2.522634e-02
  4.289391e+00    4.497347e-01   2.351325e-02
  4.291601e+00    5.300473e-01   2.573085e-02
  4.293811e+00    4.723812e-01   2.448003e-02
  4.296022e+00    4.962678e-01   2.529365e-02
  4.298232e+00    4.434287e-01   2.410932e-02
  4.300443e+00    4.049026e-01   2.322811e-02
  4.302653e+00    4.758374e-01   2.539892e-02
  4.304864e+00    3.686236e-01   2.254866e-02
  4.307074e+00    4.463823e-01   2.503618e-02
  4.309285e+00    5.015397e-01   2.677851e-02
  4.311495e+00    4.907303e-01   2.673676e-02
  4.313706e+00    4.682915e-01   2.636367e-02
  4.315916e+00    4.890310e-01   2.720651e-02
  4.318126e+00    5.169402e-01   2.824875e-02
  4.320337e+00    3.989561e-01   2.506697e-02
  4.322547e+00    4.894950e-01   2.806127e-02
  4.324758e+00    4.470074e-01   2.709430e-02
  4.326968e+00    5.304403e-01   2.984729e-02
  4.329179e+00    4.683180e-01   2.835389e-02
  4.331389e+00    4.563922e-01   2.831391e-02
  4.333600e+00    4.852402e-01   2.954290e-02
  4.335810e+00    4.951435e-01   3.019829e-02
  4.338021e+00    4.198958e-01   2.816477e-02
  4.340231e+00    5.128523e-01   3.151736e-02
  4.342442e+00    4.476118e-01   2.983952e-02
  4.344652e+00    4.602921e-01   3.067008e-02
  4.346862e+00    3.663716e-01   2.774612e-02
  4.349073e+00    4.519654e-01   3.126508e-02
  4.351283e+00    4.615460e-01   3.206779e-02
  4.353494e+00    5.154175e-01   3.441029e-02
  4.355704e+00    3.124093e-01   2.722059e-02
  4.357915e+00    3.070400e-01   2.743595e-02
  4.360125e+00    4.705938e-01   3.454519e-02
  4.362336e+00    4.374833e-01   3.391580e-02
  4.364546e+00    3.970577e-01   3.289697e-02
  4.366757e+00    5.516390e-01   3.954922e-02
  4.368967e+00    4.464038e-01   3.628414e-02
  4.371177e+00    5.237944e-01   4.014371e-02
  4.373388e+00    5.098783e-01   4.048944e-02
  4.375598e+00    6.364850e-01   4.627110e-02
  4.377809e+00    5.051581e-01   4.226619e-02
  4.380019e+00    4.346520e-01   4.019033e-02
  4.382230e+00    2.720605e-01   3.268425e-02
  4.384440e+00    3.800162e-01   3.973931e-02
  4.386651e+00    5.361697e-01   4.865955e-02
  4.388861e+00    4.458073e-01   4.586118e-02
  4.391072e+00    3.597713e-01   4.264290e-02
  4.393282e+00    4.457853e-01   4.930557e-02
  4.395492e+00    3.995045e-01   4.861318e-02
  4.397703e+00    2.658074e-01   4.146988e-02
  4.399913e+00    2.929075e-01   4.573255e-02
  4.402124e+00    3.278930e-01   5.112593e-02
  4.404334e+00    4.786361e-01   6.566633e-02
  4.406545e+00    2.101845e-01   4.675804e-02
  4.408755e+00    3.179831e-01   6.236169e-02
  4.410966e+00    3.952133e-01   7.695632e-02
  4.413176e+00    1.437987e-01   5.255131e-02
  4.415387e+00   -6.487070e-01            nan
  4.417597e+00   -2.027282e+00            nan
  4.419807e+00   -3.766224e-01            nan
