# == pyFAI calibration ==
# Distance Sample to Detector: 0.216 m
# PONI: 1.166e-01, 1.308e-01 m
# Rotations: 0.000000 0.000000 0.000000 rad
# 
# == Fit2d calibration ==
# Distance Sample-beamCenter: 216.000 mm
# Center: x=1744.293, y=1555.000 pix
# Tilt: 0.000 deg  TiltPlanRot: 0.000 deg
# 
# Detector Eiger 9M	 PixelSize= 7.500e-05, 7.500e-05 m
#    Detector has a mask: True 
#    Detector has a dark current: False 
#    detector has a flat field: False 
# 
# Wavelength: 9.8e-11 m
# Mask applied: from detector
# Dark current applied: False
# Flat field applied: False
# Polarization factor: None
# Normalization factor: 1.0
# 
# Headers of the input frame:
# {
# "_array_data.header_convention": "SLS_1.0",
# "_array_data.header_contents": "# Detector: Dectris Eiger 9M, S/N E-18-0102\r\n# Pixel_size 75e-6 m x 75e-6 m\r\n# Silicon sensor, thickness 0.000450 m\r\n# Exposure_time 0.024997 s\r\n# Exposure_period 0.025000 s\r\n# Count_cutoff 62318 counts\r\n# Wavelength 0.980106 A\r\n# Detector_distance 0.215992 m\r\n# Beam_xy (1555, 1744) pixels\r\n# Start_angle 0.000000 deg.\r\n# Angle_increment 0.000000 deg.",
# "Content-Type": "application/octet-stream;",
# "conversions": "x-CBF_BYTE_OFFSET",
# "Content-Transfer-Encoding": "BINARY",
# "X-Binary-Size": "10166596",
# "X-Binary-ID": "1",
# "X-Binary-Element-Type": "signed 32-bit integer",
# "X-Binary-Element-Byte-Order": "LITTLE_ENDIAN",
# "Content-MD5": "mJys9JthtxkXz87HBR7mGg==",
# "X-Binary-Number-of-Elements": "10166590",
# "X-Binary-Size-Fastest-Dimension": "3110",
# "X-Binary-Size-Second-Dimension": "3269",
# "X-Binary-Size-Padding": "4095"
# }
# --> H:/Proxima2a_2019-04-05/RAW_DATA/C5_gel17_position5/C5_mesh_1_data.cbf/C5_mesh_1_data.cbf000110.dat
#        q_A^-1              I           sigma 
  1.105228e-03    1.630828e+00   6.910208e-01
  3.315685e-03    8.238217e-01   2.985809e-01
  5.526141e-03    9.526168e-01   2.482740e-01
  7.736597e-03    1.646317e+00   2.757255e-01
  9.947054e-03    1.804755e+00   2.544988e-01
  1.215751e-02    1.394487e+00   2.022906e-01
  1.436797e-02    1.303490e+00   1.798994e-01
  1.657842e-02    1.265421e+00   1.649916e-01
  1.878888e-02    1.371997e+00   1.613764e-01
  2.099934e-02    1.291070e+00   1.481075e-01
  2.320979e-02    1.157618e+00   1.333876e-01
  2.542025e-02    1.322397e+00   1.362355e-01
  2.763070e-02    1.403517e+00   1.346168e-01
  2.984116e-02    1.252499e+00   1.223673e-01
  3.205162e-02    1.189096e+00   1.150521e-01
  3.426207e-02    1.208080e+00   1.121561e-01
  3.647253e-02    1.367874e+00   1.156679e-01
  3.868299e-02    1.390045e+00   1.132296e-01
  4.089344e-02    1.518655e+00   1.151092e-01
  4.310390e-02    1.343261e+00   1.054397e-01
  4.531436e-02    1.372209e+00   1.039384e-01
  4.752481e-02    1.486190e+00   1.056224e-01
  4.973527e-02    1.465160e+00   1.025167e-01
  5.194572e-02    1.468815e+00   1.004353e-01
  5.415618e-02    1.355087e+00   9.447619e-02
  5.636664e-02    1.360813e+00   9.280352e-02
  5.857709e-02    1.405394e+00   9.251531e-02
  6.078755e-02    1.399008e+00   9.060821e-02
  6.299801e-02    1.475284e+00   9.139746e-02
  6.520846e-02    1.591026e+00   9.329308e-02
  6.741892e-02    1.350127e+00   8.451566e-02
  6.962938e-02    1.296007e+00   8.148354e-02
  7.183983e-02    1.414412e+00   8.380309e-02
  7.405029e-02    1.410844e+00   8.243672e-02
  7.626074e-02    1.426154e+00   8.167207e-02
  7.847120e-02    1.465336e+00   8.160985e-02
  8.068166e-02    1.479020e+00   8.085843e-02
  8.289211e-02    1.537802e+00   8.134238e-02
  8.510257e-02    1.471339e+00   7.852461e-02
  8.731303e-02    1.413658e+00   7.598658e-02
  8.952348e-02    1.454135e+00   7.611143e-02
  9.173394e-02    1.498969e+00   7.633613e-02
  9.394439e-02    1.548491e+00   7.666614e-02
  9.615485e-02    1.420803e+00   7.258666e-02
  9.836531e-02    1.410716e+00   7.150925e-02
  1.005758e-01    1.500619e+00   7.293811e-02
  1.027862e-01    1.487845e+00   7.184006e-02
  1.049967e-01    1.443583e+00   7.001336e-02
  1.072071e-01    1.440327e+00   6.920879e-02
  1.094176e-01    1.498976e+00   6.988591e-02
  1.116280e-01    1.512383e+00   6.949774e-02
  1.138385e-01    1.485849e+00   6.821198e-02
  1.160490e-01    1.565346e+00   6.934214e-02
  1.182594e-01    1.609216e+00   6.964540e-02
  1.204699e-01    1.566296e+00   6.807656e-02
  1.226803e-01    1.527328e+00   6.661324e-02
  1.248908e-01    1.581597e+00   6.718300e-02
  1.271012e-01    1.604556e+00   6.707656e-02
  1.293117e-01    1.628528e+00   6.699487e-02
  1.315222e-01    1.493436e+00   6.361312e-02
  1.337326e-01    1.563069e+00   6.453786e-02
  1.359431e-01    1.556121e+00   6.443199e-02
  1.381535e-01    1.555683e+00   6.528765e-02
  1.403640e-01    1.571158e+00   6.589489e-02
  1.425744e-01    1.581475e+00   6.621648e-02
  1.447849e-01    1.560253e+00   6.578584e-02
  1.469953e-01    1.648486e+00   6.757802e-02
  1.492058e-01    1.661377e+00   6.776291e-02
  1.514163e-01    1.648160e+00   6.738073e-02
  1.536267e-01    1.638684e+00   6.705559e-02
  1.558372e-01    1.611889e+00   6.635828e-02
  1.580476e-01    1.626227e+00   6.649102e-02
  1.602581e-01    1.609534e+00   6.598089e-02
  1.624685e-01    1.608489e+00   6.577883e-02
  1.646790e-01    1.699678e+00   6.742357e-02
  1.668895e-01    1.731314e+00   6.785163e-02
  1.690999e-01    1.699373e+00   6.702096e-02
  1.713104e-01    1.681033e+00   6.645147e-02
  1.735208e-01    1.724902e+00   6.710362e-02
  1.757313e-01    1.771311e+00   6.778724e-02
  1.779417e-01    1.909383e+00   7.015009e-02
  1.801522e-01    1.889325e+00   6.955845e-02
  1.823626e-01    1.905858e+00   6.962955e-02
  1.845731e-01    1.841027e+00   6.821334e-02
  1.867836e-01    1.891943e+00   6.891678e-02
  1.889940e-01    1.986982e+00   7.039576e-02
  1.912045e-01    1.990038e+00   7.021464e-02
  1.934149e-01    1.905930e+00   6.848484e-02
  1.956254e-01    1.878995e+00   6.777491e-02
  1.978358e-01    1.968101e+00   6.912560e-02
  2.000463e-01    2.007221e+00   6.957790e-02
  2.022568e-01    2.014463e+00   6.947452e-02
  2.044672e-01    2.076310e+00   7.029133e-02
  2.066777e-01    2.077145e+00   7.007208e-02
  2.088881e-01    2.028798e+00   6.902526e-02
  2.110986e-01    2.001983e+00   6.833241e-02
  2.133090e-01    2.068599e+00   6.923420e-02
  2.155195e-01    1.904221e+00   6.620616e-02
  2.177300e-01    1.918303e+00   6.592844e-02
  2.199404e-01    2.056276e+00   6.645963e-02
  2.221509e-01    1.992591e+00   6.434811e-02
  2.243613e-01    2.026138e+00   6.406491e-02
  2.265718e-01    2.034210e+00   6.348488e-02
  2.287822e-01    2.011097e+00   6.249840e-02
  2.309927e-01    2.126749e+00   6.368481e-02
  2.332031e-01    2.255451e+00   6.502221e-02
  2.354136e-01    2.160262e+00   6.311953e-02
  2.376241e-01    2.135514e+00   6.226986e-02
  2.398345e-01    2.069476e+00   6.084581e-02
  2.420450e-01    2.145919e+00   6.151657e-02
  2.442554e-01    2.137363e+00   6.097087e-02
  2.464659e-01    2.146530e+00   6.069125e-02
  2.486763e-01    2.112891e+00   5.981803e-02
  2.508868e-01    2.127161e+00   5.964106e-02
  2.530973e-01    2.073101e+00   5.851327e-02
  2.553077e-01    2.090892e+00   5.840738e-02
  2.575182e-01    2.095784e+00   5.812970e-02
  2.597286e-01    2.050860e+00   5.716902e-02
  2.619391e-01    2.040133e+00   5.669105e-02
  2.641495e-01    2.042007e+00   5.640318e-02
  2.663600e-01    1.993816e+00   5.542713e-02
  2.685704e-01    2.055369e+00   5.597117e-02
  2.707809e-01    2.026413e+00   5.528052e-02
  2.729914e-01    1.977894e+00   5.433008e-02
  2.752018e-01    2.001087e+00   5.436327e-02
  2.774123e-01    1.953616e+00   5.344020e-02
  2.796227e-01    2.008643e+00   5.391955e-02
  2.818332e-01    2.021077e+00   5.381637e-02
  2.840436e-01    1.941914e+00   5.249619e-02
  2.862541e-01    1.951520e+00   5.237287e-02
  2.884646e-01    1.928204e+00   5.181201e-02
  2.906750e-01    1.910348e+00   5.132701e-02
  2.928855e-01    2.004673e+00   5.233528e-02
  2.950959e-01    1.984072e+00   5.182652e-02
  2.973064e-01    1.958642e+00   5.126189e-02
  2.995168e-01    1.903537e+00   5.030675e-02
  3.017273e-01    1.862180e+00   4.953789e-02
  3.039377e-01    1.862238e+00   4.932173e-02
  3.061482e-01    1.904865e+00   4.966724e-02
  3.083587e-01    1.935470e+00   4.984797e-02
  3.105691e-01    1.855086e+00   4.859337e-02
  3.127796e-01    1.876294e+00   4.866491e-02
  3.149900e-01    1.875180e+00   4.844774e-02
  3.172005e-01    1.914000e+00   4.874652e-02
  3.194109e-01    1.840757e+00   4.760741e-02
  3.216214e-01    1.836056e+00   4.735252e-02
  3.238319e-01    1.973717e+00   4.890112e-02
  3.260423e-01    1.899541e+00   4.778236e-02
  3.282528e-01    1.826006e+00   4.666181e-02
  3.304632e-01    1.898151e+00   4.739039e-02
  3.326737e-01    1.839410e+00   4.646933e-02
  3.348841e-01    1.877886e+00   4.677075e-02
  3.370946e-01    1.773662e+00   4.528331e-02
  3.393050e-01    1.824859e+00   4.575820e-02
  3.415155e-01    1.836796e+00   4.573501e-02
  3.437260e-01    1.863983e+00   4.590149e-02
  3.459364e-01    1.796606e+00   4.489755e-02
  3.481469e-01    1.809666e+00   4.489596e-02
  3.503573e-01    1.835096e+00   4.504559e-02
  3.525678e-01    1.833824e+00   4.486955e-02
  3.547782e-01    1.717441e+00   4.326542e-02
  3.569887e-01    1.773074e+00   4.380483e-02
  3.591992e-01    1.856708e+00   4.466741e-02
  3.614096e-01    1.863075e+00   4.458883e-02
  3.636201e-01    1.779341e+00   4.342216e-02
  3.658305e-01    1.791557e+00   4.342234e-02
  3.680410e-01    1.784874e+00   4.319220e-02
  3.702514e-01    1.786427e+00   4.306567e-02
  3.724619e-01    1.774125e+00   4.277099e-02
  3.746724e-01    1.764897e+00   4.251728e-02
  3.768828e-01    1.758020e+00   4.229157e-02
  3.790933e-01    1.747046e+00   4.202197e-02
  3.813037e-01    1.755579e+00   4.198666e-02
  3.835142e-01    1.787828e+00   4.223137e-02
  3.857246e-01    1.795542e+00   4.218543e-02
  3.879351e-01    1.777199e+00   4.183356e-02
  3.901455e-01    1.842028e+00   4.245411e-02
  3.923560e-01    1.836449e+00   4.225508e-02
  3.945665e-01    1.808880e+00   4.180370e-02
  3.967769e-01    1.820013e+00   4.180084e-02
  3.989874e-01    1.788509e+00   4.130809e-02
  4.011978e-01    1.828245e+00   4.163600e-02
  4.034083e-01    1.804923e+00   4.124260e-02
  4.056187e-01    1.731891e+00   4.027513e-02
  4.078292e-01    1.788648e+00   4.080588e-02
  4.100397e-01    1.778440e+00   4.056505e-02
  4.122501e-01    1.819687e+00   4.091000e-02
  4.144606e-01    1.766636e+00   4.018972e-02
  4.166710e-01    1.811601e+00   4.057693e-02
  4.188815e-01    1.764184e+00   3.992412e-02
  4.210919e-01    1.794607e+00   4.014886e-02
  4.233024e-01    1.823430e+00   4.035097e-02
  4.255128e-01    1.801843e+00   3.999546e-02
  4.277233e-01    1.771278e+00   3.954084e-02
  4.299338e-01    1.767217e+00   3.938185e-02
  4.321442e-01    1.790899e+00   3.953139e-02
  4.343547e-01    1.744344e+00   3.890390e-02
  4.365651e-01    1.725078e+00   3.857852e-02
  4.387756e-01    1.699085e+00   3.817957e-02
  4.409860e-01    1.694530e+00   3.802272e-02
  4.431965e-01    1.728444e+00   3.829513e-02
  4.454070e-01    1.762152e+00   3.855918e-02
  4.476174e-01    1.745668e+00   3.827302e-02
  4.498279e-01    1.729893e+00   3.799605e-02
  4.520383e-01    1.708418e+00   3.765583e-02
  4.542488e-01    1.782031e+00   3.835484e-02
  4.564592e-01    1.769288e+00   3.811495e-02
  4.586697e-01    1.765807e+00   3.797636e-02
  4.608801e-01    1.706967e+00   3.723828e-02
  4.630906e-01    1.718877e+00   3.726900e-02
  4.653011e-01    1.736591e+00   3.736205e-02
  4.675115e-01    1.726051e+00   3.715040e-02
  4.697220e-01    1.718520e+00   3.697219e-02
  4.719324e-01    1.728770e+00   3.698638e-02
  4.741429e-01    1.712764e+00   3.671988e-02
  4.763533e-01    1.734653e+00   3.685906e-02
  4.785638e-01    1.718244e+00   3.658955e-02
  4.807743e-01    1.672800e+00   3.601064e-02
  4.829847e-01    1.668725e+00   3.587587e-02
  4.851952e-01    1.679618e+00   3.590171e-02
  4.874056e-01    1.658728e+00   3.558778e-02
  4.896161e-01    1.723243e+00   3.618330e-02
  4.918265e-01    1.710649e+00   3.596132e-02
  4.940370e-01    1.699633e+00   3.575685e-02
  4.962475e-01    1.651350e+00   3.515825e-02
  4.984579e-01    1.684692e+00   3.542389e-02
  5.006684e-01    1.701090e+00   3.550910e-02
  5.028788e-01    1.693832e+00   3.534741e-02
  5.050893e-01    1.656075e+00   3.486621e-02
  5.072997e-01    1.654150e+00   3.476178e-02
  5.095102e-01    1.675797e+00   3.490470e-02
  5.117206e-01    1.678166e+00   3.484630e-02
  5.139311e-01    1.662217e+00   3.459825e-02
  5.161416e-01    1.649884e+00   3.438820e-02
  5.183520e-01    1.635926e+00   3.416107e-02
  5.205625e-01    1.628097e+00   3.399937e-02
  5.227729e-01    1.656532e+00   3.421501e-02
  5.249834e-01    1.649072e+00   3.405863e-02
  5.271938e-01    1.694433e+00   3.444331e-02
  5.294043e-01    1.723445e+00   3.465677e-02
  5.316148e-01    1.751235e+00   3.485506e-02
  5.338252e-01    1.744531e+00   3.470878e-02
  5.360357e-01    1.707371e+00   3.425895e-02
  5.382461e-01    1.709191e+00   3.419971e-02
  5.404566e-01    1.736858e+00   3.439696e-02
  5.426670e-01    1.772509e+00   3.466988e-02
  5.448775e-01    1.758102e+00   3.445156e-02
  5.470879e-01    1.777998e+00   3.456868e-02
  5.492984e-01    1.809011e+00   3.479133e-02
  5.515089e-01    1.750833e+00   3.415141e-02
  5.537193e-01    1.756181e+00   3.412816e-02
  5.559298e-01    1.808639e+00   3.455817e-02
  5.581402e-01    1.775645e+00   3.416668e-02
  5.603507e-01    1.846252e+00   3.476353e-02
  5.625611e-01    1.851326e+00   3.473573e-02
  5.647716e-01    1.797275e+00   3.415062e-02
  5.669821e-01    1.779719e+00   3.391011e-02
  5.691925e-01    1.802591e+00   3.405409e-02
  5.714030e-01    1.731335e+00   3.330307e-02
  5.736134e-01    1.688489e+00   3.281845e-02
  5.758239e-01    1.697280e+00   3.283355e-02
  5.780343e-01    1.657646e+00   3.237927e-02
  5.802448e-01    1.688457e+00   3.261041e-02
  5.824552e-01    1.657746e+00   3.224467e-02
  5.846657e-01    1.665190e+00   3.224962e-02
  5.868762e-01    1.683606e+00   3.235995e-02
  5.890866e-01    1.650869e+00   3.197731e-02
  5.912971e-01    1.652879e+00   3.193052e-02
  5.935075e-01    1.642035e+00   3.175985e-02
  5.957180e-01    1.623928e+00   3.151945e-02
  5.979284e-01    1.637990e+00   3.159098e-02
  6.001389e-01    1.623553e+00   3.138744e-02
  6.023494e-01    1.623947e+00   3.132749e-02
  6.045598e-01    1.680938e+00   3.180756e-02
  6.067703e-01    1.624791e+00   3.120898e-02
  6.089807e-01    1.619377e+00   3.109426e-02
  6.111912e-01    1.656222e+00   3.138322e-02
  6.134016e-01    1.701144e+00   3.174254e-02
  6.156121e-01    1.662209e+00   3.131483e-02
  6.178226e-01    1.653850e+00   3.117414e-02
  6.200330e-01    1.688630e+00   3.143808e-02
  6.222435e-01    1.737921e+00   3.183044e-02
  6.244539e-01    1.701386e+00   3.143243e-02
  6.266644e-01    1.708767e+00   3.143909e-02
  6.288748e-01    1.690924e+00   3.121364e-02
  6.310853e-01    1.741861e+00   3.161876e-02
  6.332957e-01    1.705737e+00   3.122881e-02
  6.355062e-01    1.688187e+00   3.100735e-02
  6.377167e-01    1.691245e+00   3.097588e-02
  6.399271e-01    1.699415e+00   3.099113e-02
  6.421376e-01    1.665171e+00   3.061873e-02
  6.443480e-01    1.696375e+00   3.084548e-02
  6.465585e-01    1.713395e+00   3.094113e-02
  6.487689e-01    1.668784e+00   3.047801e-02
  6.509794e-01    1.660546e+00   3.034534e-02
  6.531899e-01    1.638085e+00   3.008274e-02
  6.554003e-01    1.587008e+00   2.955435e-02
  6.576108e-01    1.618170e+00   2.978752e-02
  6.598212e-01    1.631695e+00   2.985619e-02
  6.620317e-01    1.618432e+00   2.967948e-02
  6.642421e-01    1.597857e+00   2.943566e-02
  6.664526e-01    1.641806e+00   2.978275e-02
  6.686630e-01    1.643920e+00   2.974682e-02
  6.708735e-01    1.614719e+00   2.942737e-02
  6.730840e-01    1.609821e+00   2.932913e-02
  6.752944e-01    1.620860e+00   2.937599e-02
  6.775049e-01    1.630158e+00   2.940664e-02
  6.797153e-01    1.634802e+00   2.939517e-02
  6.819258e-01    1.612259e+00   2.913916e-02
  6.841362e-01    1.607655e+00   2.904517e-02
  6.863467e-01    1.628017e+00   2.917621e-02
  6.885572e-01    1.595649e+00   2.883295e-02
  6.907676e-01    1.575150e+00   2.859581e-02
  6.929781e-01    1.576631e+00   2.855839e-02
  6.951885e-01    1.601977e+00   2.873605e-02
  6.973990e-01    1.625588e+00   2.889585e-02
  6.996094e-01    1.606525e+00   2.867539e-02
  7.018199e-01    1.603705e+00   2.859994e-02
  7.040303e-01    1.628681e+00   2.877114e-02
  7.062408e-01    1.607523e+00   2.853361e-02
  7.084513e-01    1.543404e+00   2.791011e-02
  7.106617e-01    1.573445e+00   2.813146e-02
  7.128722e-01    1.533358e+00   2.772274e-02
  7.150826e-01    1.574319e+00   2.804216e-02
  7.172931e-01    1.570928e+00   2.796365e-02
  7.195035e-01    1.585130e+00   2.804149e-02
  7.217140e-01    1.582795e+00   2.807040e-02
  7.239245e-01    1.581172e+00   2.828321e-02
  7.261349e-01    1.596624e+00   2.853045e-02
  7.283454e-01    1.517972e+00   2.788995e-02
  7.305558e-01    1.524896e+00   2.800659e-02
  7.327663e-01    1.562950e+00   2.839625e-02
  7.349767e-01    1.544648e+00   2.824571e-02
  7.371872e-01    1.554678e+00   2.832616e-02
  7.393976e-01    1.553074e+00   2.829736e-02
  7.416081e-01    1.597808e+00   2.868572e-02
  7.438186e-01    1.615026e+00   2.869371e-02
  7.460290e-01    1.580772e+00   2.809299e-02
  7.482395e-01    1.596412e+00   2.805927e-02
  7.504499e-01    1.590457e+00   2.786993e-02
  7.526604e-01    1.590320e+00   2.775160e-02
  7.548708e-01    1.562279e+00   2.741679e-02
  7.570813e-01    1.552336e+00   2.727878e-02
  7.592918e-01    1.594233e+00   2.760905e-02
  7.615022e-01    1.614770e+00   2.775210e-02
  7.637127e-01    1.562269e+00   2.726457e-02
  7.659231e-01    1.576612e+00   2.735740e-02
  7.681336e-01    1.605113e+00   2.757168e-02
  7.703440e-01    1.579521e+00   2.731973e-02
  7.725545e-01    1.581165e+00   2.730297e-02
  7.747650e-01    1.600856e+00   2.743396e-02
  7.769754e-01    1.602925e+00   2.739852e-02
  7.791859e-01    1.542528e+00   2.682448e-02
  7.813963e-01    1.570641e+00   2.701532e-02
  7.836068e-01    1.596512e+00   2.718474e-02
  7.858172e-01    1.595352e+00   2.712404e-02
  7.880277e-01    1.627967e+00   2.734778e-02
  7.902381e-01    1.630173e+00   2.731658e-02
  7.924486e-01    1.637615e+00   2.732814e-02
  7.946591e-01    1.644897e+00   2.733988e-02
  7.968695e-01    1.622222e+00   2.710222e-02
  7.990800e-01    1.601116e+00   2.687720e-02
  8.012904e-01    1.670247e+00   2.740380e-02
  8.035009e-01    1.688957e+00   2.750786e-02
  8.057113e-01    1.670128e+00   2.730679e-02
  8.079218e-01    1.635838e+00   2.697838e-02
  8.101323e-01    1.610144e+00   2.672021e-02
  8.123427e-01    1.649281e+00   2.699687e-02
  8.145532e-01    1.704014e+00   2.739424e-02
  8.167636e-01    1.679559e+00   2.715124e-02
  8.189741e-01    1.646373e+00   2.683684e-02
  8.211845e-01    1.649474e+00   2.681709e-02
  8.233950e-01    1.650508e+00   2.678185e-02
  8.256054e-01    1.650924e+00   2.674086e-02
  8.278159e-01    1.638302e+00   2.659445e-02
  8.300264e-01    1.644511e+00   2.660163e-02
  8.322368e-01    1.663680e+00   2.671277e-02
  8.344473e-01    1.643351e+00   2.650564e-02
  8.366577e-01    1.628139e+00   2.634024e-02
  8.388682e-01    1.639298e+00   2.638810e-02
  8.410786e-01    1.620582e+00   2.619522e-02
  8.432891e-01    1.620367e+00   2.615185e-02
  8.454996e-01    1.655653e+00   2.639323e-02
  8.477100e-01    1.638207e+00   2.621216e-02
  8.499205e-01    1.635502e+00   2.614936e-02
  8.521309e-01    1.646073e+00   2.619284e-02
  8.543414e-01    1.612830e+00   2.588654e-02
  8.565518e-01    1.627136e+00   2.596062e-02
  8.587623e-01    1.654130e+00   2.613431e-02
  8.609727e-01    1.655275e+00   2.610284e-02
  8.631832e-01    1.681673e+00   2.626958e-02
  8.653937e-01    1.700749e+00   2.637757e-02
  8.676041e-01    1.666714e+00   2.607290e-02
  8.698146e-01    1.642886e+00   2.584629e-02
  8.720250e-01    1.610129e+00   2.554832e-02
  8.742355e-01    1.592777e+00   2.537160e-02
  8.764459e-01    1.585106e+00   2.527183e-02
  8.786564e-01    1.594576e+00   2.530939e-02
  8.808669e-01    1.652343e+00   2.572471e-02
  8.830773e-01    1.686874e+00   2.595299e-02
  8.852878e-01    1.693573e+00   2.596551e-02
  8.874982e-01    1.633750e+00   2.546576e-02
  8.897087e-01    1.643177e+00   2.550095e-02
  8.919191e-01    1.609585e+00   2.520110e-02
  8.941296e-01    1.606904e+00   2.514271e-02
  8.963401e-01    1.620939e+00   2.521563e-02
  8.985505e-01    1.578495e+00   2.484659e-02
  9.007610e-01    1.574808e+00   2.478111e-02
  9.029714e-01    1.570142e+00   2.470885e-02
  9.051819e-01    1.580796e+00   2.475555e-02
  9.073923e-01    1.572471e+00   2.465402e-02
  9.096028e-01    1.594226e+00   2.478912e-02
  9.118132e-01    1.631657e+00   2.504187e-02
  9.140237e-01    1.594110e+00   2.471552e-02
  9.162342e-01    1.595797e+00   2.469407e-02
  9.184446e-01    1.593269e+00   2.463882e-02
  9.206551e-01    1.574948e+00   2.446145e-02
  9.228655e-01    1.569517e+00   2.438431e-02
  9.250760e-01    1.620471e+00   2.474142e-02
  9.272864e-01    1.638428e+00   2.484350e-02
  9.294969e-01    1.595124e+00   2.447726e-02
  9.317074e-01    1.585882e+00   2.437175e-02
  9.339178e-01    1.616921e+00   2.457548e-02
  9.361283e-01    1.625634e+00   2.460530e-02
  9.383387e-01    1.605319e+00   2.441781e-02
  9.405492e-01    1.631329e+00   2.458043e-02
  9.427596e-01    1.684499e+00   2.494186e-02
  9.449701e-01    1.651694e+00   2.466426e-02
  9.471805e-01    1.614280e+00   2.434875e-02
  9.493910e-01    1.629858e+00   2.443238e-02
  9.516015e-01    1.688691e+00   2.483471e-02
  9.538119e-01    1.690426e+00   2.481342e-02
  9.560224e-01    1.687848e+00   2.475960e-02
  9.582328e-01    1.729533e+00   2.502983e-02
  9.604433e-01    1.764306e+00   2.524443e-02
  9.626537e-01    1.756562e+00   2.515508e-02
  9.648642e-01    1.780164e+00   2.528884e-02
  9.670747e-01    1.767538e+00   2.516425e-02
  9.692851e-01    1.822980e+00   2.552188e-02
  9.714956e-01    1.829214e+00   2.552945e-02
  9.737060e-01    1.818967e+00   2.542439e-02
  9.759165e-01    1.776695e+00   2.509182e-02
  9.781269e-01    1.759455e+00   2.493709e-02
  9.803374e-01    1.841806e+00   2.547872e-02
  9.825478e-01    1.827908e+00   2.534896e-02
  9.847583e-01    1.767612e+00   2.489350e-02
  9.869688e-01    1.778826e+00   2.493891e-02
  9.891792e-01    1.763707e+00   2.479970e-02
  9.913897e-01    1.758541e+00   2.472992e-02
  9.936001e-01    1.745114e+00   2.460310e-02
  9.958106e-01    1.718074e+00   2.437856e-02
  9.980210e-01    1.683071e+00   2.409763e-02
  1.000231e+00    1.670116e+00   2.413622e-02
  1.002442e+00    1.628335e+00   2.395901e-02
  1.004652e+00    1.656295e+00   2.423125e-02
  1.006863e+00    1.638305e+00   2.414932e-02
  1.009073e+00    1.586048e+00   2.379741e-02
  1.011284e+00    1.586964e+00   2.383610e-02
  1.013494e+00    1.575468e+00   2.377317e-02
  1.015705e+00    1.531167e+00   2.345869e-02
  1.017915e+00    1.572378e+00   2.378865e-02
  1.020126e+00    1.551462e+00   2.364591e-02
  1.022336e+00    1.549316e+00   2.364115e-02
  1.024547e+00    1.543713e+00   2.360959e-02
  1.026757e+00    1.517012e+00   2.341279e-02
  1.028967e+00    1.520892e+00   2.345033e-02
  1.031178e+00    1.522232e+00   2.346680e-02
  1.033388e+00    1.541285e+00   2.361827e-02
  1.035599e+00    1.530679e+00   2.354030e-02
  1.037809e+00    1.539853e+00   2.361401e-02
  1.040020e+00    1.509574e+00   2.338197e-02
  1.042230e+00    1.529020e+00   2.353400e-02
  1.044441e+00    1.550062e+00   2.369518e-02
  1.046651e+00    1.561219e+00   2.378047e-02
  1.048862e+00    1.534717e+00   2.357698e-02
  1.051072e+00    1.512948e+00   2.340680e-02
  1.053282e+00    1.498817e+00   2.329628e-02
  1.055493e+00    1.508756e+00   2.336906e-02
  1.057703e+00    1.583120e+00   2.393646e-02
  1.059914e+00    1.707058e+00   2.485120e-02
  1.062124e+00    1.766819e+00   2.527809e-02
  1.064335e+00    1.660872e+00   2.450488e-02
  1.066545e+00    1.508344e+00   2.334650e-02
  1.068756e+00    1.475363e+00   2.308608e-02
  1.070966e+00    1.486791e+00   2.316878e-02
  1.073177e+00    1.478905e+00   2.310118e-02
  1.075387e+00    1.456508e+00   2.292039e-02
  1.077597e+00    1.453852e+00   2.289225e-02
  1.079808e+00    1.482033e+00   2.297951e-02
  1.082018e+00    1.461237e+00   2.262877e-02
  1.084229e+00    1.477140e+00   2.264087e-02
  1.086439e+00    1.510635e+00   2.280705e-02
  1.088650e+00    1.578796e+00   2.323705e-02
  1.090860e+00    1.637554e+00   2.359378e-02
  1.093071e+00    1.529514e+00   2.273837e-02
  1.095281e+00    1.437859e+00   2.198943e-02
  1.097492e+00    1.432300e+00   2.189221e-02
  1.099702e+00    1.423645e+00   2.177488e-02
  1.101912e+00    1.402015e+00   2.156062e-02
  1.104123e+00    1.413783e+00   2.160305e-02
  1.106333e+00    1.401721e+00   2.146678e-02
  1.108544e+00    1.425286e+00   2.160226e-02
  1.110754e+00    1.450607e+00   2.174994e-02
  1.112965e+00    1.406897e+00   2.137944e-02
  1.115175e+00    1.405560e+00   2.132829e-02
  1.117386e+00    1.405241e+00   2.128676e-02
  1.119596e+00    1.376584e+00   2.103119e-02
  1.121807e+00    1.364527e+00   2.090070e-02
  1.124017e+00    1.367338e+00   2.088607e-02
  1.126228e+00    1.373547e+00   2.089811e-02
  1.128438e+00    1.378064e+00   2.089595e-02
  1.130648e+00    1.393271e+00   2.097670e-02
  1.132859e+00    1.414528e+00   2.110153e-02
  1.135069e+00    1.433382e+00   2.120647e-02
  1.137280e+00    1.388756e+00   2.084077e-02
  1.139490e+00    1.379924e+00   2.074140e-02
  1.141701e+00    1.337651e+00   2.038870e-02
  1.143911e+00    1.334014e+00   2.032965e-02
  1.146122e+00    1.388855e+00   2.071120e-02
  1.148332e+00    1.392824e+00   2.070877e-02
  1.150543e+00    1.375989e+00   2.055240e-02
  1.152753e+00    1.382303e+00   2.056861e-02
  1.154963e+00    1.357565e+00   2.035285e-02
  1.157174e+00    1.367371e+00   2.039614e-02
  1.159384e+00    1.376802e+00   2.043644e-02
  1.161595e+00    1.397684e+00   2.056070e-02
  1.163805e+00    1.385611e+00   2.044228e-02
  1.166016e+00    1.369638e+00   2.029466e-02
  1.168226e+00    1.385453e+00   2.038231e-02
  1.170437e+00    1.432602e+00   2.069692e-02
  1.172647e+00    1.452215e+00   2.080832e-02
  1.174858e+00    1.469792e+00   2.090472e-02
  1.177068e+00    1.444464e+00   2.069474e-02
  1.179278e+00    1.433751e+00   2.058852e-02
  1.181489e+00    1.458300e+00   2.073604e-02
  1.183699e+00    1.456959e+00   2.069799e-02
  1.185910e+00    1.418300e+00   2.039315e-02
  1.188120e+00    1.393257e+00   2.018526e-02
  1.190331e+00    1.379737e+00   2.006007e-02
  1.192541e+00    1.390523e+00   2.011059e-02
  1.194752e+00    1.364550e+00   1.989473e-02
  1.196962e+00    1.346164e+00   1.973456e-02
  1.199173e+00    1.312441e+00   1.945968e-02
  1.201383e+00    1.326376e+00   1.953576e-02
  1.203593e+00    1.342933e+00   1.963258e-02
  1.205804e+00    1.334969e+00   1.954850e-02
  1.208014e+00    1.325320e+00   1.945113e-02
  1.210225e+00    1.327003e+00   1.943836e-02
  1.212435e+00    1.315951e+00   1.933278e-02
  1.214646e+00    1.338853e+00   1.947425e-02
  1.216856e+00    1.340958e+00   1.946419e-02
  1.219067e+00    1.334779e+00   1.939496e-02
  1.221277e+00    1.321655e+00   1.927461e-02
  1.223488e+00    1.333147e+00   1.933265e-02
  1.225698e+00    1.340318e+00   1.935776e-02
  1.227909e+00    1.345719e+00   1.936662e-02
  1.230119e+00    1.341279e+00   1.930289e-02
  1.232329e+00    1.347859e+00   1.931945e-02
  1.234540e+00    1.397658e+00   1.964232e-02
  1.236750e+00    1.411775e+00   1.971031e-02
  1.238961e+00    1.398258e+00   1.958830e-02
  1.241171e+00    1.352888e+00   1.924366e-02
  1.243382e+00    1.343537e+00   1.915359e-02
  1.245592e+00    1.334239e+00   1.906324e-02
  1.247803e+00    1.336818e+00   1.905812e-02
  1.250013e+00    1.323664e+00   1.894079e-02
  1.252224e+00    1.332741e+00   1.898254e-02
  1.254434e+00    1.336692e+00   1.898702e-02
  1.256644e+00    1.334550e+00   1.894873e-02
  1.258855e+00    1.349713e+00   1.903281e-02
  1.261065e+00    1.335681e+00   1.891037e-02
  1.263276e+00    1.352061e+00   1.900301e-02
  1.265486e+00    1.322929e+00   1.877454e-02
  1.267697e+00    1.348484e+00   1.893197e-02
  1.269907e+00    1.373232e+00   1.908203e-02
  1.272118e+00    1.368509e+00   1.902646e-02
  1.274328e+00    1.353633e+00   1.890002e-02
  1.276539e+00    1.337824e+00   1.876662e-02
  1.278749e+00    1.331547e+00   1.870042e-02
  1.280959e+00    1.340287e+00   1.873922e-02
  1.283170e+00    1.369247e+00   1.891802e-02
  1.285380e+00    1.372490e+00   1.891776e-02
  1.287591e+00    1.362475e+00   1.882650e-02
  1.289801e+00    1.375815e+00   1.889700e-02
  1.292012e+00    1.359924e+00   1.877041e-02
  1.294222e+00    1.384151e+00   1.892040e-02
  1.296433e+00    1.380494e+00   1.887965e-02
  1.298643e+00    1.359371e+00   1.871809e-02
  1.300854e+00    1.370355e+00   1.877706e-02
  1.303064e+00    1.337937e+00   1.853447e-02
  1.305274e+00    1.375951e+00   1.877427e-02
  1.307485e+00    1.388906e+00   1.884062e-02
  1.309695e+00    1.398541e+00   1.888319e-02
  1.311906e+00    1.395154e+00   1.883828e-02
  1.314116e+00    1.378302e+00   1.870313e-02
  1.316327e+00    1.391492e+00   1.877038e-02
  1.318537e+00    1.395735e+00   1.877674e-02
  1.320748e+00    1.386637e+00   1.869359e-02
  1.322958e+00    1.386098e+00   1.866918e-02
  1.325169e+00    1.384706e+00   1.863850e-02
  1.327379e+00    1.394841e+00   1.868442e-02
  1.329589e+00    1.390666e+00   1.863505e-02
  1.331800e+00    1.400646e+00   1.868072e-02
  1.334010e+00    1.416133e+00   1.876255e-02
  1.336221e+00    1.408462e+00   1.868945e-02
  1.338431e+00    1.394828e+00   1.857758e-02
  1.340642e+00    1.372105e+00   1.849031e-02
  1.342852e+00    1.371133e+00   1.858522e-02
  1.345063e+00    1.361466e+00   1.856927e-02
  1.347273e+00    1.387549e+00   1.878204e-02
  1.349484e+00    1.371118e+00   1.869842e-02
  1.351694e+00    1.353896e+00   1.860333e-02
  1.353905e+00    1.355232e+00   1.863055e-02
  1.356115e+00    1.332364e+00   1.848765e-02
  1.358325e+00    1.321021e+00   1.842195e-02
  1.360536e+00    1.343375e+00   1.858874e-02
  1.362746e+00    1.333037e+00   1.852661e-02
  1.364957e+00    1.353534e+00   1.867614e-02
  1.367167e+00    1.373797e+00   1.882267e-02
  1.369378e+00    1.321755e+00   1.846868e-02
  1.371588e+00    1.314688e+00   1.842430e-02
  1.373799e+00    1.323071e+00   1.848660e-02
  1.376009e+00    1.320870e+00   1.847459e-02
  1.378220e+00    1.319846e+00   1.846994e-02
  1.380430e+00    1.291180e+00   1.827094e-02
  1.382640e+00    1.282054e+00   1.820713e-02
  1.384851e+00    1.303078e+00   1.835669e-02
  1.387061e+00    1.299975e+00   1.833511e-02
  1.389272e+00    1.319059e+00   1.846941e-02
  1.391482e+00    1.316944e+00   1.845393e-02
  1.393693e+00    1.306688e+00   1.838103e-02
  1.395903e+00    1.310759e+00   1.840815e-02
  1.398114e+00    1.285684e+00   1.822984e-02
  1.400324e+00    1.268186e+00   1.810324e-02
  1.402535e+00    1.268704e+00   1.810463e-02
  1.404745e+00    1.282304e+00   1.819902e-02
  1.406955e+00    1.299760e+00   1.831977e-02
  1.409166e+00    1.299011e+00   1.831114e-02
  1.411376e+00    1.299446e+00   1.831107e-02
  1.413587e+00    1.265985e+00   1.806996e-02
  1.415797e+00    1.288498e+00   1.822636e-02
  1.418008e+00    1.271748e+00   1.806560e-02
  1.420218e+00    1.281737e+00   1.798599e-02
  1.422429e+00    1.281752e+00   1.790039e-02
  1.424639e+00    1.266640e+00   1.772996e-02
  1.426850e+00    1.291699e+00   1.784929e-02
  1.429060e+00    1.314581e+00   1.795688e-02
  1.431270e+00    1.297800e+00   1.779709e-02
  1.433481e+00    1.278567e+00   1.762365e-02
  1.435691e+00    1.258275e+00   1.744497e-02
  1.437902e+00    1.305826e+00   1.773456e-02
  1.440112e+00    1.291023e+00   1.759815e-02
  1.442323e+00    1.285074e+00   1.752429e-02
  1.444533e+00    1.302465e+00   1.760952e-02
  1.446744e+00    1.292955e+00   1.751370e-02
  1.448954e+00    1.256301e+00   1.723364e-02
  1.451165e+00    1.276956e+00   1.734490e-02
  1.453375e+00    1.260259e+00   1.720318e-02
  1.455586e+00    1.279976e+00   1.730895e-02
  1.457796e+00    1.277932e+00   1.726755e-02
  1.460006e+00    1.258936e+00   1.711159e-02
  1.462217e+00    1.236465e+00   1.693232e-02
  1.464427e+00    1.242934e+00   1.695119e-02
  1.466638e+00    1.260184e+00   1.704320e-02
  1.468848e+00    1.265244e+00   1.705208e-02
  1.471059e+00    1.249758e+00   1.692253e-02
  1.473269e+00    1.252044e+00   1.691377e-02
  1.475480e+00    1.249951e+00   1.687605e-02
  1.477690e+00    1.234823e+00   1.675008e-02
  1.479901e+00    1.258138e+00   1.688372e-02
  1.482111e+00    1.270041e+00   1.694006e-02
  1.484321e+00    1.264289e+00   1.687857e-02
  1.486532e+00    1.247887e+00   1.674656e-02
  1.488742e+00    1.258098e+00   1.679233e-02
  1.490953e+00    1.261698e+00   1.679379e-02
  1.493163e+00    1.262242e+00   1.677511e-02
  1.495374e+00    1.264765e+00   1.677038e-02
  1.497584e+00    1.258113e+00   1.670459e-02
  1.499795e+00    1.284857e+00   1.685934e-02
  1.502005e+00    1.276305e+00   1.678133e-02
  1.504216e+00    1.250868e+00   1.659229e-02
  1.506426e+00    1.226989e+00   1.641260e-02
  1.508636e+00    1.225148e+00   1.638009e-02
  1.510847e+00    1.247356e+00   1.650614e-02
  1.513057e+00    1.241685e+00   1.644364e-02
  1.515268e+00    1.264943e+00   1.657110e-02
  1.517478e+00    1.251298e+00   1.645637e-02
  1.519689e+00    1.258186e+00   1.647658e-02
  1.521899e+00    1.276093e+00   1.657011e-02
  1.524110e+00    1.280370e+00   1.657732e-02
  1.526320e+00    1.246634e+00   1.633792e-02
  1.528531e+00    1.246808e+00   1.631932e-02
  1.530741e+00    1.240906e+00   1.626158e-02
  1.532951e+00    1.240395e+00   1.623871e-02
  1.535162e+00    1.221875e+00   1.620268e-02
  1.537372e+00    1.216951e+00   1.623601e-02
  1.539583e+00    1.213500e+00   1.624674e-02
  1.541793e+00    1.235337e+00   1.639916e-02
  1.544004e+00    1.257812e+00   1.654796e-02
  1.546214e+00    1.220183e+00   1.629705e-02
  1.548425e+00    1.262363e+00   1.657657e-02
  1.550635e+00    1.260744e+00   1.657573e-02
  1.552846e+00    1.232610e+00   1.639933e-02
  1.555056e+00    1.206757e+00   1.618559e-02
  1.557266e+00    1.215787e+00   1.613686e-02
  1.559477e+00    1.236235e+00   1.621307e-02
  1.561687e+00    1.253332e+00   1.629402e-02
  1.563898e+00    1.258052e+00   1.630742e-02
  1.566108e+00    1.250906e+00   1.624505e-02
  1.568319e+00    1.262831e+00   1.630655e-02
  1.570529e+00    1.247289e+00   1.618076e-02
  1.572740e+00    1.228883e+00   1.603346e-02
  1.574950e+00    1.220364e+00   1.595175e-02
  1.577161e+00    1.228607e+00   1.598020e-02
  1.579371e+00    1.268993e+00   1.621682e-02
  1.581582e+00    1.270884e+00   1.620895e-02
  1.583792e+00    1.246635e+00   1.603552e-02
  1.586002e+00    1.228466e+00   1.590073e-02
  1.588213e+00    1.239633e+00   1.595563e-02
  1.590423e+00    1.231467e+00   1.588301e-02
  1.592634e+00    1.246539e+00   1.595827e-02
  1.594844e+00    1.253175e+00   1.597921e-02
  1.597055e+00    1.228605e+00   1.580142e-02
  1.599265e+00    1.223291e+00   1.574663e-02
  1.601476e+00    1.239002e+00   1.582712e-02
  1.603686e+00    1.235663e+00   1.578607e-02
  1.605897e+00    1.216845e+00   1.564543e-02
  1.608107e+00    1.232689e+00   1.572742e-02
  1.610317e+00    1.228919e+00   1.568413e-02
  1.612528e+00    1.217235e+00   1.559036e-02
  1.614738e+00    1.196985e+00   1.544143e-02
  1.616949e+00    1.211498e+00   1.551591e-02
  1.619159e+00    1.207018e+00   1.546860e-02
  1.621370e+00    1.214913e+00   1.550066e-02
  1.623580e+00    1.203273e+00   1.540800e-02
  1.625791e+00    1.182226e+00   1.525459e-02
  1.628001e+00    1.157379e+00   1.507551e-02
  1.630212e+00    1.168394e+00   1.512950e-02
  1.632422e+00    1.176846e+00   1.516631e-02
  1.634632e+00    1.165414e+00   1.507528e-02
  1.636843e+00    1.147504e+00   1.494168e-02
  1.639053e+00    1.148934e+00   1.493387e-02
  1.641264e+00    1.145024e+00   1.489154e-02
  1.643474e+00    1.139552e+00   1.483868e-02
  1.645685e+00    1.133257e+00   1.478116e-02
  1.647895e+00    1.128874e+00   1.473614e-02
  1.650106e+00    1.130221e+00   1.472810e-02
  1.652316e+00    1.121814e+00   1.465691e-02
  1.654527e+00    1.122738e+00   1.464643e-02
  1.656737e+00    1.108588e+00   1.453748e-02
  1.658947e+00    1.098429e+00   1.445467e-02
  1.661158e+00    1.098594e+00   1.443971e-02
  1.663368e+00    1.075440e+00   1.427106e-02
  1.665579e+00    1.089963e+00   1.435114e-02
  1.667789e+00    1.095577e+00   1.437198e-02
  1.670000e+00    1.071046e+00   1.419497e-02
  1.672210e+00    1.066762e+00   1.415097e-02
  1.674421e+00    1.075523e+00   1.419384e-02
  1.676631e+00    1.102394e+00   1.435417e-02
  1.678842e+00    1.162025e+00   1.472105e-02
  1.681052e+00    1.201591e+00   1.495348e-02
  1.683263e+00    1.158668e+00   1.466837e-02
  1.685473e+00    1.121478e+00   1.441565e-02
  1.687683e+00    1.060139e+00   1.400062e-02
  1.689894e+00    1.047053e+00   1.389840e-02
  1.692104e+00    1.040640e+00   1.384111e-02
  1.694315e+00    1.051072e+00   1.389593e-02
  1.696525e+00    1.056619e+00   1.391751e-02
  1.698736e+00    1.021842e+00   1.367205e-02
  1.700946e+00    1.030285e+00   1.371346e-02
  1.703157e+00    1.026713e+00   1.367527e-02
  1.705367e+00    1.043942e+00   1.377507e-02
  1.707578e+00    1.030015e+00   1.366847e-02
  1.709788e+00    1.032619e+00   1.367168e-02
  1.711998e+00    1.030237e+00   1.364100e-02
  1.714209e+00    1.033769e+00   1.364995e-02
  1.716419e+00    1.044642e+00   1.370723e-02
  1.718630e+00    1.038251e+00   1.365090e-02
  1.720840e+00    1.090545e+00   1.397584e-02
  1.723051e+00    1.131888e+00   1.422374e-02
  1.725261e+00    1.087194e+00   1.392494e-02
  1.727472e+00    1.048087e+00   1.365783e-02
  1.729682e+00    1.040642e+00   1.359560e-02
  1.731893e+00    1.048332e+00   1.363158e-02
  1.734103e+00    1.048420e+00   1.361811e-02
  1.736313e+00    1.045089e+00   1.358217e-02
  1.738524e+00    1.019634e+00   1.340180e-02
  1.740734e+00    1.005620e+00   1.329563e-02
  1.742945e+00    9.977242e-01   1.322988e-02
  1.745155e+00    9.725227e-01   1.304840e-02
  1.747366e+00    9.609378e-01   1.295684e-02
  1.749576e+00    9.620369e-01   1.295073e-02
  1.751787e+00    9.639485e-01   1.295039e-02
  1.753997e+00    9.594695e-01   1.290701e-02
  1.756208e+00    9.542452e-01   1.285878e-02
  1.758418e+00    9.590479e-01   1.287805e-02
  1.760628e+00    9.609826e-01   1.287776e-02
  1.762839e+00    9.668458e-01   1.290375e-02
  1.765049e+00    9.516195e-01   1.278870e-02
  1.767260e+00    9.313968e-01   1.263946e-02
  1.769470e+00    9.385443e-01   1.267498e-02
  1.771681e+00    9.467323e-01   1.271706e-02
  1.773891e+00    9.164895e-01   1.249949e-02
  1.776102e+00    9.064335e-01   1.241811e-02
  1.778312e+00    9.324178e-01   1.258219e-02
  1.780523e+00    9.837798e-01   1.291106e-02
  1.782733e+00    1.015975e+00   1.310747e-02
  1.784944e+00    9.877526e-01   1.291089e-02
  1.787154e+00    9.398108e-01   1.258110e-02
  1.789364e+00    9.231191e-01   1.245643e-02
  1.791575e+00    9.078506e-01   1.234057e-02
  1.793785e+00    9.157119e-01   1.238153e-02
  1.795996e+00    9.134748e-01   1.235393e-02
  1.798206e+00    9.530375e-01   1.260585e-02
  1.800417e+00    9.881705e-01   1.282296e-02
  1.802627e+00    9.632486e-01   1.264797e-02
  1.804838e+00    9.678005e-01   1.266533e-02
  1.807048e+00    9.995381e-01   1.285787e-02
  1.809259e+00    1.006283e+00   1.288687e-02
  1.811469e+00    9.595387e-01   1.256861e-02
  1.813679e+00    9.046144e-01   1.218858e-02
  1.815890e+00    8.787481e-01   1.199844e-02
  1.818100e+00    8.936042e-01   1.208437e-02
  1.820311e+00    8.723513e-01   1.192523e-02
  1.822521e+00    8.837879e-01   1.198833e-02
  1.824732e+00    8.674697e-01   1.186253e-02
  1.826942e+00    8.705178e-01   1.187112e-02
  1.829153e+00    8.614164e-01   1.179738e-02
  1.831363e+00    8.873215e-01   1.196137e-02
  1.833574e+00    8.802205e-01   1.190177e-02
  1.835784e+00    8.681338e-01   1.180841e-02
  1.837994e+00    8.689032e-01   1.180198e-02
  1.840205e+00    8.881801e-01   1.192094e-02
  1.842415e+00    8.575199e-01   1.170171e-02
  1.844626e+00    8.495882e-01   1.163602e-02
  1.846836e+00    8.421773e-01   1.157393e-02
  1.849047e+00    8.383355e-01   1.153607e-02
  1.851257e+00    8.518854e-01   1.161940e-02
  1.853468e+00    8.571825e-01   1.164671e-02
  1.855678e+00    8.579736e-01   1.164323e-02
  1.857889e+00    8.238984e-01   1.140133e-02
  1.860099e+00    8.611022e-01   1.164724e-02
  1.862309e+00    8.750250e-01   1.173245e-02
  1.864520e+00    8.667769e-01   1.166838e-02
  1.866730e+00    8.567877e-01   1.159157e-02
  1.868941e+00    8.341818e-01   1.142679e-02
  1.871151e+00    8.443611e-01   1.148496e-02
  1.873362e+00    8.325451e-01   1.139310e-02
  1.875572e+00    8.440772e-01   1.146080e-02
  1.877783e+00    8.709488e-01   1.163025e-02
  1.879993e+00    8.450993e-01   1.144521e-02
  1.882204e+00    8.502190e-01   1.146889e-02
  1.884414e+00    8.206488e-01   1.125677e-02
  1.886624e+00    8.278524e-01   1.129509e-02
  1.888835e+00    8.339627e-01   1.132577e-02
  1.891045e+00    8.364233e-01   1.133160e-02
  1.893256e+00    8.489009e-01   1.140467e-02
  1.895466e+00    8.370878e-01   1.131386e-02
  1.897677e+00    8.612463e-01   1.146487e-02
  1.899887e+00    8.678674e-01   1.149765e-02
  1.902098e+00    8.815774e-01   1.157696e-02
  1.904308e+00    8.792343e-01   1.155067e-02
  1.906519e+00    8.750477e-01   1.151202e-02
  1.908729e+00    8.639154e-01   1.142773e-02
  1.910940e+00    8.797294e-01   1.152035e-02
  1.913150e+00    9.668939e-01   1.206610e-02
  1.915360e+00    1.049989e+00   1.256197e-02
  1.917571e+00    9.819775e-01   1.213649e-02
  1.919781e+00    8.883164e-01   1.153208e-02
  1.921992e+00    8.428051e-01   1.122199e-02
  1.924202e+00    8.481163e-01   1.124632e-02
  1.926413e+00    8.413516e-01   1.119093e-02
  1.928623e+00    8.393769e-01   1.116708e-02
  1.930834e+00    8.352330e-01   1.112892e-02
  1.933044e+00    8.075401e-01   1.093222e-02
  1.935255e+00    8.018051e-01   1.088306e-02
  1.937465e+00    8.116208e-01   1.093905e-02
  1.939675e+00    7.985405e-01   1.083975e-02
  1.941886e+00    8.096176e-01   1.090436e-02
  1.944096e+00    8.090494e-01   1.089033e-02
  1.946307e+00    7.852696e-01   1.071884e-02
  1.948517e+00    7.908799e-01   1.074669e-02
  1.950728e+00    7.797938e-01   1.066097e-02
  1.952938e+00    7.861884e-01   1.069457e-02
  1.955149e+00    7.929605e-01   1.073033e-02
  1.957359e+00    7.963073e-01   1.074290e-02
  1.959570e+00    7.873398e-01   1.067143e-02
  1.961780e+00    7.947459e-01   1.071157e-02
  1.963990e+00    8.049097e-01   1.076964e-02
  1.966201e+00    8.023242e-01   1.074221e-02
  1.968411e+00    7.884687e-01   1.063890e-02
  1.970622e+00    7.942008e-01   1.066736e-02
  1.972832e+00    7.922830e-01   1.064449e-02
  1.975043e+00    7.929489e-01   1.063886e-02
  1.977253e+00    7.994335e-01   1.067224e-02
  1.979464e+00    7.945217e-01   1.062930e-02
  1.981674e+00    8.001889e-01   1.065676e-02
  1.983885e+00    7.857503e-01   1.055015e-02
  1.986095e+00    7.728012e-01   1.045318e-02
  1.988305e+00    7.880825e-01   1.054607e-02
  1.990516e+00    8.031713e-01   1.063649e-02
  1.992726e+00    7.818657e-01   1.048477e-02
  1.994937e+00    7.809205e-01   1.046829e-02
  1.997147e+00    7.599352e-01   1.031702e-02
  1.999358e+00    7.753552e-01   1.041132e-02
  2.001568e+00    7.636822e-01   1.032192e-02
  2.003779e+00    7.745373e-01   1.038307e-02
  2.005989e+00    7.732732e-01   1.036258e-02
  2.008200e+00    7.635738e-01   1.028589e-02
  2.010410e+00    7.817814e-01   1.039596e-02
  2.012621e+00    7.808707e-01   1.037811e-02
  2.014831e+00    7.690138e-01   1.028755e-02
  2.017041e+00    7.529521e-01   1.016924e-02
  2.019252e+00    7.759719e-01   1.031350e-02
  2.021462e+00    7.625845e-01   1.021466e-02
  2.023673e+00    7.692623e-01   1.024987e-02
  2.025883e+00    7.579290e-01   1.016459e-02
  2.028094e+00    7.517606e-01   1.011357e-02
  2.030304e+00    7.548721e-01   1.012499e-02
  2.032515e+00    7.596210e-01   1.014749e-02
  2.034725e+00    7.526477e-01   1.009141e-02
  2.036936e+00    7.584336e-01   1.012078e-02
  2.039146e+00    7.595845e-01   1.011887e-02
  2.041356e+00    7.603373e-01   1.011422e-02
  2.043567e+00    7.450024e-01   1.000246e-02
  2.045777e+00    7.591659e-01   1.008782e-02
  2.047988e+00    7.619870e-01   1.009714e-02
  2.050198e+00    7.426757e-01   9.960004e-03
  2.052409e+00    7.515309e-01   1.001155e-02
  2.054619e+00    7.524711e-01   1.001043e-02
  2.056830e+00    7.535920e-01   1.001070e-02
  2.059040e+00    7.567281e-01   1.002397e-02
  2.061251e+00    7.610357e-01   1.004513e-02
  2.063461e+00    7.686883e-01   1.008785e-02
  2.065671e+00    7.651383e-01   1.005569e-02
  2.067882e+00    7.580848e-01   1.000019e-02
  2.070092e+00    7.658420e-01   1.004191e-02
  2.072303e+00    7.416917e-01   9.873224e-03
  2.074513e+00    7.303794e-01   9.788386e-03
  2.076724e+00    7.295293e-01   9.773330e-03
  2.078934e+00    7.233230e-01   9.722786e-03
  2.081145e+00    7.319276e-01   9.771429e-03
  2.083355e+00    7.262612e-01   9.724458e-03
  2.085566e+00    7.341326e-01   9.768134e-03
  2.087776e+00    7.372526e-01   9.779400e-03
  2.089986e+00    7.205253e-01   9.659130e-03
  2.092197e+00    7.212207e-01   9.654932e-03
  2.094407e+00    7.113305e-01   9.579445e-03
  2.096618e+00    7.153121e-01   9.597427e-03
  2.098828e+00    7.184820e-01   9.609466e-03
  2.101039e+00    7.138323e-01   9.569457e-03
  2.103249e+00    7.321626e-01   9.682863e-03
  2.105460e+00    7.228034e-01   9.611827e-03
  2.107670e+00    7.240365e-01   9.611293e-03
  2.109881e+00    7.305694e-01   9.645381e-03
  2.112091e+00    7.251576e-01   9.600615e-03
  2.114301e+00    7.183132e-01   9.546441e-03
  2.116512e+00    7.293600e-01   9.610753e-03
  2.118722e+00    7.030945e-01   9.427401e-03
  2.120933e+00    7.030888e-01   9.418611e-03
  2.123143e+00    7.118521e-01   9.468246e-03
  2.125354e+00    7.105211e-01   9.450916e-03
  2.127564e+00    7.191327e-01   9.499273e-03
  2.129775e+00    7.060269e-01   9.403637e-03
  2.131985e+00    7.166999e-01   9.465383e-03
  2.134196e+00    7.009367e-01   9.352199e-03
  2.136406e+00    7.058871e-01   9.376461e-03
  2.138617e+00    7.018925e-01   9.341490e-03
  2.140827e+00    7.048734e-01   9.377313e-03
  2.143037e+00    7.048033e-01   9.422260e-03
  2.145248e+00    6.877650e-01   9.329387e-03
  2.147458e+00    6.952130e-01   9.394800e-03
  2.149669e+00    7.054789e-01   9.475787e-03
  2.151879e+00    6.926785e-01   9.398590e-03
  2.154090e+00    6.960816e-01   9.428938e-03
  2.156300e+00    6.911347e-01   9.401936e-03
  2.158511e+00    6.864278e-01   9.375105e-03
  2.160721e+00    6.951446e-01   9.439267e-03
  2.162932e+00    6.907890e-01   9.413351e-03
  2.165142e+00    7.033352e-01   9.501494e-03
  2.167352e+00    6.883488e-01   9.402627e-03
  2.169563e+00    6.886066e-01   9.406316e-03
  2.171773e+00    6.870425e-01   9.398070e-03
  2.173984e+00    6.923787e-01   9.435912e-03
  2.176194e+00    6.841139e-01   9.380610e-03
  2.178405e+00    6.998302e-01   9.488454e-03
  2.180615e+00    6.927862e-01   9.441257e-03
  2.182826e+00    6.928714e-01   9.442533e-03
  2.185036e+00    6.928939e-01   9.442722e-03
  2.187247e+00    6.919274e-01   9.436096e-03
  2.189457e+00    6.802372e-01   9.355632e-03
  2.191667e+00    6.881310e-01   9.409581e-03
  2.193878e+00    6.909474e-01   9.428262e-03
  2.196088e+00    6.760601e-01   9.325447e-03
  2.198299e+00    6.874957e-01   9.402892e-03
  2.200509e+00    6.791966e-01   9.344922e-03
  2.202720e+00    6.764693e-01   9.324997e-03
  2.204930e+00    6.715422e-01   9.289727e-03
  2.207141e+00    6.821016e-01   9.361374e-03
  2.209351e+00    6.772451e-01   9.326103e-03
  2.211562e+00    6.954672e-01   9.449098e-03
  2.213772e+00    6.781155e-01   9.274957e-03
  2.215982e+00    6.793774e-01   9.239248e-03
  2.218193e+00    6.757793e-01   9.185116e-03
  2.220403e+00    6.628342e-01   9.072351e-03
  2.222614e+00    6.759968e-01   9.140991e-03
  2.224824e+00    6.742223e-01   9.109612e-03
  2.227035e+00    6.598579e-01   8.994767e-03
  2.229245e+00    6.588797e-01   8.971293e-03
  2.231456e+00    6.533916e-01   8.918440e-03
  2.233666e+00    6.730972e-01   9.036797e-03
  2.235877e+00    6.854072e-01   9.104648e-03
  2.238087e+00    6.807857e-01   9.060319e-03
  2.240298e+00    6.838054e-01   9.066461e-03
  2.242508e+00    6.776646e-01   9.010451e-03
  2.244718e+00    6.765295e-01   8.986977e-03
  2.246929e+00    6.872970e-01   9.043603e-03
  2.249139e+00    6.934188e-01   9.071155e-03
  2.251350e+00    7.037823e-01   9.126677e-03
  2.253560e+00    6.809966e-01   8.966041e-03
  2.255771e+00    6.779547e-01   8.934466e-03
  2.257981e+00    6.699300e-01   8.870210e-03
  2.260192e+00    6.685654e-01   8.850042e-03
  2.262402e+00    6.619895e-01   8.795563e-03
  2.264613e+00    6.657792e-01   8.809837e-03
  2.266823e+00    6.617934e-01   8.773076e-03
  2.269033e+00    6.663234e-01   8.792609e-03
  2.271244e+00    7.118919e-01   9.077492e-03
  2.273454e+00    8.110343e-01   9.677622e-03
  2.275665e+00    9.130706e-01   1.025630e-02
  2.277875e+00    8.510265e-01   9.890521e-03
  2.280086e+00    7.335256e-01   9.171802e-03
  2.282296e+00    6.705127e-01   8.759478e-03
  2.284507e+00    6.603758e-01   8.682856e-03
  2.286717e+00    6.767737e-01   8.780392e-03
  2.288928e+00    6.675905e-01   8.710688e-03
  2.291138e+00    6.502041e-01   8.587137e-03
  2.293348e+00    6.387866e-01   8.501984e-03
  2.295559e+00    6.390371e-01   8.494448e-03
  2.297769e+00    6.519846e-01   8.570843e-03
  2.299980e+00    6.534742e-01   8.571294e-03
  2.302190e+00    6.572728e-01   8.587015e-03
  2.304401e+00    6.536521e-01   8.554011e-03
  2.306611e+00    6.496686e-01   8.518715e-03
  2.308822e+00    6.487641e-01   8.504417e-03
  2.311032e+00    6.506580e-01   8.510358e-03
  2.313243e+00    6.591191e-01   8.559207e-03
  2.315453e+00    6.497447e-01   8.490553e-03
  2.317663e+00    6.416962e-01   8.428705e-03
  2.319874e+00    6.444595e-01   8.438123e-03
  2.322084e+00    6.482944e-01   8.454203e-03
  2.324295e+00    6.382980e-01   8.380603e-03
  2.326505e+00    6.375729e-01   8.366834e-03
  2.328716e+00    6.274021e-01   8.291383e-03
  2.330926e+00    6.359012e-01   8.338597e-03
  2.333137e+00    6.470256e-01   8.402812e-03
  2.335347e+00    6.516127e-01   8.423620e-03
  2.337558e+00    6.454456e-01   8.375386e-03
  2.339768e+00    6.463890e-01   8.372913e-03
  2.341979e+00    6.418176e-01   8.334839e-03
  2.344189e+00    6.418389e-01   8.326572e-03
  2.346399e+00    6.398431e-01   8.305099e-03
  2.348610e+00    6.289310e-01   8.225559e-03
  2.350820e+00    6.304327e-01   8.227210e-03
  2.353031e+00    6.359472e-01   8.254833e-03
  2.355241e+00    6.366669e-01   8.251403e-03
  2.357452e+00    6.301579e-01   8.200742e-03
  2.359662e+00    6.324424e-01   8.207337e-03
  2.361873e+00    6.252239e-01   8.152183e-03
  2.364083e+00    6.262065e-01   8.150606e-03
  2.366294e+00    6.209852e-01   8.108508e-03
  2.368504e+00    6.066040e-01   8.006104e-03
  2.370714e+00    6.244161e-01   8.114748e-03
  2.372925e+00    6.205344e-01   8.081474e-03
  2.375135e+00    6.226097e-01   8.086923e-03
  2.377346e+00    6.191302e-01   8.056383e-03
  2.379556e+00    6.274176e-01   8.102193e-03
  2.381767e+00    6.101319e-01   7.982018e-03
  2.383977e+00    6.207842e-01   8.043461e-03
  2.386188e+00    6.174579e-01   8.013972e-03
  2.388398e+00    6.230447e-01   8.042178e-03
  2.390609e+00    6.181889e-01   8.003022e-03
  2.392819e+00    6.179018e-01   7.993395e-03
  2.395029e+00    6.102967e-01   7.936425e-03
  2.397240e+00    6.063107e-01   7.902652e-03
  2.399450e+00    5.998268e-01   7.852553e-03
  2.401661e+00    5.986564e-01   7.837298e-03
  2.403871e+00    6.054928e-01   7.874190e-03
  2.406082e+00    6.161087e-01   7.935446e-03
  2.408292e+00    6.004098e-01   7.825973e-03
  2.410503e+00    5.983418e-01   7.805050e-03
  2.412713e+00    5.954779e-01   7.778622e-03
  2.414924e+00    6.024455e-01   7.816536e-03
  2.417134e+00    6.103779e-01   7.860163e-03
  2.419344e+00    5.950969e-01   7.753793e-03
  2.421555e+00    5.781016e-01   7.634917e-03
  2.423765e+00    5.889493e-01   7.698854e-03
  2.425976e+00    5.993838e-01   7.758978e-03
  2.428186e+00    5.970757e-01   7.736797e-03
  2.430397e+00    5.891190e-01   7.677673e-03
  2.432607e+00    5.955997e-01   7.712476e-03
  2.434818e+00    6.009262e-01   7.739332e-03
  2.437028e+00    5.864614e-01   7.638515e-03
  2.439239e+00    5.803902e-01   7.591298e-03
  2.441449e+00    5.848953e-01   7.613556e-03
  2.443659e+00    5.758099e-01   7.546930e-03
  2.445870e+00    5.831661e-01   7.607172e-03
  2.448080e+00    5.704665e-01   7.558322e-03
  2.450291e+00    5.691962e-01   7.566383e-03
  2.452501e+00    5.693387e-01   7.578425e-03
  2.454712e+00    5.688478e-01   7.583556e-03
  2.456922e+00    5.746787e-01   7.628961e-03
  2.459133e+00    5.669507e-01   7.582933e-03
  2.461343e+00    5.640420e-01   7.567795e-03
  2.463554e+00    5.618553e-01   7.556576e-03
  2.465764e+00    5.543351e-01   7.508933e-03
  2.467975e+00    5.621902e-01   7.564253e-03
  2.470185e+00    5.477427e-01   7.468652e-03
  2.472395e+00    5.561644e-01   7.527059e-03
  2.474606e+00    5.550847e-01   7.521328e-03
  2.476816e+00    5.543053e-01   7.516780e-03
  2.479027e+00    5.425833e-01   7.437720e-03
  2.481237e+00    5.467063e-01   7.466203e-03
  2.483448e+00    5.486891e-01   7.480027e-03
  2.485658e+00    5.375008e-01   7.403230e-03
  2.487869e+00    5.333649e-01   7.374735e-03
  2.490079e+00    5.438716e-01   7.446495e-03
  2.492290e+00    5.411525e-01   7.427425e-03
  2.494500e+00    5.356467e-01   7.388818e-03
  2.496710e+00    5.325842e-01   7.366962e-03
  2.498921e+00    5.375873e-01   7.400488e-03
  2.501131e+00    5.353270e-01   7.383982e-03
  2.503342e+00    5.231000e-01   7.297895e-03
  2.505552e+00    5.458766e-01   7.453939e-03
  2.507763e+00    5.483173e-01   7.469151e-03
  2.509973e+00    5.301509e-01   7.343002e-03
  2.512184e+00    5.129178e-01   7.221061e-03
  2.514394e+00    5.287697e-01   7.322398e-03
  2.516605e+00    5.350188e-01   7.318127e-03
  2.518815e+00    5.132105e-01   7.139440e-03
  2.521025e+00    5.433975e-01   7.325069e-03
  2.523236e+00    5.484335e-01   7.340592e-03
  2.525446e+00    5.415754e-01   7.278709e-03
  2.527657e+00    5.471984e-01   7.301480e-03
  2.529867e+00    5.272080e-01   7.152688e-03
  2.532078e+00    5.214505e-01   7.098505e-03
  2.534288e+00    5.333536e-01   7.165076e-03
  2.536499e+00    5.373313e-01   7.179668e-03
  2.538709e+00    5.199953e-01   7.051955e-03
  2.540920e+00    5.369866e-01   7.155447e-03
  2.543130e+00    5.250596e-01   7.065191e-03
  2.545340e+00    5.124496e-01   6.969863e-03
  2.547551e+00    5.180200e-01   6.997756e-03
  2.549761e+00    5.213042e-01   7.010306e-03
  2.551972e+00    5.308130e-01   7.064545e-03
  2.554182e+00    5.453879e-01   7.151445e-03
  2.556393e+00    5.957383e-01   7.464573e-03
  2.558603e+00    5.752554e-01   7.325634e-03
  2.560814e+00    5.209795e-01   6.962745e-03
  2.563024e+00    5.355250e-01   7.050545e-03
  2.565235e+00    5.192033e-01   6.932790e-03
  2.567445e+00    5.133461e-01   6.884042e-03
  2.569656e+00    5.099964e-01   6.851892e-03
  2.571866e+00    5.174704e-01   6.892555e-03
  2.574076e+00    5.205692e-01   6.903846e-03
  2.576287e+00    5.218579e-01   6.904044e-03
  2.578497e+00    5.013322e-01   6.759162e-03
  2.580708e+00    5.106822e-01   6.813856e-03
  2.582918e+00    5.021701e-01   6.749159e-03
  2.585129e+00    5.112154e-01   6.801948e-03
  2.587339e+00    4.936681e-01   6.676671e-03
  2.589550e+00    5.079451e-01   6.765002e-03
  2.591760e+00    5.183823e-01   6.826365e-03
  2.593971e+00    5.154768e-01   6.799672e-03
  2.596181e+00    5.099367e-01   6.756812e-03
  2.598391e+00    5.014081e-01   6.694931e-03
  2.600602e+00    4.947909e-01   6.644790e-03
  2.602812e+00    4.931338e-01   6.626206e-03
  2.605023e+00    5.195771e-01   6.794320e-03
  2.607233e+00    5.150130e-01   6.757224e-03
  2.609444e+00    5.156437e-01   6.754073e-03
  2.611654e+00    5.238847e-01   6.800388e-03
  2.613865e+00    5.009943e-01   6.643165e-03
  2.616075e+00    5.098280e-01   6.694312e-03
  2.618286e+00    5.113412e-01   6.697192e-03
  2.620496e+00    5.124845e-01   6.697931e-03
  2.622706e+00    5.252886e-01   6.775234e-03
  2.624917e+00    5.191053e-01   6.729313e-03
  2.627127e+00    5.127380e-01   6.682120e-03
  2.629338e+00    5.066096e-01   6.636080e-03
  2.631548e+00    4.980384e-01   6.573559e-03
  2.633759e+00    4.984911e-01   6.569419e-03
  2.635969e+00    5.088045e-01   6.630300e-03
  2.638180e+00    5.099986e-01   6.631037e-03
  2.640390e+00    5.047597e-01   6.590269e-03
  2.642601e+00    4.999858e-01   6.552366e-03
  2.644811e+00    5.013525e-01   6.554231e-03
  2.647021e+00    4.884107e-01   6.462604e-03
  2.649232e+00    4.923775e-01   6.482103e-03
  2.651442e+00    5.020984e-01   6.539281e-03
  2.653653e+00    4.881666e-01   6.441183e-03
  2.655863e+00    5.090964e-01   6.571061e-03
  2.658074e+00    4.940436e-01   6.466626e-03
  2.660284e+00    4.885826e-01   6.424455e-03
  2.662495e+00    5.058113e-01   6.529941e-03
  2.664705e+00    5.069361e-01   6.530575e-03
  2.666916e+00    5.063056e-01   6.519977e-03
  2.669126e+00    4.944690e-01   6.436882e-03
  2.671337e+00    4.934471e-01   6.423639e-03
  2.673547e+00    4.976625e-01   6.444630e-03
  2.675757e+00    4.909837e-01   6.394815e-03
  2.677968e+00    4.992112e-01   6.441615e-03
  2.680178e+00    4.952593e-01   6.409661e-03
  2.682389e+00    4.879227e-01   6.355643e-03
  2.684599e+00    4.790133e-01   6.291266e-03
  2.686810e+00    4.803142e-01   6.293246e-03
  2.689020e+00    4.988085e-01   6.406948e-03
  2.691231e+00    5.064391e-01   6.449355e-03
  2.693441e+00    4.925478e-01   6.354169e-03
  2.695652e+00    5.032576e-01   6.416258e-03
  2.697862e+00    4.777045e-01   6.244986e-03
  2.700072e+00    4.800994e-01   6.254585e-03
  2.702283e+00    4.966499e-01   6.355215e-03
  2.704493e+00    4.921291e-01   6.319927e-03
  2.706704e+00    4.842690e-01   6.262883e-03
  2.708914e+00    4.822873e-01   6.244110e-03
  2.711125e+00    4.926713e-01   6.304702e-03
  2.713335e+00    4.872186e-01   6.263628e-03
  2.715546e+00    4.808636e-01   6.216219e-03
  2.717756e+00    4.932092e-01   6.289578e-03
  2.719967e+00    4.876354e-01   6.247730e-03
  2.722177e+00    4.870749e-01   6.237998e-03
  2.724387e+00    4.776250e-01   6.171147e-03
  2.726598e+00    4.740921e-01   6.142270e-03
  2.728808e+00    4.767161e-01   6.153166e-03
  2.731019e+00    4.729746e-01   6.122918e-03
  2.733229e+00    4.846230e-01   6.192031e-03
  2.735440e+00    4.830708e-01   6.175869e-03
  2.737650e+00    4.895208e-01   6.210904e-03
  2.739861e+00    4.765018e-01   6.121722e-03
  2.742071e+00    4.839419e-01   6.163588e-03
  2.744282e+00    4.754642e-01   6.103160e-03
  2.746492e+00    4.729109e-01   6.080778e-03
  2.748702e+00    4.716033e-01   6.066520e-03
  2.750913e+00    4.865415e-01   6.156025e-03
  2.753123e+00    4.893870e-01   6.167838e-03
  2.755334e+00    4.861850e-01   6.141517e-03
  2.757544e+00    4.739766e-01   6.058229e-03
  2.759755e+00    4.860051e-01   6.128683e-03
  2.761965e+00    4.909069e-01   6.153486e-03
  2.764176e+00    4.735718e-01   6.037910e-03
  2.766386e+00    4.697566e-01   6.007806e-03
  2.768597e+00    4.753079e-01   6.037357e-03
  2.770807e+00    4.679105e-01   5.984397e-03
  2.773017e+00    4.721313e-01   6.005391e-03
  2.775228e+00    4.810508e-01   6.056048e-03
  2.777438e+00    4.779026e-01   6.030408e-03
  2.779649e+00    4.818826e-01   6.049551e-03
  2.781859e+00    4.798121e-01   6.030762e-03
  2.784070e+00    4.791894e-01   6.020971e-03
  2.786280e+00    4.829443e-01   6.038712e-03
  2.788491e+00    4.826365e-01   6.030928e-03
  2.790701e+00    4.636776e-01   5.905722e-03
  2.792912e+00    4.677460e-01   5.925639e-03
  2.795122e+00    4.791922e-01   5.991958e-03
  2.797333e+00    4.911403e-01   6.060554e-03
  2.799543e+00    4.685374e-01   5.913657e-03
  2.801753e+00    4.675606e-01   5.901658e-03
  2.803964e+00    4.808379e-01   5.979168e-03
  2.806174e+00    4.792400e-01   5.963066e-03
  2.808385e+00    4.780901e-01   5.949077e-03
  2.810595e+00    4.731638e-01   5.911508e-03
  2.812806e+00    4.662097e-01   5.861338e-03
  2.815016e+00    4.625098e-01   5.833361e-03
  2.817227e+00    4.673437e-01   5.889496e-03
  2.819437e+00    4.685976e-01   5.908423e-03
  2.821648e+00    4.682337e-01   5.908401e-03
  2.823858e+00    4.764070e-01   5.965097e-03
  2.826068e+00    4.809100e-01   5.998248e-03
  2.828279e+00    4.736062e-01   5.956576e-03
  2.830489e+00    4.622339e-01   5.887926e-03
  2.832700e+00    4.672528e-01   5.922333e-03
  2.834910e+00    4.761735e-01   5.980679e-03
  2.837121e+00    4.747462e-01   5.973432e-03
  2.839331e+00    4.736384e-01   5.967696e-03
  2.841542e+00    4.705377e-01   5.949138e-03
  2.843752e+00    4.720952e-01   5.959759e-03
  2.845963e+00    4.741202e-01   5.972934e-03
  2.848173e+00    4.680819e-01   5.934861e-03
  2.850383e+00    4.699562e-01   5.947031e-03
  2.852594e+00    4.680534e-01   5.934889e-03
  2.854804e+00    4.705188e-01   5.950003e-03
  2.857015e+00    4.582155e-01   5.871265e-03
  2.859225e+00    4.601256e-01   5.883232e-03
  2.861436e+00    4.622986e-01   5.896461e-03
  2.863646e+00    4.689339e-01   5.938672e-03
  2.865857e+00    4.586821e-01   5.873734e-03
  2.868067e+00    4.586858e-01   5.873970e-03
  2.870278e+00    4.594318e-01   5.878398e-03
  2.872488e+00    4.587112e-01   5.872629e-03
  2.874698e+00    4.548731e-01   5.846986e-03
  2.876909e+00    4.613639e-01   5.887209e-03
  2.879119e+00    4.559961e-01   5.851267e-03
  2.881330e+00    4.652079e-01   5.908603e-03
  2.883540e+00    4.734276e-01   5.959150e-03
  2.885751e+00    4.527844e-01   5.826179e-03
  2.887961e+00    4.567083e-01   5.849465e-03
  2.890172e+00    4.775565e-01   5.979874e-03
  2.892382e+00    4.527571e-01   5.820756e-03
  2.894593e+00    4.532669e-01   5.822218e-03
  2.896803e+00    4.665485e-01   5.904904e-03
  2.899014e+00    4.618050e-01   5.872913e-03
  2.901224e+00    4.595599e-01   5.856618e-03
  2.903434e+00    4.552704e-01   5.827294e-03
  2.905645e+00    4.490206e-01   5.784954e-03
  2.907855e+00    4.565707e-01   5.831290e-03
  2.910066e+00    4.511227e-01   5.794344e-03
  2.912276e+00    4.585335e-01   5.839612e-03
  2.914487e+00    4.559855e-01   5.820930e-03
  2.916697e+00    4.553014e-01   5.814329e-03
  2.918908e+00    4.545843e-01   5.807761e-03
  2.921118e+00    4.687435e-01   5.894776e-03
  2.923329e+00    4.682708e-01   5.889492e-03
  2.925539e+00    4.571406e-01   5.816780e-03
  2.927749e+00    4.639571e-01   5.857660e-03
  2.929960e+00    4.584121e-01   5.819775e-03
  2.932170e+00    4.629793e-01   5.846336e-03
  2.934381e+00    4.662062e-01   5.864223e-03
  2.936591e+00    4.548516e-01   5.789805e-03
  2.938802e+00    4.531412e-01   5.776195e-03
  2.941012e+00    4.519062e-01   5.765988e-03
  2.943223e+00    4.572505e-01   5.797293e-03
  2.945433e+00    4.488413e-01   5.740028e-03
  2.947644e+00    4.578577e-01   5.793233e-03
  2.949854e+00    4.630535e-01   5.821728e-03
  2.952064e+00    4.508943e-01   5.740574e-03
  2.954275e+00    4.577564e-01   5.779658e-03
  2.956485e+00    4.693700e-01   5.848264e-03
  2.958696e+00    4.589220e-01   5.778441e-03
  2.960906e+00    4.556766e-01   5.753756e-03
  2.963117e+00    4.542403e-01   5.740215e-03
  2.965327e+00    4.493943e-01   5.705632e-03
  2.967538e+00    4.486378e-01   5.697934e-03
  2.969748e+00    4.444535e-01   5.668505e-03
  2.971959e+00    4.564755e-01   5.741515e-03
  2.974169e+00    4.624513e-01   5.776368e-03
  2.976379e+00    4.703071e-01   5.822263e-03
  2.978590e+00    4.669446e-01   5.798238e-03
  2.980800e+00    4.503422e-01   5.691433e-03
  2.983011e+00    4.484147e-01   5.676446e-03
  2.985221e+00    4.586715e-01   5.737840e-03
  2.987432e+00    4.644949e-01   5.771010e-03
  2.989642e+00    4.685622e-01   5.793538e-03
  2.991853e+00    4.665307e-01   5.777659e-03
  2.994063e+00    4.546438e-01   5.700661e-03
  2.996274e+00    4.547947e-01   5.698425e-03
  2.998484e+00    4.730059e-01   5.808625e-03
  3.000694e+00    4.621672e-01   5.738219e-03
  3.002905e+00    4.755606e-01   5.817747e-03
  3.005115e+00    4.599394e-01   5.718418e-03
  3.007326e+00    4.643084e-01   5.742301e-03
  3.009536e+00    4.554317e-01   5.683895e-03
  3.011747e+00    4.536749e-01   5.670007e-03
  3.013957e+00    4.554905e-01   5.678140e-03
  3.016168e+00    4.551279e-01   5.672623e-03
  3.018378e+00    4.487700e-01   5.629835e-03
  3.020589e+00    4.532955e-01   5.654931e-03
  3.022799e+00    4.516203e-01   5.641312e-03
  3.025010e+00    4.569417e-01   5.671197e-03
  3.027220e+00    4.516353e-01   5.635068e-03
  3.029430e+00    4.447988e-01   5.589038e-03
  3.031641e+00    4.542014e-01   5.644643e-03
  3.033851e+00    4.583084e-01   5.666573e-03
  3.036062e+00    4.613309e-01   5.682421e-03
  3.038272e+00    4.504884e-01   5.611675e-03
  3.040483e+00    4.384224e-01   5.532842e-03
  3.042693e+00    4.432634e-01   5.560055e-03
  3.044904e+00    4.486800e-01   5.589921e-03
  3.047114e+00    4.470498e-01   5.574967e-03
  3.049325e+00    4.482439e-01   5.578022e-03
  3.051535e+00    4.448366e-01   5.552421e-03
  3.053745e+00    4.577280e-01   5.627507e-03
  3.055956e+00    4.658151e-01   5.672370e-03
  3.058166e+00    4.469377e-01   5.552004e-03
  3.060377e+00    4.290545e-01   5.435125e-03
  3.062587e+00    4.419837e-01   5.511817e-03
  3.064798e+00    4.438135e-01   5.518993e-03
  3.067008e+00    4.485446e-01   5.543603e-03
  3.069219e+00    4.472095e-01   5.530862e-03
  3.071429e+00    4.403156e-01   5.484574e-03
  3.073640e+00    4.464389e-01   5.519270e-03
  3.075850e+00    4.492006e-01   5.532719e-03
  3.078060e+00    4.627243e-01   5.612243e-03
  3.080271e+00    4.483463e-01   5.520899e-03
  3.082481e+00    4.380739e-01   5.453865e-03
  3.084692e+00    4.424411e-01   5.477626e-03
  3.086902e+00    4.457604e-01   5.494917e-03
  3.089113e+00    4.463838e-01   5.495167e-03
  3.091323e+00    4.596713e-01   5.572956e-03
  3.093534e+00    4.483268e-01   5.500375e-03
  3.095744e+00    4.706455e-01   5.632163e-03
  3.097955e+00    4.662531e-01   5.602208e-03
  3.100165e+00    4.584989e-01   5.552047e-03
  3.102375e+00    4.612503e-01   5.565206e-03
  3.104586e+00    4.548075e-01   5.522683e-03
  3.106796e+00    4.488336e-01   5.482756e-03
  3.109007e+00    4.536878e-01   5.509085e-03
  3.111217e+00    4.547477e-01   5.511786e-03
  3.113428e+00    4.499623e-01   5.479278e-03
  3.115638e+00    4.509299e-01   5.481930e-03
  3.117849e+00    4.444162e-01   5.438445e-03
  3.120059e+00    4.521493e-01   5.482082e-03
  3.122270e+00    4.370942e-01   5.386814e-03
  3.124480e+00    4.457304e-01   5.436063e-03
  3.126691e+00    4.525671e-01   5.474009e-03
  3.128901e+00    4.416143e-01   5.404261e-03
  3.131111e+00    4.561743e-01   5.488729e-03
  3.133322e+00    4.461345e-01   5.424546e-03
  3.135532e+00    4.439748e-01   5.407996e-03
  3.137743e+00    4.420401e-01   5.392718e-03
  3.139953e+00    4.406375e-01   5.380503e-03
  3.142164e+00    4.333699e-01   5.347826e-03
  3.144374e+00    4.334208e-01   5.376252e-03
  3.146585e+00    4.494834e-01   5.489640e-03
  3.148795e+00    4.473381e-01   5.487378e-03
  3.151006e+00    4.372289e-01   5.433505e-03
  3.153216e+00    4.524504e-01   5.534504e-03
  3.155426e+00    4.342200e-01   5.428124e-03
  3.157637e+00    4.455548e-01   5.504071e-03
  3.159847e+00    4.323873e-01   5.426944e-03
  3.162058e+00    4.442306e-01   5.505218e-03
  3.164268e+00    4.779519e-01   5.714563e-03
  3.166479e+00    4.754204e-01   5.703259e-03
  3.168689e+00    4.444827e-01   5.517942e-03
  3.170900e+00    4.421446e-01   5.506573e-03
  3.173110e+00    4.360000e-01   5.471047e-03
  3.175321e+00    4.382230e-01   5.487473e-03
  3.177531e+00    4.522127e-01   5.577137e-03
  3.179741e+00    4.505137e-01   5.568775e-03
  3.181952e+00    4.439924e-01   5.530442e-03
  3.184162e+00    4.490328e-01   5.563972e-03
  3.186373e+00    4.385374e-01   5.500168e-03
  3.188583e+00    4.210526e-01   5.391162e-03
  3.190794e+00    4.363094e-01   5.489690e-03
  3.193004e+00    4.391976e-01   5.509107e-03
  3.195215e+00    4.288499e-01   5.445312e-03
  3.197425e+00    4.372524e-01   5.499595e-03
  3.199636e+00    4.445216e-01   5.544342e-03
  3.201846e+00    4.396612e-01   5.513358e-03
  3.204056e+00    4.296963e-01   5.451400e-03
  3.206267e+00    4.352606e-01   5.487429e-03
  3.208477e+00    4.268669e-01   5.435166e-03
  3.210688e+00    4.247765e-01   5.422697e-03
  3.212898e+00    4.241814e-01   5.419462e-03
  3.215109e+00    4.154688e-01   5.364250e-03
  3.217319e+00    4.253375e-01   5.428197e-03
  3.219530e+00    4.327746e-01   5.475867e-03
  3.221740e+00    4.265730e-01   5.437045e-03
  3.223951e+00    4.249020e-01   5.426850e-03
  3.226161e+00    4.201021e-01   5.396298e-03
  3.228372e+00    4.233668e-01   5.417743e-03
  3.230582e+00    4.284963e-01   5.450617e-03
  3.232792e+00    4.333495e-01   5.481608e-03
  3.235003e+00    4.316028e-01   5.470804e-03
  3.237213e+00    4.341453e-01   5.487013e-03
  3.239424e+00    4.162019e-01   5.372401e-03
  3.241634e+00    4.245476e-01   5.426131e-03
  3.243845e+00    4.172406e-01   5.379309e-03
  3.246055e+00    4.289782e-01   5.454150e-03
  3.248266e+00    4.331451e-01   5.480812e-03
  3.250476e+00    4.207050e-01   5.401211e-03
  3.252687e+00    4.256869e-01   5.433024e-03
  3.254897e+00    4.349228e-01   5.491518e-03
  3.257107e+00    4.391952e-01   5.518113e-03
  3.259318e+00    4.443648e-01   5.550263e-03
  3.261528e+00    4.341139e-01   5.485720e-03
  3.263739e+00    4.258786e-01   5.432888e-03
  3.265949e+00    4.210749e-01   5.402037e-03
  3.268160e+00    4.334595e-01   5.480471e-03
  3.270370e+00    4.245676e-01   5.423483e-03
  3.272581e+00    4.187421e-01   5.385836e-03
  3.274791e+00    4.252198e-01   5.426832e-03
  3.277002e+00    4.343866e-01   5.484435e-03
  3.279212e+00    4.257983e-01   5.429582e-03
  3.281422e+00    4.393384e-01   5.514619e-03
  3.283633e+00    4.338438e-01   5.479367e-03
  3.285843e+00    4.432041e-01   5.537801e-03
  3.288054e+00    4.425730e-01   5.532909e-03
  3.290264e+00    4.231463e-01   5.409807e-03
  3.292475e+00    4.170452e-01   5.369818e-03
  3.294685e+00    4.263501e-01   5.428756e-03
  3.296896e+00    4.230056e-01   5.406678e-03
  3.299106e+00    4.225226e-01   5.403023e-03
  3.301317e+00    4.279545e-01   5.436627e-03
  3.303527e+00    4.126831e-01   5.338276e-03
  3.305737e+00    4.159309e-01   5.358192e-03
  3.307948e+00    4.248215e-01   5.414487e-03
  3.310158e+00    4.337898e-01   5.470494e-03
  3.312369e+00    4.199007e-01   5.381319e-03
  3.314579e+00    4.256306e-01   5.417003e-03
  3.316790e+00    4.122531e-01   5.330487e-03
  3.319000e+00    4.282106e-01   5.431485e-03
  3.321211e+00    4.227335e-01   5.396027e-03
  3.323421e+00    4.224932e-01   5.393302e-03
  3.325632e+00    4.261856e-01   5.415895e-03
  3.327842e+00    4.295873e-01   5.436576e-03
  3.330052e+00    4.254842e-01   5.409454e-03
  3.332263e+00    4.288952e-01   5.430074e-03
  3.334473e+00    4.231472e-01   5.392674e-03
  3.336684e+00    4.125776e-01   5.323634e-03
  3.338894e+00    4.072053e-01   5.288014e-03
  3.341105e+00    4.252377e-01   5.402623e-03
  3.343315e+00    4.245983e-01   5.397428e-03
  3.345526e+00    4.194916e-01   5.363967e-03
  3.347736e+00    4.101381e-01   5.302443e-03
  3.349947e+00    4.137029e-01   5.324497e-03
  3.352157e+00    4.240071e-01   5.389229e-03
  3.354368e+00    4.164616e-01   5.339774e-03
  3.356578e+00    4.294068e-01   5.421077e-03
  3.358788e+00    4.158793e-01   5.333720e-03
  3.360999e+00    4.106475e-01   5.298792e-03
  3.363209e+00    4.269677e-01   5.402044e-03
  3.365420e+00    4.192043e-01   5.351198e-03
  3.367630e+00    4.089528e-01   5.284357e-03
  3.369841e+00    4.138847e-01   5.314683e-03
  3.372051e+00    4.180391e-01   5.339333e-03
  3.374262e+00    4.112241e-01   5.293210e-03
  3.376472e+00    4.078097e-01   5.268762e-03
  3.378683e+00    4.102595e-01   5.282073e-03
  3.380893e+00    4.200130e-01   5.342124e-03
  3.383103e+00    4.172256e-01   5.321697e-03
  3.385314e+00    4.194189e-01   5.333405e-03
  3.387524e+00    4.176383e-01   5.319333e-03
  3.389735e+00    4.276603e-01   5.380109e-03
  3.391945e+00    4.083664e-01   5.253696e-03
  3.394156e+00    3.883649e-01   5.119322e-03
  3.396366e+00    4.145850e-01   5.285891e-03
  3.398577e+00    3.863735e-01   5.099942e-03
  3.400787e+00    3.892462e-01   5.130426e-03
  3.402998e+00    3.906905e-01   5.177109e-03
  3.405208e+00    3.992991e-01   5.254344e-03
  3.407418e+00    3.994473e-01   5.271052e-03
  3.409629e+00    3.816270e-01   5.165791e-03
  3.411839e+00    3.816631e-01   5.177520e-03
  3.414050e+00    3.836030e-01   5.201472e-03
  3.416260e+00    3.839310e-01   5.213202e-03
  3.418471e+00    3.813129e-01   5.204685e-03
  3.420681e+00    3.667699e-01   5.112668e-03
  3.422892e+00    3.837635e-01   5.237670e-03
  3.425102e+00    3.896388e-01   5.285466e-03
  3.427313e+00    3.780304e-01   5.213209e-03
  3.429523e+00    3.970744e-01   5.350054e-03
  3.431733e+00    3.941416e-01   5.337010e-03
  3.433944e+00    3.849655e-01   5.281016e-03
  3.436154e+00    3.818521e-01   5.265838e-03
  3.438365e+00    3.810173e-01   5.265998e-03
  3.440575e+00    3.876222e-01   5.317428e-03
  3.442786e+00    3.728492e-01   5.220683e-03
  3.444996e+00    3.746136e-01   5.238516e-03
  3.447207e+00    3.567266e-01   5.117059e-03
  3.449417e+00    3.650447e-01   5.216852e-03
  3.451628e+00    3.652814e-01   5.247817e-03
  3.453838e+00    3.638093e-01   5.258290e-03
  3.456049e+00    3.763197e-01   5.372157e-03
  3.458259e+00    3.741307e-01   5.378643e-03
  3.460469e+00    3.741079e-01   5.398515e-03
  3.462680e+00    3.615474e-01   5.326027e-03
  3.464890e+00    3.454469e-01   5.223373e-03
  3.467101e+00    3.634897e-01   5.375394e-03
  3.469311e+00    3.802035e-01   5.514365e-03
  3.471522e+00    3.793011e-01   5.524329e-03
  3.473732e+00    3.833234e-01   5.569561e-03
  3.475943e+00    4.014445e-01   5.715799e-03
  3.478153e+00    3.920757e-01   5.664236e-03
  3.480364e+00    4.160046e-01   5.850065e-03
  3.482574e+00    4.082673e-01   5.810857e-03
  3.484784e+00    4.240785e-01   5.937397e-03
  3.486995e+00    4.309435e-01   6.000665e-03
  3.489205e+00    4.397594e-01   6.076674e-03
  3.491416e+00    4.369274e-01   6.072155e-03
  3.493626e+00    4.537385e-01   6.202777e-03
  3.495837e+00    4.635212e-01   6.284418e-03
  3.498047e+00    4.554734e-01   6.244290e-03
  3.500258e+00    4.815466e-01   6.435577e-03
  3.502468e+00    4.600062e-01   6.304523e-03
  3.504679e+00    4.572805e-01   6.300234e-03
  3.506889e+00    4.646749e-01   6.365399e-03
  3.509099e+00    4.691015e-01   6.409960e-03
  3.511310e+00    4.872559e-01   6.547451e-03
  3.513520e+00    4.884969e-01   6.570305e-03
  3.515731e+00    4.974385e-01   6.644706e-03
  3.517941e+00    4.961299e-01   6.650410e-03
  3.520152e+00    5.179721e-01   6.809871e-03
  3.522362e+00    5.035936e-01   6.729218e-03
  3.524573e+00    5.120801e-01   6.800056e-03
  3.526783e+00    5.040204e-01   6.759587e-03
  3.528994e+00    5.086111e-01   6.802444e-03
  3.531204e+00    5.098447e-01   6.822995e-03
  3.533414e+00    5.138583e-01   6.861764e-03
  3.535625e+00    5.143003e-01   6.876892e-03
  3.537835e+00    5.403575e-01   7.061167e-03
  3.540046e+00    5.410129e-01   7.074430e-03
  3.542256e+00    5.412965e-01   7.083877e-03
  3.544467e+00    5.236022e-01   6.974633e-03
  3.546677e+00    5.426487e-01   7.107998e-03
  3.548888e+00    5.373464e-01   7.080690e-03
  3.551098e+00    5.302268e-01   7.040881e-03
  3.553309e+00    5.311478e-01   7.055085e-03
  3.555519e+00    5.379149e-01   7.111247e-03
  3.557729e+00    5.301039e-01   7.071052e-03
  3.559940e+00    5.240056e-01   7.041737e-03
  3.562150e+00    5.148549e-01   6.991396e-03
  3.564361e+00    5.376907e-01   7.158109e-03
  3.566571e+00    5.206511e-01   7.057446e-03
  3.568782e+00    5.276194e-01   7.118476e-03
  3.570992e+00    5.285677e-01   7.138550e-03
  3.573203e+00    5.389738e-01   7.222653e-03
  3.575413e+00    5.429231e-01   7.262925e-03
  3.577624e+00    5.450006e-01   7.291080e-03
  3.579834e+00    5.242033e-01   7.164325e-03
  3.582045e+00    5.363539e-01   7.260908e-03
  3.584255e+00    5.449759e-01   7.333224e-03
  3.586465e+00    5.344717e-01   7.276111e-03
  3.588676e+00    5.468582e-01   7.374268e-03
  3.590886e+00    5.428541e-01   7.361032e-03
  3.593097e+00    5.354362e-01   7.325066e-03
  3.595307e+00    5.343313e-01   7.331395e-03
  3.597518e+00    5.513569e-01   7.461711e-03
  3.599728e+00    5.390633e-01   7.392204e-03
  3.601939e+00    5.441613e-01   7.441269e-03
  3.604149e+00    5.144727e-01   7.249533e-03
  3.606360e+00    5.192993e-01   7.297394e-03
  3.608570e+00    5.108917e-01   7.251912e-03
  3.610780e+00    5.145643e-01   7.288770e-03
  3.612991e+00    5.491732e-01   7.540034e-03
  3.615201e+00    5.454134e-01   7.524085e-03
  3.617412e+00    5.245537e-01   7.386028e-03
  3.619622e+00    5.358461e-01   7.471031e-03
  3.621833e+00    5.418359e-01   7.519422e-03
  3.624043e+00    5.463665e-01   7.560435e-03
  3.626254e+00    5.454811e-01   7.564107e-03
  3.628464e+00    5.469586e-01   7.585453e-03
  3.630675e+00    5.377930e-01   7.535797e-03
  3.632885e+00    5.149995e-01   7.388575e-03
  3.635095e+00    5.334789e-01   7.534311e-03
  3.637306e+00    5.480978e-01   7.651440e-03
  3.639516e+00    5.306428e-01   7.543119e-03
  3.641727e+00    5.436947e-01   7.650024e-03
  3.643937e+00    5.299570e-01   7.567267e-03
  3.646148e+00    5.375807e-01   7.636143e-03
  3.648358e+00    5.337173e-01   7.623570e-03
  3.650569e+00    5.209612e-01   7.546473e-03
  3.652779e+00    5.379862e-01   7.683588e-03
  3.654990e+00    5.423312e-01   7.729645e-03
  3.657200e+00    5.236734e-01   7.610246e-03
  3.659410e+00    5.468326e-01   7.791897e-03
  3.661621e+00    5.367641e-01   7.735015e-03
  3.663831e+00    5.279153e-01   7.686041e-03
  3.666042e+00    5.405557e-01   7.792788e-03
  3.668252e+00    5.412465e-01   7.813173e-03
  3.670463e+00    5.304790e-01   7.750289e-03
  3.672673e+00    5.575831e-01   7.961584e-03
  3.674884e+00    5.400215e-01   7.850776e-03
  3.677094e+00    5.298256e-01   7.791837e-03
  3.679305e+00    5.251417e-01   7.772742e-03
  3.681515e+00    5.261403e-01   7.795712e-03
  3.683726e+00    5.197509e-01   7.763875e-03
  3.685936e+00    5.321700e-01   7.871859e-03
  3.688146e+00    5.274583e-01   7.852694e-03
  3.690357e+00    5.203100e-01   7.815128e-03
  3.692567e+00    5.176706e-01   7.811246e-03
  3.694778e+00    5.341630e-01   7.950873e-03
  3.696988e+00    5.252448e-01   7.900223e-03
  3.699199e+00    5.344970e-01   7.985803e-03
  3.701409e+00    5.305089e-01   7.972480e-03
  3.703620e+00    5.411295e-01   8.068433e-03
  3.705830e+00    5.441137e-01   8.107348e-03
  3.708041e+00    5.156673e-01   7.909060e-03
  3.710251e+00    5.307207e-01   8.040485e-03
  3.712461e+00    5.121610e-01   7.915209e-03
  3.714672e+00    5.204438e-01   7.995665e-03
  3.716882e+00    5.015389e-01   7.865518e-03
  3.719093e+00    5.040351e-01   7.901902e-03
  3.721303e+00    5.217249e-01   8.056366e-03
  3.723514e+00    5.153019e-01   8.023866e-03
  3.725724e+00    5.153617e-01   8.041395e-03
  3.727935e+00    5.134284e-01   8.043693e-03
  3.730145e+00    5.177431e-01   8.094777e-03
  3.732356e+00    4.935752e-01   7.920715e-03
  3.734566e+00    5.164555e-01   8.119764e-03
  3.736776e+00    5.136982e-01   8.115849e-03
  3.738987e+00    5.026274e-01   8.045417e-03
  3.741197e+00    5.046250e-01   8.079232e-03
  3.743408e+00    5.136725e-01   8.169444e-03
  3.745618e+00    5.134487e-01   8.185962e-03
  3.747829e+00    4.941564e-01   8.048480e-03
  3.750039e+00    5.244169e-01   8.309818e-03
  3.752250e+00    5.111299e-01   8.222429e-03
  3.754460e+00    4.975938e-01   8.131055e-03
  3.756671e+00    5.128319e-01   8.273523e-03
  3.758881e+00    5.267573e-01   8.404051e-03
  3.761091e+00    5.219836e-01   8.385288e-03
  3.763302e+00    5.204722e-01   8.392447e-03
  3.765512e+00    5.034558e-01   8.273316e-03
  3.767723e+00    5.051747e-01   8.306718e-03
  3.769933e+00    5.137831e-01   8.396638e-03
  3.772144e+00    4.895364e-01   8.215426e-03
  3.774354e+00    4.875902e-01   8.218518e-03
  3.776565e+00    5.126493e-01   8.447065e-03
  3.778775e+00    5.212039e-01   8.537536e-03
  3.780986e+00    5.383883e-01   8.698152e-03
  3.783196e+00    4.981168e-01   8.386659e-03
  3.785407e+00    4.959666e-01   8.388795e-03
  3.787617e+00    5.108657e-01   8.534767e-03
  3.789827e+00    5.117630e-01   8.563011e-03
  3.792038e+00    5.144444e-01   8.606501e-03
  3.794248e+00    5.145793e-01   8.629075e-03
  3.796459e+00    5.085093e-01   8.599531e-03
  3.798669e+00    5.113471e-01   8.645107e-03
  3.800880e+00    4.995818e-01   8.566500e-03
  3.803090e+00    4.968840e-01   8.565080e-03
  3.805301e+00    4.893448e-01   8.521695e-03
  3.807511e+00    4.893324e-01   8.543330e-03
  3.809722e+00    5.032893e-01   8.686663e-03
  3.811932e+00    5.416101e-01   9.034390e-03
  3.814142e+00    5.358356e-01   9.009875e-03
  3.816353e+00    5.192555e-01   8.892627e-03
  3.818563e+00    5.129930e-01   8.862334e-03
  3.820774e+00    4.942616e-01   8.722033e-03
  3.822984e+00    5.028529e-01   8.821032e-03
  3.825195e+00    4.909833e-01   8.739847e-03
  3.827405e+00    5.034838e-01   8.874433e-03
  3.829616e+00    5.001191e-01   8.868871e-03
  3.831826e+00    4.832408e-01   8.741773e-03
  3.834037e+00    4.842894e-01   8.775380e-03
  3.836247e+00    5.064747e-01   8.999079e-03
  3.838457e+00    4.914204e-01   8.889215e-03
  3.840668e+00    5.165395e-01   9.139281e-03
  3.842878e+00    5.231177e-01   9.223511e-03
  3.845089e+00    5.160102e-01   9.186746e-03
  3.847299e+00    4.909717e-01   8.986784e-03
  3.849510e+00    4.985218e-01   9.081472e-03
  3.851720e+00    4.928168e-01   9.050814e-03
  3.853931e+00    4.920925e-01   9.063049e-03
  3.856141e+00    5.049134e-01   9.199577e-03
  3.858352e+00    4.890632e-01   9.073205e-03
  3.860562e+00    4.644023e-01   8.860162e-03
  3.862772e+00    4.880367e-01   9.102272e-03
  3.864983e+00    4.963170e-01   9.198919e-03
  3.867193e+00    5.216897e-01   9.451444e-03
  3.869404e+00    5.144166e-01   9.405575e-03
  3.871614e+00    4.942625e-01   9.239458e-03
  3.873825e+00    4.935713e-01   9.253364e-03
  3.876035e+00    5.024679e-01   9.357109e-03
  3.878246e+00    5.170081e-01   9.517961e-03
  3.880456e+00    5.254876e-01   9.625619e-03
  3.882667e+00    5.027511e-01   9.444781e-03
  3.884877e+00    5.018022e-01   9.465901e-03
  3.887087e+00    4.884007e-01   9.368413e-03
  3.889298e+00    5.007888e-01   9.517224e-03
  3.891508e+00    4.880794e-01   9.426099e-03
  3.893719e+00    4.900156e-01   9.475739e-03
  3.895929e+00    4.964813e-01   9.569668e-03
  3.898140e+00    5.130731e-01   9.760700e-03
  3.900350e+00    4.924342e-01   9.594518e-03
  3.902561e+00    4.916680e-01   9.619505e-03
  3.904771e+00    4.872486e-01   9.608872e-03
  3.906982e+00    4.650653e-01   9.419938e-03
  3.909192e+00    4.774144e-01   9.577197e-03
  3.911403e+00    4.857466e-01   9.694376e-03
  3.913613e+00    4.813739e-01   9.684608e-03
  3.915823e+00    5.128649e-01   1.003207e-02
  3.918034e+00    4.954652e-01   9.895916e-03
  3.920244e+00    4.903145e-01   9.880208e-03
  3.922455e+00    4.803388e-01   9.814904e-03
  3.924665e+00    4.822422e-01   9.870585e-03
  3.926876e+00    4.535736e-01   9.608408e-03
  3.929086e+00    4.918286e-01   1.004298e-02
  3.931297e+00    4.795336e-01   9.951172e-03
  3.933507e+00    4.851144e-01   1.003774e-02
  3.935718e+00    5.052927e-01   1.027366e-02
  3.937928e+00    5.008953e-01   1.025868e-02
  3.940138e+00    5.032988e-01   1.031314e-02
  3.942349e+00    5.003431e-01   1.031308e-02
  3.944559e+00    4.905412e-01   1.024163e-02
  3.946770e+00    4.894588e-01   1.026062e-02
  3.948980e+00    4.722953e-01   1.010939e-02
  3.951191e+00    4.861851e-01   1.028766e-02
  3.953401e+00    4.863469e-01   1.032087e-02
  3.955612e+00    5.087691e-01   1.058839e-02
  3.957822e+00    5.000802e-01   1.052977e-02
  3.960033e+00    5.181005e-01   1.075149e-02
  3.962243e+00    5.074755e-01   1.067429e-02
  3.964453e+00    4.836823e-01   1.045404e-02
  3.966664e+00    5.017281e-01   1.068125e-02
  3.968874e+00    4.820836e-01   1.049835e-02
  3.971085e+00    4.801482e-01   1.049903e-02
  3.973295e+00    5.069808e-01   1.081030e-02
  3.975506e+00    4.746066e-01   1.048093e-02
  3.977716e+00    5.142195e-01   1.093209e-02
  3.979927e+00    5.013996e-01   1.081754e-02
  3.982137e+00    4.894423e-01   1.071011e-02
  3.984348e+00    4.981079e-01   1.082735e-02
  3.986558e+00    5.173153e-01   1.105717e-02
  3.988768e+00    4.938874e-01   1.082713e-02
  3.990979e+00    5.065762e-01   1.098858e-02
  3.993189e+00    4.715574e-01   1.062473e-02
  3.995400e+00    4.587409e-01   1.050224e-02
  3.997610e+00    4.914720e-01   1.090045e-02
  3.999821e+00    4.412293e-01   1.036407e-02
  4.002031e+00    4.988627e-01   1.105911e-02
  4.004242e+00    4.645626e-01   1.070982e-02
  4.006452e+00    4.607224e-01   1.070387e-02
  4.008663e+00    4.487956e-01   1.060286e-02
  4.010873e+00    4.699127e-01   1.088881e-02
  4.013084e+00    5.053618e-01   1.133388e-02
  4.015294e+00    4.938850e-01   1.124583e-02
  4.017504e+00    4.876423e-01   1.121653e-02
  4.019715e+00    5.260507e-01   1.169412e-02
  4.021925e+00    5.197929e-01   1.166904e-02
  4.024136e+00    4.852103e-01   1.131791e-02
  4.026346e+00    4.784708e-01   1.128277e-02
  4.028557e+00    4.997346e-01   1.157589e-02
  4.030767e+00    5.099921e-01   1.174102e-02
  4.032978e+00    4.493483e-01   1.106544e-02
  4.035188e+00    4.461910e-01   1.107074e-02
  4.037399e+00    4.995599e-01   1.176255e-02
  4.039609e+00    4.709861e-01   1.146837e-02
  4.041819e+00    4.735230e-01   1.154748e-02
  4.044030e+00    4.738667e-01   1.160108e-02
  4.046240e+00    5.101364e-01   1.208804e-02
  4.048451e+00    4.892190e-01   1.188895e-02
  4.050661e+00    4.945548e-01   1.200565e-02
  4.052872e+00    4.758740e-01   1.182906e-02
  4.055082e+00    5.106091e-01   1.230823e-02
  4.057293e+00    4.903880e-01   1.211623e-02
  4.059503e+00    4.772337e-01   1.200704e-02
  4.061714e+00    4.742663e-01   1.202560e-02
  4.063924e+00    4.820549e-01   1.218063e-02
  4.066134e+00    4.847336e-01   1.227210e-02
  4.068345e+00    4.805962e-01   1.227840e-02
  4.070555e+00    4.876295e-01   1.242757e-02
  4.072766e+00    4.792288e-01   1.238079e-02
  4.074976e+00    4.955120e-01   1.265210e-02
  4.077187e+00    4.631878e-01   1.229343e-02
  4.079397e+00    4.737766e-01   1.249637e-02
  4.081608e+00    4.945542e-01   1.283403e-02
  4.083818e+00    4.864142e-01   1.279405e-02
  4.086029e+00    5.073712e-01   1.313577e-02
  4.088239e+00    4.688714e-01   1.269554e-02
  4.090449e+00    4.922437e-01   1.307875e-02
  4.092660e+00    4.608631e-01   1.272440e-02
  4.094870e+00    4.670935e-01   1.288151e-02
  4.097081e+00    4.456854e-01   1.265174e-02
  4.099291e+00    4.873036e-01   1.328404e-02
  4.101502e+00    4.806280e-01   1.324192e-02
  4.103712e+00    4.865279e-01   1.337253e-02
  4.105923e+00    4.946640e-01   1.353622e-02
  4.108133e+00    4.703883e-01   1.325074e-02
  4.110344e+00    4.916853e-01   1.359906e-02
  4.112554e+00    4.822247e-01   1.352104e-02
  4.114764e+00    4.665889e-01   1.335347e-02
  4.116975e+00    4.991070e-01   1.386520e-02
  4.119185e+00    4.828442e-01   1.369297e-02
  4.121396e+00    4.571635e-01   1.337875e-02
  4.123606e+00    4.758702e-01   1.370575e-02
  4.125817e+00    4.849156e-01   1.389333e-02
  4.128027e+00    5.234529e-01   1.449572e-02
  4.130238e+00    4.672689e-01   1.375450e-02
  4.132448e+00    5.079618e-01   1.440300e-02
  4.134659e+00    4.676560e-01   1.387952e-02
  4.136869e+00    4.310625e-01   1.338463e-02
  4.139080e+00    4.541155e-01   1.379974e-02
  4.141290e+00    4.825732e-01   1.428872e-02
  4.143500e+00    5.324998e-01   1.507873e-02
  4.145711e+00    4.707461e-01   1.424400e-02
  4.147921e+00    4.813207e-01   1.446872e-02
  4.150132e+00    4.971403e-01   1.477511e-02
  4.152342e+00    5.032134e-01   1.493687e-02
  4.154553e+00    4.703157e-01   1.450928e-02
  4.156763e+00    4.967430e-01   1.498493e-02
  4.158974e+00    4.954140e-01   1.504014e-02
  4.161184e+00    4.696893e-01   1.471719e-02
  4.163395e+00    4.852811e-01   1.503565e-02
  4.165605e+00    5.037617e-01   1.539903e-02
  4.167815e+00    5.382705e-01   1.600092e-02
  4.170026e+00    5.045562e-01   1.557327e-02
  4.172236e+00    5.094104e-01   1.573250e-02
  4.174447e+00    4.940175e-01   1.557730e-02
  4.176657e+00    4.984266e-01   1.573222e-02
  4.178868e+00    5.029056e-01   1.589216e-02
  4.181078e+00    4.723453e-01   1.548859e-02
  4.183289e+00    4.940290e-01   1.593065e-02
  4.185499e+00    4.648615e-01   1.554465e-02
  4.187710e+00    4.526108e-01   1.542804e-02
  4.189920e+00    4.728667e-01   1.586471e-02
  4.192130e+00    4.743262e-01   1.598610e-02
  4.194341e+00    5.000120e-01   1.651379e-02
  4.196551e+00    4.888859e-01   1.643254e-02
  4.198762e+00    4.550956e-01   1.595522e-02
  4.200972e+00    4.603119e-01   1.615010e-02
  4.203183e+00    4.592301e-01   1.623738e-02
  4.205393e+00    5.027314e-01   1.710228e-02
  4.207604e+00    5.290602e-01   1.766419e-02
  4.209814e+00    5.467401e-01   1.807983e-02
  4.212025e+00    4.692939e-01   1.686939e-02
  4.214235e+00    4.723509e-01   1.704372e-02
  4.216445e+00    5.199479e-01   1.801177e-02
  4.218656e+00    4.734425e-01   1.731601e-02
  4.220866e+00    4.452441e-01   1.691680e-02
  4.223077e+00    5.044071e-01   1.814398e-02
  4.225287e+00    4.833034e-01   1.790025e-02
  4.227498e+00    4.371321e-01   1.715729e-02
  4.229708e+00    4.044476e-01   1.663751e-02
  4.231919e+00    4.571298e-01   1.783418e-02
  4.234129e+00    4.577519e-01   1.799601e-02
  4.236340e+00    4.673365e-01   1.833904e-02
  4.238550e+00    5.018364e-01   1.917201e-02
  4.240761e+00    4.604752e-01   1.852669e-02
  4.242971e+00    4.689753e-01   1.886853e-02
  4.245181e+00    4.554042e-01   1.876800e-02
  4.247392e+00    4.289937e-01   1.838573e-02
  4.249602e+00    4.521095e-01   1.906267e-02
  4.251813e+00    4.634090e-01   1.948901e-02
  4.254023e+00    4.403847e-01   1.919052e-02
  4.256234e+00    4.793477e-01   2.023500e-02
  4.258444e+00    5.007859e-01   2.089926e-02
  4.260655e+00    4.851593e-01   2.079668e-02
  4.262865e+00    4.715561e-01   2.073593e-02
  4.265076e+00    4.502470e-01   2.049179e-02
  4.267286e+00    4.933870e-01   2.170571e-02
  4.269496e+00    5.056705e-01   2.224255e-02
  4.271707e+00    5.104939e-01   2.262451e-02
  4.273917e+00    4.900973e-01   2.245415e-02
  4.276128e+00    5.463375e-01   2.402258e-02
  4.278338e+00    4.890468e-01   2.303232e-02
  4.280549e+00    4.256663e-01   2.179608e-02
  4.282759e+00    3.515592e-01   2.009187e-02
  4.284970e+00    4.089392e-01   2.199094e-02
  4.287180e+00    3.526929e-01   2.066771e-02
  4.289391e+00    4.340204e-01   2.309881e-02
  4.291601e+00    4.619420e-01   2.402032e-02
  4.293811e+00    5.266708e-01   2.584882e-02
  4.296022e+00    5.204613e-01   2.590279e-02
  4.298232e+00    5.241266e-01   2.621121e-02
  4.300443e+00    5.239527e-01   2.642343e-02
  4.302653e+00    4.977945e-01   2.597844e-02
  4.304864e+00    5.051972e-01   2.639730e-02
  4.307074e+00    5.651547e-01   2.817012e-02
  4.309285e+00    4.980432e-01   2.668640e-02
  4.311495e+00    3.572882e-01   2.281383e-02
  4.313706e+00    4.450550e-01   2.570064e-02
  4.315916e+00    4.559211e-01   2.626958e-02
  4.318126e+00    4.479263e-01   2.629513e-02
  4.320337e+00    4.250197e-01   2.587393e-02
  4.322547e+00    4.788913e-01   2.775493e-02
  4.324758e+00    4.546297e-01   2.732476e-02
  4.326968e+00    4.796130e-01   2.838062e-02
  4.329179e+00    4.725569e-01   2.848226e-02
  4.331389e+00    5.628065e-01   3.144155e-02
  4.333600e+00    4.460473e-01   2.832491e-02
  4.335810e+00    4.025946e-01   2.722993e-02
  4.338021e+00    5.244778e-01   3.147708e-02
  4.340231e+00    5.322747e-01   3.210898e-02
  4.342442e+00    4.582888e-01   3.019395e-02
  4.344652e+00    3.183247e-01   2.550493e-02
  4.346862e+00    4.170729e-01   2.960293e-02
  4.349073e+00    4.184169e-01   3.008401e-02
  4.351283e+00    3.122873e-01   2.637633e-02
  4.353494e+00    4.407429e-01   3.181951e-02
  4.355704e+00    4.662196e-01   3.325471e-02
  4.357915e+00    4.364416e-01   3.271020e-02
  4.360125e+00    3.490618e-01   2.975179e-02
  4.362336e+00    4.650912e-01   3.496877e-02
  4.364546e+00    3.592920e-01   3.129433e-02
  4.366757e+00    4.329135e-01   3.503514e-02
  4.368967e+00    4.143200e-01   3.495868e-02
  4.371177e+00    5.640046e-01   4.165410e-02
  4.373388e+00    3.859227e-01   3.522499e-02
  4.375598e+00    4.539987e-01   3.908069e-02
  4.377809e+00    3.201174e-01   3.364359e-02
  4.380019e+00    4.086166e-01   3.896944e-02
  4.382230e+00    3.587448e-01   3.753209e-02
  4.384440e+00    3.517893e-01   3.823527e-02
  4.386651e+00    5.048490e-01   4.721634e-02
  4.388861e+00    4.393152e-01   4.552441e-02
  4.391072e+00    5.025123e-01   5.039850e-02
  4.393282e+00    5.655600e-01   5.553492e-02
  4.395492e+00    4.881071e-01   5.373716e-02
  4.397703e+00    2.984098e-01   4.393300e-02
  4.399913e+00    3.426809e-01   4.947016e-02
  4.402124e+00    4.163577e-01   5.761106e-02
  4.404334e+00    4.979241e-01   6.697647e-02
  4.406545e+00    2.771699e-01   5.369103e-02
  4.408755e+00    4.362440e-01   7.304889e-02
  4.410966e+00    2.966099e-01   6.666758e-02
  4.413176e+00    2.250469e-01   6.573724e-02
  4.415387e+00   -8.384123e-01            nan
  4.417597e+00   -1.909909e+00            nan
  4.419807e+00   -3.766224e-01            nan
