# == pyFAI calibration ==
# Distance Sample to Detector: 0.216 m
# PONI: 1.166e-01, 1.308e-01 m
# Rotations: 0.000000 0.000000 0.000000 rad
# 
# == Fit2d calibration ==
# Distance Sample-beamCenter: 216.000 mm
# Center: x=1744.293, y=1555.000 pix
# Tilt: 0.000 deg  TiltPlanRot: 0.000 deg
# 
# Detector Eiger 9M	 PixelSize= 7.500e-05, 7.500e-05 m
#    Detector has a mask: True 
#    Detector has a dark current: False 
#    detector has a flat field: False 
# 
# Wavelength: 9.8e-11 m
# Mask applied: from detector
# Dark current applied: False
# Flat field applied: False
# Polarization factor: None
# Normalization factor: 1.0
# 
# Headers of the input frame:
# {
# "_array_data.header_convention": "SLS_1.0",
# "_array_data.header_contents": "# Detector: Dectris Eiger 9M, S/N E-18-0102\r\n# Pixel_size 75e-6 m x 75e-6 m\r\n# Silicon sensor, thickness 0.000450 m\r\n# Exposure_time 0.024997 s\r\n# Exposure_period 0.025000 s\r\n# Count_cutoff 62318 counts\r\n# Wavelength 0.980106 A\r\n# Detector_distance 0.215992 m\r\n# Beam_xy (1555, 1744) pixels\r\n# Start_angle 0.000000 deg.\r\n# Angle_increment 0.000000 deg.",
# "Content-Type": "application/octet-stream;",
# "conversions": "x-CBF_BYTE_OFFSET",
# "Content-Transfer-Encoding": "BINARY",
# "X-Binary-Size": "10166610",
# "X-Binary-ID": "1",
# "X-Binary-Element-Type": "signed 32-bit integer",
# "X-Binary-Element-Byte-Order": "LITTLE_ENDIAN",
# "Content-MD5": "ZgWglGdcedyuxs0ygVuTjQ==",
# "X-Binary-Number-of-Elements": "10166590",
# "X-Binary-Size-Fastest-Dimension": "3110",
# "X-Binary-Size-Second-Dimension": "3269",
# "X-Binary-Size-Padding": "4095"
# }
# --> H:/Proxima2a_2019-04-05/RAW_DATA/C5_gel17_position5/C5_mesh_1_data.cbf/C5_mesh_1_data.cbf000073.dat
#        q_A^-1              I           sigma 
  1.105228e-03    1.757417e+00   7.173389e-01
  3.315685e-03    1.416999e+00   3.915887e-01
  5.526141e-03    1.851651e+00   3.461399e-01
  7.736597e-03    1.271497e+00   2.423136e-01
  9.947054e-03    1.255544e+00   2.122719e-01
  1.215751e-02    1.415532e+00   2.038114e-01
  1.436797e-02    1.353374e+00   1.833094e-01
  1.657842e-02    1.330530e+00   1.691830e-01
  1.878888e-02    1.255755e+00   1.543889e-01
  2.099934e-02    1.435925e+00   1.561953e-01
  2.320979e-02    1.617489e+00   1.576716e-01
  2.542025e-02    1.640013e+00   1.517166e-01
  2.763070e-02    1.576986e+00   1.426935e-01
  2.984116e-02    1.400014e+00   1.293727e-01
  3.205162e-02    1.256123e+00   1.182503e-01
  3.426207e-02    1.414870e+00   1.213761e-01
  3.647253e-02    1.457892e+00   1.194132e-01
  3.868299e-02    1.493990e+00   1.173868e-01
  4.089344e-02    1.359130e+00   1.088958e-01
  4.310390e-02    1.392833e+00   1.073676e-01
  4.531436e-02    1.465874e+00   1.074272e-01
  4.752481e-02    1.319616e+00   9.952744e-02
  4.973527e-02    1.325664e+00   9.751433e-02
  5.194572e-02    1.488399e+00   1.011027e-01
  5.415618e-02    1.450964e+00   9.776132e-02
  5.636664e-02    1.495045e+00   9.727299e-02
  5.857709e-02    1.433101e+00   9.342282e-02
  6.078755e-02    1.520053e+00   9.444669e-02
  6.299801e-02    1.498982e+00   9.212866e-02
  6.520846e-02    1.338223e+00   8.556084e-02
  6.741892e-02    1.356049e+00   8.470079e-02
  6.962938e-02    1.522525e+00   8.831787e-02
  7.183983e-02    1.524385e+00   8.700003e-02
  7.405029e-02    1.528423e+00   8.580309e-02
  7.626074e-02    1.572642e+00   8.576406e-02
  7.847120e-02    1.419684e+00   8.032852e-02
  8.068166e-02    1.493846e+00   8.126269e-02
  8.289211e-02    1.525318e+00   8.101155e-02
  8.510257e-02    1.497921e+00   7.923077e-02
  8.731303e-02    1.513819e+00   7.863244e-02
  8.952348e-02    1.399204e+00   7.466002e-02
  9.173394e-02    1.496743e+00   7.627943e-02
  9.394439e-02    1.487913e+00   7.515159e-02
  9.615485e-02    1.444569e+00   7.319122e-02
  9.836531e-02    1.445580e+00   7.238749e-02
  1.005758e-01    1.575471e+00   7.473509e-02
  1.027862e-01    1.543577e+00   7.317322e-02
  1.049967e-01    1.487975e+00   7.108169e-02
  1.072071e-01    1.546039e+00   7.170359e-02
  1.094176e-01    1.539195e+00   7.081729e-02
  1.116280e-01    1.502665e+00   6.927408e-02
  1.138385e-01    1.557657e+00   6.984081e-02
  1.160490e-01    1.654524e+00   7.128999e-02
  1.182594e-01    1.603389e+00   6.951921e-02
  1.204699e-01    1.470613e+00   6.596444e-02
  1.226803e-01    1.539402e+00   6.687602e-02
  1.248908e-01    1.636357e+00   6.833614e-02
  1.271012e-01    1.756466e+00   7.017995e-02
  1.293117e-01    1.620676e+00   6.683316e-02
  1.315222e-01    1.557333e+00   6.495968e-02
  1.337326e-01    1.599173e+00   6.527898e-02
  1.359431e-01    1.600425e+00   6.534276e-02
  1.381535e-01    1.533965e+00   6.483034e-02
  1.403640e-01    1.639300e+00   6.730866e-02
  1.425744e-01    1.623422e+00   6.708889e-02
  1.447849e-01    1.575086e+00   6.609781e-02
  1.469953e-01    1.670184e+00   6.802131e-02
  1.492058e-01    1.650670e+00   6.754420e-02
  1.514163e-01    1.653614e+00   6.749213e-02
  1.536267e-01    1.648624e+00   6.725866e-02
  1.558372e-01    1.630451e+00   6.673927e-02
  1.580476e-01    1.684519e+00   6.767219e-02
  1.602581e-01    1.648931e+00   6.678353e-02
  1.624685e-01    1.598104e+00   6.556616e-02
  1.646790e-01    1.683054e+00   6.709304e-02
  1.668895e-01    1.743149e+00   6.808315e-02
  1.690999e-01    1.809634e+00   6.916105e-02
  1.713104e-01    1.880694e+00   7.028709e-02
  1.735208e-01    1.840439e+00   6.931458e-02
  1.757313e-01    1.771246e+00   6.778599e-02
  1.779417e-01    1.782074e+00   6.777114e-02
  1.801522e-01    1.861232e+00   6.903934e-02
  1.823626e-01    1.956799e+00   7.055396e-02
  1.845731e-01    1.898766e+00   6.927475e-02
  1.867836e-01    1.859017e+00   6.831449e-02
  1.889940e-01    1.930101e+00   6.938082e-02
  1.912045e-01    1.988462e+00   7.018682e-02
  1.934149e-01    1.917516e+00   6.869268e-02
  1.956254e-01    1.908648e+00   6.830761e-02
  1.978358e-01    1.982143e+00   6.937176e-02
  2.000463e-01    2.018950e+00   6.978089e-02
  2.022568e-01    1.988739e+00   6.902952e-02
  2.044672e-01    1.945596e+00   6.804276e-02
  2.066777e-01    2.018003e+00   6.906731e-02
  2.088881e-01    2.020664e+00   6.888672e-02
  2.110986e-01    2.001549e+00   6.832504e-02
  2.133090e-01    1.970713e+00   6.757627e-02
  2.155195e-01    1.953266e+00   6.705331e-02
  2.177300e-01    1.960211e+00   6.664470e-02
  2.199404e-01    1.974835e+00   6.513022e-02
  2.221509e-01    1.983661e+00   6.420375e-02
  2.243613e-01    1.922200e+00   6.240007e-02
  2.265718e-01    2.020607e+00   6.327225e-02
  2.287822e-01    2.050418e+00   6.310643e-02
  2.309927e-01    2.089028e+00   6.311753e-02
  2.332031e-01    2.100790e+00   6.275324e-02
  2.354136e-01    2.167410e+00   6.322388e-02
  2.376241e-01    2.157901e+00   6.259540e-02
  2.398345e-01    2.114763e+00   6.150797e-02
  2.420450e-01    2.116038e+00   6.108678e-02
  2.442554e-01    2.103087e+00   6.048001e-02
  2.464659e-01    2.183357e+00   6.120966e-02
  2.486763e-01    2.225171e+00   6.138683e-02
  2.508868e-01    2.159245e+00   6.008915e-02
  2.530973e-01    2.166492e+00   5.981674e-02
  2.553077e-01    2.166544e+00   5.945463e-02
  2.575182e-01    2.071190e+00   5.778761e-02
  2.597286e-01    2.110001e+00   5.798746e-02
  2.619391e-01    2.108557e+00   5.763387e-02
  2.641495e-01    2.137326e+00   5.770460e-02
  2.663600e-01    2.031222e+00   5.594468e-02
  2.685704e-01    2.038863e+00   5.574596e-02
  2.707809e-01    2.098445e+00   5.625446e-02
  2.729914e-01    2.067507e+00   5.554723e-02
  2.752018e-01    2.049605e+00   5.501836e-02
  2.774123e-01    2.026877e+00   5.443297e-02
  2.796227e-01    2.060765e+00   5.461464e-02
  2.818332e-01    2.007127e+00   5.363033e-02
  2.840436e-01    1.946806e+00   5.256226e-02
  2.862541e-01    2.049615e+00   5.367301e-02
  2.884646e-01    2.058929e+00   5.353955e-02
  2.906750e-01    1.989173e+00   5.237526e-02
  2.928855e-01    1.954573e+00   5.167718e-02
  2.950959e-01    1.934941e+00   5.118081e-02
  2.973064e-01    1.924704e+00   5.081583e-02
  2.995168e-01    1.899062e+00   5.024757e-02
  3.017273e-01    1.928376e+00   5.041066e-02
  3.039377e-01    1.919195e+00   5.007031e-02
  3.061482e-01    1.967482e+00   5.047698e-02
  3.083587e-01    1.940695e+00   4.991520e-02
  3.105691e-01    1.943590e+00   4.973904e-02
  3.127796e-01    1.909237e+00   4.909026e-02
  3.149900e-01    1.931336e+00   4.916782e-02
  3.172005e-01    1.953811e+00   4.925087e-02
  3.194109e-01    1.884520e+00   4.816999e-02
  3.216214e-01    1.873129e+00   4.782823e-02
  3.238319e-01    1.860487e+00   4.747768e-02
  3.260423e-01    1.901026e+00   4.780100e-02
  3.282528e-01    1.929007e+00   4.795982e-02
  3.304632e-01    1.954120e+00   4.808399e-02
  3.326737e-01    1.918849e+00   4.746217e-02
  3.348841e-01    1.905175e+00   4.710935e-02
  3.370946e-01    1.909752e+00   4.698845e-02
  3.393050e-01    1.860585e+00   4.620396e-02
  3.415155e-01    1.846428e+00   4.585476e-02
  3.437260e-01    1.917060e+00   4.655042e-02
  3.459364e-01    1.848507e+00   4.554144e-02
  3.481469e-01    1.812254e+00   4.492806e-02
  3.503573e-01    1.833876e+00   4.503063e-02
  3.525678e-01    1.858134e+00   4.516594e-02
  3.547782e-01    1.833245e+00   4.470029e-02
  3.569887e-01    1.850898e+00   4.475585e-02
  3.591992e-01    1.796680e+00   4.393944e-02
  3.614096e-01    1.822828e+00   4.410456e-02
  3.636201e-01    1.848610e+00   4.425931e-02
  3.658305e-01    1.814210e+00   4.369599e-02
  3.680410e-01    1.800599e+00   4.338206e-02
  3.702514e-01    1.731536e+00   4.239888e-02
  3.724619e-01    1.756404e+00   4.255683e-02
  3.746724e-01    1.814974e+00   4.311625e-02
  3.768828e-01    1.810134e+00   4.291383e-02
  3.790933e-01    1.820523e+00   4.289658e-02
  3.813037e-01    1.786903e+00   4.235958e-02
  3.835142e-01    1.774750e+00   4.207664e-02
  3.857246e-01    1.812862e+00   4.238840e-02
  3.879351e-01    1.831642e+00   4.246948e-02
  3.901455e-01    1.771347e+00   4.163167e-02
  3.923560e-01    1.817269e+00   4.203382e-02
  3.945665e-01    1.811516e+00   4.183417e-02
  3.967769e-01    1.784864e+00   4.139522e-02
  3.989874e-01    1.835361e+00   4.184565e-02
  4.011978e-01    1.826183e+00   4.161252e-02
  4.034083e-01    1.809346e+00   4.129311e-02
  4.056187e-01    1.799466e+00   4.105334e-02
  4.078292e-01    1.825277e+00   4.122159e-02
  4.100397e-01    1.839506e+00   4.125560e-02
  4.122501e-01    1.787129e+00   4.054239e-02
  4.144606e-01    1.811200e+00   4.069345e-02
  4.166710e-01    1.817910e+00   4.064755e-02
  4.188815e-01    1.849128e+00   4.087395e-02
  4.210919e-01    1.791798e+00   4.011745e-02
  4.233024e-01    1.822902e+00   4.034511e-02
  4.255128e-01    1.818789e+00   4.018309e-02
  4.277233e-01    1.827043e+00   4.015845e-02
  4.299338e-01    1.784199e+00   3.957062e-02
  4.321442e-01    1.787784e+00   3.949700e-02
  4.343547e-01    1.805592e+00   3.958099e-02
  4.365651e-01    1.751884e+00   3.887711e-02
  4.387756e-01    1.732566e+00   3.855391e-02
  4.409860e-01    1.699737e+00   3.808110e-02
  4.431965e-01    1.760700e+00   3.865080e-02
  4.454070e-01    1.727086e+00   3.817361e-02
  4.476174e-01    1.713731e+00   3.792130e-02
  4.498279e-01    1.746704e+00   3.818021e-02
  4.520383e-01    1.767022e+00   3.829625e-02
  4.542488e-01    1.781256e+00   3.834652e-02
  4.564592e-01    1.750863e+00   3.791596e-02
  4.586697e-01    1.715205e+00   3.742827e-02
  4.608801e-01    1.732812e+00   3.751912e-02
  4.630906e-01    1.714443e+00   3.722091e-02
  4.653011e-01    1.695724e+00   3.691981e-02
  4.675115e-01    1.737628e+00   3.727476e-02
  4.697220e-01    1.727394e+00   3.706753e-02
  4.719324e-01    1.702434e+00   3.670359e-02
  4.741429e-01    1.687179e+00   3.644459e-02
  4.763533e-01    1.719577e+00   3.669852e-02
  4.785638e-01    1.740462e+00   3.682535e-02
  4.807743e-01    1.711719e+00   3.642711e-02
  4.829847e-01    1.724603e+00   3.647159e-02
  4.851952e-01    1.743885e+00   3.658210e-02
  4.874056e-01    1.774694e+00   3.681078e-02
  4.896161e-01    1.744048e+00   3.640109e-02
  4.918265e-01    1.738296e+00   3.625074e-02
  4.940370e-01    1.772424e+00   3.651451e-02
  4.962475e-01    1.739894e+00   3.608854e-02
  4.984579e-01    1.710624e+00   3.569549e-02
  5.006684e-01    1.736711e+00   3.587895e-02
  5.028788e-01    1.718592e+00   3.560482e-02
  5.050893e-01    1.721287e+00   3.554605e-02
  5.072997e-01    1.710204e+00   3.534589e-02
  5.095102e-01    1.637437e+00   3.450289e-02
  5.117206e-01    1.646222e+00   3.451306e-02
  5.139311e-01    1.649679e+00   3.446752e-02
  5.161416e-01    1.659231e+00   3.448547e-02
  5.183520e-01    1.660650e+00   3.441823e-02
  5.205625e-01    1.653977e+00   3.426854e-02
  5.227729e-01    1.655869e+00   3.420815e-02
  5.249834e-01    1.711169e+00   3.469395e-02
  5.271938e-01    1.719488e+00   3.469703e-02
  5.294043e-01    1.767764e+00   3.509956e-02
  5.316148e-01    1.738478e+00   3.472788e-02
  5.338252e-01    1.784803e+00   3.510709e-02
  5.360357e-01    1.753858e+00   3.472222e-02
  5.382461e-01    1.746836e+00   3.457429e-02
  5.404566e-01    1.769532e+00   3.471897e-02
  5.426670e-01    1.781729e+00   3.475994e-02
  5.448775e-01    1.782931e+00   3.469397e-02
  5.470879e-01    1.827355e+00   3.504521e-02
  5.492984e-01    1.828088e+00   3.497429e-02
  5.515089e-01    1.780040e+00   3.443508e-02
  5.537193e-01    1.750254e+00   3.407053e-02
  5.559298e-01    1.738327e+00   3.387976e-02
  5.581402e-01    1.756819e+00   3.398505e-02
  5.603507e-01    1.809338e+00   3.441425e-02
  5.625611e-01    1.830371e+00   3.453858e-02
  5.647716e-01    1.835043e+00   3.450755e-02
  5.669821e-01    1.829860e+00   3.438450e-02
  5.691925e-01    1.770955e+00   3.375394e-02
  5.714030e-01    1.742853e+00   3.341366e-02
  5.736134e-01    1.749512e+00   3.340621e-02
  5.758239e-01    1.729397e+00   3.314275e-02
  5.780343e-01    1.729224e+00   3.307096e-02
  5.802448e-01    1.721449e+00   3.292747e-02
  5.824552e-01    1.716577e+00   3.281185e-02
  5.846657e-01    1.685863e+00   3.244920e-02
  5.868762e-01    1.670065e+00   3.222955e-02
  5.890866e-01    1.666493e+00   3.212829e-02
  5.912971e-01    1.660514e+00   3.200418e-02
  5.935075e-01    1.696536e+00   3.228262e-02
  5.957180e-01    1.649286e+00   3.176459e-02
  5.979284e-01    1.651089e+00   3.171705e-02
  6.001389e-01    1.677421e+00   3.190388e-02
  6.023494e-01    1.638144e+00   3.146413e-02
  6.045598e-01    1.672664e+00   3.172918e-02
  6.067703e-01    1.687914e+00   3.180941e-02
  6.089807e-01    1.695723e+00   3.181879e-02
  6.111912e-01    1.706487e+00   3.185589e-02
  6.134016e-01    1.677476e+00   3.152097e-02
  6.156121e-01    1.663936e+00   3.133108e-02
  6.178226e-01    1.722329e+00   3.181298e-02
  6.200330e-01    1.721098e+00   3.173889e-02
  6.222435e-01    1.701506e+00   3.149521e-02
  6.244539e-01    1.718136e+00   3.158677e-02
  6.266644e-01    1.713803e+00   3.148538e-02
  6.288748e-01    1.699026e+00   3.128834e-02
  6.310853e-01    1.711774e+00   3.134451e-02
  6.332957e-01    1.719406e+00   3.135366e-02
  6.355062e-01    1.725146e+00   3.134495e-02
  6.377167e-01    1.675659e+00   3.083283e-02
  6.399271e-01    1.685474e+00   3.086372e-02
  6.421376e-01    1.719959e+00   3.111837e-02
  6.443480e-01    1.710422e+00   3.097294e-02
  6.465585e-01    1.756968e+00   3.133206e-02
  6.487689e-01    1.752629e+00   3.123428e-02
  6.509794e-01    1.710894e+00   3.080194e-02
  6.531899e-01    1.714649e+00   3.077774e-02
  6.554003e-01    1.670862e+00   3.032510e-02
  6.576108e-01    1.638274e+00   2.997199e-02
  6.598212e-01    1.627605e+00   2.981873e-02
  6.620317e-01    1.634023e+00   2.982210e-02
  6.642421e-01    1.617986e+00   2.962049e-02
  6.664526e-01    1.552226e+00   2.895887e-02
  6.686630e-01    1.571190e+00   2.908133e-02
  6.708735e-01    1.596619e+00   2.926197e-02
  6.730840e-01    1.592192e+00   2.916808e-02
  6.752944e-01    1.605391e+00   2.923547e-02
  6.775049e-01    1.615992e+00   2.927860e-02
  6.797153e-01    1.612789e+00   2.919659e-02
  6.819258e-01    1.606172e+00   2.908410e-02
  6.841362e-01    1.609894e+00   2.906540e-02
  6.863467e-01    1.628407e+00   2.917968e-02
  6.885572e-01    1.637062e+00   2.920472e-02
  6.907676e-01    1.618557e+00   2.898714e-02
  6.929781e-01    1.596417e+00   2.873704e-02
  6.951885e-01    1.599976e+00   2.871809e-02
  6.973990e-01    1.609046e+00   2.874846e-02
  6.996094e-01    1.597781e+00   2.859726e-02
  7.018199e-01    1.612842e+00   2.868128e-02
  7.040303e-01    1.601449e+00   2.852961e-02
  7.062408e-01    1.598915e+00   2.845708e-02
  7.084513e-01    1.646739e+00   2.882930e-02
  7.106617e-01    1.621923e+00   2.856154e-02
  7.128722e-01    1.622270e+00   2.851516e-02
  7.150826e-01    1.610012e+00   2.835828e-02
  7.172931e-01    1.593524e+00   2.816406e-02
  7.195035e-01    1.537294e+00   2.761513e-02
  7.217140e-01    1.564350e+00   2.790635e-02
  7.239245e-01    1.564440e+00   2.813319e-02
  7.261349e-01    1.553319e+00   2.814087e-02
  7.283454e-01    1.607228e+00   2.869816e-02
  7.305558e-01    1.586402e+00   2.856585e-02
  7.327663e-01    1.600568e+00   2.873593e-02
  7.349767e-01    1.599083e+00   2.873910e-02
  7.371872e-01    1.578111e+00   2.853884e-02
  7.393976e-01    1.532589e+00   2.811015e-02
  7.416081e-01    1.541327e+00   2.817414e-02
  7.438186e-01    1.617629e+00   2.871682e-02
  7.460290e-01    1.608317e+00   2.833669e-02
  7.482395e-01    1.592466e+00   2.802457e-02
  7.504499e-01    1.543970e+00   2.745962e-02
  7.526604e-01    1.537086e+00   2.728316e-02
  7.548708e-01    1.548009e+00   2.729128e-02
  7.570813e-01    1.597813e+00   2.767547e-02
  7.592918e-01    1.580147e+00   2.748682e-02
  7.615022e-01    1.590835e+00   2.754565e-02
  7.637127e-01    1.567766e+00   2.731249e-02
  7.659231e-01    1.598433e+00   2.754608e-02
  7.681336e-01    1.605287e+00   2.757317e-02
  7.703440e-01    1.586364e+00   2.737884e-02
  7.725545e-01    1.556047e+00   2.708526e-02
  7.747650e-01    1.635175e+00   2.772645e-02
  7.769754e-01    1.635379e+00   2.767449e-02
  7.791859e-01    1.611163e+00   2.741475e-02
  7.813963e-01    1.613563e+00   2.738198e-02
  7.836068e-01    1.600798e+00   2.722121e-02
  7.858172e-01    1.551951e+00   2.675255e-02
  7.880277e-01    1.615751e+00   2.724498e-02
  7.902381e-01    1.610424e+00   2.715061e-02
  7.924486e-01    1.617831e+00   2.716257e-02
  7.946591e-01    1.620204e+00   2.713389e-02
  7.968695e-01    1.601767e+00   2.693079e-02
  7.990800e-01    1.623605e+00   2.706530e-02
  8.012904e-01    1.603900e+00   2.685403e-02
  8.035009e-01    1.614799e+00   2.689718e-02
  8.057113e-01    1.622831e+00   2.691735e-02
  8.079218e-01    1.616412e+00   2.681770e-02
  8.101323e-01    1.624205e+00   2.683663e-02
  8.123427e-01    1.671705e+00   2.717978e-02
  8.145532e-01    1.695834e+00   2.732844e-02
  8.167636e-01    1.624053e+00   2.669882e-02
  8.189741e-01    1.651146e+00   2.687571e-02
  8.211845e-01    1.655103e+00   2.686280e-02
  8.233950e-01    1.659000e+00   2.685067e-02
  8.256054e-01    1.650026e+00   2.673359e-02
  8.278159e-01    1.635678e+00   2.657315e-02
  8.300264e-01    1.658586e+00   2.671524e-02
  8.322368e-01    1.621493e+00   2.637191e-02
  8.344473e-01    1.634935e+00   2.643767e-02
  8.366577e-01    1.640112e+00   2.643690e-02
  8.388682e-01    1.641976e+00   2.640963e-02
  8.410786e-01    1.652155e+00   2.644915e-02
  8.432891e-01    1.627730e+00   2.621121e-02
  8.454996e-01    1.639865e+00   2.626710e-02
  8.477100e-01    1.614060e+00   2.601825e-02
  8.499205e-01    1.621463e+00   2.603689e-02
  8.521309e-01    1.655775e+00   2.626989e-02
  8.543414e-01    1.659585e+00   2.625910e-02
  8.565518e-01    1.622701e+00   2.592522e-02
  8.587623e-01    1.615316e+00   2.582588e-02
  8.609727e-01    1.624110e+00   2.585592e-02
  8.631832e-01    1.628505e+00   2.585099e-02
  8.653937e-01    1.609655e+00   2.566143e-02
  8.676041e-01    1.623934e+00   2.573611e-02
  8.698146e-01    1.632596e+00   2.576521e-02
  8.720250e-01    1.637984e+00   2.576836e-02
  8.742355e-01    1.594075e+00   2.538195e-02
  8.764459e-01    1.594583e+00   2.534725e-02
  8.786564e-01    1.597062e+00   2.532913e-02
  8.808669e-01    1.592517e+00   2.525474e-02
  8.830773e-01    1.581515e+00   2.512943e-02
  8.852878e-01    1.612926e+00   2.533972e-02
  8.874982e-01    1.623864e+00   2.538859e-02
  8.897087e-01    1.633240e+00   2.542374e-02
  8.919191e-01    1.632407e+00   2.537910e-02
  8.941296e-01    1.674452e+00   2.566574e-02
  8.963401e-01    1.595988e+00   2.502082e-02
  8.985505e-01    1.559100e+00   2.469347e-02
  9.007610e-01    1.598393e+00   2.496596e-02
  9.029714e-01    1.606549e+00   2.499368e-02
  9.051819e-01    1.605164e+00   2.494562e-02
  9.073923e-01    1.608749e+00   2.493679e-02
  9.096028e-01    1.585793e+00   2.472348e-02
  9.118132e-01    1.593802e+00   2.474966e-02
  9.140237e-01    1.641787e+00   2.508238e-02
  9.162342e-01    1.644621e+00   2.506899e-02
  9.184446e-01    1.634097e+00   2.495251e-02
  9.206551e-01    1.629816e+00   2.488389e-02
  9.228655e-01    1.658559e+00   2.506646e-02
  9.250760e-01    1.657784e+00   2.502466e-02
  9.272864e-01    1.634952e+00   2.481712e-02
  9.294969e-01    1.609437e+00   2.458684e-02
  9.317074e-01    1.601446e+00   2.449105e-02
  9.339178e-01    1.613441e+00   2.454902e-02
  9.361283e-01    1.653597e+00   2.481599e-02
  9.383387e-01    1.677034e+00   2.495726e-02
  9.405492e-01    1.672735e+00   2.489045e-02
  9.427596e-01    1.674975e+00   2.487124e-02
  9.449701e-01    1.701647e+00   2.503443e-02
  9.471805e-01    1.662699e+00   2.471122e-02
  9.493910e-01    1.679795e+00   2.480385e-02
  9.516015e-01    1.708759e+00   2.498183e-02
  9.538119e-01    1.744005e+00   2.520359e-02
  9.560224e-01    1.731210e+00   2.507563e-02
  9.582328e-01    1.764110e+00   2.527880e-02
  9.604433e-01    1.806880e+00   2.554718e-02
  9.626537e-01    1.843823e+00   2.577234e-02
  9.648642e-01    1.832639e+00   2.565885e-02
  9.670747e-01    1.833818e+00   2.563172e-02
  9.692851e-01    1.875329e+00   2.588572e-02
  9.714956e-01    1.959277e+00   2.642146e-02
  9.737060e-01    2.009554e+00   2.672317e-02
  9.759165e-01    1.980828e+00   2.649408e-02
  9.781269e-01    1.932823e+00   2.613685e-02
  9.803374e-01    1.904513e+00   2.590883e-02
  9.825478e-01    1.885296e+00   2.574380e-02
  9.847583e-01    1.824768e+00   2.529276e-02
  9.869688e-01    1.826153e+00   2.526849e-02
  9.891792e-01    1.792665e+00   2.500247e-02
  9.913897e-01    1.738955e+00   2.459184e-02
  9.936001e-01    1.725376e+00   2.446356e-02
  9.958106e-01    1.724618e+00   2.442495e-02
  9.980210e-01    1.690005e+00   2.414723e-02
  1.000231e+00    1.650853e+00   2.399660e-02
  1.002442e+00    1.661177e+00   2.419943e-02
  1.004652e+00    1.652951e+00   2.420678e-02
  1.006863e+00    1.642220e+00   2.417815e-02
  1.009073e+00    1.608909e+00   2.396831e-02
  1.011284e+00    1.600363e+00   2.393651e-02
  1.013494e+00    1.570916e+00   2.373880e-02
  1.015705e+00    1.608726e+00   2.404546e-02
  1.017915e+00    1.584008e+00   2.387648e-02
  1.020126e+00    1.643366e+00   2.433614e-02
  1.022336e+00    1.698223e+00   2.475119e-02
  1.024547e+00    1.739378e+00   2.506119e-02
  1.026757e+00    1.646966e+00   2.439504e-02
  1.028967e+00    1.544939e+00   2.363501e-02
  1.031178e+00    1.552452e+00   2.369857e-02
  1.033388e+00    1.595684e+00   2.403145e-02
  1.035599e+00    1.641717e+00   2.437917e-02
  1.037809e+00    1.696504e+00   2.478606e-02
  1.040020e+00    1.721581e+00   2.496991e-02
  1.042230e+00    1.784404e+00   2.542353e-02
  1.044441e+00    1.892199e+00   2.617992e-02
  1.046651e+00    2.061786e+00   2.732814e-02
  1.048862e+00    2.017929e+00   2.703507e-02
  1.051072e+00    1.808934e+00   2.559425e-02
  1.053282e+00    1.666475e+00   2.456472e-02
  1.055493e+00    1.620357e+00   2.421796e-02
  1.057703e+00    1.594288e+00   2.402078e-02
  1.059914e+00    1.624448e+00   2.424246e-02
  1.062124e+00    1.626088e+00   2.425048e-02
  1.064335e+00    1.605307e+00   2.409145e-02
  1.066545e+00    1.547580e+00   2.364818e-02
  1.068756e+00    1.536826e+00   2.356207e-02
  1.070966e+00    1.507563e+00   2.333007e-02
  1.073177e+00    1.476353e+00   2.308124e-02
  1.075387e+00    1.507716e+00   2.331982e-02
  1.077597e+00    1.480954e+00   2.310466e-02
  1.079808e+00    1.447934e+00   2.271363e-02
  1.082018e+00    1.434266e+00   2.241894e-02
  1.084229e+00    1.434918e+00   2.231496e-02
  1.086439e+00    1.451257e+00   2.235431e-02
  1.088650e+00    1.463669e+00   2.237381e-02
  1.090860e+00    1.446688e+00   2.217620e-02
  1.093071e+00    1.424303e+00   2.194235e-02
  1.095281e+00    1.439126e+00   2.199909e-02
  1.097492e+00    1.433409e+00   2.190069e-02
  1.099702e+00    1.450338e+00   2.197806e-02
  1.101912e+00    1.417091e+00   2.167623e-02
  1.104123e+00    1.416478e+00   2.162363e-02
  1.106333e+00    1.454102e+00   2.186418e-02
  1.108544e+00    1.448742e+00   2.177931e-02
  1.110754e+00    1.412691e+00   2.146381e-02
  1.112965e+00    1.418020e+00   2.146378e-02
  1.115175e+00    1.415990e+00   2.140729e-02
  1.117386e+00    1.402252e+00   2.126410e-02
  1.119596e+00    1.420527e+00   2.136422e-02
  1.121807e+00    1.424976e+00   2.135864e-02
  1.124017e+00    1.384801e+00   2.101905e-02
  1.126228e+00    1.397106e+00   2.107654e-02
  1.128438e+00    1.416486e+00   2.118528e-02
  1.130648e+00    1.372550e+00   2.082013e-02
  1.132859e+00    1.399621e+00   2.099005e-02
  1.135069e+00    1.392622e+00   2.090278e-02
  1.137280e+00    1.388434e+00   2.083833e-02
  1.139490e+00    1.403881e+00   2.092067e-02
  1.141701e+00    1.368272e+00   2.062075e-02
  1.143911e+00    1.349262e+00   2.044550e-02
  1.146122e+00    1.382512e+00   2.066386e-02
  1.148332e+00    1.376998e+00   2.059076e-02
  1.150543e+00    1.367344e+00   2.048776e-02
  1.152753e+00    1.356428e+00   2.037517e-02
  1.154963e+00    1.381868e+00   2.053422e-02
  1.157174e+00    1.370312e+00   2.041806e-02
  1.159384e+00    1.365619e+00   2.035329e-02
  1.161595e+00    1.334128e+00   2.008781e-02
  1.163805e+00    1.350329e+00   2.018032e-02
  1.166016e+00    1.373275e+00   2.032158e-02
  1.168226e+00    1.391021e+00   2.042324e-02
  1.170437e+00    1.413343e+00   2.055735e-02
  1.172647e+00    1.377327e+00   2.026470e-02
  1.174858e+00    1.400715e+00   2.040758e-02
  1.177068e+00    1.383679e+00   2.025462e-02
  1.179278e+00    1.364828e+00   2.008757e-02
  1.181489e+00    1.363026e+00   2.004725e-02
  1.183699e+00    1.373944e+00   2.009965e-02
  1.185910e+00    1.356612e+00   1.994472e-02
  1.188120e+00    1.356558e+00   1.991764e-02
  1.190331e+00    1.370908e+00   1.999577e-02
  1.192541e+00    1.387198e+00   2.008653e-02
  1.194752e+00    1.388975e+00   2.007199e-02
  1.196962e+00    1.367850e+00   1.989287e-02
  1.199173e+00    1.343593e+00   1.968927e-02
  1.201383e+00    1.328541e+00   1.955170e-02
  1.203593e+00    1.362946e+00   1.977832e-02
  1.205804e+00    1.381024e+00   1.988284e-02
  1.208014e+00    1.387625e+00   1.990309e-02
  1.210225e+00    1.370477e+00   1.975421e-02
  1.212435e+00    1.353430e+00   1.960615e-02
  1.214646e+00    1.336930e+00   1.946029e-02
  1.216856e+00    1.349018e+00   1.952258e-02
  1.219067e+00    1.371604e+00   1.966068e-02
  1.221277e+00    1.375236e+00   1.966144e-02
  1.223488e+00    1.354399e+00   1.948613e-02
  1.225698e+00    1.324500e+00   1.924321e-02
  1.227909e+00    1.330327e+00   1.925553e-02
  1.230119e+00    1.334884e+00   1.925681e-02
  1.232329e+00    1.360595e+00   1.941053e-02
  1.234540e+00    1.337642e+00   1.921598e-02
  1.236750e+00    1.371381e+00   1.942628e-02
  1.238961e+00    1.372791e+00   1.940910e-02
  1.241171e+00    1.340994e+00   1.915889e-02
  1.243382e+00    1.340647e+00   1.913297e-02
  1.245592e+00    1.331861e+00   1.904626e-02
  1.247803e+00    1.343696e+00   1.910706e-02
  1.250013e+00    1.366347e+00   1.924377e-02
  1.252224e+00    1.338186e+00   1.902127e-02
  1.254434e+00    1.336542e+00   1.898596e-02
  1.256644e+00    1.352762e+00   1.907759e-02
  1.258855e+00    1.346938e+00   1.901324e-02
  1.261065e+00    1.324294e+00   1.882959e-02
  1.263276e+00    1.358190e+00   1.904603e-02
  1.265486e+00    1.351537e+00   1.897644e-02
  1.267697e+00    1.364512e+00   1.904416e-02
  1.269907e+00    1.366743e+00   1.903690e-02
  1.272118e+00    1.353941e+00   1.892490e-02
  1.274328e+00    1.376986e+00   1.906234e-02
  1.276539e+00    1.361959e+00   1.893516e-02
  1.278749e+00    1.344745e+00   1.879287e-02
  1.280959e+00    1.343223e+00   1.875974e-02
  1.283170e+00    1.372373e+00   1.893960e-02
  1.285380e+00    1.358237e+00   1.881929e-02
  1.287591e+00    1.346424e+00   1.871527e-02
  1.289801e+00    1.339126e+00   1.864334e-02
  1.292012e+00    1.336996e+00   1.861150e-02
  1.294222e+00    1.332819e+00   1.856625e-02
  1.296433e+00    1.373206e+00   1.882972e-02
  1.298643e+00    1.376799e+00   1.883771e-02
  1.300854e+00    1.374105e+00   1.880270e-02
  1.303064e+00    1.367911e+00   1.874095e-02
  1.305274e+00    1.352969e+00   1.861682e-02
  1.307485e+00    1.360974e+00   1.865021e-02
  1.309695e+00    1.341683e+00   1.849537e-02
  1.311906e+00    1.351745e+00   1.854287e-02
  1.314116e+00    1.380486e+00   1.871794e-02
  1.316327e+00    1.383374e+00   1.871557e-02
  1.318537e+00    1.382762e+00   1.868926e-02
  1.320748e+00    1.376515e+00   1.862524e-02
  1.322958e+00    1.382213e+00   1.864299e-02
  1.325169e+00    1.357233e+00   1.845269e-02
  1.327379e+00    1.356400e+00   1.842516e-02
  1.329589e+00    1.334573e+00   1.825536e-02
  1.331800e+00    1.371380e+00   1.848452e-02
  1.334010e+00    1.347465e+00   1.830202e-02
  1.336221e+00    1.341376e+00   1.823892e-02
  1.338431e+00    1.345491e+00   1.824607e-02
  1.340642e+00    1.346100e+00   1.831424e-02
  1.342852e+00    1.361469e+00   1.851960e-02
  1.345063e+00    1.346240e+00   1.846516e-02
  1.347273e+00    1.345724e+00   1.849680e-02
  1.349484e+00    1.326720e+00   1.839317e-02
  1.351694e+00    1.367509e+00   1.869661e-02
  1.353905e+00    1.371875e+00   1.874460e-02
  1.356115e+00    1.362975e+00   1.869881e-02
  1.358325e+00    1.347337e+00   1.860454e-02
  1.360536e+00    1.349603e+00   1.863180e-02
  1.362746e+00    1.350023e+00   1.864426e-02
  1.364957e+00    1.314542e+00   1.840520e-02
  1.367167e+00    1.319809e+00   1.844909e-02
  1.369378e+00    1.340905e+00   1.860197e-02
  1.371588e+00    1.333079e+00   1.855273e-02
  1.373799e+00    1.316999e+00   1.844412e-02
  1.376009e+00    1.329601e+00   1.853556e-02
  1.378220e+00    1.311120e+00   1.840878e-02
  1.380430e+00    1.314645e+00   1.843621e-02
  1.382640e+00    1.314047e+00   1.843290e-02
  1.384851e+00    1.321267e+00   1.848436e-02
  1.387061e+00    1.322493e+00   1.849323e-02
  1.389272e+00    1.299882e+00   1.833466e-02
  1.391482e+00    1.301620e+00   1.834624e-02
  1.393693e+00    1.305264e+00   1.837102e-02
  1.395903e+00    1.308994e+00   1.839575e-02
  1.398114e+00    1.305081e+00   1.836684e-02
  1.400324e+00    1.281198e+00   1.819587e-02
  1.402535e+00    1.295819e+00   1.829707e-02
  1.404745e+00    1.299341e+00   1.831953e-02
  1.406955e+00    1.284536e+00   1.821218e-02
  1.409166e+00    1.248649e+00   1.795267e-02
  1.411376e+00    1.262341e+00   1.804773e-02
  1.413587e+00    1.258803e+00   1.801864e-02
  1.415797e+00    1.244035e+00   1.790912e-02
  1.418008e+00    1.260716e+00   1.798706e-02
  1.420218e+00    1.262327e+00   1.784929e-02
  1.422429e+00    1.249315e+00   1.767243e-02
  1.424639e+00    1.279348e+00   1.781865e-02
  1.426850e+00    1.268757e+00   1.769010e-02
  1.429060e+00    1.244757e+00   1.747347e-02
  1.431270e+00    1.260579e+00   1.754003e-02
  1.433481e+00    1.254746e+00   1.745869e-02
  1.435691e+00    1.257783e+00   1.744157e-02
  1.437902e+00    1.300394e+00   1.769764e-02
  1.440112e+00    1.280140e+00   1.752382e-02
  1.442323e+00    1.282888e+00   1.750937e-02
  1.444533e+00    1.300878e+00   1.759879e-02
  1.446744e+00    1.275793e+00   1.739707e-02
  1.448954e+00    1.292874e+00   1.748270e-02
  1.451165e+00    1.270331e+00   1.729984e-02
  1.453375e+00    1.274766e+00   1.730192e-02
  1.455586e+00    1.276230e+00   1.728362e-02
  1.457796e+00    1.262228e+00   1.716112e-02
  1.460006e+00    1.248453e+00   1.704019e-02
  1.462217e+00    1.285988e+00   1.726806e-02
  1.464427e+00    1.287998e+00   1.725578e-02
  1.466638e+00    1.275164e+00   1.714420e-02
  1.468848e+00    1.258513e+00   1.700667e-02
  1.471059e+00    1.258924e+00   1.698446e-02
  1.473269e+00    1.234807e+00   1.679695e-02
  1.475480e+00    1.244147e+00   1.683681e-02
  1.477690e+00    1.263110e+00   1.694083e-02
  1.479901e+00    1.292172e+00   1.711058e-02
  1.482111e+00    1.246952e+00   1.678539e-02
  1.484321e+00    1.242233e+00   1.673068e-02
  1.486532e+00    1.274381e+00   1.692339e-02
  1.488742e+00    1.269179e+00   1.686613e-02
  1.490953e+00    1.267436e+00   1.683192e-02
  1.493163e+00    1.266228e+00   1.680158e-02
  1.495374e+00    1.261040e+00   1.674568e-02
  1.497584e+00    1.229068e+00   1.651063e-02
  1.499795e+00    1.264929e+00   1.672810e-02
  1.502005e+00    1.270560e+00   1.674350e-02
  1.504216e+00    1.275577e+00   1.675537e-02
  1.506426e+00    1.251547e+00   1.657603e-02
  1.508636e+00    1.239272e+00   1.647424e-02
  1.510847e+00    1.232499e+00   1.640754e-02
  1.513057e+00    1.240438e+00   1.643538e-02
  1.515268e+00    1.241256e+00   1.641520e-02
  1.517478e+00    1.262534e+00   1.653007e-02
  1.519689e+00    1.289598e+00   1.668100e-02
  1.521899e+00    1.288549e+00   1.665079e-02
  1.524110e+00    1.274318e+00   1.653808e-02
  1.526320e+00    1.273442e+00   1.651264e-02
  1.528531e+00    1.292928e+00   1.661840e-02
  1.530741e+00    1.264656e+00   1.641647e-02
  1.532951e+00    1.245054e+00   1.626917e-02
  1.535162e+00    1.245733e+00   1.636008e-02
  1.537372e+00    1.227904e+00   1.630894e-02
  1.539583e+00    1.206167e+00   1.619757e-02
  1.541793e+00    1.215334e+00   1.626586e-02
  1.544004e+00    1.244509e+00   1.646019e-02
  1.546214e+00    1.251608e+00   1.650557e-02
  1.548425e+00    1.255661e+00   1.653254e-02
  1.550635e+00    1.258584e+00   1.656150e-02
  1.552846e+00    1.258894e+00   1.657325e-02
  1.555056e+00    1.251656e+00   1.648396e-02
  1.557266e+00    1.237720e+00   1.628176e-02
  1.559477e+00    1.241115e+00   1.624504e-02
  1.561687e+00    1.252688e+00   1.628983e-02
  1.563898e+00    1.260474e+00   1.632310e-02
  1.566108e+00    1.256924e+00   1.628409e-02
  1.568319e+00    1.250463e+00   1.622651e-02
  1.570529e+00    1.269715e+00   1.632554e-02
  1.572740e+00    1.286245e+00   1.640341e-02
  1.574950e+00    1.250139e+00   1.614517e-02
  1.577161e+00    1.246323e+00   1.609502e-02
  1.579371e+00    1.238746e+00   1.602239e-02
  1.581582e+00    1.250324e+00   1.607729e-02
  1.583792e+00    1.267657e+00   1.617015e-02
  1.586002e+00    1.252931e+00   1.605829e-02
  1.588213e+00    1.228881e+00   1.588628e-02
  1.590423e+00    1.235002e+00   1.590579e-02
  1.592634e+00    1.240173e+00   1.591747e-02
  1.594844e+00    1.232121e+00   1.584441e-02
  1.597055e+00    1.221436e+00   1.575524e-02
  1.599265e+00    1.243167e+00   1.587404e-02
  1.601476e+00    1.246177e+00   1.587289e-02
  1.603686e+00    1.270761e+00   1.600869e-02
  1.605897e+00    1.237424e+00   1.577718e-02
  1.608107e+00    1.228060e+00   1.569786e-02
  1.610317e+00    1.250528e+00   1.582142e-02
  1.612528e+00    1.225720e+00   1.564459e-02
  1.614738e+00    1.216240e+00   1.556515e-02
  1.616949e+00    1.199863e+00   1.544122e-02
  1.619159e+00    1.221281e+00   1.555970e-02
  1.621370e+00    1.221792e+00   1.554449e-02
  1.623580e+00    1.207326e+00   1.543392e-02
  1.625791e+00    1.190780e+00   1.530965e-02
  1.628001e+00    1.207891e+00   1.540098e-02
  1.630212e+00    1.195166e+00   1.530186e-02
  1.632422e+00    1.165478e+00   1.509288e-02
  1.634632e+00    1.181158e+00   1.517676e-02
  1.636843e+00    1.149995e+00   1.495791e-02
  1.639053e+00    1.142431e+00   1.489155e-02
  1.641264e+00    1.160301e+00   1.499052e-02
  1.643474e+00    1.175267e+00   1.506944e-02
  1.645685e+00    1.149449e+00   1.488637e-02
  1.647895e+00    1.150135e+00   1.487427e-02
  1.650106e+00    1.125721e+00   1.469874e-02
  1.652316e+00    1.114475e+00   1.460889e-02
  1.654527e+00    1.112501e+00   1.457951e-02
  1.656737e+00    1.106372e+00   1.452293e-02
  1.658947e+00    1.134997e+00   1.469332e-02
  1.661158e+00    1.129057e+00   1.463853e-02
  1.663368e+00    1.178148e+00   1.493697e-02
  1.665579e+00    1.182156e+00   1.494578e-02
  1.667789e+00    1.124377e+00   1.455965e-02
  1.670000e+00    1.109573e+00   1.444802e-02
  1.672210e+00    1.095572e+00   1.434080e-02
  1.674421e+00    1.072194e+00   1.417186e-02
  1.676631e+00    1.089701e+00   1.427131e-02
  1.678842e+00    1.096814e+00   1.430206e-02
  1.681052e+00    1.072392e+00   1.412670e-02
  1.683263e+00    1.055199e+00   1.399810e-02
  1.685473e+00    1.069928e+00   1.408042e-02
  1.687683e+00    1.080702e+00   1.413572e-02
  1.689894e+00    1.086840e+00   1.416000e-02
  1.692104e+00    1.077110e+00   1.408156e-02
  1.694315e+00    1.068920e+00   1.401343e-02
  1.696525e+00    1.049875e+00   1.387302e-02
  1.698736e+00    1.063130e+00   1.394551e-02
  1.700946e+00    1.050857e+00   1.384973e-02
  1.703157e+00    1.046518e+00   1.380653e-02
  1.705367e+00    1.050511e+00   1.381836e-02
  1.707578e+00    1.054026e+00   1.382685e-02
  1.709788e+00    1.034598e+00   1.368479e-02
  1.711998e+00    1.041970e+00   1.371846e-02
  1.714209e+00    1.009982e+00   1.349200e-02
  1.716419e+00    1.019325e+00   1.354009e-02
  1.718630e+00    1.018303e+00   1.351914e-02
  1.720840e+00    1.013962e+00   1.347620e-02
  1.723051e+00    1.010068e+00   1.343653e-02
  1.725261e+00    1.029741e+00   1.355201e-02
  1.727472e+00    1.009673e+00   1.340521e-02
  1.729682e+00    1.007276e+00   1.337587e-02
  1.731893e+00    1.001557e+00   1.332399e-02
  1.734103e+00    1.011688e+00   1.337741e-02
  1.736313e+00    1.022614e+00   1.343533e-02
  1.738524e+00    9.974958e-01   1.325552e-02
  1.740734e+00    9.902813e-01   1.319384e-02
  1.742945e+00    9.930152e-01   1.319862e-02
  1.745155e+00    9.713578e-01   1.304059e-02
  1.747366e+00    9.835491e-01   1.310838e-02
  1.749576e+00    9.745153e-01   1.303446e-02
  1.751787e+00    9.576055e-01   1.290771e-02
  1.753997e+00    9.477155e-01   1.282772e-02
  1.756208e+00    9.284003e-01   1.268345e-02
  1.758418e+00    9.340737e-01   1.270927e-02
  1.760628e+00    9.271988e-01   1.264938e-02
  1.762839e+00    9.565995e-01   1.283517e-02
  1.765049e+00    9.480078e-01   1.276442e-02
  1.767260e+00    9.363562e-01   1.267305e-02
  1.769470e+00    9.542702e-01   1.278074e-02
  1.771681e+00    9.553920e-01   1.277509e-02
  1.773891e+00    9.607792e-01   1.279793e-02
  1.776102e+00    9.471089e-01   1.269369e-02
  1.778312e+00    9.184961e-01   1.248794e-02
  1.780523e+00    8.970767e-01   1.232901e-02
  1.782733e+00    9.192462e-01   1.246789e-02
  1.784944e+00    9.281938e-01   1.251558e-02
  1.787154e+00    9.210539e-01   1.245490e-02
  1.789364e+00    9.449911e-01   1.260312e-02
  1.791575e+00    9.074126e-01   1.233761e-02
  1.793785e+00    9.077227e-01   1.232739e-02
  1.795996e+00    9.139825e-01   1.235737e-02
  1.798206e+00    8.963547e-01   1.222525e-02
  1.800417e+00    9.561091e-01   1.261318e-02
  1.802627e+00    1.008065e+00   1.293885e-02
  1.804838e+00    1.029129e+00   1.306046e-02
  1.807048e+00    1.010454e+00   1.292793e-02
  1.809259e+00    9.494007e-01   1.251735e-02
  1.811469e+00    9.552519e-01   1.254047e-02
  1.813679e+00    9.904702e-01   1.275383e-02
  1.815890e+00    1.005615e+00   1.283540e-02
  1.818100e+00    9.411497e-01   1.240172e-02
  1.820311e+00    8.899388e-01   1.204483e-02
  1.822521e+00    8.850931e-01   1.199719e-02
  1.824732e+00    8.760008e-01   1.192071e-02
  1.826942e+00    8.866019e-01   1.198028e-02
  1.829153e+00    8.706739e-01   1.186061e-02
  1.831363e+00    8.647441e-01   1.180823e-02
  1.833574e+00    8.630052e-01   1.178480e-02
  1.835784e+00    8.601356e-01   1.175389e-02
  1.837994e+00    9.069105e-01   1.205731e-02
  1.840205e+00    9.562685e-01   1.236943e-02
  1.842415e+00    9.398055e-01   1.225028e-02
  1.844626e+00    9.077606e-01   1.202782e-02
  1.846836e+00    8.723474e-01   1.177941e-02
  1.849047e+00    8.905791e-01   1.189007e-02
  1.851257e+00    9.321508e-01   1.215448e-02
  1.853468e+00    9.513587e-01   1.226984e-02
  1.855678e+00    9.138141e-01   1.201615e-02
  1.857889e+00    8.843907e-01   1.181248e-02
  1.860099e+00    8.659889e-01   1.168026e-02
  1.862309e+00    8.589204e-01   1.162398e-02
  1.864520e+00    8.541543e-01   1.158311e-02
  1.866730e+00    8.828784e-01   1.176671e-02
  1.868941e+00    8.976431e-01   1.185349e-02
  1.871151e+00    8.513130e-01   1.153214e-02
  1.873362e+00    8.549617e-01   1.154546e-02
  1.875572e+00    8.461859e-01   1.147513e-02
  1.877783e+00    8.395934e-01   1.141898e-02
  1.879993e+00    8.368015e-01   1.138886e-02
  1.882204e+00    8.445864e-01   1.143084e-02
  1.884414e+00    8.343199e-01   1.135014e-02
  1.886624e+00    8.305011e-01   1.131315e-02
  1.888835e+00    8.386424e-01   1.135750e-02
  1.891045e+00    8.427513e-01   1.137439e-02
  1.893256e+00    8.580562e-01   1.146600e-02
  1.895466e+00    8.308656e-01   1.127175e-02
  1.897677e+00    8.207955e-01   1.119240e-02
  1.899887e+00    8.246846e-01   1.120796e-02
  1.902098e+00    8.203767e-01   1.116790e-02
  1.904308e+00    8.257275e-01   1.119368e-02
  1.906519e+00    8.417451e-01   1.129082e-02
  1.908729e+00    8.399154e-01   1.126789e-02
  1.910940e+00    7.960995e-01   1.095913e-02
  1.913150e+00    7.999622e-01   1.097524e-02
  1.915360e+00    8.048517e-01   1.099825e-02
  1.917571e+00    8.084737e-01   1.101219e-02
  1.919781e+00    8.017060e-01   1.095544e-02
  1.921992e+00    8.001174e-01   1.093410e-02
  1.924202e+00    8.105789e-01   1.099461e-02
  1.926413e+00    8.162730e-01   1.102288e-02
  1.928623e+00    8.101042e-01   1.097064e-02
  1.930834e+00    8.008986e-01   1.089777e-02
  1.933044e+00    7.881296e-01   1.080003e-02
  1.935255e+00    7.924492e-01   1.081938e-02
  1.937465e+00    7.830474e-01   1.074476e-02
  1.939675e+00    8.048590e-01   1.088256e-02
  1.941886e+00    7.981581e-01   1.082692e-02
  1.944096e+00    7.889481e-01   1.075419e-02
  1.946307e+00    7.743508e-01   1.064407e-02
  1.948517e+00    7.836575e-01   1.069750e-02
  1.950728e+00    8.073546e-01   1.084772e-02
  1.952938e+00    8.152744e-01   1.089063e-02
  1.955149e+00    8.024336e-01   1.079424e-02
  1.957359e+00    7.971481e-01   1.074857e-02
  1.959570e+00    8.079101e-01   1.080993e-02
  1.961780e+00    8.006244e-01   1.075112e-02
  1.963990e+00    7.939019e-01   1.069575e-02
  1.966201e+00    8.061004e-01   1.076745e-02
  1.968411e+00    8.091030e-01   1.077722e-02
  1.970622e+00    7.924023e-01   1.065528e-02
  1.972832e+00    7.870864e-01   1.060953e-02
  1.975043e+00    7.805604e-01   1.055542e-02
  1.977253e+00    7.934230e-01   1.063203e-02
  1.979464e+00    7.945735e-01   1.062965e-02
  1.981674e+00    7.751417e-01   1.048866e-02
  1.983885e+00    7.729554e-01   1.046388e-02
  1.986095e+00    7.649766e-01   1.040013e-02
  1.988305e+00    7.784530e-01   1.048145e-02
  1.990516e+00    7.998769e-01   1.061465e-02
  1.992726e+00    7.830999e-01   1.049304e-02
  1.994937e+00    7.550918e-01   1.029371e-02
  1.997147e+00    7.611388e-01   1.032519e-02
  1.999358e+00    7.801118e-01   1.044321e-02
  2.001568e+00    7.799766e-01   1.043144e-02
  2.003779e+00    7.695504e-01   1.034960e-02
  2.005989e+00    7.832497e-01   1.042919e-02
  2.008200e+00    7.861262e-01   1.043670e-02
  2.010410e+00    7.655521e-01   1.028750e-02
  2.012621e+00    7.673460e-01   1.028785e-02
  2.014831e+00    7.558289e-01   1.019895e-02
  2.017041e+00    7.558838e-01   1.018904e-02
  2.019252e+00    7.553186e-01   1.017531e-02
  2.021462e+00    7.826483e-01   1.034815e-02
  2.023673e+00    7.825394e-01   1.033795e-02
  2.025883e+00    7.778189e-01   1.029710e-02
  2.028094e+00    7.586709e-01   1.015995e-02
  2.030304e+00    7.725613e-01   1.024292e-02
  2.032515e+00    7.813343e-01   1.029151e-02
  2.034725e+00    7.577696e-01   1.012569e-02
  2.036936e+00    7.564370e-01   1.010745e-02
  2.039146e+00    7.471881e-01   1.003598e-02
  2.041356e+00    7.405424e-01   9.981673e-03
  2.043567e+00    7.453327e-01   1.000469e-02
  2.045777e+00    7.439303e-01   9.986082e-03
  2.047988e+00    7.613438e-01   1.009287e-02
  2.050198e+00    7.643166e-01   1.010406e-02
  2.052409e+00    7.569504e-01   1.004759e-02
  2.054619e+00    7.480534e-01   9.981001e-03
  2.056830e+00    7.715819e-01   1.012948e-02
  2.059040e+00    7.750285e-01   1.014445e-02
  2.061251e+00    7.750065e-01   1.013693e-02
  2.063461e+00    7.741780e-01   1.012379e-02
  2.065671e+00    7.735255e-01   1.011069e-02
  2.067882e+00    7.578470e-01   9.998618e-03
  2.070092e+00    7.476451e-01   9.921891e-03
  2.072303e+00    7.713718e-01   1.006880e-02
  2.074513e+00    7.979066e-01   1.023087e-02
  2.076724e+00    7.943385e-01   1.019823e-02
  2.078934e+00    7.694089e-01   1.002776e-02
  2.081145e+00    7.533287e-01   9.913251e-03
  2.083355e+00    7.501901e-01   9.883364e-03
  2.085566e+00    7.545859e-01   9.903282e-03
  2.087776e+00    7.446603e-01   9.828391e-03
  2.089986e+00    7.731782e-01   1.000581e-02
  2.092197e+00    7.987068e-01   1.016036e-02
  2.094407e+00    7.764555e-01   1.000836e-02
  2.096618e+00    7.496829e-01   9.825318e-03
  2.098828e+00    7.365027e-01   9.729244e-03
  2.101039e+00    7.251760e-01   9.645193e-03
  2.103249e+00    7.298671e-01   9.667678e-03
  2.105460e+00    7.254774e-01   9.629586e-03
  2.107670e+00    7.362776e-01   9.692190e-03
  2.109881e+00    7.288362e-01   9.633948e-03
  2.112091e+00    7.089429e-01   9.492669e-03
  2.114301e+00    7.192308e-01   9.552539e-03
  2.116512e+00    7.258621e-01   9.587667e-03
  2.118722e+00    7.116443e-01   9.484553e-03
  2.120933e+00    7.086186e-01   9.455574e-03
  2.123143e+00    7.091196e-01   9.450064e-03
  2.125354e+00    7.146778e-01   9.478522e-03
  2.127564e+00    7.082543e-01   9.427144e-03
  2.129775e+00    7.144278e-01   9.459429e-03
  2.131985e+00    7.071553e-01   9.402134e-03
  2.134196e+00    7.081122e-01   9.399949e-03
  2.136406e+00    7.085837e-01   9.394354e-03
  2.138617e+00    7.107342e-01   9.400133e-03
  2.140827e+00    7.164097e-01   9.453742e-03
  2.143037e+00    7.023554e-01   9.405882e-03
  2.145248e+00    7.011282e-01   9.419582e-03
  2.147458e+00    7.200441e-01   9.561104e-03
  2.149669e+00    7.086782e-01   9.497259e-03
  2.151879e+00    7.011058e-01   9.455587e-03
  2.154090e+00    7.135416e-01   9.546456e-03
  2.156300e+00    7.020508e-01   9.475891e-03
  2.158511e+00    7.156072e-01   9.572299e-03
  2.160721e+00    6.986287e-01   9.462888e-03
  2.162932e+00    7.150348e-01   9.577135e-03
  2.165142e+00    6.928984e-01   9.430743e-03
  2.167352e+00    6.937275e-01   9.439281e-03
  2.169563e+00    7.021273e-01   9.498219e-03
  2.171773e+00    6.981208e-01   9.473535e-03
  2.173984e+00    6.870273e-01   9.399381e-03
  2.176194e+00    6.929406e-01   9.440927e-03
  2.178405e+00    6.995190e-01   9.486350e-03
  2.180615e+00    6.951535e-01   9.457374e-03
  2.182826e+00    7.003695e-01   9.493480e-03
  2.185036e+00    6.932362e-01   9.445066e-03
  2.187247e+00    6.867195e-01   9.400508e-03
  2.189457e+00    6.899790e-01   9.422398e-03
  2.191667e+00    6.745090e-01   9.315991e-03
  2.193878e+00    6.905273e-01   9.425371e-03
  2.196088e+00    6.958488e-01   9.460950e-03
  2.198299e+00    6.882297e-01   9.407917e-03
  2.200509e+00    6.829264e-01   9.370548e-03
  2.202720e+00    6.795313e-01   9.346071e-03
  2.204930e+00    6.821980e-01   9.363149e-03
  2.207141e+00    6.954707e-01   9.452661e-03
  2.209351e+00    6.908351e-01   9.419218e-03
  2.211562e+00    6.882232e-01   9.399762e-03
  2.213772e+00    6.855620e-01   9.325733e-03
  2.215982e+00    6.813541e-01   9.252690e-03
  2.218193e+00    6.622923e-01   9.092991e-03
  2.220403e+00    6.917411e-01   9.268050e-03
  2.222614e+00    6.935235e-01   9.258755e-03
  2.224824e+00    6.843908e-01   9.178038e-03
  2.227035e+00    6.787398e-01   9.122566e-03
  2.229245e+00    6.570295e-01   8.958681e-03
  2.231456e+00    6.664969e-01   9.007432e-03
  2.233666e+00    6.748245e-01   9.048402e-03
  2.235877e+00    6.615731e-01   8.944951e-03
  2.238087e+00    6.744110e-01   9.017782e-03
  2.240298e+00    6.841159e-01   9.068530e-03
  2.242508e+00    6.647788e-01   8.924364e-03
  2.244718e+00    6.718460e-01   8.955826e-03
  2.246929e+00    6.797659e-01   8.993912e-03
  2.249139e+00    6.721334e-01   8.930861e-03
  2.251350e+00    6.688343e-01   8.897180e-03
  2.253560e+00    6.624753e-01   8.843276e-03
  2.255771e+00    6.545382e-01   8.778809e-03
  2.257981e+00    6.616871e-01   8.815471e-03
  2.260192e+00    6.723006e-01   8.874708e-03
  2.262402e+00    6.728079e-01   8.867159e-03
  2.264613e+00    6.707407e-01   8.842609e-03
  2.266823e+00    6.576339e-01   8.745461e-03
  2.269033e+00    6.566523e-01   8.728565e-03
  2.271244e+00    6.741182e-01   8.833418e-03
  2.273454e+00    6.849311e-01   8.893549e-03
  2.275665e+00    6.807367e-01   8.855820e-03
  2.277875e+00    6.876804e-01   8.890756e-03
  2.280086e+00    6.786695e-01   8.822128e-03
  2.282296e+00    6.498305e-01   8.623334e-03
  2.284507e+00    6.488029e-01   8.606430e-03
  2.286717e+00    6.580290e-01   8.657947e-03
  2.288928e+00    6.539781e-01   8.621409e-03
  2.291138e+00    6.703707e-01   8.719277e-03
  2.293348e+00    6.579403e-01   8.628512e-03
  2.295559e+00    6.511235e-01   8.574407e-03
  2.297769e+00    6.561551e-01   8.598209e-03
  2.299980e+00    6.633272e-01   8.635676e-03
  2.302190e+00    6.423761e-01   8.489152e-03
  2.304401e+00    6.434028e-01   8.486670e-03
  2.306611e+00    6.484464e-01   8.510704e-03
  2.308822e+00    6.515708e-01   8.522788e-03
  2.311032e+00    6.562373e-01   8.546776e-03
  2.313243e+00    6.422759e-01   8.449141e-03
  2.315453e+00    6.447154e-01   8.457623e-03
  2.317663e+00    6.414404e-01   8.427017e-03
  2.319874e+00    6.562247e-01   8.514800e-03
  2.322084e+00    6.490034e-01   8.458826e-03
  2.324295e+00    6.524844e-01   8.473222e-03
  2.326505e+00    6.368541e-01   8.362111e-03
  2.328716e+00    6.451969e-01   8.408141e-03
  2.330926e+00    6.386427e-01   8.356566e-03
  2.333137e+00    6.316217e-01   8.302198e-03
  2.335347e+00    6.398931e-01   8.347515e-03
  2.337558e+00    6.420847e-01   8.353558e-03
  2.339768e+00    6.459377e-01   8.369974e-03
  2.341979e+00    6.348796e-01   8.289680e-03
  2.344189e+00    6.438183e-01   8.339398e-03
  2.346399e+00    6.380975e-01   8.293756e-03
  2.348610e+00    6.308469e-01   8.238067e-03
  2.350820e+00    6.440886e-01   8.315847e-03
  2.353031e+00    6.382914e-01   8.270022e-03
  2.355241e+00    6.476023e-01   8.321981e-03
  2.357452e+00    6.426015e-01   8.281303e-03
  2.359662e+00    6.393385e-01   8.251959e-03
  2.361873e+00    6.533729e-01   8.333691e-03
  2.364083e+00    6.250402e-01   8.143009e-03
  2.366294e+00    6.324471e-01   8.182986e-03
  2.368504e+00    6.296058e-01   8.156491e-03
  2.370714e+00    6.194183e-01   8.082213e-03
  2.372925e+00    6.285723e-01   8.133641e-03
  2.375135e+00    6.208163e-01   8.075272e-03
  2.377346e+00    6.242345e-01   8.089527e-03
  2.379556e+00    6.172991e-01   8.036600e-03
  2.381767e+00    6.270038e-01   8.091607e-03
  2.383977e+00    6.473474e-01   8.213751e-03
  2.386188e+00    6.233913e-01   8.052394e-03
  2.388398e+00    6.271688e-01   8.068732e-03
  2.390609e+00    6.208670e-01   8.020364e-03
  2.392819e+00    6.048155e-01   7.908288e-03
  2.395029e+00    6.208760e-01   8.004915e-03
  2.397240e+00    6.027419e-01   7.879353e-03
  2.399450e+00    6.061353e-01   7.893739e-03
  2.401661e+00    6.153154e-01   7.945586e-03
  2.403871e+00    6.090434e-01   7.897256e-03
  2.406082e+00    5.925087e-01   7.781992e-03
  2.408292e+00    5.958275e-01   7.796037e-03
  2.410503e+00    5.957239e-01   7.787952e-03
  2.412713e+00    6.065931e-01   7.850878e-03
  2.414924e+00    6.232240e-01   7.950192e-03
  2.417134e+00    6.072777e-01   7.840187e-03
  2.419344e+00    5.966918e-01   7.764168e-03
  2.421555e+00    5.871856e-01   7.694655e-03
  2.423765e+00    6.083151e-01   7.824427e-03
  2.425976e+00    5.879485e-01   7.684606e-03
  2.428186e+00    5.992406e-01   7.750817e-03
  2.430397e+00    5.965592e-01   7.725993e-03
  2.432607e+00    5.761520e-01   7.585531e-03
  2.434818e+00    5.923232e-01   7.683722e-03
  2.437028e+00    5.916407e-01   7.672173e-03
  2.439239e+00    5.778313e-01   7.574544e-03
  2.441449e+00    5.961285e-01   7.686311e-03
  2.443659e+00    5.826840e-01   7.591855e-03
  2.445870e+00    5.903841e-01   7.654103e-03
  2.448080e+00    5.845917e-01   7.651313e-03
  2.450291e+00    5.678294e-01   7.557305e-03
  2.452501e+00    5.652975e-01   7.551483e-03
  2.454712e+00    5.527592e-01   7.475546e-03
  2.456922e+00    5.543345e-01   7.492707e-03
  2.459133e+00    5.637630e-01   7.561577e-03
  2.461343e+00    5.637090e-01   7.565554e-03
  2.463554e+00    5.615597e-01   7.554584e-03
  2.465764e+00    5.668344e-01   7.593110e-03
  2.467975e+00    5.790195e-01   7.676647e-03
  2.470185e+00    5.571346e-01   7.532400e-03
  2.472395e+00    5.553979e-01   7.521886e-03
  2.474606e+00    5.476737e-01   7.470950e-03
  2.476816e+00    5.463272e-01   7.462491e-03
  2.479027e+00    5.386710e-01   7.410846e-03
  2.481237e+00    5.518268e-01   7.501080e-03
  2.483448e+00    5.564063e-01   7.532449e-03
  2.485658e+00    5.539125e-01   7.515402e-03
  2.487869e+00    5.555549e-01   7.526586e-03
  2.490079e+00    5.424786e-01   7.436953e-03
  2.492290e+00    5.509095e-01   7.494085e-03
  2.494500e+00    5.277215e-01   7.333956e-03
  2.496710e+00    5.338508e-01   7.375717e-03
  2.498921e+00    5.235127e-01   7.302983e-03
  2.501131e+00    5.168837e-01   7.255654e-03
  2.503342e+00    5.189205e-01   7.268691e-03
  2.505552e+00    5.176021e-01   7.258334e-03
  2.507763e+00    5.199385e-01   7.273302e-03
  2.509973e+00    5.120826e-01   7.216770e-03
  2.512184e+00    5.069767e-01   7.179106e-03
  2.514394e+00    5.250739e-01   7.296775e-03
  2.516605e+00    5.384247e-01   7.341375e-03
  2.518815e+00    5.328518e-01   7.274774e-03
  2.521025e+00    5.253605e-01   7.202494e-03
  2.523236e+00    5.376088e-01   7.267780e-03
  2.525446e+00    5.309256e-01   7.206788e-03
  2.527657e+00    5.245296e-01   7.148643e-03
  2.529867e+00    5.267801e-01   7.149766e-03
  2.532078e+00    5.373310e-01   7.205787e-03
  2.534288e+00    5.374483e-01   7.192536e-03
  2.536499e+00    5.347652e-01   7.162503e-03
  2.538709e+00    5.276565e-01   7.103717e-03
  2.540920e+00    5.206103e-01   7.045499e-03
  2.543130e+00    5.273919e-01   7.080847e-03
  2.545340e+00    5.181984e-01   7.008871e-03
  2.547551e+00    5.084527e-01   6.932820e-03
  2.549761e+00    5.092275e-01   6.928646e-03
  2.551972e+00    5.161527e-01   6.966291e-03
  2.554182e+00    5.148674e-01   6.948503e-03
  2.556393e+00    5.267870e-01   7.019316e-03
  2.558603e+00    5.386170e-01   7.088468e-03
  2.560814e+00    5.268612e-01   7.001935e-03
  2.563024e+00    5.256391e-01   6.985179e-03
  2.565235e+00    5.172011e-01   6.919388e-03
  2.567445e+00    5.162530e-01   6.903512e-03
  2.569656e+00    5.143396e-01   6.881006e-03
  2.571866e+00    5.205010e-01   6.912705e-03
  2.574076e+00    5.154917e-01   6.870117e-03
  2.576287e+00    5.075472e-01   6.808704e-03
  2.578497e+00    5.033566e-01   6.772807e-03
  2.580708e+00    5.025956e-01   6.759680e-03
  2.582918e+00    5.154129e-01   6.837569e-03
  2.585129e+00    5.135965e-01   6.817778e-03
  2.587339e+00    5.093116e-01   6.781622e-03
  2.589550e+00    5.184926e-01   6.834889e-03
  2.591760e+00    5.103241e-01   6.773116e-03
  2.593971e+00    5.093072e-01   6.758840e-03
  2.596181e+00    5.116312e-01   6.768028e-03
  2.598391e+00    5.247238e-01   6.848810e-03
  2.600602e+00    5.146931e-01   6.777109e-03
  2.602812e+00    5.089874e-01   6.731892e-03
  2.605023e+00    5.058043e-01   6.703660e-03
  2.607233e+00    5.119666e-01   6.737221e-03
  2.609444e+00    4.973295e-01   6.633038e-03
  2.611654e+00    5.090028e-01   6.703097e-03
  2.613865e+00    5.129045e-01   6.721667e-03
  2.616075e+00    5.038838e-01   6.655168e-03
  2.618286e+00    5.080829e-01   6.675825e-03
  2.620496e+00    5.187179e-01   6.738542e-03
  2.622706e+00    5.115325e-01   6.685943e-03
  2.624917e+00    5.009382e-01   6.610512e-03
  2.627127e+00    4.946534e-01   6.563218e-03
  2.629338e+00    5.023733e-01   6.608258e-03
  2.631548e+00    5.214551e-01   6.726323e-03
  2.633759e+00    4.937663e-01   6.538228e-03
  2.635969e+00    5.035986e-01   6.596292e-03
  2.638180e+00    5.040768e-01   6.592426e-03
  2.640390e+00    5.053896e-01   6.594374e-03
  2.642601e+00    4.965390e-01   6.529744e-03
  2.644811e+00    5.086106e-01   6.601502e-03
  2.647021e+00    4.968399e-01   6.518127e-03
  2.649232e+00    5.054754e-01   6.567760e-03
  2.651442e+00    5.141929e-01   6.617547e-03
  2.653653e+00    5.190032e-01   6.641525e-03
  2.655863e+00    5.050138e-01   6.544665e-03
  2.658074e+00    5.084262e-01   6.560064e-03
  2.660284e+00    4.932813e-01   6.455282e-03
  2.662495e+00    5.003716e-01   6.494740e-03
  2.664705e+00    4.968399e-01   6.465222e-03
  2.666916e+00    5.000054e-01   6.479277e-03
  2.669126e+00    5.047303e-01   6.503323e-03
  2.671337e+00    4.903893e-01   6.403721e-03
  2.673547e+00    4.881985e-01   6.383052e-03
  2.675757e+00    4.951854e-01   6.422115e-03
  2.677968e+00    5.009754e-01   6.452998e-03
  2.680178e+00    4.903000e-01   6.377475e-03
  2.682389e+00    4.953723e-01   6.403986e-03
  2.684599e+00    4.916846e-01   6.373920e-03
  2.686810e+00    4.990725e-01   6.414969e-03
  2.689020e+00    4.997475e-01   6.412969e-03
  2.691231e+00    4.980001e-01   6.395420e-03
  2.693441e+00    5.034176e-01   6.423878e-03
  2.695652e+00    4.922750e-01   6.345869e-03
  2.697862e+00    4.832188e-01   6.280910e-03
  2.700072e+00    4.922981e-01   6.333561e-03
  2.702283e+00    4.922988e-01   6.327317e-03
  2.704493e+00    4.952642e-01   6.340016e-03
  2.706704e+00    4.947096e-01   6.330037e-03
  2.708914e+00    4.971760e-01   6.339754e-03
  2.711125e+00    4.886084e-01   6.278662e-03
  2.713335e+00    4.882935e-01   6.270516e-03
  2.715546e+00    5.021183e-01   6.352131e-03
  2.717756e+00    4.856699e-01   6.241319e-03
  2.719967e+00    4.918137e-01   6.274438e-03
  2.722177e+00    4.939491e-01   6.281859e-03
  2.724387e+00    4.885275e-01   6.241177e-03
  2.726598e+00    4.770634e-01   6.161498e-03
  2.728808e+00    4.800085e-01   6.174371e-03
  2.731019e+00    4.815753e-01   6.178338e-03
  2.733229e+00    4.869964e-01   6.207181e-03
  2.735440e+00    4.916629e-01   6.230548e-03
  2.737650e+00    4.793855e-01   6.146273e-03
  2.739861e+00    4.874302e-01   6.191516e-03
  2.742071e+00    4.961552e-01   6.240877e-03
  2.744282e+00    4.818855e-01   6.144243e-03
  2.746492e+00    4.787013e-01   6.117884e-03
  2.748702e+00    4.872607e-01   6.166406e-03
  2.750913e+00    4.836418e-01   6.137655e-03
  2.753123e+00    4.816712e-01   6.119025e-03
  2.755334e+00    4.842932e-01   6.129561e-03
  2.757544e+00    4.790092e-01   6.090301e-03
  2.759755e+00    4.918004e-01   6.165121e-03
  2.761965e+00    4.796882e-01   6.082759e-03
  2.764176e+00    4.781995e-01   6.067335e-03
  2.766386e+00    4.795730e-01   6.070259e-03
  2.768597e+00    4.804555e-01   6.069954e-03
  2.770807e+00    4.844108e-01   6.089004e-03
  2.773017e+00    4.704184e-01   5.994488e-03
  2.775228e+00    4.814540e-01   6.058583e-03
  2.777438e+00    4.872379e-01   6.089023e-03
  2.779649e+00    4.887854e-01   6.092728e-03
  2.781859e+00    4.785936e-01   6.023090e-03
  2.784070e+00    4.858225e-01   6.062511e-03
  2.786280e+00    4.672395e-01   5.939721e-03
  2.788491e+00    4.801793e-01   6.015547e-03
  2.790701e+00    4.601389e-01   5.883146e-03
  2.792912e+00    4.747306e-01   5.969712e-03
  2.795122e+00    4.845904e-01   6.025627e-03
  2.797333e+00    4.764532e-01   5.969252e-03
  2.799543e+00    4.770728e-01   5.967260e-03
  2.801753e+00    4.752802e-01   5.950187e-03
  2.803964e+00    4.739883e-01   5.936432e-03
  2.806174e+00    4.780325e-01   5.955542e-03
  2.808385e+00    4.715075e-01   5.907996e-03
  2.810595e+00    4.765320e-01   5.932487e-03
  2.812806e+00    4.803595e-01   5.949638e-03
  2.815016e+00    4.713596e-01   5.888904e-03
  2.817227e+00    4.725568e-01   5.922256e-03
  2.819437e+00    4.666522e-01   5.896144e-03
  2.821648e+00    4.639087e-01   5.881053e-03
  2.823858e+00    4.774467e-01   5.971599e-03
  2.826068e+00    4.813488e-01   6.000981e-03
  2.828279e+00    4.727559e-01   5.951231e-03
  2.830489e+00    4.698325e-01   5.936106e-03
  2.832700e+00    4.670986e-01   5.921380e-03
  2.834910e+00    4.619453e-01   5.890644e-03
  2.837121e+00    4.755570e-01   5.978523e-03
  2.839331e+00    4.777270e-01   5.993399e-03
  2.841542e+00    4.790450e-01   6.002679e-03
  2.843752e+00    4.685440e-01   5.937313e-03
  2.845963e+00    4.628923e-01   5.901783e-03
  2.848173e+00    4.651424e-01   5.916194e-03
  2.850383e+00    4.686575e-01   5.938800e-03
  2.852594e+00    4.758584e-01   5.984169e-03
  2.854804e+00    4.648840e-01   5.914271e-03
  2.857015e+00    4.620452e-01   5.895752e-03
  2.859225e+00    4.723602e-01   5.960933e-03
  2.861436e+00    4.728844e-01   5.963595e-03
  2.863646e+00    4.653133e-01   5.915695e-03
  2.865857e+00    4.675363e-01   5.930149e-03
  2.868067e+00    4.657415e-01   5.918977e-03
  2.870278e+00    4.757690e-01   5.982002e-03
  2.872488e+00    4.746754e-01   5.973940e-03
  2.874698e+00    4.767368e-01   5.985860e-03
  2.876909e+00    4.653554e-01   5.912632e-03
  2.879119e+00    4.653747e-01   5.911124e-03
  2.881330e+00    4.712364e-01   5.946761e-03
  2.883540e+00    4.570974e-01   5.855484e-03
  2.885751e+00    4.560858e-01   5.847367e-03
  2.887961e+00    4.623720e-01   5.885629e-03
  2.890172e+00    4.590662e-01   5.862969e-03
  2.892382e+00    4.595212e-01   5.864073e-03
  2.894593e+00    4.613031e-01   5.873585e-03
  2.896803e+00    4.636399e-01   5.886505e-03
  2.899014e+00    4.511718e-01   5.804882e-03
  2.901224e+00    4.557808e-01   5.832497e-03
  2.903434e+00    4.584615e-01   5.847670e-03
  2.905645e+00    4.717443e-01   5.929522e-03
  2.907855e+00    4.675975e-01   5.901296e-03
  2.910066e+00    4.603773e-01   5.853472e-03
  2.912276e+00    4.633344e-01   5.870107e-03
  2.914487e+00    4.634700e-01   5.868507e-03
  2.916697e+00    4.521792e-01   5.794368e-03
  2.918908e+00    4.584237e-01   5.832234e-03
  2.921118e+00    4.582078e-01   5.828167e-03
  2.923329e+00    4.624175e-01   5.852554e-03
  2.925539e+00    4.509514e-01   5.777273e-03
  2.927749e+00    4.571420e-01   5.814476e-03
  2.929960e+00    4.509893e-01   5.772466e-03
  2.932170e+00    4.591518e-01   5.822124e-03
  2.934381e+00    4.527248e-01   5.778821e-03
  2.936591e+00    4.439734e-01   5.720126e-03
  2.938802e+00    4.596008e-01   5.817232e-03
  2.941012e+00    4.498983e-01   5.753165e-03
  2.943223e+00    4.625511e-01   5.830793e-03
  2.945433e+00    4.563230e-01   5.787671e-03
  2.947644e+00    4.519252e-01   5.755589e-03
  2.949854e+00    4.557219e-01   5.775451e-03
  2.952064e+00    4.523459e-01   5.749803e-03
  2.954275e+00    4.684531e-01   5.846790e-03
  2.956485e+00    4.729665e-01   5.870640e-03
  2.958696e+00    4.625437e-01   5.801176e-03
  2.960906e+00    4.528650e-01   5.736000e-03
  2.963117e+00    4.559677e-01   5.751111e-03
  2.965327e+00    4.513818e-01   5.718234e-03
  2.967538e+00    4.557807e-01   5.743103e-03
  2.969748e+00    4.608659e-01   5.772228e-03
  2.971959e+00    4.498935e-01   5.699981e-03
  2.974169e+00    4.545383e-01   5.726733e-03
  2.976379e+00    4.576979e-01   5.743685e-03
  2.978590e+00    4.422551e-01   5.642866e-03
  2.980800e+00    4.488485e-01   5.681968e-03
  2.983011e+00    4.564289e-01   5.726967e-03
  2.985221e+00    4.555869e-01   5.718494e-03
  2.987432e+00    4.631118e-01   5.762415e-03
  2.989642e+00    4.584198e-01   5.730500e-03
  2.991853e+00    4.610657e-01   5.743716e-03
  2.994063e+00    4.486417e-01   5.662912e-03
  2.996274e+00    4.631849e-01   5.750735e-03
  2.998484e+00    4.673406e-01   5.773748e-03
  3.000694e+00    4.513040e-01   5.670380e-03
  3.002905e+00    4.557118e-01   5.695041e-03
  3.005115e+00    4.583769e-01   5.708688e-03
  3.007326e+00    4.562880e-01   5.692499e-03
  3.009536e+00    4.692421e-01   5.769419e-03
  3.011747e+00    4.713027e-01   5.779109e-03
  3.013957e+00    4.558381e-01   5.680325e-03
  3.016168e+00    4.477494e-01   5.626457e-03
  3.018378e+00    4.459380e-01   5.612033e-03
  3.020589e+00    4.479848e-01   5.621711e-03
  3.022799e+00    4.532411e-01   5.651423e-03
  3.025010e+00    4.531521e-01   5.647640e-03
  3.027220e+00    4.596777e-01   5.685003e-03
  3.029430e+00    4.632591e-01   5.703839e-03
  3.031641e+00    4.543242e-01   5.645419e-03
  3.033851e+00    4.581661e-01   5.665684e-03
  3.036062e+00    4.517184e-01   5.622914e-03
  3.038272e+00    4.527462e-01   5.625718e-03
  3.040483e+00    4.543914e-01   5.632700e-03
  3.042693e+00    4.585236e-01   5.654957e-03
  3.044904e+00    4.579211e-01   5.647185e-03
  3.047114e+00    4.597899e-01   5.653857e-03
  3.049325e+00    4.396810e-01   5.524497e-03
  3.051535e+00    4.505824e-01   5.588156e-03
  3.053745e+00    4.415520e-01   5.527200e-03
  3.055956e+00    4.448418e-01   5.543174e-03
  3.058166e+00    4.533435e-01   5.591644e-03
  3.060377e+00    4.419502e-01   5.516201e-03
  3.062587e+00    4.511386e-01   5.568611e-03
  3.064798e+00    4.536831e-01   5.580011e-03
  3.067008e+00    4.514502e-01   5.561542e-03
  3.069219e+00    4.431549e-01   5.505716e-03
  3.071429e+00    4.493070e-01   5.540289e-03
  3.073640e+00    4.636871e-01   5.624877e-03
  3.075850e+00    4.584389e-01   5.589335e-03
  3.078060e+00    4.609857e-01   5.601687e-03
  3.080271e+00    4.528661e-01   5.548644e-03
  3.082481e+00    4.583609e-01   5.578728e-03
  3.084692e+00    4.436204e-01   5.484937e-03
  3.086902e+00    4.494951e-01   5.517867e-03
  3.089113e+00    4.455081e-01   5.489796e-03
  3.091323e+00    4.553941e-01   5.546953e-03
  3.093534e+00    4.545658e-01   5.538529e-03
  3.095744e+00    4.560262e-01   5.543994e-03
  3.097955e+00    4.500083e-01   5.503755e-03
  3.100165e+00    4.416631e-01   5.449162e-03
  3.102375e+00    4.468181e-01   5.477454e-03
  3.104586e+00    4.453745e-01   5.465086e-03
  3.106796e+00    4.543919e-01   5.516616e-03
  3.109007e+00    4.448730e-01   5.455306e-03
  3.111217e+00    4.427374e-01   5.438512e-03
  3.113428e+00    4.522266e-01   5.493046e-03
  3.115638e+00    4.466538e-01   5.455862e-03
  3.117849e+00    4.418925e-01   5.422994e-03
  3.120059e+00    4.397645e-01   5.406477e-03
  3.122270e+00    4.562159e-01   5.503366e-03
  3.124480e+00    4.459417e-01   5.437376e-03
  3.126691e+00    4.487728e-01   5.451011e-03
  3.128901e+00    4.413954e-01   5.402916e-03
  3.131111e+00    4.501598e-01   5.452435e-03
  3.133322e+00    4.405448e-01   5.390449e-03
  3.135532e+00    4.482310e-01   5.433853e-03
  3.137743e+00    4.535334e-01   5.462384e-03
  3.139953e+00    4.421416e-01   5.389671e-03
  3.142164e+00    4.384789e-01   5.379261e-03
  3.144374e+00    4.384756e-01   5.407512e-03
  3.146585e+00    4.350836e-01   5.401000e-03
  3.148795e+00    4.398534e-01   5.441263e-03
  3.151006e+00    4.395867e-01   5.448141e-03
  3.153216e+00    4.425481e-01   5.473603e-03
  3.155426e+00    4.341287e-01   5.427556e-03
  3.157637e+00    4.331882e-01   5.427146e-03
  3.159847e+00    4.438875e-01   5.498642e-03
  3.162058e+00    4.454065e-01   5.512509e-03
  3.164268e+00    4.401219e-01   5.483773e-03
  3.166479e+00    4.470942e-01   5.530720e-03
  3.168689e+00    4.487329e-01   5.544252e-03
  3.170900e+00    4.441811e-01   5.519235e-03
  3.173110e+00    4.456054e-01   5.530991e-03
  3.175321e+00    4.466881e-01   5.540213e-03
  3.177531e+00    4.350227e-01   5.470129e-03
  3.179741e+00    4.320476e-01   5.453452e-03
  3.181952e+00    4.359620e-01   5.480194e-03
  3.184162e+00    4.397307e-01   5.506029e-03
  3.186373e+00    4.404745e-01   5.512306e-03
  3.188583e+00    4.319341e-01   5.460364e-03
  3.190794e+00    4.447003e-01   5.542248e-03
  3.193004e+00    4.265033e-01   5.428907e-03
  3.195215e+00    4.257239e-01   5.425412e-03
  3.197425e+00    4.375716e-01   5.501615e-03
  3.199636e+00    4.325145e-01   5.468955e-03
  3.201846e+00    4.257336e-01   5.425327e-03
  3.204056e+00    4.351414e-01   5.485822e-03
  3.206267e+00    4.280515e-01   5.441794e-03
  3.208477e+00    4.367436e-01   5.497682e-03
  3.210688e+00    4.365232e-01   5.497161e-03
  3.212898e+00    4.322883e-01   5.471003e-03
  3.215109e+00    4.452493e-01   5.553165e-03
  3.217319e+00    4.345469e-01   5.486671e-03
  3.219530e+00    4.327919e-01   5.475972e-03
  3.221740e+00    4.309803e-01   5.465056e-03
  3.223951e+00    4.285084e-01   5.449834e-03
  3.226161e+00    4.327776e-01   5.477095e-03
  3.228372e+00    4.457865e-01   5.559349e-03
  3.230582e+00    4.487852e-01   5.578164e-03
  3.232792e+00    4.261667e-01   5.436005e-03
  3.235003e+00    4.322425e-01   5.474852e-03
  3.237213e+00    4.266425e-01   5.439376e-03
  3.239424e+00    4.401158e-01   5.524599e-03
  3.241634e+00    4.312913e-01   5.469061e-03
  3.243845e+00    4.309339e-01   5.466856e-03
  3.246055e+00    4.331456e-01   5.480587e-03
  3.248266e+00    4.321279e-01   5.474370e-03
  3.250476e+00    4.321460e-01   5.474157e-03
  3.252687e+00    4.273632e-01   5.443717e-03
  3.254897e+00    4.266815e-01   5.439238e-03
  3.257107e+00    4.399953e-01   5.523152e-03
  3.259318e+00    4.264882e-01   5.437466e-03
  3.261528e+00    4.157233e-01   5.368268e-03
  3.263739e+00    4.309254e-01   5.464970e-03
  3.265949e+00    4.178969e-01   5.381614e-03
  3.268160e+00    4.396029e-01   5.519168e-03
  3.270370e+00    4.346851e-01   5.487711e-03
  3.272581e+00    4.403397e-01   5.523001e-03
  3.274791e+00    4.396155e-01   5.517924e-03
  3.277002e+00    4.250815e-01   5.425396e-03
  3.279212e+00    4.167361e-01   5.371479e-03
  3.281422e+00    4.304004e-01   5.458245e-03
  3.283633e+00    4.219191e-01   5.403540e-03
  3.285843e+00    4.335896e-01   5.477400e-03
  3.288054e+00    4.248860e-01   5.421225e-03
  3.290264e+00    4.282297e-01   5.442185e-03
  3.292475e+00    4.238640e-01   5.413548e-03
  3.294685e+00    4.406289e-01   5.518911e-03
  3.296896e+00    4.256229e-01   5.423388e-03
  3.299106e+00    4.338472e-01   5.474953e-03
  3.301317e+00    4.329816e-01   5.468445e-03
  3.303527e+00    4.350514e-01   5.481048e-03
  3.305737e+00    4.270983e-01   5.429672e-03
  3.307948e+00    4.142108e-01   5.346438e-03
  3.310158e+00    4.299870e-01   5.446448e-03
  3.312369e+00    4.207384e-01   5.386699e-03
  3.314579e+00    4.184428e-01   5.371051e-03
  3.316790e+00    4.265182e-01   5.421933e-03
  3.319000e+00    4.283537e-01   5.432390e-03
  3.321211e+00    4.204586e-01   5.381494e-03
  3.323421e+00    4.203633e-01   5.379673e-03
  3.325632e+00    4.345541e-01   5.468831e-03
  3.327842e+00    4.282562e-01   5.428138e-03
  3.330052e+00    4.191793e-01   5.369233e-03
  3.332263e+00    4.171098e-01   5.354960e-03
  3.334473e+00    4.182655e-01   5.361456e-03
  3.336684e+00    4.284922e-01   5.425320e-03
  3.338894e+00    4.264716e-01   5.411687e-03
  3.341105e+00    4.281568e-01   5.421146e-03
  3.343315e+00    4.251627e-01   5.401002e-03
  3.345526e+00    4.225033e-01   5.383185e-03
  3.347736e+00    4.320868e-01   5.442478e-03
  3.349947e+00    4.110896e-01   5.307657e-03
  3.352157e+00    4.222842e-01   5.378259e-03
  3.354368e+00    4.328320e-01   5.443711e-03
  3.356578e+00    4.169935e-01   5.342158e-03
  3.358788e+00    4.245364e-01   5.388922e-03
  3.360999e+00    4.396414e-01   5.482673e-03
  3.363209e+00    4.174075e-01   5.341239e-03
  3.365420e+00    4.308693e-01   5.425127e-03
  3.367630e+00    4.086485e-01   5.282395e-03
  3.369841e+00    4.247594e-01   5.384057e-03
  3.372051e+00    4.220766e-01   5.365050e-03
  3.374262e+00    4.375795e-01   5.460175e-03
  3.376472e+00    4.273618e-01   5.393600e-03
  3.378683e+00    4.173485e-01   5.327517e-03
  3.380893e+00    4.204985e-01   5.345230e-03
  3.383103e+00    4.163921e-01   5.316359e-03
  3.385314e+00    4.184369e-01   5.327172e-03
  3.387524e+00    4.156048e-01   5.306358e-03
  3.389735e+00    4.226792e-01   5.348683e-03
  3.391945e+00    4.132636e-01   5.285101e-03
  3.394156e+00    4.208747e-01   5.329276e-03
  3.396366e+00    4.078673e-01   5.242903e-03
  3.398577e+00    4.077953e-01   5.239390e-03
  3.400787e+00    4.188928e-01   5.322252e-03
  3.402998e+00    3.943226e-01   5.201110e-03
  3.405208e+00    4.054235e-01   5.294489e-03
  3.407418e+00    3.916695e-01   5.219498e-03
  3.409629e+00    3.949346e-01   5.255049e-03
  3.411839e+00    4.035134e-01   5.323675e-03
  3.414050e+00    3.981959e-01   5.299488e-03
  3.416260e+00    3.927147e-01   5.272502e-03
  3.418471e+00    3.821168e-01   5.210155e-03
  3.420681e+00    3.984597e-01   5.328957e-03
  3.422892e+00    3.990608e-01   5.341053e-03
  3.425102e+00    3.983859e-01   5.344478e-03
  3.427313e+00    3.707792e-01   5.162971e-03
  3.429523e+00    3.876525e-01   5.286204e-03
  3.431733e+00    3.871345e-01   5.289352e-03
  3.433944e+00    3.945582e-01   5.346385e-03
  3.436154e+00    3.981430e-01   5.376993e-03
  3.438365e+00    3.856697e-01   5.298070e-03
  3.440575e+00    3.804657e-01   5.268120e-03
  3.442786e+00    3.915015e-01   5.349666e-03
  3.444996e+00    3.781907e-01   5.263475e-03
  3.447207e+00    3.619090e-01   5.154100e-03
  3.449417e+00    3.793249e-01   5.317871e-03
  3.451628e+00    3.816679e-01   5.364268e-03
  3.453838e+00    3.642648e-01   5.261587e-03
  3.456049e+00    3.625799e-01   5.273170e-03
  3.458259e+00    3.757473e-01   5.390247e-03
  3.460469e+00    3.695025e-01   5.365164e-03
  3.462680e+00    3.688984e-01   5.379900e-03
  3.464890e+00    3.867927e-01   5.527111e-03
  3.467101e+00    3.770033e-01   5.474437e-03
  3.469311e+00    3.763118e-01   5.486080e-03
  3.471522e+00    3.874220e-01   5.583144e-03
  3.473732e+00    3.858669e-01   5.588016e-03
  3.475943e+00    4.066754e-01   5.752901e-03
  3.478153e+00    4.127677e-01   5.811768e-03
  3.480364e+00    4.229878e-01   5.898969e-03
  3.482574e+00    4.383663e-01   6.021232e-03
  3.484784e+00    4.299950e-01   5.978708e-03
  3.486995e+00    4.448567e-01   6.096746e-03
  3.489205e+00    4.328390e-01   6.028680e-03
  3.491416e+00    4.361065e-01   6.066441e-03
  3.493626e+00    4.509589e-01   6.183749e-03
  3.495837e+00    4.524319e-01   6.208783e-03
  3.498047e+00    4.526699e-01   6.225064e-03
  3.500258e+00    4.714147e-01   6.367498e-03
  3.502468e+00    4.637289e-01   6.329985e-03
  3.504679e+00    4.571822e-01   6.299561e-03
  3.506889e+00    4.682893e-01   6.390083e-03
  3.509099e+00    4.928320e-01   6.570103e-03
  3.511310e+00    4.876731e-01   6.550258e-03
  3.513520e+00    4.916367e-01   6.591395e-03
  3.515731e+00    4.882909e-01   6.583310e-03
  3.517941e+00    5.114974e-01   6.752620e-03
  3.520152e+00    5.137256e-01   6.781912e-03
  3.522362e+00    5.046749e-01   6.736434e-03
  3.524573e+00    4.968311e-01   6.698031e-03
  3.526783e+00    5.111509e-01   6.807227e-03
  3.528994e+00    5.292028e-01   6.938774e-03
  3.531204e+00    5.332340e-01   6.977750e-03
  3.533414e+00    5.489580e-01   7.092231e-03
  3.535625e+00    5.456992e-01   7.083728e-03
  3.537835e+00    5.372189e-01   7.040628e-03
  3.540046e+00    5.410610e-01   7.074757e-03
  3.542256e+00    5.387946e-01   7.067479e-03
  3.544467e+00    5.440357e-01   7.109410e-03
  3.546677e+00    5.604804e-01   7.223838e-03
  3.548888e+00    5.425427e-01   7.114850e-03
  3.551098e+00    5.571768e-01   7.217585e-03
  3.553309e+00    5.501183e-01   7.179995e-03
  3.555519e+00    5.364817e-01   7.101757e-03
  3.557729e+00    5.469303e-01   7.182408e-03
  3.559940e+00    5.458409e-01   7.186924e-03
  3.562150e+00    5.317847e-01   7.105443e-03
  3.564361e+00    5.473434e-01   7.222069e-03
  3.566571e+00    5.386916e-01   7.178661e-03
  3.568782e+00    5.404884e-01   7.204783e-03
  3.570992e+00    5.400957e-01   7.215966e-03
  3.573203e+00    5.404892e-01   7.232830e-03
  3.575413e+00    5.476034e-01   7.294135e-03
  3.577624e+00    5.490631e-01   7.318225e-03
  3.579834e+00    5.267078e-01   7.181398e-03
  3.582045e+00    5.470610e-01   7.333027e-03
  3.584255e+00    5.427923e-01   7.318520e-03
  3.586465e+00    5.333421e-01   7.268426e-03
  3.588676e+00    5.504176e-01   7.398224e-03
  3.590886e+00    5.513265e-01   7.418239e-03
  3.593097e+00    5.589740e-01   7.484330e-03
  3.595307e+00    5.416172e-01   7.381250e-03
  3.597518e+00    5.441959e-01   7.413065e-03
  3.599728e+00    5.528970e-01   7.486456e-03
  3.601939e+00    5.370426e-01   7.392434e-03
  3.604149e+00    5.413123e-01   7.436228e-03
  3.606360e+00    5.492169e-01   7.504632e-03
  3.608570e+00    5.439969e-01   7.483191e-03
  3.610780e+00    5.450967e-01   7.501910e-03
  3.612991e+00    5.548951e-01   7.579210e-03
  3.615201e+00    5.423447e-01   7.502909e-03
  3.617412e+00    5.453705e-01   7.531116e-03
  3.619622e+00    5.615042e-01   7.647831e-03
  3.621833e+00    5.159495e-01   7.337664e-03
  3.624043e+00    5.314735e-01   7.456644e-03
  3.626254e+00    5.213792e-01   7.395116e-03
  3.628464e+00    5.271035e-01   7.446501e-03
  3.630675e+00    5.347814e-01   7.514642e-03
  3.632885e+00    5.553460e-01   7.672523e-03
  3.635095e+00    5.293318e-01   7.505016e-03
  3.637306e+00    5.518821e-01   7.677769e-03
  3.639516e+00    5.466315e-01   7.655940e-03
  3.641727e+00    5.117133e-01   7.421623e-03
  3.643937e+00    5.234659e-01   7.520770e-03
  3.646148e+00    5.429199e-01   7.673997e-03
  3.648358e+00    5.209722e-01   7.531964e-03
  3.650569e+00    5.363853e-01   7.657352e-03
  3.652779e+00    5.473277e-01   7.750052e-03
  3.654990e+00    5.444564e-01   7.744743e-03
  3.657200e+00    5.208005e-01   7.589371e-03
  3.659410e+00    5.175614e-01   7.580464e-03
  3.661621e+00    5.393534e-01   7.753637e-03
  3.663831e+00    5.341531e-01   7.731314e-03
  3.666042e+00    5.623547e-01   7.948368e-03
  3.668252e+00    5.486497e-01   7.866438e-03
  3.670463e+00    5.393245e-01   7.814638e-03
  3.672673e+00    5.297820e-01   7.760578e-03
  3.674884e+00    5.410690e-01   7.858384e-03
  3.677094e+00    5.441252e-01   7.896251e-03
  3.679305e+00    5.459822e-01   7.925491e-03
  3.681515e+00    5.428445e-01   7.918494e-03
  3.683726e+00    5.319936e-01   7.854793e-03
  3.685936e+00    5.449581e-01   7.965859e-03
  3.688146e+00    5.380616e-01   7.931234e-03
  3.690357e+00    5.400084e-01   7.961668e-03
  3.692567e+00    5.468826e-01   8.028637e-03
  3.694778e+00    5.214896e-01   7.856022e-03
  3.696988e+00    5.099093e-01   7.784012e-03
  3.699199e+00    5.256360e-01   7.919348e-03
  3.701409e+00    5.437631e-01   8.071450e-03
  3.703620e+00    5.345955e-01   8.019558e-03
  3.705830e+00    5.396597e-01   8.074104e-03
  3.708041e+00    5.196764e-01   7.939756e-03
  3.710251e+00    5.211688e-01   7.967776e-03
  3.712461e+00    5.264431e-01   8.024846e-03
  3.714672e+00    5.231179e-01   8.016167e-03
  3.716882e+00    5.380237e-01   8.146552e-03
  3.719093e+00    5.104389e-01   7.951967e-03
  3.721303e+00    5.446506e-01   8.231489e-03
  3.723514e+00    5.134694e-01   8.009567e-03
  3.725724e+00    5.325043e-01   8.174026e-03
  3.727935e+00    5.240912e-01   8.126804e-03
  3.730145e+00    5.152239e-01   8.075044e-03
  3.732356e+00    5.097246e-01   8.049254e-03
  3.734566e+00    5.210701e-01   8.155986e-03
  3.736776e+00    5.133070e-01   8.112688e-03
  3.738987e+00    5.191303e-01   8.176496e-03
  3.741197e+00    4.969572e-01   8.017617e-03
  3.743408e+00    5.229478e-01   8.242838e-03
  3.745618e+00    5.167192e-01   8.211983e-03
  3.747829e+00    5.249100e-01   8.295189e-03
  3.750039e+00    4.887087e-01   8.021927e-03
  3.752250e+00    5.134317e-01   8.240881e-03
  3.754460e+00    5.043017e-01   8.185732e-03
  3.756671e+00    5.072052e-01   8.227996e-03
  3.758881e+00    5.116675e-01   8.282804e-03
  3.761091e+00    4.899281e-01   8.123772e-03
  3.763302e+00    5.279778e-01   8.452692e-03
  3.765512e+00    5.338934e-01   8.519704e-03
  3.767723e+00    5.372261e-01   8.566185e-03
  3.769933e+00    5.197830e-01   8.445576e-03
  3.772144e+00    5.107485e-01   8.391503e-03
  3.774354e+00    5.171435e-01   8.463916e-03
  3.776565e+00    4.968740e-01   8.316119e-03
  3.778775e+00    4.981105e-01   8.346256e-03
  3.780986e+00    5.159762e-01   8.515181e-03
  3.783196e+00    4.962400e-01   8.370833e-03
  3.785407e+00    5.028626e-01   8.446895e-03
  3.787617e+00    5.150283e-01   8.569466e-03
  3.789827e+00    5.294424e-01   8.709648e-03
  3.792038e+00    5.127663e-01   8.592498e-03
  3.794248e+00    5.145091e-01   8.628486e-03
  3.796459e+00    5.018483e-01   8.543013e-03
  3.798669e+00    5.250512e-01   8.760163e-03
  3.800880e+00    5.317892e-01   8.838290e-03
  3.803090e+00    5.242399e-01   8.797726e-03
  3.805301e+00    5.131244e-01   8.726289e-03
  3.807511e+00    5.237062e-01   8.838332e-03
  3.809722e+00    5.205930e-01   8.834727e-03
  3.811932e+00    5.250552e-01   8.895245e-03
  3.814142e+00    5.314863e-01   8.973237e-03
  3.816353e+00    4.955114e-01   8.686975e-03
  3.818563e+00    5.063218e-01   8.804470e-03
  3.820774e+00    5.125449e-01   8.881886e-03
  3.822984e+00    5.081388e-01   8.867310e-03
  3.825195e+00    5.072390e-01   8.883340e-03
  3.827405e+00    4.930901e-01   8.782363e-03
  3.829616e+00    5.039034e-01   8.902331e-03
  3.831826e+00    5.172633e-01   9.044227e-03
  3.834037e+00    4.939039e-01   8.862126e-03
  3.836247e+00    4.976576e-01   8.920402e-03
  3.838457e+00    4.880448e-01   8.858656e-03
  3.840668e+00    5.108613e-01   9.088891e-03
  3.842878e+00    5.054552e-01   9.066478e-03
  3.845089e+00    5.244650e-01   9.261657e-03
  3.847299e+00    4.975835e-01   9.047084e-03
  3.849510e+00    4.950968e-01   9.050266e-03
  3.851720e+00    4.773395e-01   8.907532e-03
  3.853931e+00    5.015321e-01   9.149562e-03
  3.856141e+00    4.900807e-01   9.063448e-03
  3.858352e+00    5.207216e-01   9.362221e-03
  3.860562e+00    4.912622e-01   9.112816e-03
  3.862772e+00    5.067174e-01   9.274828e-03
  3.864983e+00    5.056448e-01   9.285007e-03
  3.867193e+00    5.034204e-01   9.284443e-03
  3.869404e+00    5.082018e-01   9.348599e-03
  3.871614e+00    5.001882e-01   9.294697e-03
  3.873825e+00    4.967394e-01   9.282980e-03
  3.876035e+00    4.941472e-01   9.279353e-03
  3.878246e+00    4.882372e-01   9.249300e-03
  3.880456e+00    5.162792e-01   9.540889e-03
  3.882667e+00    4.937605e-01   9.359965e-03
  3.884877e+00    5.019423e-01   9.467195e-03
  3.887087e+00    5.013647e-01   9.492012e-03
  3.889298e+00    5.111244e-01   9.614870e-03
  3.891508e+00    5.049005e-01   9.587150e-03
  3.893719e+00    5.039212e-01   9.609222e-03
  3.895929e+00    5.265511e-01   9.855207e-03
  3.898140e+00    5.079463e-01   9.711839e-03
  3.900350e+00    4.940714e-01   9.610452e-03
  3.902561e+00    4.896807e-01   9.599981e-03
  3.904771e+00    4.937672e-01   9.672991e-03
  3.906982e+00    4.702227e-01   9.472054e-03
  3.909192e+00    4.685122e-01   9.487470e-03
  3.911403e+00    5.008512e-01   9.843944e-03
  3.913613e+00    4.987960e-01   9.858293e-03
  3.915823e+00    5.213281e-01   1.011450e-02
  3.918034e+00    5.070602e-01   1.001106e-02
  3.920244e+00    5.116385e-01   1.009268e-02
  3.922455e+00    5.270808e-01   1.028136e-02
  3.924665e+00    5.224819e-01   1.027418e-02
  3.926876e+00    4.771143e-01   9.854642e-03
  3.929086e+00    4.971740e-01   1.009741e-02
  3.931297e+00    5.114392e-01   1.027681e-02
  3.933507e+00    5.327248e-01   1.051886e-02
  3.935718e+00    5.225484e-01   1.044759e-02
  3.937928e+00    5.298091e-01   1.055061e-02
  3.940138e+00    5.128706e-01   1.041078e-02
  3.942349e+00    5.121710e-01   1.043421e-02
  3.944559e+00    4.872358e-01   1.020711e-02
  3.946770e+00    4.937315e-01   1.030529e-02
  3.948980e+00    4.817343e-01   1.020986e-02
  3.951191e+00    4.896024e-01   1.032387e-02
  3.953401e+00    4.927556e-01   1.038859e-02
  3.955612e+00    4.953564e-01   1.044799e-02
  3.957822e+00    4.772620e-01   1.028670e-02
  3.960033e+00    4.910970e-01   1.046752e-02
  3.962243e+00    4.954290e-01   1.054682e-02
  3.964453e+00    4.905685e-01   1.052820e-02
  3.966664e+00    4.821886e-01   1.047117e-02
  3.968874e+00    4.792252e-01   1.046721e-02
  3.971085e+00    4.796824e-01   1.049388e-02
  3.973295e+00    4.770276e-01   1.048620e-02
  3.975506e+00    4.960760e-01   1.071528e-02
  3.977716e+00    4.856233e-01   1.062382e-02
  3.979927e+00    4.690337e-01   1.046259e-02
  3.982137e+00    5.091417e-01   1.092344e-02
  3.984348e+00    5.170420e-01   1.103122e-02
  3.986558e+00    4.895718e-01   1.075660e-02
  3.988768e+00    5.161250e-01   1.106819e-02
  3.990979e+00    4.861536e-01   1.076482e-02
  3.993189e+00    4.505018e-01   1.038484e-02
  3.995400e+00    4.742909e-01   1.067872e-02
  3.997610e+00    4.720056e-01   1.068240e-02
  3.999821e+00    5.129564e-01   1.117465e-02
  4.002031e+00    5.120268e-01   1.120414e-02
  4.004242e+00    4.757904e-01   1.083851e-02
  4.006452e+00    4.892263e-01   1.102994e-02
  4.008663e+00    5.230967e-01   1.144690e-02
  4.010873e+00    5.305878e-01   1.157055e-02
  4.013084e+00    4.759218e-01   1.099887e-02
  4.015294e+00    4.837685e-01   1.113003e-02
  4.017504e+00    4.716437e-01   1.103101e-02
  4.019715e+00    4.884574e-01   1.126861e-02
  4.021925e+00    4.855233e-01   1.127773e-02
  4.024136e+00    5.008717e-01   1.149906e-02
  4.026346e+00    4.912066e-01   1.143202e-02
  4.028557e+00    4.771706e-01   1.131151e-02
  4.030767e+00    4.931463e-01   1.154545e-02
  4.032978e+00    4.563330e-01   1.115105e-02
  4.035188e+00    4.743862e-01   1.141524e-02
  4.037399e+00    5.067075e-01   1.184646e-02
  4.039609e+00    4.504940e-01   1.121613e-02
  4.041819e+00    5.058914e-01   1.193551e-02
  4.044030e+00    5.201207e-01   1.215407e-02
  4.046240e+00    4.717695e-01   1.162470e-02
  4.048451e+00    4.833522e-01   1.181734e-02
  4.050661e+00    4.997259e-01   1.206825e-02
  4.052872e+00    5.318030e-01   1.250495e-02
  4.055082e+00    5.317881e-01   1.256085e-02
  4.057293e+00    4.642767e-01   1.178929e-02
  4.059503e+00    4.783526e-01   1.202110e-02
  4.061714e+00    4.764100e-01   1.205277e-02
  4.063924e+00    4.465522e-01   1.172358e-02
  4.066134e+00    4.574596e-01   1.192185e-02
  4.068345e+00    4.647368e-01   1.207408e-02
  4.070555e+00    4.576389e-01   1.203941e-02
  4.072766e+00    4.636204e-01   1.217751e-02
  4.074976e+00    4.515051e-01   1.207711e-02
  4.077187e+00    5.062350e-01   1.285183e-02
  4.079397e+00    5.037134e-01   1.288519e-02
  4.081608e+00    4.982575e-01   1.288219e-02
  4.083818e+00    4.621882e-01   1.247138e-02
  4.086029e+00    4.613949e-01   1.252637e-02
  4.088239e+00    4.636324e-01   1.262453e-02
  4.090449e+00    4.635423e-01   1.269163e-02
  4.092660e+00    4.599848e-01   1.271225e-02
  4.094870e+00    4.958341e-01   1.327195e-02
  4.097081e+00    4.390499e-01   1.255722e-02
  4.099291e+00    4.754351e-01   1.312120e-02
  4.101502e+00    4.614784e-01   1.297559e-02
  4.103712e+00    4.536810e-01   1.291316e-02
  4.105923e+00    4.939763e-01   1.352673e-02
  4.108133e+00    4.923275e-01   1.355618e-02
  4.110344e+00    4.913065e-01   1.359398e-02
  4.112554e+00    5.177845e-01   1.401060e-02
  4.114764e+00    5.151586e-01   1.403120e-02
  4.116975e+00    5.145457e-01   1.407811e-02
  4.119185e+00    5.058570e-01   1.401526e-02
  4.121396e+00    5.462182e-01   1.462406e-02
  4.123606e+00    5.098169e-01   1.418619e-02
  4.125817e+00    5.119510e-01   1.427539e-02
  4.128027e+00    4.847725e-01   1.395006e-02
  4.130238e+00    4.824272e-01   1.397576e-02
  4.132448e+00    4.795147e-01   1.399392e-02
  4.134659e+00    4.820671e-01   1.409142e-02
  4.136869e+00    5.091776e-01   1.454701e-02
  4.139080e+00    5.145411e-01   1.468937e-02
  4.141290e+00    4.852740e-01   1.432859e-02
  4.143500e+00    5.040085e-01   1.466992e-02
  4.145711e+00    5.064263e-01   1.477369e-02
  4.147921e+00    4.688012e-01   1.427948e-02
  4.150132e+00    5.166791e-01   1.506254e-02
  4.152342e+00    5.332940e-01   1.537687e-02
  4.154553e+00    4.663970e-01   1.444881e-02
  4.156763e+00    4.462110e-01   1.420229e-02
  4.158974e+00    4.423378e-01   1.421173e-02
  4.161184e+00    5.027373e-01   1.522588e-02
  4.163395e+00    4.942244e-01   1.517372e-02
  4.165605e+00    4.557362e-01   1.464678e-02
  4.167815e+00    5.073873e-01   1.553480e-02
  4.170026e+00    5.089960e-01   1.564175e-02
  4.172236e+00    4.413506e-01   1.464391e-02
  4.174447e+00    5.009995e-01   1.568692e-02
  4.176657e+00    5.086841e-01   1.589334e-02
  4.178868e+00    4.766346e-01   1.547140e-02
  4.181078e+00    5.606494e-01   1.687426e-02
  4.183289e+00    5.510691e-01   1.682529e-02
  4.185499e+00    5.067114e-01   1.622917e-02
  4.187710e+00    4.913250e-01   1.607452e-02
  4.189920e+00    5.057154e-01   1.640628e-02
  4.192130e+00    4.821374e-01   1.611724e-02
  4.194341e+00    4.884760e-01   1.632210e-02
  4.196551e+00    5.362177e-01   1.720979e-02
  4.198762e+00    4.972402e-01   1.667760e-02
  4.200972e+00    5.361394e-01   1.742961e-02
  4.203183e+00    4.679371e-01   1.639060e-02
  4.205393e+00    5.302320e-01   1.756383e-02
  4.207604e+00    4.828731e-01   1.687545e-02
  4.209814e+00    5.198343e-01   1.762931e-02
  4.212025e+00    5.103049e-01   1.759115e-02
  4.214235e+00    4.279676e-01   1.622357e-02
  4.216445e+00    4.652622e-01   1.703808e-02
  4.218656e+00    4.648300e-01   1.715763e-02
  4.220866e+00    5.379861e-01   1.859522e-02
  4.223077e+00    4.690408e-01   1.749642e-02
  4.225287e+00    4.981138e-01   1.817232e-02
  4.227498e+00    5.123478e-01   1.857489e-02
  4.229708e+00    5.052292e-01   1.859504e-02
  4.231919e+00    5.649499e-01   1.982623e-02
  4.234129e+00    5.195975e-01   1.917342e-02
  4.236340e+00    4.663600e-01   1.832017e-02
  4.238550e+00    4.656509e-01   1.846729e-02
  4.240761e+00    4.763385e-01   1.884342e-02
  4.242971e+00    4.500970e-01   1.848473e-02
  4.245181e+00    4.384308e-01   1.841497e-02
  4.247392e+00    4.646881e-01   1.913540e-02
  4.249602e+00    4.457285e-01   1.892747e-02
  4.251813e+00    4.335184e-01   1.885021e-02
  4.254023e+00    3.862122e-01   1.797154e-02
  4.256234e+00    4.809266e-01   2.026833e-02
  4.258444e+00    4.719422e-01   2.028827e-02
  4.260655e+00    4.624081e-01   2.030341e-02
  4.262865e+00    4.681487e-01   2.066054e-02
  4.265076e+00    4.904060e-01   2.138628e-02
  4.267286e+00    4.459976e-01   2.063701e-02
  4.269496e+00    4.811181e-01   2.169605e-02
  4.271707e+00    5.347426e-01   2.315483e-02
  4.273917e+00    5.364949e-01   2.349394e-02
  4.276128e+00    4.497308e-01   2.179541e-02
  4.278338e+00    4.252464e-01   2.147708e-02
  4.280549e+00    4.769559e-01   2.307120e-02
  4.282759e+00    4.385430e-01   2.244131e-02
  4.284970e+00    4.133198e-01   2.210844e-02
  4.287180e+00    4.439757e-01   2.318815e-02
  4.289391e+00    4.769686e-01   2.421507e-02
  4.291601e+00    4.151268e-01   2.277068e-02
  4.293811e+00    5.555968e-01   2.654917e-02
  4.296022e+00    4.487069e-01   2.405121e-02
  4.298232e+00    4.992999e-01   2.558272e-02
  4.300443e+00    4.640541e-01   2.486710e-02
  4.302653e+00    4.836675e-01   2.560683e-02
  4.304864e+00    5.244260e-01   2.689495e-02
  4.307074e+00    5.079021e-01   2.670594e-02
  4.309285e+00    5.351267e-01   2.766114e-02
  4.311495e+00    4.422075e-01   2.538034e-02
  4.313706e+00    5.047489e-01   2.737094e-02
  4.315916e+00    4.636040e-01   2.648909e-02
  4.318126e+00    4.734879e-01   2.703540e-02
  4.320337e+00    4.433162e-01   2.642461e-02
  4.322547e+00    5.334917e-01   2.929523e-02
  4.324758e+00    4.674022e-01   2.770563e-02
  4.326968e+00    4.786129e-01   2.835148e-02
  4.329179e+00    4.709419e-01   2.843339e-02
  4.331389e+00    5.160085e-01   3.010564e-02
  4.333600e+00    4.958469e-01   2.986405e-02
  4.335810e+00    5.069100e-01   3.055442e-02
  4.338021e+00    5.306827e-01   3.166350e-02
  4.340231e+00    4.500688e-01   2.952530e-02
  4.342442e+00    4.657966e-01   3.043981e-02
  4.344652e+00    5.028586e-01   3.205665e-02
  4.346862e+00    3.807007e-01   2.828450e-02
  4.349073e+00    3.742443e-01   2.844998e-02
  4.351283e+00    4.737529e-01   3.248749e-02
  4.353494e+00    5.595587e-01   3.585295e-02
  4.355704e+00    4.883076e-01   3.403311e-02
  4.357915e+00    3.585136e-01   2.964662e-02
  4.360125e+00    4.665483e-01   3.439613e-02
  4.362336e+00    3.650932e-01   3.098323e-02
  4.364546e+00    3.762405e-01   3.202419e-02
  4.366757e+00    4.047684e-01   3.387737e-02
  4.368967e+00    3.368067e-01   3.151865e-02
  4.371177e+00    3.890557e-01   3.459625e-02
  4.373388e+00    3.784606e-01   3.488380e-02
  4.375598e+00    3.947659e-01   3.644074e-02
  4.377809e+00    4.711524e-01   4.081739e-02
  4.380019e+00    3.847765e-01   3.781399e-02
  4.382230e+00    3.107902e-01   3.493471e-02
  4.384440e+00    2.943895e-01   3.497659e-02
  4.386651e+00    5.880545e-01   5.095829e-02
  4.388861e+00    5.811874e-01   5.236090e-02
  4.391072e+00    5.857239e-01   5.441281e-02
  4.393282e+00    4.677001e-01   5.050333e-02
  4.395492e+00    4.546673e-01   5.186108e-02
  4.397703e+00    2.463474e-01   3.992463e-02
  4.399913e+00    2.871205e-01   4.527544e-02
  4.402124e+00    4.035175e-01   5.671980e-02
  4.404334e+00    6.703903e-01   7.771479e-02
  4.406545e+00    2.450062e-01   5.048062e-02
  4.408755e+00    3.234704e-01   6.289729e-02
  4.410966e+00    4.883366e-01   8.553973e-02
  4.413176e+00    5.050713e-01   9.846573e-02
  4.415387e+00   -2.022824e-01            nan
  4.417597e+00   -1.621066e+00            nan
  4.419807e+00   -3.766224e-01            nan
