# == pyFAI calibration ==
# Distance Sample to Detector: 0.216 m
# PONI: 1.166e-01, 1.308e-01 m
# Rotations: 0.000000 0.000000 0.000000 rad
# 
# == Fit2d calibration ==
# Distance Sample-beamCenter: 216.000 mm
# Center: x=1744.293, y=1555.000 pix
# Tilt: 0.000 deg  TiltPlanRot: 0.000 deg
# 
# Detector Eiger 9M	 PixelSize= 7.500e-05, 7.500e-05 m
#    Detector has a mask: True 
#    Detector has a dark current: False 
#    detector has a flat field: False 
# 
# Wavelength: 9.8e-11 m
# Mask applied: from detector
# Dark current applied: False
# Flat field applied: False
# Polarization factor: None
# Normalization factor: 1.0
# 
# Headers of the input frame:
# {
# "_array_data.header_convention": "SLS_1.0",
# "_array_data.header_contents": "# Detector: Dectris Eiger 9M, S/N E-18-0102\r\n# Pixel_size 75e-6 m x 75e-6 m\r\n# Silicon sensor, thickness 0.000450 m\r\n# Exposure_time 0.024997 s\r\n# Exposure_period 0.025000 s\r\n# Count_cutoff 62318 counts\r\n# Wavelength 0.980106 A\r\n# Detector_distance 0.215992 m\r\n# Beam_xy (1555, 1744) pixels\r\n# Start_angle 0.000000 deg.\r\n# Angle_increment 0.000000 deg.",
# "Content-Type": "application/octet-stream;",
# "conversions": "x-CBF_BYTE_OFFSET",
# "Content-Transfer-Encoding": "BINARY",
# "X-Binary-Size": "10166642",
# "X-Binary-ID": "1",
# "X-Binary-Element-Type": "signed 32-bit integer",
# "X-Binary-Element-Byte-Order": "LITTLE_ENDIAN",
# "Content-MD5": "0wWv+/XM8+RNe1YbAV4ciw==",
# "X-Binary-Number-of-Elements": "10166590",
# "X-Binary-Size-Fastest-Dimension": "3110",
# "X-Binary-Size-Second-Dimension": "3269",
# "X-Binary-Size-Padding": "4095"
# }
# --> H:/Proxima2a_2019-04-05/RAW_DATA/C5_gel17_position5/C5_mesh_1_data.cbf/C5_mesh_1_data.cbf000166.dat
#        q_A^-1              I           sigma 
  1.105228e-03    7.432259e-01   4.664954e-01
  3.315685e-03    1.195408e+00   3.596693e-01
  5.526141e-03    1.397613e+00   3.007223e-01
  7.736597e-03    1.701344e+00   2.802956e-01
  9.947054e-03    1.417712e+00   2.255644e-01
  1.215751e-02    1.392134e+00   2.021199e-01
  1.436797e-02    1.546296e+00   1.959396e-01
  1.657842e-02    1.263051e+00   1.648371e-01
  1.878888e-02    1.337226e+00   1.593184e-01
  2.099934e-02    1.408555e+00   1.546995e-01
  2.320979e-02    1.602326e+00   1.569308e-01
  2.542025e-02    1.536519e+00   1.468515e-01
  2.763070e-02    1.394934e+00   1.342045e-01
  2.984116e-02    1.376340e+00   1.282742e-01
  3.205162e-02    1.355355e+00   1.228323e-01
  3.426207e-02    1.279667e+00   1.154312e-01
  3.647253e-02    1.301374e+00   1.128212e-01
  3.868299e-02    1.423783e+00   1.145955e-01
  4.089344e-02    1.459020e+00   1.128266e-01
  4.310390e-02    1.516145e+00   1.120197e-01
  4.531436e-02    1.520886e+00   1.094244e-01
  4.752481e-02    1.527535e+00   1.070815e-01
  4.973527e-02    1.432568e+00   1.013700e-01
  5.194572e-02    1.254805e+00   9.283058e-02
  5.415618e-02    1.292556e+00   9.227059e-02
  5.636664e-02    1.545063e+00   9.888681e-02
  5.857709e-02    1.436426e+00   9.353115e-02
  6.078755e-02    1.479717e+00   9.318513e-02
  6.299801e-02    1.487701e+00   9.178131e-02
  6.520846e-02    1.451611e+00   8.911194e-02
  6.741892e-02    1.402400e+00   8.613623e-02
  6.962938e-02    1.394838e+00   8.453338e-02
  7.183983e-02    1.450813e+00   8.487461e-02
  7.405029e-02    1.407588e+00   8.234154e-02
  7.626074e-02    1.436335e+00   8.196306e-02
  7.847120e-02    1.524948e+00   8.325330e-02
  8.068166e-02    1.443470e+00   7.988075e-02
  8.289211e-02    1.424255e+00   7.828179e-02
  8.510257e-02    1.433889e+00   7.751881e-02
  8.731303e-02    1.554822e+00   7.969024e-02
  8.952348e-02    1.472864e+00   7.660002e-02
  9.173394e-02    1.509349e+00   7.660001e-02
  9.394439e-02    1.489327e+00   7.518727e-02
  9.615485e-02    1.499632e+00   7.457310e-02
  9.836531e-02    1.503354e+00   7.381982e-02
  1.005758e-01    1.463084e+00   7.202014e-02
  1.027862e-01    1.486511e+00   7.180787e-02
  1.049967e-01    1.455211e+00   7.029475e-02
  1.072071e-01    1.453932e+00   6.953489e-02
  1.094176e-01    1.414495e+00   6.788799e-02
  1.116280e-01    1.518672e+00   6.964207e-02
  1.138385e-01    1.451105e+00   6.740976e-02
  1.160490e-01    1.420493e+00   6.605590e-02
  1.182594e-01    1.580506e+00   6.902132e-02
  1.204699e-01    1.621224e+00   6.925994e-02
  1.226803e-01    1.581962e+00   6.779420e-02
  1.248908e-01    1.589011e+00   6.734029e-02
  1.271012e-01    1.602784e+00   6.703950e-02
  1.293117e-01    1.657153e+00   6.758108e-02
  1.315222e-01    1.601770e+00   6.587995e-02
  1.337326e-01    1.567994e+00   6.463948e-02
  1.359431e-01    1.601211e+00   6.535880e-02
  1.381535e-01    1.669687e+00   6.763759e-02
  1.403640e-01    1.571752e+00   6.590734e-02
  1.425744e-01    1.528932e+00   6.510720e-02
  1.447849e-01    1.549549e+00   6.555977e-02
  1.469953e-01    1.570165e+00   6.595314e-02
  1.492058e-01    1.579810e+00   6.607852e-02
  1.514163e-01    1.560282e+00   6.555982e-02
  1.536267e-01    1.509643e+00   6.436125e-02
  1.558372e-01    1.577199e+00   6.564032e-02
  1.580476e-01    1.628002e+00   6.652731e-02
  1.602581e-01    1.602077e+00   6.582783e-02
  1.624685e-01    1.578194e+00   6.515647e-02
  1.646790e-01    1.595273e+00   6.531996e-02
  1.668895e-01    1.653957e+00   6.631847e-02
  1.690999e-01    1.788440e+00   6.875485e-02
  1.713104e-01    1.795487e+00   6.867641e-02
  1.735208e-01    1.869495e+00   6.985956e-02
  1.757313e-01    1.896289e+00   7.013793e-02
  1.779417e-01    1.805310e+00   6.821153e-02
  1.801522e-01    1.850373e+00   6.883765e-02
  1.823626e-01    1.966272e+00   7.072451e-02
  1.845731e-01    1.960384e+00   7.038981e-02
  1.867836e-01    1.869767e+00   6.851172e-02
  1.889940e-01    1.858905e+00   6.808918e-02
  1.912045e-01    1.959701e+00   6.967738e-02
  1.934149e-01    1.909348e+00   6.854621e-02
  1.956254e-01    1.990494e+00   6.975680e-02
  1.978358e-01    2.007606e+00   6.981594e-02
  2.000463e-01    2.048491e+00   7.028954e-02
  2.022568e-01    2.017940e+00   6.953446e-02
  2.044672e-01    2.060688e+00   7.002638e-02
  2.066777e-01    1.965914e+00   6.817012e-02
  2.088881e-01    1.997928e+00   6.849808e-02
  2.110986e-01    1.992545e+00   6.817119e-02
  2.133090e-01    1.999773e+00   6.807267e-02
  2.155195e-01    2.147042e+00   7.030074e-02
  2.177300e-01    1.985889e+00   6.707980e-02
  2.199404e-01    1.923829e+00   6.428365e-02
  2.221509e-01    1.874589e+00   6.241367e-02
  2.243613e-01    1.947098e+00   6.280288e-02
  2.265718e-01    2.040627e+00   6.358492e-02
  2.287822e-01    2.136779e+00   6.442169e-02
  2.309927e-01    2.112651e+00   6.347341e-02
  2.332031e-01    2.190944e+00   6.408560e-02
  2.354136e-01    2.117514e+00   6.249191e-02
  2.376241e-01    2.192942e+00   6.310154e-02
  2.398345e-01    2.274446e+00   6.378791e-02
  2.420450e-01    2.157320e+00   6.167978e-02
  2.442554e-01    2.204116e+00   6.191566e-02
  2.464659e-01    2.218728e+00   6.170349e-02
  2.486763e-01    2.187190e+00   6.086068e-02
  2.508868e-01    2.099402e+00   5.925064e-02
  2.530973e-01    2.034041e+00   5.795942e-02
  2.553077e-01    2.082505e+00   5.829012e-02
  2.575182e-01    2.026124e+00   5.715547e-02
  2.597286e-01    2.067394e+00   5.739900e-02
  2.619391e-01    2.076482e+00   5.719386e-02
  2.641495e-01    2.011341e+00   5.597805e-02
  2.663600e-01    2.094744e+00   5.681270e-02
  2.685704e-01    2.065985e+00   5.611554e-02
  2.707809e-01    2.023694e+00   5.524342e-02
  2.729914e-01    2.092403e+00   5.588065e-02
  2.752018e-01    2.058338e+00   5.513546e-02
  2.774123e-01    2.032809e+00   5.451261e-02
  2.796227e-01    1.978978e+00   5.351989e-02
  2.818332e-01    2.039591e+00   5.406230e-02
  2.840436e-01    2.002415e+00   5.330768e-02
  2.862541e-01    1.985791e+00   5.283073e-02
  2.884646e-01    2.032470e+00   5.319442e-02
  2.906750e-01    1.943520e+00   5.177075e-02
  2.928855e-01    1.954433e+00   5.167533e-02
  2.950959e-01    1.867566e+00   5.028186e-02
  2.973064e-01    1.955779e+00   5.122439e-02
  2.995168e-01    1.957239e+00   5.101144e-02
  3.017273e-01    1.910115e+00   5.017143e-02
  3.039377e-01    1.908647e+00   4.993253e-02
  3.061482e-01    1.934711e+00   5.005484e-02
  3.083587e-01    1.933927e+00   4.982808e-02
  3.105691e-01    1.939666e+00   4.968880e-02
  3.127796e-01    1.889154e+00   4.883140e-02
  3.149900e-01    1.901415e+00   4.878546e-02
  3.172005e-01    1.920899e+00   4.883429e-02
  3.194109e-01    1.894660e+00   4.829939e-02
  3.216214e-01    1.853819e+00   4.758105e-02
  3.238319e-01    1.941031e+00   4.849450e-02
  3.260423e-01    1.906696e+00   4.787224e-02
  3.282528e-01    1.894957e+00   4.753465e-02
  3.304632e-01    1.878169e+00   4.714030e-02
  3.326737e-01    1.898552e+00   4.721046e-02
  3.348841e-01    1.811375e+00   4.593503e-02
  3.370946e-01    1.842840e+00   4.615794e-02
  3.393050e-01    1.840769e+00   4.595725e-02
  3.415155e-01    1.894838e+00   4.645199e-02
  3.437260e-01    1.841436e+00   4.562304e-02
  3.459364e-01    1.775949e+00   4.463869e-02
  3.481469e-01    1.750767e+00   4.415931e-02
  3.503573e-01    1.776765e+00   4.432390e-02
  3.525678e-01    1.796890e+00   4.441538e-02
  3.547782e-01    1.832632e+00   4.469280e-02
  3.569887e-01    1.871456e+00   4.500372e-02
  3.591992e-01    1.855335e+00   4.465090e-02
  3.614096e-01    1.841049e+00   4.432447e-02
  3.636201e-01    1.833382e+00   4.407662e-02
  3.658305e-01    1.834440e+00   4.393896e-02
  3.680410e-01    1.775659e+00   4.308056e-02
  3.702514e-01    1.817126e+00   4.343413e-02
  3.724619e-01    1.801695e+00   4.310205e-02
  3.746724e-01    1.781179e+00   4.271295e-02
  3.768828e-01    1.761241e+00   4.233029e-02
  3.790933e-01    1.770230e+00   4.229990e-02
  3.813037e-01    1.751728e+00   4.194058e-02
  3.835142e-01    1.807271e+00   4.246040e-02
  3.857246e-01    1.808512e+00   4.233751e-02
  3.879351e-01    1.744848e+00   4.145106e-02
  3.901455e-01    1.763073e+00   4.153430e-02
  3.923560e-01    1.813950e+00   4.199543e-02
  3.945665e-01    1.794845e+00   4.164123e-02
  3.967769e-01    1.768226e+00   4.120183e-02
  3.989874e-01    1.788649e+00   4.130971e-02
  4.011978e-01    1.828939e+00   4.164391e-02
  4.034083e-01    1.807199e+00   4.126857e-02
  4.056187e-01    1.792805e+00   4.097731e-02
  4.078292e-01    1.739442e+00   4.024070e-02
  4.100397e-01    1.741345e+00   4.013974e-02
  4.122501e-01    1.820307e+00   4.091697e-02
  4.144606e-01    1.761159e+00   4.012738e-02
  4.166710e-01    1.736281e+00   3.972447e-02
  4.188815e-01    1.758172e+00   3.985601e-02
  4.210919e-01    1.821075e+00   4.044385e-02
  4.233024e-01    1.811561e+00   4.021944e-02
  4.255128e-01    1.793085e+00   3.989812e-02
  4.277233e-01    1.843013e+00   4.033358e-02
  4.299338e-01    1.830395e+00   4.007962e-02
  4.321442e-01    1.821776e+00   3.987073e-02
  4.343547e-01    1.756640e+00   3.904077e-02
  4.365651e-01    1.705387e+00   3.835773e-02
  4.387756e-01    1.686687e+00   3.804000e-02
  4.409860e-01    1.687760e+00   3.794669e-02
  4.431965e-01    1.725133e+00   3.825844e-02
  4.454070e-01    1.728950e+00   3.819418e-02
  4.476174e-01    1.745982e+00   3.827647e-02
  4.498279e-01    1.735222e+00   3.805452e-02
  4.520383e-01    1.705450e+00   3.762313e-02
  4.542488e-01    1.682725e+00   3.727084e-02
  4.564592e-01    1.751142e+00   3.791897e-02
  4.586697e-01    1.710603e+00   3.737803e-02
  4.608801e-01    1.769010e+00   3.790896e-02
  4.630906e-01    1.751760e+00   3.762383e-02
  4.653011e-01    1.706171e+00   3.703335e-02
  4.675115e-01    1.738592e+00   3.728510e-02
  4.697220e-01    1.737667e+00   3.717759e-02
  4.719324e-01    1.748049e+00   3.719204e-02
  4.741429e-01    1.715183e+00   3.674581e-02
  4.763533e-01    1.717396e+00   3.667526e-02
  4.785638e-01    1.711631e+00   3.651906e-02
  4.807743e-01    1.721895e+00   3.653523e-02
  4.829847e-01    1.729882e+00   3.652737e-02
  4.851952e-01    1.709119e+00   3.621562e-02
  4.874056e-01    1.684336e+00   3.586145e-02
  4.896161e-01    1.682623e+00   3.575430e-02
  4.918265e-01    1.694721e+00   3.579351e-02
  4.940370e-01    1.683304e+00   3.558467e-02
  4.962475e-01    1.675548e+00   3.541492e-02
  4.984579e-01    1.691450e+00   3.549488e-02
  5.006684e-01    1.721080e+00   3.571712e-02
  5.028788e-01    1.708912e+00   3.550440e-02
  5.050893e-01    1.719093e+00   3.552340e-02
  5.072997e-01    1.682019e+00   3.505339e-02
  5.095102e-01    1.665445e+00   3.479672e-02
  5.117206e-01    1.647617e+00   3.452770e-02
  5.139311e-01    1.637205e+00   3.433695e-02
  5.161416e-01    1.619888e+00   3.407418e-02
  5.183520e-01    1.594109e+00   3.372163e-02
  5.205625e-01    1.605571e+00   3.376334e-02
  5.227729e-01    1.678605e+00   3.444220e-02
  5.249834e-01    1.670927e+00   3.428357e-02
  5.271938e-01    1.703936e+00   3.453978e-02
  5.294043e-01    1.740365e+00   3.482646e-02
  5.316148e-01    1.783446e+00   3.517415e-02
  5.338252e-01    1.778299e+00   3.504309e-02
  5.360357e-01    1.768665e+00   3.486847e-02
  5.382461e-01    1.772009e+00   3.482253e-02
  5.404566e-01    1.776137e+00   3.478371e-02
  5.426670e-01    1.801416e+00   3.495145e-02
  5.448775e-01    1.763880e+00   3.450812e-02
  5.470879e-01    1.767432e+00   3.446582e-02
  5.492984e-01    1.813984e+00   3.483910e-02
  5.515089e-01    1.823435e+00   3.485229e-02
  5.537193e-01    1.803230e+00   3.458231e-02
  5.559298e-01    1.783842e+00   3.432044e-02
  5.581402e-01    1.805288e+00   3.445068e-02
  5.603507e-01    1.824294e+00   3.455620e-02
  5.625611e-01    1.811689e+00   3.436188e-02
  5.647716e-01    1.758682e+00   3.378194e-02
  5.669821e-01    1.795952e+00   3.406443e-02
  5.691925e-01    1.787908e+00   3.391511e-02
  5.714030e-01    1.738515e+00   3.337206e-02
  5.736134e-01    1.701101e+00   3.294080e-02
  5.758239e-01    1.664048e+00   3.251052e-02
  5.780343e-01    1.659339e+00   3.239581e-02
  5.802448e-01    1.668067e+00   3.241290e-02
  5.824552e-01    1.633104e+00   3.200413e-02
  5.846657e-01    1.630877e+00   3.191562e-02
  5.868762e-01    1.667505e+00   3.220484e-02
  5.890866e-01    1.640847e+00   3.188011e-02
  5.912971e-01    1.651776e+00   3.191987e-02
  5.935075e-01    1.627103e+00   3.161510e-02
  5.957180e-01    1.634397e+00   3.162087e-02
  5.979284e-01    1.657033e+00   3.177409e-02
  6.001389e-01    1.637871e+00   3.152552e-02
  6.023494e-01    1.659558e+00   3.166912e-02
  6.045598e-01    1.635993e+00   3.137945e-02
  6.067703e-01    1.656778e+00   3.151465e-02
  6.089807e-01    1.661666e+00   3.149766e-02
  6.111912e-01    1.643603e+00   3.126344e-02
  6.134016e-01    1.679390e+00   3.153892e-02
  6.156121e-01    1.671576e+00   3.140294e-02
  6.178226e-01    1.658630e+00   3.121915e-02
  6.200330e-01    1.696306e+00   3.150946e-02
  6.222435e-01    1.681311e+00   3.130774e-02
  6.244539e-01    1.695921e+00   3.138191e-02
  6.266644e-01    1.726262e+00   3.159961e-02
  6.288748e-01    1.727466e+00   3.154912e-02
  6.310853e-01    1.694821e+00   3.118894e-02
  6.332957e-01    1.697754e+00   3.115560e-02
  6.355062e-01    1.766684e+00   3.172006e-02
  6.377167e-01    1.745451e+00   3.146838e-02
  6.399271e-01    1.681502e+00   3.082736e-02
  6.421376e-01    1.672875e+00   3.068947e-02
  6.443480e-01    1.690111e+00   3.078849e-02
  6.465585e-01    1.687086e+00   3.070265e-02
  6.487689e-01    1.683657e+00   3.061351e-02
  6.509794e-01    1.648834e+00   3.023814e-02
  6.531899e-01    1.621763e+00   2.993250e-02
  6.554003e-01    1.606320e+00   2.973362e-02
  6.576108e-01    1.627358e+00   2.987197e-02
  6.598212e-01    1.609069e+00   2.964848e-02
  6.620317e-01    1.567282e+00   2.920670e-02
  6.642421e-01    1.587009e+00   2.933557e-02
  6.664526e-01    1.572995e+00   2.915194e-02
  6.686630e-01    1.599377e+00   2.934105e-02
  6.708735e-01    1.564435e+00   2.896553e-02
  6.730840e-01    1.585563e+00   2.910732e-02
  6.752944e-01    1.582298e+00   2.902443e-02
  6.775049e-01    1.612867e+00   2.925027e-02
  6.797153e-01    1.579161e+00   2.889061e-02
  6.819258e-01    1.583677e+00   2.887969e-02
  6.841362e-01    1.598413e+00   2.896159e-02
  6.863467e-01    1.604019e+00   2.896036e-02
  6.885572e-01    1.592854e+00   2.880768e-02
  6.907676e-01    1.620578e+00   2.900523e-02
  6.929781e-01    1.616982e+00   2.892155e-02
  6.951885e-01    1.570486e+00   2.845221e-02
  6.973990e-01    1.581196e+00   2.849857e-02
  6.996094e-01    1.604742e+00   2.865949e-02
  7.018199e-01    1.611403e+00   2.866848e-02
  7.040303e-01    1.597088e+00   2.849074e-02
  7.062408e-01    1.589437e+00   2.837263e-02
  7.084513e-01    1.559974e+00   2.805953e-02
  7.106617e-01    1.574325e+00   2.813931e-02
  7.128722e-01    1.610591e+00   2.841233e-02
  7.150826e-01    1.599241e+00   2.826326e-02
  7.172931e-01    1.574814e+00   2.799823e-02
  7.195035e-01    1.591014e+00   2.809347e-02
  7.217140e-01    1.585336e+00   2.809294e-02
  7.239245e-01    1.559217e+00   2.808616e-02
  7.261349e-01    1.567422e+00   2.826833e-02
  7.283454e-01    1.559848e+00   2.827202e-02
  7.305558e-01    1.568343e+00   2.840277e-02
  7.327663e-01    1.545077e+00   2.823342e-02
  7.349767e-01    1.550974e+00   2.830348e-02
  7.371872e-01    1.584500e+00   2.859654e-02
  7.393976e-01    1.578410e+00   2.852726e-02
  7.416081e-01    1.596169e+00   2.867101e-02
  7.438186e-01    1.576785e+00   2.835198e-02
  7.460290e-01    1.539123e+00   2.772042e-02
  7.482395e-01    1.584900e+00   2.795790e-02
  7.504499e-01    1.588419e+00   2.785208e-02
  7.526604e-01    1.573924e+00   2.760816e-02
  7.548708e-01    1.577911e+00   2.755361e-02
  7.570813e-01    1.559832e+00   2.734457e-02
  7.592918e-01    1.556647e+00   2.728165e-02
  7.615022e-01    1.562774e+00   2.730163e-02
  7.637127e-01    1.564237e+00   2.728172e-02
  7.659231e-01    1.552163e+00   2.714448e-02
  7.681336e-01    1.563794e+00   2.721448e-02
  7.703440e-01    1.563600e+00   2.718169e-02
  7.725545e-01    1.576181e+00   2.725991e-02
  7.747650e-01    1.655563e+00   2.789876e-02
  7.769754e-01    1.626453e+00   2.759889e-02
  7.791859e-01    1.558597e+00   2.696382e-02
  7.813963e-01    1.552384e+00   2.685787e-02
  7.836068e-01    1.558492e+00   2.685908e-02
  7.858172e-01    1.561272e+00   2.683278e-02
  7.880277e-01    1.554600e+00   2.672444e-02
  7.902381e-01    1.586662e+00   2.694955e-02
  7.924486e-01    1.636049e+00   2.731507e-02
  7.946591e-01    1.611111e+00   2.705766e-02
  7.968695e-01    1.588620e+00   2.682004e-02
  7.990800e-01    1.605934e+00   2.691762e-02
  8.012904e-01    1.606842e+00   2.687864e-02
  8.035009e-01    1.611746e+00   2.687173e-02
  8.057113e-01    1.586354e+00   2.661311e-02
  8.079218e-01    1.659803e+00   2.717525e-02
  8.101323e-01    1.726147e+00   2.766599e-02
  8.123427e-01    1.754461e+00   2.784443e-02
  8.145532e-01    1.701228e+00   2.737187e-02
  8.167636e-01    1.638099e+00   2.681402e-02
  8.189741e-01    1.619081e+00   2.661347e-02
  8.211845e-01    1.694826e+00   2.718321e-02
  8.233950e-01    1.758355e+00   2.764302e-02
  8.256054e-01    1.708959e+00   2.720682e-02
  8.278159e-01    1.692190e+00   2.702829e-02
  8.300264e-01    1.671589e+00   2.681975e-02
  8.322368e-01    1.657647e+00   2.666429e-02
  8.344473e-01    1.630687e+00   2.640331e-02
  8.366577e-01    1.641593e+00   2.644883e-02
  8.388682e-01    1.633757e+00   2.634346e-02
  8.410786e-01    1.653422e+00   2.645927e-02
  8.432891e-01    1.624484e+00   2.618509e-02
  8.454996e-01    1.587074e+00   2.584082e-02
  8.477100e-01    1.638566e+00   2.621501e-02
  8.499205e-01    1.635706e+00   2.615100e-02
  8.521309e-01    1.651778e+00   2.623818e-02
  8.543414e-01    1.655346e+00   2.622553e-02
  8.565518e-01    1.618485e+00   2.589153e-02
  8.587623e-01    1.597226e+00   2.568085e-02
  8.609727e-01    1.586524e+00   2.555501e-02
  8.631832e-01    1.582327e+00   2.548181e-02
  8.653937e-01    1.603149e+00   2.560952e-02
  8.676041e-01    1.623719e+00   2.573439e-02
  8.698146e-01    1.637060e+00   2.580041e-02
  8.720250e-01    1.623631e+00   2.565522e-02
  8.742355e-01    1.609437e+00   2.550394e-02
  8.764459e-01    1.635340e+00   2.566915e-02
  8.786564e-01    1.629552e+00   2.558548e-02
  8.808669e-01    1.601417e+00   2.532520e-02
  8.830773e-01    1.608713e+00   2.534460e-02
  8.852878e-01    1.604944e+00   2.527695e-02
  8.874982e-01    1.565037e+00   2.492449e-02
  8.897087e-01    1.565700e+00   2.489250e-02
  8.919191e-01    1.555525e+00   2.477427e-02
  8.941296e-01    1.568429e+00   2.483988e-02
  8.963401e-01    1.602094e+00   2.506861e-02
  8.985505e-01    1.602707e+00   2.503642e-02
  9.007610e-01    1.618027e+00   2.511884e-02
  9.029714e-01    1.581883e+00   2.480108e-02
  9.051819e-01    1.564218e+00   2.462540e-02
  9.073923e-01    1.591414e+00   2.480206e-02
  9.096028e-01    1.581098e+00   2.468685e-02
  9.118132e-01    1.587301e+00   2.469915e-02
  9.140237e-01    1.572852e+00   2.455017e-02
  9.162342e-01    1.583802e+00   2.460108e-02
  9.184446e-01    1.597069e+00   2.466819e-02
  9.206551e-01    1.623555e+00   2.483605e-02
  9.228655e-01    1.601796e+00   2.463380e-02
  9.250760e-01    1.624656e+00   2.477334e-02
  9.272864e-01    1.629948e+00   2.477912e-02
  9.294969e-01    1.596770e+00   2.448988e-02
  9.317074e-01    1.629236e+00   2.470262e-02
  9.339178e-01    1.644812e+00   2.478654e-02
  9.361283e-01    1.628270e+00   2.462524e-02
  9.383387e-01    1.600192e+00   2.437877e-02
  9.405492e-01    1.635051e+00   2.460848e-02
  9.427596e-01    1.637390e+00   2.459061e-02
  9.449701e-01    1.669597e+00   2.479756e-02
  9.471805e-01    1.660342e+00   2.469369e-02
  9.493910e-01    1.680389e+00   2.480823e-02
  9.516015e-01    1.694785e+00   2.487949e-02
  9.538119e-01    1.687365e+00   2.479094e-02
  9.560224e-01    1.713053e+00   2.494378e-02
  9.582328e-01    1.737148e+00   2.508488e-02
  9.604433e-01    1.733067e+00   2.501995e-02
  9.626537e-01    1.736149e+00   2.500849e-02
  9.648642e-01    1.751788e+00   2.508648e-02
  9.670747e-01    1.817249e+00   2.551564e-02
  9.692851e-01    1.872246e+00   2.586445e-02
  9.714956e-01    1.889193e+00   2.594461e-02
  9.737060e-01    1.882853e+00   2.586703e-02
  9.759165e-01    1.819087e+00   2.538941e-02
  9.781269e-01    1.785164e+00   2.511862e-02
  9.803374e-01    1.810038e+00   2.525803e-02
  9.825478e-01    1.843686e+00   2.545810e-02
  9.847583e-01    1.790389e+00   2.505339e-02
  9.869688e-01    1.796148e+00   2.506002e-02
  9.891792e-01    1.855017e+00   2.543355e-02
  9.913897e-01    1.829182e+00   2.522175e-02
  9.936001e-01    1.754575e+00   2.466970e-02
  9.958106e-01    1.733781e+00   2.448974e-02
  9.980210e-01    1.727927e+00   2.441664e-02
  1.000231e+00    1.655331e+00   2.402916e-02
  1.002442e+00    1.635133e+00   2.400897e-02
  1.004652e+00    1.635139e+00   2.407599e-02
  1.006863e+00    1.628336e+00   2.407573e-02
  1.009073e+00    1.617169e+00   2.402973e-02
  1.011284e+00    1.629591e+00   2.415411e-02
  1.013494e+00    1.627014e+00   2.415893e-02
  1.015705e+00    1.599584e+00   2.397707e-02
  1.017915e+00    1.563736e+00   2.372321e-02
  1.020126e+00    1.527987e+00   2.346632e-02
  1.022336e+00    1.521071e+00   2.342468e-02
  1.024547e+00    1.524280e+00   2.346050e-02
  1.026757e+00    1.537582e+00   2.357098e-02
  1.028967e+00    1.496307e+00   2.326003e-02
  1.031178e+00    1.537399e+00   2.358340e-02
  1.033388e+00    1.615586e+00   2.418082e-02
  1.035599e+00    1.888264e+00   2.614568e-02
  1.037809e+00    1.941799e+00   2.651753e-02
  1.040020e+00    1.667886e+00   2.457751e-02
  1.042230e+00    1.582003e+00   2.393829e-02
  1.044441e+00    1.552916e+00   2.371699e-02
  1.046651e+00    1.545187e+00   2.365806e-02
  1.048862e+00    1.589257e+00   2.399222e-02
  1.051072e+00    1.752509e+00   2.519180e-02
  1.053282e+00    1.857104e+00   2.593167e-02
  1.055493e+00    1.927279e+00   2.641212e-02
  1.057703e+00    2.260462e+00   2.860229e-02
  1.059914e+00    2.422149e+00   2.960228e-02
  1.062124e+00    1.857963e+00   2.592206e-02
  1.064335e+00    1.560164e+00   2.375029e-02
  1.066545e+00    1.516501e+00   2.340954e-02
  1.068756e+00    1.451166e+00   2.289602e-02
  1.070966e+00    1.435103e+00   2.276247e-02
  1.073177e+00    1.447495e+00   2.285455e-02
  1.075387e+00    1.434905e+00   2.274976e-02
  1.077597e+00    1.457145e+00   2.291816e-02
  1.079808e+00    1.495347e+00   2.308249e-02
  1.082018e+00    1.483286e+00   2.279884e-02
  1.084229e+00    1.476607e+00   2.263681e-02
  1.086439e+00    1.475943e+00   2.254364e-02
  1.088650e+00    1.484296e+00   2.253092e-02
  1.090860e+00    1.538664e+00   2.287025e-02
  1.093071e+00    1.551134e+00   2.289848e-02
  1.095281e+00    1.491173e+00   2.239339e-02
  1.097492e+00    1.486889e+00   2.230550e-02
  1.099702e+00    1.461616e+00   2.206335e-02
  1.101912e+00    1.471272e+00   2.208673e-02
  1.104123e+00    1.419803e+00   2.164902e-02
  1.106333e+00    1.420697e+00   2.161158e-02
  1.108544e+00    1.425180e+00   2.160148e-02
  1.110754e+00    1.372777e+00   2.115842e-02
  1.112965e+00    1.399920e+00   2.132634e-02
  1.115175e+00    1.426371e+00   2.148561e-02
  1.117386e+00    1.396765e+00   2.122246e-02
  1.119596e+00    1.425233e+00   2.139956e-02
  1.121807e+00    1.451594e+00   2.155720e-02
  1.124017e+00    1.428303e+00   2.134664e-02
  1.126228e+00    1.412975e+00   2.119592e-02
  1.128438e+00    1.397763e+00   2.104480e-02
  1.130648e+00    1.403924e+00   2.105673e-02
  1.132859e+00    1.406354e+00   2.104048e-02
  1.135069e+00    1.356557e+00   2.063035e-02
  1.137280e+00    1.371948e+00   2.071424e-02
  1.139490e+00    1.379403e+00   2.073749e-02
  1.141701e+00    1.373243e+00   2.065815e-02
  1.143911e+00    1.379284e+00   2.067172e-02
  1.146122e+00    1.354840e+00   2.045605e-02
  1.148332e+00    1.348693e+00   2.037803e-02
  1.150543e+00    1.374255e+00   2.053946e-02
  1.152753e+00    1.374603e+00   2.051123e-02
  1.154963e+00    1.364666e+00   2.040602e-02
  1.157174e+00    1.355483e+00   2.030728e-02
  1.159384e+00    1.379123e+00   2.045365e-02
  1.161595e+00    1.438243e+00   2.085688e-02
  1.163805e+00    1.495643e+00   2.123842e-02
  1.166016e+00    1.484315e+00   2.112721e-02
  1.168226e+00    1.432584e+00   2.072613e-02
  1.170437e+00    1.434250e+00   2.070882e-02
  1.172647e+00    1.549154e+00   2.149157e-02
  1.174858e+00    1.572491e+00   2.162275e-02
  1.177068e+00    1.605450e+00   2.181744e-02
  1.179278e+00    1.774446e+00   2.290439e-02
  1.181489e+00    1.837370e+00   2.327562e-02
  1.183699e+00    1.793296e+00   2.296309e-02
  1.185910e+00    1.769920e+00   2.278122e-02
  1.188120e+00    1.646526e+00   2.194340e-02
  1.190331e+00    1.501996e+00   2.093001e-02
  1.192541e+00    1.421446e+00   2.033299e-02
  1.194752e+00    1.361390e+00   1.987169e-02
  1.196962e+00    1.366049e+00   1.987975e-02
  1.199173e+00    1.367713e+00   1.986521e-02
  1.201383e+00    1.339606e+00   1.963297e-02
  1.203593e+00    1.332731e+00   1.955787e-02
  1.205804e+00    1.335394e+00   1.955162e-02
  1.208014e+00    1.348388e+00   1.961966e-02
  1.210225e+00    1.336223e+00   1.950579e-02
  1.212435e+00    1.302407e+00   1.923303e-02
  1.214646e+00    1.319574e+00   1.933353e-02
  1.216856e+00    1.364118e+00   1.963154e-02
  1.219067e+00    1.369012e+00   1.964210e-02
  1.221277e+00    1.360364e+00   1.955484e-02
  1.223488e+00    1.354146e+00   1.948430e-02
  1.225698e+00    1.352819e+00   1.944784e-02
  1.227909e+00    1.333494e+00   1.927845e-02
  1.230119e+00    1.334866e+00   1.925668e-02
  1.232329e+00    1.332135e+00   1.920645e-02
  1.234540e+00    1.334662e+00   1.919455e-02
  1.236750e+00    1.386251e+00   1.953131e-02
  1.238961e+00    1.404912e+00   1.963485e-02
  1.241171e+00    1.387290e+00   1.948678e-02
  1.243382e+00    1.405534e+00   1.959052e-02
  1.245592e+00    1.372820e+00   1.933690e-02
  1.247803e+00    1.348857e+00   1.914375e-02
  1.250013e+00    1.366053e+00   1.924168e-02
  1.252224e+00    1.353818e+00   1.913206e-02
  1.254434e+00    1.356263e+00   1.912552e-02
  1.256644e+00    1.332333e+00   1.893300e-02
  1.258855e+00    1.321294e+00   1.883137e-02
  1.261065e+00    1.349881e+00   1.901061e-02
  1.263276e+00    1.359798e+00   1.905732e-02
  1.265486e+00    1.328767e+00   1.881591e-02
  1.267697e+00    1.333966e+00   1.882979e-02
  1.269907e+00    1.339250e+00   1.884446e-02
  1.272118e+00    1.319796e+00   1.868477e-02
  1.274328e+00    1.309731e+00   1.859099e-02
  1.276539e+00    1.325326e+00   1.867875e-02
  1.278749e+00    1.342287e+00   1.877568e-02
  1.280959e+00    1.349830e+00   1.880583e-02
  1.283170e+00    1.336142e+00   1.868793e-02
  1.285380e+00    1.365297e+00   1.886812e-02
  1.287591e+00    1.365801e+00   1.884947e-02
  1.289801e+00    1.330571e+00   1.858370e-02
  1.292012e+00    1.327963e+00   1.854851e-02
  1.294222e+00    1.362653e+00   1.877290e-02
  1.296433e+00    1.354536e+00   1.870129e-02
  1.298643e+00    1.321428e+00   1.845503e-02
  1.300854e+00    1.324827e+00   1.846248e-02
  1.303064e+00    1.338023e+00   1.853506e-02
  1.305274e+00    1.322794e+00   1.840807e-02
  1.307485e+00    1.338601e+00   1.849625e-02
  1.309695e+00    1.341362e+00   1.849318e-02
  1.311906e+00    1.333982e+00   1.842064e-02
  1.314116e+00    1.333083e+00   1.839377e-02
  1.316327e+00    1.339081e+00   1.841350e-02
  1.318537e+00    1.351544e+00   1.847709e-02
  1.320748e+00    1.355528e+00   1.848270e-02
  1.322958e+00    1.363254e+00   1.851470e-02
  1.325169e+00    1.355173e+00   1.843867e-02
  1.327379e+00    1.363598e+00   1.847398e-02
  1.329589e+00    1.361791e+00   1.844058e-02
  1.331800e+00    1.350366e+00   1.834236e-02
  1.334010e+00    1.374737e+00   1.848628e-02
  1.336221e+00    1.378060e+00   1.848666e-02
  1.338431e+00    1.370194e+00   1.841278e-02
  1.340642e+00    1.372870e+00   1.849548e-02
  1.342852e+00    1.322911e+00   1.825549e-02
  1.345063e+00    1.325203e+00   1.832031e-02
  1.347273e+00    1.332126e+00   1.840311e-02
  1.349484e+00    1.340778e+00   1.849036e-02
  1.351694e+00    1.366896e+00   1.869243e-02
  1.353905e+00    1.352697e+00   1.861313e-02
  1.356115e+00    1.318272e+00   1.838961e-02
  1.358325e+00    1.335532e+00   1.852283e-02
  1.360536e+00    1.367186e+00   1.875276e-02
  1.362746e+00    1.350175e+00   1.864532e-02
  1.364957e+00    1.320462e+00   1.844659e-02
  1.367167e+00    1.321687e+00   1.846223e-02
  1.369378e+00    1.313558e+00   1.841130e-02
  1.371588e+00    1.318567e+00   1.845147e-02
  1.373799e+00    1.319790e+00   1.846366e-02
  1.376009e+00    1.299882e+00   1.832723e-02
  1.378220e+00    1.296605e+00   1.830659e-02
  1.380430e+00    1.303602e+00   1.835861e-02
  1.382640e+00    1.326895e+00   1.852278e-02
  1.384851e+00    1.327366e+00   1.852699e-02
  1.387061e+00    1.280619e+00   1.819811e-02
  1.389272e+00    1.261038e+00   1.805864e-02
  1.391482e+00    1.263556e+00   1.807599e-02
  1.393693e+00    1.263310e+00   1.807337e-02
  1.395903e+00    1.255834e+00   1.801834e-02
  1.398114e+00    1.263191e+00   1.806966e-02
  1.400324e+00    1.272972e+00   1.813737e-02
  1.402535e+00    1.279424e+00   1.818095e-02
  1.404745e+00    1.274956e+00   1.814682e-02
  1.406955e+00    1.277403e+00   1.816152e-02
  1.409166e+00    1.265397e+00   1.807268e-02
  1.411376e+00    1.247864e+00   1.794395e-02
  1.413587e+00    1.248531e+00   1.794496e-02
  1.415797e+00    1.259075e+00   1.801706e-02
  1.418008e+00    1.261801e+00   1.799481e-02
  1.420218e+00    1.271768e+00   1.791590e-02
  1.422429e+00    1.277042e+00   1.786747e-02
  1.424639e+00    1.241377e+00   1.755227e-02
  1.426850e+00    1.253729e+00   1.758499e-02
  1.429060e+00    1.255012e+00   1.754532e-02
  1.431270e+00    1.265357e+00   1.757322e-02
  1.433481e+00    1.279550e+00   1.763041e-02
  1.435691e+00    1.263261e+00   1.747952e-02
  1.437902e+00    1.255053e+00   1.738638e-02
  1.440112e+00    1.265408e+00   1.742267e-02
  1.442323e+00    1.285534e+00   1.752744e-02
  1.444533e+00    1.254092e+00   1.727942e-02
  1.446744e+00    1.263003e+00   1.730965e-02
  1.448954e+00    1.265235e+00   1.729480e-02
  1.451165e+00    1.251790e+00   1.717314e-02
  1.453375e+00    1.248412e+00   1.712213e-02
  1.455586e+00    1.264535e+00   1.720423e-02
  1.457796e+00    1.284816e+00   1.731398e-02
  1.460006e+00    1.282429e+00   1.727052e-02
  1.462217e+00    1.249413e+00   1.702074e-02
  1.464427e+00    1.245299e+00   1.696734e-02
  1.466638e+00    1.241441e+00   1.691597e-02
  1.468848e+00    1.259238e+00   1.701158e-02
  1.471059e+00    1.251001e+00   1.693093e-02
  1.473269e+00    1.266943e+00   1.701410e-02
  1.475480e+00    1.251912e+00   1.688928e-02
  1.477690e+00    1.274906e+00   1.701976e-02
  1.479901e+00    1.258353e+00   1.688519e-02
  1.482111e+00    1.264089e+00   1.690031e-02
  1.484321e+00    1.242310e+00   1.673122e-02
  1.486532e+00    1.261942e+00   1.684059e-02
  1.488742e+00    1.258870e+00   1.679749e-02
  1.490953e+00    1.280634e+00   1.691934e-02
  1.493163e+00    1.251531e+00   1.670379e-02
  1.495374e+00    1.247689e+00   1.665678e-02
  1.497584e+00    1.256555e+00   1.669425e-02
  1.499795e+00    1.258513e+00   1.668561e-02
  1.502005e+00    1.295822e+00   1.690914e-02
  1.504216e+00    1.311613e+00   1.699038e-02
  1.506426e+00    1.294637e+00   1.685898e-02
  1.508636e+00    1.269239e+00   1.667224e-02
  1.510847e+00    1.271772e+00   1.666690e-02
  1.513057e+00    1.265793e+00   1.660251e-02
  1.515268e+00    1.249922e+00   1.647242e-02
  1.517478e+00    1.269926e+00   1.657839e-02
  1.519689e+00    1.265674e+00   1.652557e-02
  1.521899e+00    1.224388e+00   1.623095e-02
  1.524110e+00    1.255909e+00   1.641818e-02
  1.526320e+00    1.261044e+00   1.643207e-02
  1.528531e+00    1.249280e+00   1.633549e-02
  1.530741e+00    1.240814e+00   1.626097e-02
  1.532951e+00    1.233606e+00   1.619421e-02
  1.535162e+00    1.250994e+00   1.639459e-02
  1.537372e+00    1.221760e+00   1.626808e-02
  1.539583e+00    1.230687e+00   1.636136e-02
  1.541793e+00    1.261353e+00   1.657096e-02
  1.544004e+00    1.261885e+00   1.657471e-02
  1.546214e+00    1.262680e+00   1.657842e-02
  1.548425e+00    1.250352e+00   1.649755e-02
  1.550635e+00    1.239834e+00   1.643769e-02
  1.552846e+00    1.204246e+00   1.620955e-02
  1.555056e+00    1.216090e+00   1.624805e-02
  1.557266e+00    1.219028e+00   1.615836e-02
  1.559477e+00    1.237783e+00   1.622322e-02
  1.561687e+00    1.235077e+00   1.617491e-02
  1.563898e+00    1.294634e+00   1.654281e-02
  1.566108e+00    1.277573e+00   1.641730e-02
  1.568319e+00    1.262505e+00   1.630446e-02
  1.570529e+00    1.260148e+00   1.626393e-02
  1.572740e+00    1.250846e+00   1.617612e-02
  1.574950e+00    1.230562e+00   1.601826e-02
  1.577161e+00    1.220498e+00   1.592737e-02
  1.579371e+00    1.245561e+00   1.606643e-02
  1.581582e+00    1.229409e+00   1.594225e-02
  1.583792e+00    1.252455e+00   1.607290e-02
  1.586002e+00    1.239958e+00   1.597494e-02
  1.588213e+00    1.239560e+00   1.595516e-02
  1.590423e+00    1.218496e+00   1.579915e-02
  1.592634e+00    1.232061e+00   1.586531e-02
  1.594844e+00    1.235691e+00   1.586735e-02
  1.597055e+00    1.231833e+00   1.582216e-02
  1.599265e+00    1.250529e+00   1.592097e-02
  1.601476e+00    1.234584e+00   1.579889e-02
  1.603686e+00    1.228402e+00   1.573963e-02
  1.605897e+00    1.216944e+00   1.564606e-02
  1.608107e+00    1.212865e+00   1.560045e-02
  1.610317e+00    1.227294e+00   1.567374e-02
  1.612528e+00    1.216810e+00   1.558763e-02
  1.614738e+00    1.203022e+00   1.548033e-02
  1.616949e+00    1.186539e+00   1.535525e-02
  1.619159e+00    1.193666e+00   1.538279e-02
  1.621370e+00    1.188736e+00   1.533278e-02
  1.623580e+00    1.175180e+00   1.522706e-02
  1.625791e+00    1.197013e+00   1.534968e-02
  1.628001e+00    1.178194e+00   1.521047e-02
  1.630212e+00    1.175834e+00   1.517760e-02
  1.632422e+00    1.165731e+00   1.509452e-02
  1.634632e+00    1.155790e+00   1.501291e-02
  1.636843e+00    1.149068e+00   1.495186e-02
  1.639053e+00    1.121670e+00   1.475563e-02
  1.641264e+00    1.132872e+00   1.481229e-02
  1.643474e+00    1.126713e+00   1.475486e-02
  1.645685e+00    1.149051e+00   1.488380e-02
  1.647895e+00    1.123425e+00   1.470055e-02
  1.650106e+00    1.122280e+00   1.467624e-02
  1.652316e+00    1.128084e+00   1.469783e-02
  1.654527e+00    1.112469e+00   1.457929e-02
  1.656737e+00    1.096780e+00   1.445985e-02
  1.658947e+00    1.115135e+00   1.456418e-02
  1.661158e+00    1.088655e+00   1.437425e-02
  1.663368e+00    1.086446e+00   1.434388e-02
  1.665579e+00    1.082263e+00   1.430038e-02
  1.667789e+00    1.082105e+00   1.428334e-02
  1.670000e+00    1.072947e+00   1.420756e-02
  1.672210e+00    1.076119e+00   1.421290e-02
  1.674421e+00    1.078847e+00   1.421576e-02
  1.676631e+00    1.101020e+00   1.434524e-02
  1.678842e+00    1.077724e+00   1.417706e-02
  1.681052e+00    1.074406e+00   1.413994e-02
  1.683263e+00    1.115568e+00   1.439294e-02
  1.685473e+00    1.123566e+00   1.442905e-02
  1.687683e+00    1.090497e+00   1.419965e-02
  1.689894e+00    1.072724e+00   1.406775e-02
  1.692104e+00    1.066493e+00   1.401198e-02
  1.694315e+00    1.064860e+00   1.398680e-02
  1.696525e+00    1.032869e+00   1.376021e-02
  1.698736e+00    1.045735e+00   1.383094e-02
  1.700946e+00    1.066101e+00   1.394981e-02
  1.703157e+00    1.041037e+00   1.377033e-02
  1.705367e+00    1.022443e+00   1.363252e-02
  1.707578e+00    1.020568e+00   1.360561e-02
  1.709788e+00    1.045637e+00   1.375760e-02
  1.711998e+00    1.009174e+00   1.350085e-02
  1.714209e+00    1.011880e+00   1.350466e-02
  1.716419e+00    9.954628e-01   1.338068e-02
  1.718630e+00    9.955929e-01   1.336752e-02
  1.720840e+00    1.029945e+00   1.358200e-02
  1.723051e+00    1.047249e+00   1.368160e-02
  1.725261e+00    1.086171e+00   1.391838e-02
  1.727472e+00    1.027180e+00   1.352093e-02
  1.729682e+00    1.001151e+00   1.333514e-02
  1.731893e+00    1.016277e+00   1.342155e-02
  1.734103e+00    1.024186e+00   1.345979e-02
  1.736313e+00    1.015306e+00   1.338725e-02
  1.738524e+00    9.915883e-01   1.321620e-02
  1.740734e+00    9.828102e-01   1.314398e-02
  1.742945e+00    9.723704e-01   1.306069e-02
  1.745155e+00    9.762189e-01   1.307317e-02
  1.747366e+00    9.656928e-01   1.298885e-02
  1.749576e+00    9.737678e-01   1.302946e-02
  1.751787e+00    9.803882e-01   1.306033e-02
  1.753997e+00    1.009882e+00   1.324176e-02
  1.756208e+00    1.021761e+00   1.330591e-02
  1.758418e+00    9.903472e-01   1.308652e-02
  1.760628e+00    1.020610e+00   1.327124e-02
  1.762839e+00    1.069769e+00   1.357315e-02
  1.765049e+00    1.106882e+00   1.379260e-02
  1.767260e+00    1.018509e+00   1.321736e-02
  1.769470e+00    9.604832e-01   1.282228e-02
  1.771681e+00    9.375315e-01   1.265512e-02
  1.773891e+00    9.302648e-01   1.259305e-02
  1.776102e+00    9.667611e-01   1.282468e-02
  1.778312e+00    1.041077e+00   1.329512e-02
  1.780523e+00    1.147520e+00   1.394415e-02
  1.782733e+00    1.278661e+00   1.470463e-02
  1.784944e+00    1.126546e+00   1.378825e-02
  1.787154e+00    9.658717e-01   1.275435e-02
  1.789364e+00    9.148597e-01   1.240058e-02
  1.791575e+00    9.151416e-01   1.239002e-02
  1.793785e+00    9.144406e-01   1.237295e-02
  1.795996e+00    8.981783e-01   1.225005e-02
  1.798206e+00    9.318022e-01   1.246463e-02
  1.800417e+00    9.630498e-01   1.265890e-02
  1.802627e+00    9.320095e-01   1.244121e-02
  1.804838e+00    9.148136e-01   1.231375e-02
  1.807048e+00    9.145399e-01   1.229903e-02
  1.809259e+00    9.238186e-01   1.234753e-02
  1.811469e+00    9.293318e-01   1.236917e-02
  1.813679e+00    9.274552e-01   1.234148e-02
  1.815890e+00    9.209440e-01   1.228316e-02
  1.818100e+00    8.865204e-01   1.203638e-02
  1.820311e+00    8.950938e-01   1.207967e-02
  1.822521e+00    8.661409e-01   1.186806e-02
  1.824732e+00    8.676424e-01   1.186369e-02
  1.826942e+00    8.816285e-01   1.194664e-02
  1.829153e+00    8.884669e-01   1.198117e-02
  1.831363e+00    9.274207e-01   1.222864e-02
  1.833574e+00    9.898490e-01   1.262119e-02
  1.835784e+00    9.419215e-01   1.230002e-02
  1.837994e+00    9.195427e-01   1.214104e-02
  1.840205e+00    8.795022e-01   1.186256e-02
  1.842415e+00    8.825749e-01   1.187141e-02
  1.844626e+00    8.595353e-01   1.170396e-02
  1.846836e+00    8.740820e-01   1.179110e-02
  1.849047e+00    8.506668e-01   1.162062e-02
  1.851257e+00    8.551932e-01   1.164194e-02
  1.853468e+00    8.683208e-01   1.172213e-02
  1.855678e+00    9.044349e-01   1.195429e-02
  1.857889e+00    9.030257e-01   1.193629e-02
  1.860099e+00    8.825892e-01   1.179169e-02
  1.862309e+00    8.498642e-01   1.156254e-02
  1.864520e+00    8.413095e-01   1.149569e-02
  1.866730e+00    8.321668e-01   1.142380e-02
  1.868941e+00    8.361494e-01   1.144025e-02
  1.871151e+00    8.321146e-01   1.140137e-02
  1.873362e+00    8.338175e-01   1.140179e-02
  1.875572e+00    8.333725e-01   1.138790e-02
  1.877783e+00    8.776319e-01   1.167476e-02
  1.879993e+00    8.907893e-01   1.175054e-02
  1.882204e+00    8.612759e-01   1.154321e-02
  1.884414e+00    8.664609e-01   1.156671e-02
  1.886624e+00    8.594188e-01   1.150841e-02
  1.888835e+00    8.729743e-01   1.158766e-02
  1.891045e+00    8.678730e-01   1.154268e-02
  1.893256e+00    8.415561e-01   1.135525e-02
  1.895466e+00    8.339791e-01   1.129282e-02
  1.897677e+00    8.710794e-01   1.153011e-02
  1.899887e+00    8.916831e-01   1.165435e-02
  1.902098e+00    8.516075e-01   1.137850e-02
  1.904308e+00    8.323966e-01   1.123879e-02
  1.906519e+00    8.449973e-01   1.131262e-02
  1.908729e+00    8.385456e-01   1.125869e-02
  1.910940e+00    8.438647e-01   1.128308e-02
  1.913150e+00    8.685328e-01   1.143595e-02
  1.915360e+00    8.523869e-01   1.131840e-02
  1.917571e+00    8.064626e-01   1.099849e-02
  1.919781e+00    8.215298e-01   1.109005e-02
  1.921992e+00    8.046441e-01   1.096500e-02
  1.924202e+00    8.025202e-01   1.093983e-02
  1.926413e+00    8.114049e-01   1.098995e-02
  1.928623e+00    8.065099e-01   1.094628e-02
  1.930834e+00    7.859730e-01   1.079575e-02
  1.933044e+00    7.888908e-01   1.080523e-02
  1.935255e+00    7.815291e-01   1.074458e-02
  1.937465e+00    7.757647e-01   1.069468e-02
  1.939675e+00    7.694847e-01   1.064071e-02
  1.941886e+00    7.875939e-01   1.075503e-02
  1.944096e+00    7.857760e-01   1.073255e-02
  1.946307e+00    7.828537e-01   1.070233e-02
  1.948517e+00    7.937259e-01   1.076601e-02
  1.950728e+00    7.845397e-01   1.069336e-02
  1.952938e+00    7.925209e-01   1.073756e-02
  1.955149e+00    7.923260e-01   1.072605e-02
  1.957359e+00    7.771322e-01   1.061277e-02
  1.959570e+00    7.801654e-01   1.062270e-02
  1.961780e+00    7.815100e-01   1.062199e-02
  1.963990e+00    7.887582e-01   1.066106e-02
  1.966201e+00    7.845765e-01   1.062273e-02
  1.968411e+00    7.879932e-01   1.063569e-02
  1.970622e+00    7.888560e-01   1.063142e-02
  1.972832e+00    7.762315e-01   1.053610e-02
  1.975043e+00    7.645913e-01   1.044689e-02
  1.977253e+00    7.801475e-01   1.054271e-02
  1.979464e+00    8.046894e-01   1.069709e-02
  1.981674e+00    7.853889e-01   1.055777e-02
  1.983885e+00    7.736810e-01   1.046879e-02
  1.986095e+00    7.798753e-01   1.050093e-02
  1.988305e+00    7.631130e-01   1.037766e-02
  1.990516e+00    7.713795e-01   1.042385e-02
  1.992726e+00    7.662891e-01   1.037980e-02
  1.994937e+00    7.647418e-01   1.035928e-02
  1.997147e+00    7.453450e-01   1.021751e-02
  1.999358e+00    7.714779e-01   1.038525e-02
  2.001568e+00    7.560424e-01   1.027016e-02
  2.003779e+00    7.611979e-01   1.029328e-02
  2.005989e+00    7.520616e-01   1.021946e-02
  2.008200e+00    7.494966e-01   1.019064e-02
  2.010410e+00    7.504280e-01   1.018537e-02
  2.012621e+00    7.752138e-01   1.034043e-02
  2.014831e+00    7.828131e-01   1.037944e-02
  2.017041e+00    7.592219e-01   1.021150e-02
  2.019252e+00    7.655740e-01   1.024416e-02
  2.021462e+00    7.651854e-01   1.023206e-02
  2.023673e+00    7.812439e-01   1.032938e-02
  2.025883e+00    7.605546e-01   1.018219e-02
  2.028094e+00    7.445390e-01   1.006487e-02
  2.030304e+00    7.714044e-01   1.023525e-02
  2.032515e+00    7.664730e-01   1.019317e-02
  2.034725e+00    7.650116e-01   1.017395e-02
  2.036936e+00    7.531307e-01   1.008535e-02
  2.039146e+00    7.472059e-01   1.003609e-02
  2.041356e+00    7.385002e-01   9.967908e-03
  2.043567e+00    7.503700e-01   1.003844e-02
  2.045777e+00    7.335616e-01   9.916236e-03
  2.047988e+00    7.517543e-01   1.002911e-02
  2.050198e+00    7.673180e-01   1.012388e-02
  2.052409e+00    7.514031e-01   1.001072e-02
  2.054619e+00    7.416366e-01   9.938089e-03
  2.056830e+00    7.610741e-01   1.006028e-02
  2.059040e+00    7.595600e-01   1.004270e-02
  2.061251e+00    7.421979e-01   9.920065e-03
  2.063461e+00    7.275281e-01   9.814041e-03
  2.065671e+00    7.324514e-01   9.838558e-03
  2.067882e+00    7.416708e-01   9.891337e-03
  2.070092e+00    7.364921e-01   9.847609e-03
  2.072303e+00    7.379808e-01   9.848470e-03
  2.074513e+00    7.421558e-01   9.866990e-03
  2.076724e+00    7.417103e-01   9.854583e-03
  2.078934e+00    7.209205e-01   9.706639e-03
  2.081145e+00    7.328756e-01   9.777739e-03
  2.083355e+00    7.442319e-01   9.844028e-03
  2.085566e+00    7.514173e-01   9.882474e-03
  2.087776e+00    7.186682e-01   9.655349e-03
  2.089986e+00    7.182161e-01   9.643647e-03
  2.092197e+00    7.288190e-01   9.705644e-03
  2.094407e+00    7.233038e-01   9.659744e-03
  2.096618e+00    7.292082e-01   9.690193e-03
  2.098828e+00    7.590136e-01   9.876783e-03
  2.101039e+00    7.548372e-01   9.840491e-03
  2.103249e+00    7.240278e-01   9.628931e-03
  2.105460e+00    7.159709e-01   9.566282e-03
  2.107670e+00    7.208063e-01   9.589831e-03
  2.109881e+00    7.066020e-01   9.485857e-03
  2.112091e+00    7.177650e-01   9.551535e-03
  2.114301e+00    7.165296e-01   9.534603e-03
  2.116512e+00    7.114845e-01   9.492229e-03
  2.118722e+00    6.991953e-01   9.401239e-03
  2.120933e+00    6.916674e-01   9.341782e-03
  2.123143e+00    7.118243e-01   9.468065e-03
  2.125354e+00    7.141498e-01   9.475018e-03
  2.127564e+00    7.069044e-01   9.418175e-03
  2.129775e+00    6.824092e-01   9.245019e-03
  2.131985e+00    7.026318e-01   9.372015e-03
  2.134196e+00    6.916668e-01   9.290149e-03
  2.136406e+00    7.019424e-01   9.350221e-03
  2.138617e+00    7.041426e-01   9.356452e-03
  2.140827e+00    6.908199e-01   9.283364e-03
  2.143037e+00    6.985478e-01   9.380340e-03
  2.145248e+00    7.073187e-01   9.461070e-03
  2.147458e+00    6.981286e-01   9.414490e-03
  2.149669e+00    6.915481e-01   9.381760e-03
  2.151879e+00    7.061813e-01   9.489748e-03
  2.154090e+00    7.243469e-01   9.618462e-03
  2.156300e+00    7.179686e-01   9.582715e-03
  2.158511e+00    7.090658e-01   9.528459e-03
  2.160721e+00    7.004659e-01   9.475310e-03
  2.162932e+00    7.011973e-01   9.484014e-03
  2.165142e+00    6.953787e-01   9.447610e-03
  2.167352e+00    6.780757e-01   9.332186e-03
  2.169563e+00    6.955354e-01   9.453525e-03
  2.171773e+00    6.962081e-01   9.460550e-03
  2.173984e+00    6.917654e-01   9.431724e-03
  2.176194e+00    6.842492e-01   9.381557e-03
  2.178405e+00    6.776640e-01   9.336974e-03
  2.180615e+00    6.876658e-01   9.406297e-03
  2.182826e+00    6.852956e-01   9.390776e-03
  2.185036e+00    6.760700e-01   9.327374e-03
  2.187247e+00    6.873381e-01   9.404746e-03
  2.189457e+00    6.883143e-01   9.411004e-03
  2.191667e+00    6.965072e-01   9.466690e-03
  2.193878e+00    6.831011e-01   9.374578e-03
  2.196088e+00    6.724615e-01   9.300599e-03
  2.198299e+00    6.784506e-01   9.340827e-03
  2.200509e+00    6.713605e-01   9.290869e-03
  2.202720e+00    6.634977e-01   9.235149e-03
  2.204930e+00    6.772066e-01   9.328818e-03
  2.207141e+00    6.756209e-01   9.316817e-03
  2.209351e+00    6.748002e-01   9.309240e-03
  2.211562e+00    6.706943e-01   9.279289e-03
  2.213772e+00    6.610236e-01   9.157321e-03
  2.215982e+00    6.724383e-01   9.191927e-03
  2.218193e+00    6.780080e-01   9.200257e-03
  2.220403e+00    6.760856e-01   9.162580e-03
  2.222614e+00    7.028446e-01   9.320751e-03
  2.224824e+00    6.896803e-01   9.213444e-03
  2.227035e+00    6.848392e-01   9.163444e-03
  2.229245e+00    6.668233e-01   9.025222e-03
  2.231456e+00    6.708125e-01   9.036551e-03
  2.233666e+00    6.632553e-01   8.970496e-03
  2.235877e+00    6.905903e-01   9.139000e-03
  2.238087e+00    7.052368e-01   9.221580e-03
  2.240298e+00    6.888056e-01   9.099572e-03
  2.242508e+00    6.712586e-01   8.967755e-03
  2.244718e+00    6.647992e-01   8.908729e-03
  2.246929e+00    6.730565e-01   8.949414e-03
  2.249139e+00    6.998807e-01   9.113312e-03
  2.251350e+00    7.083846e-01   9.156488e-03
  2.253560e+00    6.940168e-01   9.051323e-03
  2.255771e+00    7.098095e-01   9.141944e-03
  2.257981e+00    7.442654e-01   9.349386e-03
  2.260192e+00    7.371652e-01   9.292979e-03
  2.262402e+00    7.430941e-01   9.318812e-03
  2.264613e+00    7.073955e-01   9.081041e-03
  2.266823e+00    6.898025e-01   8.956780e-03
  2.269033e+00    6.852230e-01   8.916453e-03
  2.271244e+00    6.903853e-01   8.939349e-03
  2.273454e+00    7.229784e-01   9.137203e-03
  2.275665e+00    7.659180e-01   9.393559e-03
  2.277875e+00    7.290117e-01   9.154068e-03
  2.280086e+00    6.743679e-01   8.794148e-03
  2.282296e+00    6.590703e-01   8.684404e-03
  2.284507e+00    6.496898e-01   8.612326e-03
  2.286717e+00    6.624807e-01   8.687178e-03
  2.288928e+00    6.539112e-01   8.620975e-03
  2.291138e+00    6.581168e-01   8.639221e-03
  2.293348e+00    6.602250e-01   8.643465e-03
  2.295559e+00    6.631678e-01   8.653357e-03
  2.297769e+00    6.520538e-01   8.571288e-03
  2.299980e+00    6.623791e-01   8.629502e-03
  2.302190e+00    6.515145e-01   8.549326e-03
  2.304401e+00    6.563464e-01   8.571600e-03
  2.306611e+00    6.468864e-01   8.500483e-03
  2.308822e+00    6.367576e-01   8.425333e-03
  2.311032e+00    6.436409e-01   8.464364e-03
  2.313243e+00    6.374289e-01   8.417187e-03
  2.315453e+00    6.422170e-01   8.441205e-03
  2.317663e+00    6.543266e-01   8.511257e-03
  2.319874e+00    6.630070e-01   8.558677e-03
  2.322084e+00    6.548927e-01   8.497128e-03
  2.324295e+00    6.513796e-01   8.466038e-03
  2.326505e+00    6.500298e-01   8.448164e-03
  2.328716e+00    6.432852e-01   8.395678e-03
  2.330926e+00    6.515391e-01   8.440519e-03
  2.333137e+00    6.401819e-01   8.358262e-03
  2.335347e+00    6.502818e-01   8.415012e-03
  2.337558e+00    6.384760e-01   8.330046e-03
  2.339768e+00    6.343307e-01   8.294438e-03
  2.341979e+00    6.303979e-01   8.260367e-03
  2.344189e+00    6.359138e-01   8.288037e-03
  2.346399e+00    6.332403e-01   8.262138e-03
  2.348610e+00    6.117287e-01   8.112295e-03
  2.350820e+00    6.034385e-01   8.049147e-03
  2.353031e+00    6.185318e-01   8.141012e-03
  2.355241e+00    6.171733e-01   8.124113e-03
  2.357452e+00    6.175510e-01   8.118270e-03
  2.359662e+00    6.238481e-01   8.151405e-03
  2.361873e+00    6.204165e-01   8.120763e-03
  2.364083e+00    6.243157e-01   8.138303e-03
  2.366294e+00    6.139712e-01   8.062578e-03
  2.368504e+00    6.102720e-01   8.030271e-03
  2.370714e+00    6.287920e-01   8.143135e-03
  2.372925e+00    6.185998e-01   8.068873e-03
  2.375135e+00    6.118582e-01   8.016789e-03
  2.377346e+00    6.166193e-01   8.040039e-03
  2.379556e+00    6.032377e-01   7.944533e-03
  2.381767e+00    6.273881e-01   8.094102e-03
  2.383977e+00    6.212412e-01   8.046421e-03
  2.386188e+00    6.155354e-01   8.001493e-03
  2.388398e+00    6.166205e-01   8.000597e-03
  2.390609e+00    6.238061e-01   8.039305e-03
  2.392819e+00    6.185704e-01   7.997720e-03
  2.395029e+00    6.251664e-01   8.032519e-03
  2.397240e+00    6.129742e-01   7.945953e-03
  2.399450e+00    6.228658e-01   8.001942e-03
  2.401661e+00    6.123269e-01   7.926273e-03
  2.403871e+00    6.188663e-01   7.960676e-03
  2.406082e+00    6.095005e-01   7.892784e-03
  2.408292e+00    6.153597e-01   7.922792e-03
  2.410503e+00    5.951595e-01   7.784279e-03
  2.412713e+00    6.009601e-01   7.814343e-03
  2.414924e+00    5.932372e-01   7.756578e-03
  2.417134e+00    5.891533e-01   7.722285e-03
  2.419344e+00    6.147759e-01   7.880942e-03
  2.421555e+00    5.871276e-01   7.694300e-03
  2.423765e+00    5.845116e-01   7.669803e-03
  2.425976e+00    5.988835e-01   7.755729e-03
  2.428186e+00    5.918164e-01   7.702663e-03
  2.430397e+00    5.902604e-01   7.685085e-03
  2.432607e+00    5.973821e-01   7.724017e-03
  2.434818e+00    6.064183e-01   7.774618e-03
  2.437028e+00    5.849293e-01   7.628536e-03
  2.439239e+00    5.858002e-01   7.626595e-03
  2.441449e+00    5.798599e-01   7.580712e-03
  2.443659e+00    5.832895e-01   7.595786e-03
  2.445870e+00    5.822210e-01   7.601008e-03
  2.448080e+00    5.822135e-01   7.635728e-03
  2.450291e+00    5.836619e-01   7.661941e-03
  2.452501e+00    5.646347e-01   7.547047e-03
  2.454712e+00    5.745720e-01   7.621621e-03
  2.456922e+00    5.668655e-01   7.576920e-03
  2.459133e+00    5.755845e-01   7.640456e-03
  2.461343e+00    5.753132e-01   7.643023e-03
  2.463554e+00    5.738364e-01   7.636723e-03
  2.465764e+00    5.609043e-01   7.553310e-03
  2.467975e+00    5.417163e-01   7.425237e-03
  2.470185e+00    5.455424e-01   7.453629e-03
  2.472395e+00    5.461556e-01   7.459032e-03
  2.474606e+00    5.478086e-01   7.471867e-03
  2.476816e+00    5.517985e-01   7.499757e-03
  2.479027e+00    5.505113e-01   7.491861e-03
  2.481237e+00    5.410107e-01   7.427210e-03
  2.483448e+00    5.394022e-01   7.416461e-03
  2.485658e+00    5.417757e-01   7.432608e-03
  2.487869e+00    5.485901e-01   7.479255e-03
  2.490079e+00    5.489997e-01   7.481508e-03
  2.492290e+00    5.490541e-01   7.481459e-03
  2.494500e+00    5.467917e-01   7.465287e-03
  2.496710e+00    5.462787e-01   7.461082e-03
  2.498921e+00    5.402947e-01   7.419114e-03
  2.501131e+00    5.350433e-01   7.382003e-03
  2.503342e+00    5.413208e-01   7.423927e-03
  2.505552e+00    5.302256e-01   7.346305e-03
  2.507763e+00    5.233013e-01   7.296799e-03
  2.509973e+00    5.124171e-01   7.219118e-03
  2.512184e+00    5.166876e-01   7.247548e-03
  2.514394e+00    5.186937e-01   7.252311e-03
  2.516605e+00    5.402932e-01   7.354087e-03
  2.518815e+00    5.342665e-01   7.284435e-03
  2.521025e+00    5.278123e-01   7.219278e-03
  2.523236e+00    5.251284e-01   7.182932e-03
  2.525446e+00    5.140753e-01   7.091509e-03
  2.527657e+00    5.163314e-01   7.092555e-03
  2.529867e+00    5.215010e-01   7.113846e-03
  2.532078e+00    5.265651e-01   7.133242e-03
  2.534288e+00    5.096695e-01   7.004196e-03
  2.536499e+00    5.171683e-01   7.043672e-03
  2.538709e+00    5.097709e-01   6.982266e-03
  2.540920e+00    5.279636e-01   7.095089e-03
  2.543130e+00    5.184324e-01   7.020456e-03
  2.545340e+00    5.101254e-01   6.954041e-03
  2.547551e+00    5.121970e-01   6.958304e-03
  2.549761e+00    5.169556e-01   6.981032e-03
  2.551972e+00    5.154205e-01   6.961343e-03
  2.554182e+00    5.247871e-01   7.015118e-03
  2.556393e+00    5.062944e-01   6.881446e-03
  2.558603e+00    5.150425e-01   6.931605e-03
  2.560814e+00    5.192944e-01   6.951457e-03
  2.563024e+00    5.247682e-01   6.979386e-03
  2.565235e+00    5.193559e-01   6.933793e-03
  2.567445e+00    5.103128e-01   6.863691e-03
  2.569656e+00    5.103400e-01   6.854187e-03
  2.571866e+00    5.141557e-01   6.870446e-03
  2.574076e+00    5.111620e-01   6.841199e-03
  2.576287e+00    5.179351e-01   6.878028e-03
  2.578497e+00    5.168766e-01   6.863146e-03
  2.580708e+00    5.193725e-01   6.871596e-03
  2.582918e+00    5.071101e-01   6.782274e-03
  2.585129e+00    5.141613e-01   6.821509e-03
  2.587339e+00    5.122682e-01   6.801296e-03
  2.589550e+00    5.120966e-01   6.792584e-03
  2.591760e+00    5.086563e-01   6.762047e-03
  2.593971e+00    5.110416e-01   6.770342e-03
  2.596181e+00    4.995740e-01   6.687807e-03
  2.598391e+00    4.995024e-01   6.682200e-03
  2.600602e+00    4.926511e-01   6.630394e-03
  2.602812e+00    5.142776e-01   6.766775e-03
  2.605023e+00    5.027837e-01   6.683627e-03
  2.607233e+00    5.039763e-01   6.684424e-03
  2.609444e+00    5.066395e-01   6.694847e-03
  2.611654e+00    4.973073e-01   6.625660e-03
  2.613865e+00    4.979857e-01   6.623169e-03
  2.616075e+00    4.936841e-01   6.587472e-03
  2.618286e+00    5.066345e-01   6.666304e-03
  2.620496e+00    4.965729e-01   6.593138e-03
  2.622706e+00    5.178847e-01   6.727313e-03
  2.624917e+00    4.979588e-01   6.590830e-03
  2.627127e+00    4.959511e-01   6.571821e-03
  2.629338e+00    4.994348e-01   6.588912e-03
  2.631548e+00    4.902955e-01   6.522269e-03
  2.633759e+00    4.948275e-01   6.545234e-03
  2.635969e+00    5.009714e-01   6.579061e-03
  2.638180e+00    5.033613e-01   6.587753e-03
  2.640390e+00    4.928230e-01   6.511869e-03
  2.642601e+00    4.952362e-01   6.521176e-03
  2.644811e+00    4.889159e-01   6.472419e-03
  2.647021e+00    4.981587e-01   6.526763e-03
  2.649232e+00    5.120345e-01   6.610245e-03
  2.651442e+00    5.010168e-01   6.532222e-03
  2.653653e+00    5.052991e-01   6.553245e-03
  2.655863e+00    4.910747e-01   6.453720e-03
  2.658074e+00    4.997721e-01   6.503977e-03
  2.660284e+00    4.955397e-01   6.470061e-03
  2.662495e+00    4.885267e-01   6.417401e-03
  2.664705e+00    4.992498e-01   6.480869e-03
  2.666916e+00    5.064752e-01   6.521071e-03
  2.669126e+00    4.971394e-01   6.454228e-03
  2.671337e+00    4.965038e-01   6.443517e-03
  2.673547e+00    4.953058e-01   6.429356e-03
  2.675757e+00    4.903709e-01   6.390827e-03
  2.677968e+00    4.828624e-01   6.335254e-03
  2.680178e+00    4.851947e-01   6.344198e-03
  2.682389e+00    4.839011e-01   6.329403e-03
  2.684599e+00    4.839404e-01   6.323524e-03
  2.686810e+00    4.761722e-01   6.266066e-03
  2.689020e+00    4.879359e-01   6.336731e-03
  2.691231e+00    4.830754e-01   6.298852e-03
  2.693441e+00    4.828371e-01   6.291199e-03
  2.695652e+00    4.906428e-01   6.335330e-03
  2.697862e+00    5.045820e-01   6.418251e-03
  2.700072e+00    4.835612e-01   6.277124e-03
  2.702283e+00    4.753121e-01   6.217189e-03
  2.704493e+00    4.969674e-01   6.350908e-03
  2.706704e+00    4.959241e-01   6.337799e-03
  2.708914e+00    4.871128e-01   6.275278e-03
  2.711125e+00    4.853846e-01   6.257903e-03
  2.713335e+00    4.806035e-01   6.220962e-03
  2.715546e+00    4.801739e-01   6.211761e-03
  2.717756e+00    4.752804e-01   6.174217e-03
  2.719967e+00    4.789169e-01   6.191614e-03
  2.722177e+00    4.854861e-01   6.227812e-03
  2.724387e+00    4.810291e-01   6.193083e-03
  2.726598e+00    4.768482e-01   6.160120e-03
  2.728808e+00    4.821039e-01   6.187803e-03
  2.731019e+00    4.983016e-01   6.284726e-03
  2.733229e+00    4.904792e-01   6.229352e-03
  2.735440e+00    4.744542e-01   6.120535e-03
  2.737650e+00    4.868191e-01   6.193727e-03
  2.739861e+00    4.920552e-01   6.220834e-03
  2.742071e+00    4.842365e-01   6.165473e-03
  2.744282e+00    4.854187e-01   6.166717e-03
  2.746492e+00    4.798459e-01   6.125193e-03
  2.748702e+00    4.845725e-01   6.149373e-03
  2.750913e+00    4.870695e-01   6.159379e-03
  2.753123e+00    4.720479e-01   6.057587e-03
  2.755334e+00    4.786518e-01   6.093756e-03
  2.757544e+00    4.782445e-01   6.085432e-03
  2.759755e+00    4.816126e-01   6.100938e-03
  2.761965e+00    4.773240e-01   6.067741e-03
  2.764176e+00    4.920626e-01   6.154648e-03
  2.766386e+00    4.913121e-01   6.144098e-03
  2.768597e+00    4.946540e-01   6.159010e-03
  2.770807e+00    4.767140e-01   6.040433e-03
  2.773017e+00    4.710818e-01   5.998708e-03
  2.775228e+00    4.839186e-01   6.074077e-03
  2.777438e+00    4.755809e-01   6.015752e-03
  2.779649e+00    4.934176e-01   6.121511e-03
  2.781859e+00    4.779077e-01   6.018791e-03
  2.784070e+00    4.830329e-01   6.045069e-03
  2.786280e+00    4.668712e-01   5.937391e-03
  2.788491e+00    4.680057e-01   5.938800e-03
  2.790701e+00    4.585906e-01   5.873232e-03
  2.792912e+00    4.648522e-01   5.907275e-03
  2.795122e+00    4.830192e-01   6.015856e-03
  2.797333e+00    4.790854e-01   5.985708e-03
  2.799543e+00    4.796685e-01   5.983475e-03
  2.801753e+00    4.771267e-01   5.961732e-03
  2.803964e+00    4.794002e-01   5.970235e-03
  2.806174e+00    4.662008e-01   5.881376e-03
  2.808385e+00    4.753276e-01   5.931873e-03
  2.810595e+00    4.730310e-01   5.910662e-03
  2.812806e+00    4.756292e-01   5.920270e-03
  2.815016e+00    4.700667e-01   5.880812e-03
  2.817227e+00    4.825103e-01   5.984299e-03
  2.819437e+00    4.789116e-01   5.973095e-03
  2.821648e+00    4.610998e-01   5.863224e-03
  2.823858e+00    4.776510e-01   5.972869e-03
  2.826068e+00    4.913433e-01   6.062975e-03
  2.828279e+00    4.612624e-01   5.878436e-03
  2.830489e+00    4.648328e-01   5.904456e-03
  2.832700e+00    4.545718e-01   5.841423e-03
  2.834910e+00    4.671059e-01   5.923462e-03
  2.837121e+00    4.662928e-01   5.920003e-03
  2.839331e+00    4.782515e-01   5.996688e-03
  2.841542e+00    4.706563e-01   5.949892e-03
  2.843752e+00    4.704724e-01   5.949515e-03
  2.845963e+00    4.630188e-01   5.902593e-03
  2.848173e+00    4.605992e-01   5.887222e-03
  2.850383e+00    4.715099e-01   5.956854e-03
  2.852594e+00    4.665932e-01   5.925631e-03
  2.854804e+00    4.645137e-01   5.911907e-03
  2.857015e+00    4.686803e-01   5.937930e-03
  2.859225e+00    4.604579e-01   5.885372e-03
  2.861436e+00    4.510560e-01   5.824319e-03
  2.863646e+00    4.647178e-01   5.911905e-03
  2.865857e+00    4.726636e-01   5.962584e-03
  2.868067e+00    4.559387e-01   5.856363e-03
  2.870278e+00    4.508219e-01   5.823049e-03
  2.872488e+00    4.591930e-01   5.875718e-03
  2.874698e+00    4.703150e-01   5.945386e-03
  2.876909e+00    4.558916e-01   5.852214e-03
  2.879119e+00    4.624606e-01   5.892588e-03
  2.881330e+00    4.485666e-01   5.801956e-03
  2.883540e+00    4.628229e-01   5.892033e-03
  2.885751e+00    4.541687e-01   5.835063e-03
  2.887961e+00    4.512624e-01   5.814511e-03
  2.890172e+00    4.515635e-01   5.814842e-03
  2.892382e+00    4.540428e-01   5.829013e-03
  2.894593e+00    4.468546e-01   5.780883e-03
  2.896803e+00    4.509292e-01   5.805236e-03
  2.899014e+00    4.462305e-01   5.773026e-03
  2.901224e+00    4.489573e-01   5.788646e-03
  2.903434e+00    4.574980e-01   5.841541e-03
  2.905645e+00    4.397155e-01   5.724707e-03
  2.907855e+00    4.588771e-01   5.845981e-03
  2.910066e+00    4.730478e-01   5.933483e-03
  2.912276e+00    4.577146e-01   5.834410e-03
  2.914487e+00    4.529450e-01   5.801481e-03
  2.916697e+00    4.622743e-01   5.858680e-03
  2.918908e+00    4.525108e-01   5.794518e-03
  2.921118e+00    4.501139e-01   5.776450e-03
  2.923329e+00    4.576600e-01   5.822374e-03
  2.925539e+00    4.534933e-01   5.793533e-03
  2.927749e+00    4.591300e-01   5.827097e-03
  2.929960e+00    4.532498e-01   5.786919e-03
  2.932170e+00    4.658743e-01   5.864583e-03
  2.934381e+00    4.670563e-01   5.869577e-03
  2.936591e+00    4.562188e-01   5.798486e-03
  2.938802e+00    4.472831e-01   5.738743e-03
  2.941012e+00    4.556407e-01   5.789767e-03
  2.943223e+00    4.469133e-01   5.731386e-03
  2.945433e+00    4.511468e-01   5.754740e-03
  2.947644e+00    4.538859e-01   5.768059e-03
  2.949854e+00    4.564689e-01   5.780185e-03
  2.952064e+00    4.579203e-01   5.785126e-03
  2.954275e+00    4.473685e-01   5.713709e-03
  2.956485e+00    4.585209e-01   5.780283e-03
  2.958696e+00    4.497009e-01   5.720080e-03
  2.960906e+00    4.579803e-01   5.768283e-03
  2.963117e+00    4.609411e-01   5.782396e-03
  2.965327e+00    4.593107e-01   5.768244e-03
  2.967538e+00    4.520681e-01   5.719665e-03
  2.969748e+00    4.588478e-01   5.759574e-03
  2.971959e+00    4.573045e-01   5.746727e-03
  2.974169e+00    4.522609e-01   5.712385e-03
  2.976379e+00    4.510224e-01   5.701629e-03
  2.978590e+00    4.615102e-01   5.764393e-03
  2.980800e+00    4.539743e-01   5.714337e-03
  2.983011e+00    4.603812e-01   5.751690e-03
  2.985221e+00    4.693227e-01   5.804087e-03
  2.987432e+00    4.557824e-01   5.716630e-03
  2.989642e+00    4.401098e-01   5.614898e-03
  2.991853e+00    4.473531e-01   5.657647e-03
  2.994063e+00    4.582925e-01   5.723488e-03
  2.996274e+00    4.487806e-01   5.660625e-03
  2.998484e+00    4.534840e-01   5.687499e-03
  3.000694e+00    4.538758e-01   5.686508e-03
  3.002905e+00    4.602609e-01   5.723410e-03
  3.005115e+00    4.415724e-01   5.603064e-03
  3.007326e+00    4.639064e-01   5.739809e-03
  3.009536e+00    4.641602e-01   5.738117e-03
  3.011747e+00    4.587052e-01   5.701342e-03
  3.013957e+00    4.482441e-01   5.632803e-03
  3.016168e+00    4.500686e-01   5.641001e-03
  3.018378e+00    4.499962e-01   5.637525e-03
  3.020589e+00    4.625338e-01   5.712257e-03
  3.022799e+00    4.459798e-01   5.605995e-03
  3.025010e+00    4.373111e-01   5.548032e-03
  3.027220e+00    4.380225e-01   5.549488e-03
  3.029430e+00    4.567680e-01   5.663728e-03
  3.031641e+00    4.620925e-01   5.693479e-03
  3.033851e+00    4.541591e-01   5.640855e-03
  3.036062e+00    4.544492e-01   5.639886e-03
  3.038272e+00    4.425534e-01   5.562030e-03
  3.040483e+00    4.528424e-01   5.623085e-03
  3.042693e+00    4.527428e-01   5.619188e-03
  3.044904e+00    4.660718e-01   5.697238e-03
  3.047114e+00    4.456971e-01   5.566535e-03
  3.049325e+00    4.490402e-01   5.582974e-03
  3.051535e+00    4.559719e-01   5.621481e-03
  3.053745e+00    4.496649e-01   5.577745e-03
  3.055956e+00    4.403332e-01   5.515026e-03
  3.058166e+00    4.432431e-01   5.528985e-03
  3.060377e+00    4.483620e-01   5.556071e-03
  3.062587e+00    4.452220e-01   5.531983e-03
  3.064798e+00    4.481523e-01   5.545903e-03
  3.067008e+00    4.493473e-01   5.548563e-03
  3.069219e+00    4.505312e-01   5.551360e-03
  3.071429e+00    4.430733e-01   5.501733e-03
  3.073640e+00    4.334964e-01   5.438675e-03
  3.075850e+00    4.536638e-01   5.560123e-03
  3.078060e+00    4.546420e-01   5.563024e-03
  3.080271e+00    4.504088e-01   5.533569e-03
  3.082481e+00    4.594013e-01   5.585052e-03
  3.084692e+00    4.467685e-01   5.504364e-03
  3.086902e+00    4.471065e-01   5.503192e-03
  3.089113e+00    4.519820e-01   5.529539e-03
  3.091323e+00    4.463535e-01   5.491623e-03
  3.093534e+00    4.468856e-01   5.491523e-03
  3.095744e+00    4.562881e-01   5.545600e-03
  3.097955e+00    4.415559e-01   5.451819e-03
  3.100165e+00    4.451794e-01   5.470798e-03
  3.102375e+00    4.455401e-01   5.469614e-03
  3.104586e+00    4.587836e-01   5.546761e-03
  3.106796e+00    4.450623e-01   5.459684e-03
  3.109007e+00    4.466208e-01   5.466008e-03
  3.111217e+00    4.421936e-01   5.435168e-03
  3.113428e+00    4.550941e-01   5.510429e-03
  3.115638e+00    4.457749e-01   5.450502e-03
  3.117849e+00    4.499127e-01   5.471977e-03
  3.120059e+00    4.473658e-01   5.453002e-03
  3.122270e+00    4.438384e-01   5.428209e-03
  3.124480e+00    4.413140e-01   5.409073e-03
  3.126691e+00    4.448713e-01   5.427279e-03
  3.128901e+00    4.370185e-01   5.376050e-03
  3.131111e+00    4.478549e-01   5.438457e-03
  3.133322e+00    4.439685e-01   5.411357e-03
  3.135532e+00    4.423334e-01   5.397992e-03
  3.137743e+00    4.379106e-01   5.367486e-03
  3.139953e+00    4.393477e-01   5.372598e-03
  3.142164e+00    4.389777e-01   5.382322e-03
  3.144374e+00    4.409720e-01   5.422880e-03
  3.146585e+00    4.561549e-01   5.530227e-03
  3.148795e+00    4.458630e-01   5.478334e-03
  3.151006e+00    4.272864e-01   5.371373e-03
  3.153216e+00    4.362721e-01   5.434660e-03
  3.155426e+00    4.418525e-01   5.475616e-03
  3.157637e+00    4.337821e-01   5.430863e-03
  3.159847e+00    4.398861e-01   5.473811e-03
  3.162058e+00    4.453988e-01   5.512472e-03
  3.164268e+00    4.262005e-01   5.396330e-03
  3.166479e+00    4.396521e-01   5.484493e-03
  3.168689e+00    4.448745e-01   5.520362e-03
  3.170900e+00    4.365310e-01   5.471515e-03
  3.173110e+00    4.329242e-01   5.451714e-03
  3.175321e+00    4.407451e-01   5.503235e-03
  3.177531e+00    4.424779e-01   5.516804e-03
  3.179741e+00    4.302947e-01   5.442369e-03
  3.181952e+00    4.397475e-01   5.503940e-03
  3.184162e+00    4.527376e-01   5.586866e-03
  3.186373e+00    4.442832e-01   5.536084e-03
  3.188583e+00    4.312686e-01   5.456161e-03
  3.190794e+00    4.353733e-01   5.483822e-03
  3.193004e+00    4.375580e-01   5.498803e-03
  3.195215e+00    4.384336e-01   5.505811e-03
  3.197425e+00    4.403298e-01   5.518920e-03
  3.199636e+00    4.290668e-01   5.447122e-03
  3.201846e+00    4.335784e-01   5.475074e-03
  3.204056e+00    4.415796e-01   5.526255e-03
  3.206267e+00    4.403929e-01   5.519690e-03
  3.208477e+00    4.359672e-01   5.492803e-03
  3.210688e+00    4.431279e-01   5.538592e-03
  3.212898e+00    4.386792e-01   5.511283e-03
  3.215109e+00    4.362203e-01   5.496576e-03
  3.217319e+00    4.363824e-01   5.498260e-03
  3.219530e+00    4.247707e-01   5.424980e-03
  3.221740e+00    4.303554e-01   5.461093e-03
  3.223951e+00    4.305122e-01   5.462566e-03
  3.226161e+00    4.192638e-01   5.390897e-03
  3.228372e+00    4.339565e-01   5.485096e-03
  3.230582e+00    4.309014e-01   5.465887e-03
  3.232792e+00    4.243654e-01   5.424491e-03
  3.235003e+00    4.266030e-01   5.439029e-03
  3.237213e+00    4.404041e-01   5.526398e-03
  3.239424e+00    4.356927e-01   5.496771e-03
  3.241634e+00    4.395510e-01   5.521172e-03
  3.243845e+00    4.382729e-01   5.513219e-03
  3.246055e+00    4.256262e-01   5.432823e-03
  3.248266e+00    4.265316e-01   5.438793e-03
  3.250476e+00    4.324276e-01   5.475952e-03
  3.252687e+00    4.146669e-01   5.362245e-03
  3.254897e+00    4.285522e-01   5.451136e-03
  3.257107e+00    4.449480e-01   5.554140e-03
  3.259318e+00    4.307924e-01   5.464849e-03
  3.261528e+00    4.203011e-01   5.397736e-03
  3.263739e+00    4.232756e-01   5.416266e-03
  3.265949e+00    4.338786e-01   5.483542e-03
  3.268160e+00    4.268955e-01   5.438826e-03
  3.270370e+00    4.383204e-01   5.510602e-03
  3.272581e+00    4.277712e-01   5.443610e-03
  3.274791e+00    4.374197e-01   5.504122e-03
  3.277002e+00    4.293068e-01   5.452291e-03
  3.279212e+00    4.210353e-01   5.399118e-03
  3.281422e+00    4.361719e-01   5.494716e-03
  3.283633e+00    4.347406e-01   5.485021e-03
  3.285843e+00    4.280793e-01   5.442490e-03
  3.288054e+00    4.400249e-01   5.516960e-03
  3.290264e+00    4.228699e-01   5.408029e-03
  3.292475e+00    4.312966e-01   5.460802e-03
  3.294685e+00    4.242830e-01   5.415590e-03
  3.296896e+00    4.216119e-01   5.397753e-03
  3.299106e+00    4.387398e-01   5.505724e-03
  3.301317e+00    4.391119e-01   5.507047e-03
  3.303527e+00    4.299534e-01   5.448837e-03
  3.305737e+00    4.061142e-01   5.294610e-03
  3.307948e+00    4.102455e-01   5.320777e-03
  3.310158e+00    4.288007e-01   5.438937e-03
  3.312369e+00    4.284453e-01   5.435788e-03
  3.314579e+00    4.182538e-01   5.369869e-03
  3.316790e+00    4.192531e-01   5.375528e-03
  3.319000e+00    4.403125e-01   5.507708e-03
  3.321211e+00    4.161327e-01   5.353759e-03
  3.323421e+00    4.204938e-01   5.380491e-03
  3.325632e+00    4.144237e-01   5.340667e-03
  3.327842e+00    4.325460e-01   5.455236e-03
  3.330052e+00    4.242716e-01   5.401773e-03
  3.332263e+00    4.215927e-01   5.383638e-03
  3.334473e+00    4.249623e-01   5.404226e-03
  3.336684e+00    4.226682e-01   5.388320e-03
  3.338894e+00    4.271292e-01   5.415855e-03
  3.341105e+00    4.309798e-01   5.438975e-03
  3.343315e+00    4.377798e-01   5.480567e-03
  3.345526e+00    4.164510e-01   5.344499e-03
  3.347736e+00    4.226919e-01   5.382976e-03
  3.349947e+00    4.254128e-01   5.399327e-03
  3.352157e+00    4.227140e-01   5.381010e-03
  3.354368e+00    4.068902e-01   5.278065e-03
  3.356578e+00    4.163025e-01   5.337723e-03
  3.358788e+00    4.227859e-01   5.377793e-03
  3.360999e+00    4.287831e-01   5.414548e-03
  3.363209e+00    4.315084e-01   5.430695e-03
  3.365420e+00    4.275142e-01   5.403972e-03
  3.367630e+00    4.264389e-01   5.396137e-03
  3.369841e+00    4.096237e-01   5.287290e-03
  3.372051e+00    4.142222e-01   5.314881e-03
  3.374262e+00    4.168168e-01   5.329079e-03
  3.376472e+00    4.189804e-01   5.340448e-03
  3.378683e+00    4.145986e-01   5.309917e-03
  3.380893e+00    4.123558e-01   5.293233e-03
  3.383103e+00    4.138748e-01   5.300264e-03
  3.385314e+00    4.074324e-01   5.256650e-03
  3.387524e+00    4.112904e-01   5.278741e-03
  3.389735e+00    4.188972e-01   5.324715e-03
  3.391945e+00    4.053215e-01   5.234057e-03
  3.394156e+00    4.057775e-01   5.232832e-03
  3.396366e+00    4.037325e-01   5.216250e-03
  3.398577e+00    4.066137e-01   5.231798e-03
  3.400787e+00    3.965254e-01   5.178204e-03
  3.402998e+00    4.013484e-01   5.247244e-03
  3.405208e+00    3.915553e-01   5.203137e-03
  3.407418e+00    3.956093e-01   5.245687e-03
  3.409629e+00    3.886453e-01   5.213063e-03
  3.411839e+00    3.719252e-01   5.111049e-03
  3.414050e+00    4.044510e-01   5.340930e-03
  3.416260e+00    4.022231e-01   5.335962e-03
  3.418471e+00    3.785146e-01   5.185534e-03
  3.420681e+00    3.951049e-01   5.306476e-03
  3.422892e+00    3.879195e-01   5.265994e-03
  3.425102e+00    3.685974e-01   5.140772e-03
  3.427313e+00    3.712724e-01   5.166392e-03
  3.429523e+00    3.649574e-01   5.129151e-03
  3.431733e+00    3.932832e-01   5.331163e-03
  3.433944e+00    3.814017e-01   5.256527e-03
  3.436154e+00    3.876404e-01   5.305589e-03
  3.438365e+00    3.605632e-01   5.122715e-03
  3.440575e+00    3.770281e-01   5.244254e-03
  3.442786e+00    3.813218e-01   5.279654e-03
  3.444996e+00    3.967638e-01   5.391152e-03
  3.447207e+00    3.642975e-01   5.171112e-03
  3.449417e+00    3.533338e-01   5.132470e-03
  3.451628e+00    3.566031e-01   5.185114e-03
  3.453838e+00    3.646052e-01   5.264048e-03
  3.456049e+00    3.613358e-01   5.264105e-03
  3.458259e+00    3.599251e-01   5.275558e-03
  3.460469e+00    3.614958e-01   5.306701e-03
  3.462680e+00    3.796099e-01   5.457445e-03
  3.464890e+00    3.677988e-01   5.389713e-03
  3.467101e+00    3.693590e-01   5.418640e-03
  3.469311e+00    3.649064e-01   5.402306e-03
  3.471522e+00    3.783345e-01   5.517265e-03
  3.473732e+00    3.916246e-01   5.629571e-03
  3.475943e+00    3.948428e-01   5.668564e-03
  3.478153e+00    4.108669e-01   5.798403e-03
  3.480364e+00    3.991637e-01   5.730427e-03
  3.482574e+00    4.084764e-01   5.812357e-03
  3.484784e+00    4.129618e-01   5.859082e-03
  3.486995e+00    4.194919e-01   5.920378e-03
  3.489205e+00    4.223652e-01   5.955277e-03
  3.491416e+00    4.325938e-01   6.041970e-03
  3.493626e+00    4.346835e-01   6.071142e-03
  3.495837e+00    4.545643e-01   6.223398e-03
  3.498047e+00    4.527244e-01   6.225412e-03
  3.500258e+00    4.694961e-01   6.354541e-03
  3.502468e+00    4.867552e-01   6.485205e-03
  3.504679e+00    4.770002e-01   6.434665e-03
  3.506889e+00    4.794934e-01   6.466101e-03
  3.509099e+00    4.735992e-01   6.440632e-03
  3.511310e+00    4.833413e-01   6.521093e-03
  3.513520e+00    4.999401e-01   6.646807e-03
  3.515731e+00    5.002073e-01   6.663173e-03
  3.517941e+00    5.228050e-01   6.826856e-03
  3.520152e+00    5.023400e-01   6.706350e-03
  3.522362e+00    4.915509e-01   6.648267e-03
  3.524573e+00    5.097709e-01   6.784677e-03
  3.526783e+00    5.286586e-01   6.922833e-03
  3.528994e+00    5.103433e-01   6.814019e-03
  3.531204e+00    5.162100e-01   6.865468e-03
  3.533414e+00    5.173531e-01   6.885044e-03
  3.535625e+00    5.300523e-01   6.981438e-03
  3.537835e+00    5.121059e-01   6.874104e-03
  3.540046e+00    5.306375e-01   7.006252e-03
  3.542256e+00    5.491634e-01   7.135141e-03
  3.544467e+00    5.527622e-01   7.166241e-03
  3.546677e+00    5.395111e-01   7.087412e-03
  3.548888e+00    5.284057e-01   7.021536e-03
  3.551098e+00    5.369015e-01   7.085048e-03
  3.553309e+00    5.319945e-01   7.060734e-03
  3.555519e+00    5.485525e-01   7.181180e-03
  3.557729e+00    5.463828e-01   7.178826e-03
  3.559940e+00    5.307050e-01   7.086587e-03
  3.562150e+00    5.233482e-01   7.048827e-03
  3.564361e+00    5.404781e-01   7.176665e-03
  3.566571e+00    5.271546e-01   7.101365e-03
  3.568782e+00    5.513313e-01   7.276678e-03
  3.570992e+00    5.347441e-01   7.180138e-03
  3.573203e+00    5.602791e-01   7.364017e-03
  3.575413e+00    5.554348e-01   7.346168e-03
  3.577624e+00    5.516161e-01   7.335158e-03
  3.579834e+00    5.476742e-01   7.322975e-03
  3.582045e+00    5.501698e-01   7.353838e-03
  3.584255e+00    5.423896e-01   7.315789e-03
  3.586465e+00    5.439655e-01   7.340469e-03
  3.588676e+00    5.398188e-01   7.326645e-03
  3.590886e+00    5.255312e-01   7.242658e-03
  3.593097e+00    5.428388e-01   7.375490e-03
  3.595307e+00    5.423228e-01   7.386022e-03
  3.597518e+00    5.544375e-01   7.482536e-03
  3.599728e+00    5.457268e-01   7.437744e-03
  3.601939e+00    5.318840e-01   7.356857e-03
  3.604149e+00    5.170665e-01   7.267776e-03
  3.606360e+00    5.468135e-01   7.488185e-03
  3.608570e+00    5.392621e-01   7.450555e-03
  3.610780e+00    5.292321e-01   7.391944e-03
  3.612991e+00    5.377401e-01   7.461136e-03
  3.615201e+00    5.380651e-01   7.473239e-03
  3.617412e+00    5.379830e-01   7.479951e-03
  3.619622e+00    5.204955e-01   7.363248e-03
  3.621833e+00    5.265396e-01   7.412542e-03
  3.624043e+00    5.535110e-01   7.609693e-03
  3.626254e+00    5.259317e-01   7.427343e-03
  3.628464e+00    5.467700e-01   7.584110e-03
  3.630675e+00    5.347696e-01   7.514607e-03
  3.632885e+00    5.300511e-01   7.495733e-03
  3.635095e+00    5.446244e-01   7.612642e-03
  3.637306e+00    5.369004e-01   7.572878e-03
  3.639516e+00    5.477662e-01   7.663846e-03
  3.641727e+00    5.369672e-01   7.602550e-03
  3.643937e+00    5.412098e-01   7.647170e-03
  3.646148e+00    5.429450e-01   7.674168e-03
  3.648358e+00    5.267452e-01   7.573617e-03
  3.650569e+00    5.431232e-01   7.705284e-03
  3.652779e+00    5.252782e-01   7.592343e-03
  3.654990e+00    5.327626e-01   7.661117e-03
  3.657200e+00    5.370164e-01   7.706577e-03
  3.659410e+00    5.356016e-01   7.711495e-03
  3.661621e+00    5.441973e-01   7.788366e-03
  3.663831e+00    5.304104e-01   7.704184e-03
  3.666042e+00    5.329106e-01   7.737508e-03
  3.668252e+00    5.423895e-01   7.821390e-03
  3.670463e+00    5.399328e-01   7.819054e-03
  3.672673e+00    5.435630e-01   7.860871e-03
  3.674884e+00    5.254748e-01   7.744323e-03
  3.677094e+00    5.341080e-01   7.823230e-03
  3.679305e+00    5.148488e-01   7.696219e-03
  3.681515e+00    5.102593e-01   7.677156e-03
  3.683726e+00    5.238028e-01   7.794071e-03
  3.685936e+00    5.349191e-01   7.892147e-03
  3.688146e+00    5.315770e-01   7.883306e-03
  3.690357e+00    5.320674e-01   7.902926e-03
  3.692567e+00    5.362321e-01   7.950052e-03
  3.694778e+00    5.314195e-01   7.930447e-03
  3.696988e+00    5.227949e-01   7.881744e-03
  3.699199e+00    5.295043e-01   7.948445e-03
  3.701409e+00    5.240948e-01   7.924150e-03
  3.703620e+00    5.322232e-01   8.001744e-03
  3.705830e+00    5.235584e-01   7.952739e-03
  3.708041e+00    5.159087e-01   7.910906e-03
  3.710251e+00    5.394045e-01   8.105970e-03
  3.712461e+00    5.306630e-01   8.056926e-03
  3.714672e+00    5.369828e-01   8.121703e-03
  3.716882e+00    5.185453e-01   7.997772e-03
  3.719093e+00    5.279577e-01   8.087269e-03
  3.721303e+00    5.110851e-01   7.973789e-03
  3.723514e+00    5.292206e-01   8.131480e-03
  3.725724e+00    5.159651e-01   8.046123e-03
  3.727935e+00    5.035791e-01   7.966173e-03
  3.730145e+00    5.132663e-01   8.059665e-03
  3.732356e+00    5.134070e-01   8.078298e-03
  3.734566e+00    5.210233e-01   8.155597e-03
  3.736776e+00    5.255749e-01   8.209115e-03
  3.738987e+00    5.165023e-01   8.155702e-03
  3.741197e+00    5.086143e-01   8.111153e-03
  3.743408e+00    4.947613e-01   8.017626e-03
  3.745618e+00    4.932438e-01   8.023275e-03
  3.747829e+00    4.997102e-01   8.093591e-03
  3.750039e+00    5.051495e-01   8.155777e-03
  3.752250e+00    5.066956e-01   8.186621e-03
  3.754460e+00    5.212678e-01   8.322261e-03
  3.756671e+00    5.208286e-01   8.337804e-03
  3.758881e+00    5.049998e-01   8.228677e-03
  3.761091e+00    5.053925e-01   8.250939e-03
  3.763302e+00    5.051582e-01   8.268039e-03
  3.765512e+00    5.080383e-01   8.310840e-03
  3.767723e+00    5.289690e-01   8.500107e-03
  3.769933e+00    5.083132e-01   8.351840e-03
  3.772144e+00    5.141355e-01   8.419291e-03
  3.774354e+00    5.091714e-01   8.398443e-03
  3.776565e+00    5.092731e-01   8.419244e-03
  3.778775e+00    4.954476e-01   8.323924e-03
  3.780986e+00    4.918511e-01   8.313695e-03
  3.783196e+00    4.966874e-01   8.374612e-03
  3.785407e+00    4.989727e-01   8.414178e-03
  3.787617e+00    5.022533e-01   8.462529e-03
  3.789827e+00    5.085834e-01   8.536403e-03
  3.792038e+00    4.916354e-01   8.413523e-03
  3.794248e+00    5.019487e-01   8.522497e-03
  3.796459e+00    4.938469e-01   8.474639e-03
  3.798669e+00    4.909897e-01   8.471288e-03
  3.800880e+00    4.784944e-01   8.383744e-03
  3.803090e+00    4.799162e-01   8.417546e-03
  3.805301e+00    4.942081e-01   8.563943e-03
  3.807511e+00    5.111272e-01   8.731540e-03
  3.809722e+00    4.936773e-01   8.603317e-03
  3.811932e+00    4.995379e-01   8.676440e-03
  3.814142e+00    4.883286e-01   8.601157e-03
  3.816353e+00    4.971218e-01   8.701062e-03
  3.818563e+00    5.002803e-01   8.751758e-03
  3.820774e+00    5.217163e-01   8.961031e-03
  3.822984e+00    4.927099e-01   8.731626e-03
  3.825195e+00    5.078442e-01   8.888618e-03
  3.827405e+00    4.862560e-01   8.721323e-03
  3.829616e+00    4.935600e-01   8.810506e-03
  3.831826e+00    4.880036e-01   8.784682e-03
  3.834037e+00    5.108732e-01   9.013065e-03
  3.836247e+00    4.944356e-01   8.891487e-03
  3.838457e+00    5.080284e-01   9.038159e-03
  3.840668e+00    5.070717e-01   9.055194e-03
  3.842878e+00    5.126973e-01   9.131159e-03
  3.845089e+00    4.842854e-01   8.899874e-03
  3.847299e+00    4.831081e-01   8.914468e-03
  3.849510e+00    4.595494e-01   8.719346e-03
  3.851720e+00    5.000539e-01   9.116950e-03
  3.853931e+00    4.965132e-01   9.103720e-03
  3.856141e+00    5.034124e-01   9.185840e-03
  3.858352e+00    4.856229e-01   9.041227e-03
  3.860562e+00    5.015954e-01   9.208146e-03
  3.862772e+00    4.994809e-01   9.208408e-03
  3.864983e+00    5.013179e-01   9.245127e-03
  3.867193e+00    4.982358e-01   9.236577e-03
  3.869404e+00    4.935871e-01   9.213140e-03
  3.871614e+00    4.807948e-01   9.112747e-03
  3.873825e+00    4.823932e-01   9.147936e-03
  3.876035e+00    4.923735e-01   9.262677e-03
  3.878246e+00    5.033132e-01   9.391063e-03
  3.880456e+00    4.770667e-01   9.171442e-03
  3.882667e+00    4.749756e-01   9.180129e-03
  3.884877e+00    5.047665e-01   9.493754e-03
  3.887087e+00    4.954125e-01   9.435554e-03
  3.889298e+00    5.048930e-01   9.556023e-03
  3.891508e+00    5.249055e-01   9.775219e-03
  3.893719e+00    5.134484e-01   9.699722e-03
  3.895929e+00    5.046072e-01   9.647611e-03
  3.898140e+00    5.239645e-01   9.863752e-03
  3.900350e+00    4.789649e-01   9.462478e-03
  3.902561e+00    4.980157e-01   9.681290e-03
  3.904771e+00    4.764074e-01   9.501443e-03
  3.906982e+00    4.796234e-01   9.566213e-03
  3.909192e+00    4.929494e-01   9.731778e-03
  3.911403e+00    5.139996e-01   9.972247e-03
  3.913613e+00    5.257594e-01   1.012134e-02
  3.915823e+00    4.684817e-01   9.588173e-03
  3.918034e+00    4.730005e-01   9.668976e-03
  3.920244e+00    4.789611e-01   9.765039e-03
  3.922455e+00    4.722825e-01   9.732359e-03
  3.924665e+00    4.881847e-01   9.931119e-03
  3.926876e+00    5.222521e-01   1.031025e-02
  3.929086e+00    5.134432e-01   1.026129e-02
  3.931297e+00    4.744272e-01   9.898098e-03
  3.933507e+00    4.979223e-01   1.016933e-02
  3.935718e+00    5.101768e-01   1.032322e-02
  3.937928e+00    5.259915e-01   1.051259e-02
  3.940138e+00    4.688712e-01   9.954162e-03
  3.942349e+00    4.970553e-01   1.027907e-02
  3.944559e+00    5.290314e-01   1.063583e-02
  3.946770e+00    4.868180e-01   1.023294e-02
  3.948980e+00    4.724348e-01   1.011085e-02
  3.951191e+00    5.052690e-01   1.048768e-02
  3.953401e+00    5.140370e-01   1.061059e-02
  3.955612e+00    5.082772e-01   1.058331e-02
  3.957822e+00    4.798280e-01   1.031442e-02
  3.960033e+00    4.728697e-01   1.027146e-02
  3.962243e+00    4.845649e-01   1.043048e-02
  3.964453e+00    4.912784e-01   1.053580e-02
  3.966664e+00    5.073493e-01   1.074088e-02
  3.968874e+00    5.003563e-01   1.069551e-02
  3.971085e+00    5.042194e-01   1.075892e-02
  3.973295e+00    5.193368e-01   1.094130e-02
  3.975506e+00    5.257412e-01   1.103104e-02
  3.977716e+00    5.260869e-01   1.105758e-02
  3.979927e+00    5.220371e-01   1.103782e-02
  3.982137e+00    5.173002e-01   1.101076e-02
  3.984348e+00    4.612544e-01   1.041924e-02
  3.986558e+00    4.564857e-01   1.038661e-02
  3.988768e+00    5.014416e-01   1.090965e-02
  3.990979e+00    4.819331e-01   1.071798e-02
  3.993189e+00    4.781809e-01   1.069906e-02
  3.995400e+00    4.831227e-01   1.077768e-02
  3.997610e+00    4.980678e-01   1.097335e-02
  3.999821e+00    5.295790e-01   1.135433e-02
  4.002031e+00    4.769693e-01   1.081384e-02
  4.004242e+00    4.753828e-01   1.083380e-02
  4.006452e+00    4.870118e-01   1.100493e-02
  4.008663e+00    4.934300e-01   1.111766e-02
  4.010873e+00    4.993377e-01   1.122459e-02
  4.013084e+00    4.938181e-01   1.120374e-02
  4.015294e+00    4.818614e-01   1.110806e-02
  4.017504e+00    4.741260e-01   1.106007e-02
  4.019715e+00    4.789065e-01   1.115775e-02
  4.021925e+00    5.013284e-01   1.145993e-02
  4.024136e+00    4.929480e-01   1.140767e-02
  4.026346e+00    4.710353e-01   1.119484e-02
  4.028557e+00    4.797380e-01   1.134189e-02
  4.030767e+00    4.554634e-01   1.109553e-02
  4.032978e+00    4.512459e-01   1.108883e-02
  4.035188e+00    4.526464e-01   1.115057e-02
  4.037399e+00    4.852590e-01   1.159298e-02
  4.039609e+00    5.298195e-01   1.216357e-02
  4.041819e+00    5.159010e-01   1.205309e-02
  4.044030e+00    4.617512e-01   1.145189e-02
  4.046240e+00    4.931376e-01   1.188493e-02
  4.048451e+00    4.917872e-01   1.192003e-02
  4.050661e+00    4.933999e-01   1.199174e-02
  4.052872e+00    4.631156e-01   1.166932e-02
  4.055082e+00    5.118189e-01   1.232294e-02
  4.057293e+00    4.670478e-01   1.182432e-02
  4.059503e+00    4.813822e-01   1.205906e-02
  4.061714e+00    4.630158e-01   1.188208e-02
  4.063924e+00    4.927020e-01   1.231446e-02
  4.066134e+00    4.842428e-01   1.226593e-02
  4.068345e+00    4.719903e-01   1.216795e-02
  4.070555e+00    4.853797e-01   1.239891e-02
  4.072766e+00    4.997939e-01   1.264358e-02
  4.074976e+00    5.111883e-01   1.285067e-02
  4.077187e+00    4.576580e-01   1.221986e-02
  4.079397e+00    4.564695e-01   1.226602e-02
  4.081608e+00    4.791173e-01   1.263215e-02
  4.083818e+00    4.423786e-01   1.220126e-02
  4.086029e+00    4.751990e-01   1.271249e-02
  4.088239e+00    4.732547e-01   1.275467e-02
  4.090449e+00    4.971149e-01   1.314316e-02
  4.092660e+00    4.591666e-01   1.270106e-02
  4.094870e+00    4.639460e-01   1.283797e-02
  4.097081e+00    5.189118e-01   1.365150e-02
  4.099291e+00    5.032973e-01   1.350035e-02
  4.101502e+00    5.226832e-01   1.380914e-02
  4.103712e+00    5.059546e-01   1.363692e-02
  4.105923e+00    4.653563e-01   1.312906e-02
  4.108133e+00    5.161198e-01   1.387989e-02
  4.110344e+00    4.942208e-01   1.363413e-02
  4.112554e+00    4.789830e-01   1.347555e-02
  4.114764e+00    4.796136e-01   1.353840e-02
  4.116975e+00    4.696978e-01   1.345065e-02
  4.119185e+00    4.992348e-01   1.392335e-02
  4.121396e+00    4.640093e-01   1.347868e-02
  4.123606e+00    4.489321e-01   1.331203e-02
  4.125817e+00    4.500970e-01   1.338539e-02
  4.128027e+00    4.864896e-01   1.397460e-02
  4.130238e+00    4.600677e-01   1.364807e-02
  4.132448e+00    4.706828e-01   1.386443e-02
  4.134659e+00    5.043419e-01   1.441347e-02
  4.136869e+00    4.540331e-01   1.373667e-02
  4.139080e+00    4.718773e-01   1.406700e-02
  4.141290e+00    5.132961e-01   1.473656e-02
  4.143500e+00    4.674433e-01   1.412764e-02
  4.145711e+00    4.938377e-01   1.458918e-02
  4.147921e+00    4.551032e-01   1.406919e-02
  4.150132e+00    5.153745e-01   1.504357e-02
  4.152342e+00    4.814161e-01   1.460991e-02
  4.154553e+00    4.412307e-01   1.405326e-02
  4.156763e+00    4.903761e-01   1.488878e-02
  4.158974e+00    4.708860e-01   1.466316e-02
  4.161184e+00    4.828225e-01   1.492130e-02
  4.163395e+00    5.091761e-01   1.540147e-02
  4.165605e+00    4.899857e-01   1.518706e-02
  4.167815e+00    4.808876e-01   1.512377e-02
  4.170026e+00    5.475309e-01   1.622297e-02
  4.172236e+00    4.704442e-01   1.511888e-02
  4.174447e+00    4.599561e-01   1.503063e-02
  4.176657e+00    5.032408e-01   1.580797e-02
  4.178868e+00    4.589580e-01   1.518199e-02
  4.181078e+00    4.853054e-01   1.569959e-02
  4.183289e+00    4.760905e-01   1.563896e-02
  4.185499e+00    4.508492e-01   1.530816e-02
  4.187710e+00    4.991118e-01   1.620147e-02
  4.189920e+00    4.725228e-01   1.585881e-02
  4.192130e+00    4.407554e-01   1.541013e-02
  4.194341e+00    4.304568e-01   1.532215e-02
  4.196551e+00    4.641834e-01   1.601204e-02
  4.198762e+00    5.053157e-01   1.681236e-02
  4.200972e+00    4.895808e-01   1.665575e-02
  4.203183e+00    4.983553e-01   1.691498e-02
  4.205393e+00    4.902874e-01   1.688922e-02
  4.207604e+00    4.827973e-01   1.687431e-02
  4.209814e+00    4.432380e-01   1.627872e-02
  4.212025e+00    4.686126e-01   1.685684e-02
  4.214235e+00    5.369537e-01   1.817251e-02
  4.216445e+00    4.664943e-01   1.706058e-02
  4.218656e+00    4.539905e-01   1.695645e-02
  4.220866e+00    5.151511e-01   1.819647e-02
  4.223077e+00    4.541110e-01   1.721594e-02
  4.225287e+00    4.413451e-01   1.710532e-02
  4.227498e+00    4.426953e-01   1.726633e-02
  4.229708e+00    4.536306e-01   1.761972e-02
  4.231919e+00    5.043332e-01   1.873271e-02
  4.234129e+00    4.511864e-01   1.786648e-02
  4.236340e+00    5.229715e-01   1.939999e-02
  4.238550e+00    5.233946e-01   1.957911e-02
  4.240761e+00    4.890827e-01   1.909398e-02
  4.242971e+00    4.588818e-01   1.866421e-02
  4.245181e+00    4.340496e-01   1.832297e-02
  4.247392e+00    4.216020e-01   1.822675e-02
  4.249602e+00    4.886002e-01   1.981646e-02
  4.251813e+00    4.385452e-01   1.895953e-02
  4.254023e+00    3.902851e-01   1.806558e-02
  4.256234e+00    5.079554e-01   2.082998e-02
  4.258444e+00    5.042144e-01   2.097101e-02
  4.260655e+00    3.895325e-01   1.863463e-02
  4.262865e+00    5.253686e-01   2.188691e-02
  4.265076e+00    3.977760e-01   1.926111e-02
  4.267286e+00    4.203724e-01   2.003551e-02
  4.269496e+00    3.943000e-01   1.964103e-02
  4.271707e+00    4.179879e-01   2.047185e-02
  4.273917e+00    5.050625e-01   2.279473e-02
  4.276128e+00    4.844676e-01   2.262180e-02
  4.278338e+00    5.088897e-01   2.349440e-02
  4.280549e+00    4.651447e-01   2.278437e-02
  4.282759e+00    3.498428e-01   2.004304e-02
  4.284970e+00    4.806204e-01   2.384049e-02
  4.287180e+00    4.292510e-01   2.280077e-02
  4.289391e+00    4.666584e-01   2.395130e-02
  4.291601e+00    4.791083e-01   2.446238e-02
  4.293811e+00    4.879442e-01   2.488106e-02
  4.296022e+00    4.739174e-01   2.471698e-02
  4.298232e+00    4.764205e-01   2.499037e-02
  4.300443e+00    4.763510e-01   2.519432e-02
  4.302653e+00    4.168502e-01   2.377293e-02
  4.304864e+00    3.785223e-01   2.284913e-02
  4.307074e+00    4.054330e-01   2.386016e-02
  4.309285e+00    5.257292e-01   2.741691e-02
  4.311495e+00    5.296629e-01   2.777706e-02
  4.313706e+00    4.679504e-01   2.635389e-02
  4.315916e+00    4.719785e-01   2.672791e-02
  4.318126e+00    4.848775e-01   2.735881e-02
  4.320337e+00    4.690487e-01   2.717992e-02
  4.322547e+00    5.673241e-01   3.020989e-02
  4.324758e+00    4.674300e-01   2.770634e-02
  4.326968e+00    5.012334e-01   2.901411e-02
  4.329179e+00    3.943276e-01   2.601808e-02
  4.331389e+00    5.130650e-01   3.001964e-02
  4.333600e+00    4.326220e-01   2.789605e-02
  4.335810e+00    3.942213e-01   2.694443e-02
  4.338021e+00    4.863087e-01   3.031106e-02
  4.340231e+00    3.639566e-01   2.655076e-02
  4.342442e+00    4.693875e-01   3.055595e-02
  4.344652e+00    4.270048e-01   2.954089e-02
  4.346862e+00    3.437567e-01   2.687651e-02
  4.349073e+00    4.507720e-01   3.122406e-02
  4.351283e+00    4.387366e-01   3.126454e-02
  4.353494e+00    3.939755e-01   3.008435e-02
  4.355704e+00    3.857415e-01   3.024789e-02
  4.357915e+00    4.624557e-01   3.367038e-02
  4.360125e+00    4.227866e-01   3.274462e-02
  4.362336e+00    3.723740e-01   3.128956e-02
  4.364546e+00    4.354997e-01   3.445362e-02
  4.366757e+00    5.461602e-01   3.935210e-02
  4.368967e+00    3.205476e-01   3.074902e-02
  4.371177e+00    4.757038e-01   3.825371e-02
  4.373388e+00    4.391227e-01   3.757690e-02
  4.375598e+00    4.878690e-01   4.051019e-02
  4.377809e+00    3.926051e-01   3.726038e-02
  4.380019e+00    3.432226e-01   3.571477e-02
  4.382230e+00    2.457325e-01   3.106248e-02
  4.384440e+00    2.549570e-01   3.254890e-02
  4.386651e+00    5.152163e-01   4.770003e-02
  4.388861e+00    3.758076e-01   4.210485e-02
  4.391072e+00    4.249493e-01   4.634627e-02
  4.393282e+00    4.189951e-01   4.779936e-02
  4.395492e+00    3.952655e-01   4.835578e-02
  4.397703e+00    4.745225e-01   5.540470e-02
  4.399913e+00    4.669416e-01   5.774240e-02
  4.402124e+00    2.593250e-01   4.547048e-02
  4.404334e+00    4.365168e-01   6.270871e-02
  4.406545e+00    2.008247e-01   4.570918e-02
  4.408755e+00    3.466311e-01   6.510998e-02
  4.410966e+00    4.164261e-01   7.898715e-02
  4.413176e+00    3.618717e-01   8.336178e-02
  4.415387e+00   -6.966738e-01            nan
  4.417597e+00   -2.027282e+00            nan
  4.419807e+00   -3.766224e-01            nan
