# == pyFAI calibration ==
# Distance Sample to Detector: 0.216 m
# PONI: 1.166e-01, 1.308e-01 m
# Rotations: 0.000000 0.000000 0.000000 rad
# 
# == Fit2d calibration ==
# Distance Sample-beamCenter: 216.000 mm
# Center: x=1744.293, y=1555.000 pix
# Tilt: 0.000 deg  TiltPlanRot: 0.000 deg
# 
# Detector Eiger 9M	 PixelSize= 7.500e-05, 7.500e-05 m
#    Detector has a mask: True 
#    Detector has a dark current: False 
#    detector has a flat field: False 
# 
# Wavelength: 9.8e-11 m
# Mask applied: from detector
# Dark current applied: False
# Flat field applied: False
# Polarization factor: None
# Normalization factor: 1.0
# 
# Headers of the input frame:
# {
# "_array_data.header_convention": "SLS_1.0",
# "_array_data.header_contents": "# Detector: Dectris Eiger 9M, S/N E-18-0102\r\n# Pixel_size 75e-6 m x 75e-6 m\r\n# Silicon sensor, thickness 0.000450 m\r\n# Exposure_time 0.024997 s\r\n# Exposure_period 0.025000 s\r\n# Count_cutoff 62318 counts\r\n# Wavelength 0.980106 A\r\n# Detector_distance 0.215992 m\r\n# Beam_xy (1555, 1744) pixels\r\n# Start_angle 0.000000 deg.\r\n# Angle_increment 0.000000 deg.",
# "Content-Type": "application/octet-stream;",
# "conversions": "x-CBF_BYTE_OFFSET",
# "Content-Transfer-Encoding": "BINARY",
# "X-Binary-Size": "10166592",
# "X-Binary-ID": "1",
# "X-Binary-Element-Type": "signed 32-bit integer",
# "X-Binary-Element-Byte-Order": "LITTLE_ENDIAN",
# "Content-MD5": "oAy+h16i6IRnGw9nDELpIw==",
# "X-Binary-Number-of-Elements": "10166590",
# "X-Binary-Size-Fastest-Dimension": "3110",
# "X-Binary-Size-Second-Dimension": "3269",
# "X-Binary-Size-Padding": "4095"
# }
# --> H:/Proxima2a_2019-04-05/RAW_DATA/C5_gel17_position5/C5_mesh_1_data.cbf/C5_mesh_1_data.cbf000143.dat
#        q_A^-1              I           sigma 
  1.105228e-03    1.079875e+00   5.623072e-01
  3.315685e-03    1.312557e+00   3.768813e-01
  5.526141e-03    1.902154e+00   3.508286e-01
  7.736597e-03    1.304074e+00   2.453981e-01
  9.947054e-03    1.414339e+00   2.252959e-01
  1.215751e-02    1.275578e+00   1.934738e-01
  1.436797e-02    1.423991e+00   1.880310e-01
  1.657842e-02    1.378147e+00   1.721838e-01
  1.878888e-02    1.479334e+00   1.675701e-01
  2.099934e-02    1.606481e+00   1.652113e-01
  2.320979e-02    1.470736e+00   1.503489e-01
  2.542025e-02    1.464852e+00   1.433858e-01
  2.763070e-02    1.425305e+00   1.356577e-01
  2.984116e-02    1.392460e+00   1.290232e-01
  3.205162e-02    1.381305e+00   1.240027e-01
  3.426207e-02    1.544232e+00   1.268034e-01
  3.647253e-02    1.512237e+00   1.216185e-01
  3.868299e-02    1.430736e+00   1.148750e-01
  4.089344e-02    1.337163e+00   1.080122e-01
  4.310390e-02    1.334380e+00   1.050906e-01
  4.531436e-02    1.455654e+00   1.070520e-01
  4.752481e-02    1.404690e+00   1.026855e-01
  4.973527e-02    1.349948e+00   9.840345e-02
  5.194572e-02    1.374184e+00   9.714611e-02
  5.415618e-02    1.423883e+00   9.684470e-02
  5.636664e-02    1.419061e+00   9.476887e-02
  5.857709e-02    1.443006e+00   9.374512e-02
  6.078755e-02    1.447857e+00   9.217648e-02
  6.299801e-02    1.471593e+00   9.128311e-02
  6.520846e-02    1.309937e+00   8.465174e-02
  6.741892e-02    1.424839e+00   8.682256e-02
  6.962938e-02    1.466835e+00   8.668762e-02
  7.183983e-02    1.515122e+00   8.673529e-02
  7.405029e-02    1.492086e+00   8.477705e-02
  7.626074e-02    1.406270e+00   8.110071e-02
  7.847120e-02    1.372309e+00   7.897688e-02
  8.068166e-02    1.469431e+00   8.059587e-02
  8.289211e-02    1.541398e+00   8.143744e-02
  8.510257e-02    1.453362e+00   7.804345e-02
  8.731303e-02    1.484307e+00   7.786217e-02
  8.952348e-02    1.383150e+00   7.423048e-02
  9.173394e-02    1.431133e+00   7.458882e-02
  9.394439e-02    1.496162e+00   7.535960e-02
  9.615485e-02    1.402048e+00   7.210597e-02
  9.836531e-02    1.467801e+00   7.294171e-02
  1.005758e-01    1.482813e+00   7.250410e-02
  1.027862e-01    1.589839e+00   7.426161e-02
  1.049967e-01    1.579846e+00   7.324322e-02
  1.072071e-01    1.524404e+00   7.120015e-02
  1.094176e-01    1.487154e+00   6.960978e-02
  1.116280e-01    1.462039e+00   6.833123e-02
  1.138385e-01    1.469608e+00   6.783815e-02
  1.160490e-01    1.581696e+00   6.970331e-02
  1.182594e-01    1.626226e+00   7.001255e-02
  1.204699e-01    1.535491e+00   6.740379e-02
  1.226803e-01    1.530311e+00   6.667825e-02
  1.248908e-01    1.529506e+00   6.606739e-02
  1.271012e-01    1.479894e+00   6.441821e-02
  1.293117e-01    1.535711e+00   6.505767e-02
  1.315222e-01    1.516693e+00   6.410650e-02
  1.337326e-01    1.528803e+00   6.382655e-02
  1.359431e-01    1.576996e+00   6.486270e-02
  1.381535e-01    1.606600e+00   6.634749e-02
  1.403640e-01    1.627522e+00   6.706642e-02
  1.425744e-01    1.667401e+00   6.799155e-02
  1.447849e-01    1.587471e+00   6.635718e-02
  1.469953e-01    1.607702e+00   6.673685e-02
  1.492058e-01    1.668242e+00   6.790274e-02
  1.514163e-01    1.581375e+00   6.600149e-02
  1.536267e-01    1.536791e+00   6.493738e-02
  1.558372e-01    1.538194e+00   6.482360e-02
  1.580476e-01    1.500615e+00   6.387149e-02
  1.602581e-01    1.570696e+00   6.517994e-02
  1.624685e-01    1.635128e+00   6.632131e-02
  1.646790e-01    1.692756e+00   6.728616e-02
  1.668895e-01    1.691645e+00   6.706979e-02
  1.690999e-01    1.665799e+00   6.635559e-02
  1.713104e-01    1.697880e+00   6.678361e-02
  1.735208e-01    1.851098e+00   6.951499e-02
  1.757313e-01    1.820573e+00   6.872341e-02
  1.779417e-01    1.778560e+00   6.770427e-02
  1.801522e-01    1.847083e+00   6.877643e-02
  1.823626e-01    1.842720e+00   6.846645e-02
  1.845731e-01    1.926264e+00   6.977455e-02
  1.867836e-01    1.971368e+00   7.034852e-02
  1.889940e-01    1.932595e+00   6.942566e-02
  1.912045e-01    1.918068e+00   6.893328e-02
  1.934149e-01    1.952324e+00   6.931335e-02
  1.956254e-01    1.945484e+00   6.896361e-02
  1.978358e-01    1.982973e+00   6.938630e-02
  2.000463e-01    1.976846e+00   6.904945e-02
  2.022568e-01    1.927041e+00   6.795031e-02
  2.044672e-01    1.933572e+00   6.783217e-02
  2.066777e-01    2.055520e+00   6.970637e-02
  2.088881e-01    1.950900e+00   6.768715e-02
  2.110986e-01    1.923825e+00   6.698528e-02
  2.133090e-01    1.986362e+00   6.784405e-02
  2.155195e-01    2.010983e+00   6.803678e-02
  2.177300e-01    2.061635e+00   6.834712e-02
  2.199404e-01    1.916551e+00   6.416196e-02
  2.221509e-01    1.906105e+00   6.293613e-02
  2.243613e-01    1.965816e+00   6.310404e-02
  2.265718e-01    1.966078e+00   6.241266e-02
  2.287822e-01    2.132560e+00   6.435806e-02
  2.309927e-01    2.130980e+00   6.374816e-02
  2.332031e-01    2.079523e+00   6.243482e-02
  2.354136e-01    2.083252e+00   6.198426e-02
  2.376241e-01    2.143995e+00   6.239337e-02
  2.398345e-01    2.144948e+00   6.194537e-02
  2.420450e-01    2.149345e+00   6.156567e-02
  2.442554e-01    2.120018e+00   6.072297e-02
  2.464659e-01    2.083127e+00   5.978821e-02
  2.486763e-01    2.058801e+00   5.904737e-02
  2.508868e-01    2.162534e+00   6.013489e-02
  2.530973e-01    2.142700e+00   5.948740e-02
  2.553077e-01    2.087161e+00   5.835524e-02
  2.575182e-01    2.049873e+00   5.748946e-02
  2.597286e-01    2.112566e+00   5.802269e-02
  2.619391e-01    2.069560e+00   5.709846e-02
  2.641495e-01    2.067433e+00   5.675323e-02
  2.663600e-01    2.055811e+00   5.628228e-02
  2.685704e-01    1.986478e+00   5.502517e-02
  2.707809e-01    1.950487e+00   5.423500e-02
  2.729914e-01    2.041610e+00   5.519825e-02
  2.752018e-01    2.016944e+00   5.457823e-02
  2.774123e-01    2.031451e+00   5.449437e-02
  2.796227e-01    1.994686e+00   5.373189e-02
  2.818332e-01    1.981051e+00   5.328082e-02
  2.840436e-01    1.976807e+00   5.296571e-02
  2.862541e-01    1.980308e+00   5.275775e-02
  2.884646e-01    1.985047e+00   5.257018e-02
  2.906750e-01    1.916051e+00   5.140358e-02
  2.928855e-01    1.971041e+00   5.189441e-02
  2.950959e-01    1.963004e+00   5.155062e-02
  2.973064e-01    1.907334e+00   5.058601e-02
  2.995168e-01    1.948717e+00   5.090025e-02
  3.017273e-01    1.970434e+00   5.095745e-02
  3.039377e-01    1.942397e+00   5.037206e-02
  3.061482e-01    1.924050e+00   4.991674e-02
  3.083587e-01    1.891796e+00   4.928233e-02
  3.105691e-01    1.951071e+00   4.983467e-02
  3.127796e-01    1.942048e+00   4.951029e-02
  3.149900e-01    1.851917e+00   4.814631e-02
  3.172005e-01    1.873364e+00   4.822628e-02
  3.194109e-01    1.904017e+00   4.841850e-02
  3.216214e-01    1.884444e+00   4.797247e-02
  3.238319e-01    1.851547e+00   4.736347e-02
  3.260423e-01    1.894674e+00   4.772108e-02
  3.282528e-01    1.897655e+00   4.756846e-02
  3.304632e-01    1.969507e+00   4.827294e-02
  3.326737e-01    1.865173e+00   4.679363e-02
  3.348841e-01    1.790123e+00   4.566476e-02
  3.370946e-01    1.800743e+00   4.562768e-02
  3.393050e-01    1.891884e+00   4.659095e-02
  3.415155e-01    1.897006e+00   4.647857e-02
  3.437260e-01    1.878682e+00   4.608211e-02
  3.459364e-01    1.891713e+00   4.607061e-02
  3.481469e-01    1.851456e+00   4.541137e-02
  3.503573e-01    1.877212e+00   4.555959e-02
  3.525678e-01    1.838586e+00   4.492773e-02
  3.547782e-01    1.807011e+00   4.437932e-02
  3.569887e-01    1.798966e+00   4.412350e-02
  3.591992e-01    1.874148e+00   4.487671e-02
  3.614096e-01    1.795256e+00   4.376975e-02
  3.636201e-01    1.807744e+00   4.376735e-02
  3.658305e-01    1.812462e+00   4.367494e-02
  3.680410e-01    1.787841e+00   4.322810e-02
  3.702514e-01    1.821985e+00   4.349215e-02
  3.724619e-01    1.812085e+00   4.322615e-02
  3.746724e-01    1.769211e+00   4.256923e-02
  3.768828e-01    1.756145e+00   4.226900e-02
  3.790933e-01    1.815426e+00   4.283648e-02
  3.813037e-01    1.816027e+00   4.270339e-02
  3.835142e-01    1.772558e+00   4.205065e-02
  3.857246e-01    1.801155e+00   4.225131e-02
  3.879351e-01    1.747009e+00   4.147672e-02
  3.901455e-01    1.788090e+00   4.182794e-02
  3.923560e-01    1.803193e+00   4.187073e-02
  3.945665e-01    1.843343e+00   4.220005e-02
  3.967769e-01    1.837865e+00   4.200534e-02
  3.989874e-01    1.820949e+00   4.168104e-02
  4.011978e-01    1.815621e+00   4.149202e-02
  4.034083e-01    1.824955e+00   4.147083e-02
  4.056187e-01    1.804145e+00   4.110670e-02
  4.078292e-01    1.754037e+00   4.040916e-02
  4.100397e-01    1.755227e+00   4.029943e-02
  4.122501e-01    1.807380e+00   4.077142e-02
  4.144606e-01    1.764395e+00   4.016421e-02
  4.166710e-01    1.806784e+00   4.052295e-02
  4.188815e-01    1.820943e+00   4.056127e-02
  4.210919e-01    1.811089e+00   4.033282e-02
  4.233024e-01    1.772058e+00   3.977849e-02
  4.255128e-01    1.785173e+00   3.981002e-02
  4.277233e-01    1.795399e+00   3.980916e-02
  4.299338e-01    1.762268e+00   3.932667e-02
  4.321442e-01    1.774220e+00   3.934688e-02
  4.343547e-01    1.788952e+00   3.939817e-02
  4.365651e-01    1.729425e+00   3.862712e-02
  4.387756e-01    1.712823e+00   3.833359e-02
  4.409860e-01    1.744745e+00   3.858199e-02
  4.431965e-01    1.742603e+00   3.845167e-02
  4.454070e-01    1.722659e+00   3.812464e-02
  4.476174e-01    1.706447e+00   3.784063e-02
  4.498279e-01    1.691446e+00   3.757143e-02
  4.520383e-01    1.731938e+00   3.791416e-02
  4.542488e-01    1.735124e+00   3.784669e-02
  4.564592e-01    1.723329e+00   3.761664e-02
  4.586697e-01    1.721707e+00   3.749915e-02
  4.608801e-01    1.757332e+00   3.778363e-02
  4.630906e-01    1.734022e+00   3.743284e-02
  4.653011e-01    1.739835e+00   3.739692e-02
  4.675115e-01    1.760321e+00   3.751737e-02
  4.697220e-01    1.724916e+00   3.704095e-02
  4.719324e-01    1.722366e+00   3.691780e-02
  4.741429e-01    1.701146e+00   3.659515e-02
  4.763533e-01    1.693260e+00   3.641663e-02
  4.785638e-01    1.660144e+00   3.596561e-02
  4.807743e-01    1.691555e+00   3.621192e-02
  4.829847e-01    1.709919e+00   3.631600e-02
  4.851952e-01    1.685374e+00   3.596317e-02
  4.874056e-01    1.678544e+00   3.579972e-02
  4.896161e-01    1.695332e+00   3.588908e-02
  4.918265e-01    1.684965e+00   3.569034e-02
  4.940370e-01    1.661208e+00   3.535034e-02
  4.962475e-01    1.683203e+00   3.549572e-02
  4.984579e-01    1.679219e+00   3.536631e-02
  5.006684e-01    1.723230e+00   3.573943e-02
  5.028788e-01    1.637139e+00   3.475085e-02
  5.050893e-01    1.647896e+00   3.477999e-02
  5.072997e-01    1.696235e+00   3.520121e-02
  5.095102e-01    1.688963e+00   3.504155e-02
  5.117206e-01    1.692349e+00   3.499325e-02
  5.139311e-01    1.682526e+00   3.480897e-02
  5.161416e-01    1.661891e+00   3.451312e-02
  5.183520e-01    1.658483e+00   3.439576e-02
  5.205625e-01    1.654464e+00   3.427359e-02
  5.227729e-01    1.666085e+00   3.431351e-02
  5.249834e-01    1.689152e+00   3.447004e-02
  5.271938e-01    1.699292e+00   3.449266e-02
  5.294043e-01    1.756615e+00   3.498869e-02
  5.316148e-01    1.780472e+00   3.514481e-02
  5.338252e-01    1.771142e+00   3.497251e-02
  5.360357e-01    1.757836e+00   3.476156e-02
  5.382461e-01    1.736178e+00   3.446865e-02
  5.404566e-01    1.795175e+00   3.496964e-02
  5.426670e-01    1.785823e+00   3.479985e-02
  5.448775e-01    1.791305e+00   3.477536e-02
  5.470879e-01    1.824333e+00   3.501621e-02
  5.492984e-01    1.829759e+00   3.499029e-02
  5.515089e-01    1.761714e+00   3.425736e-02
  5.537193e-01    1.742675e+00   3.399668e-02
  5.559298e-01    1.799060e+00   3.446651e-02
  5.581402e-01    1.823827e+00   3.462714e-02
  5.603507e-01    1.781428e+00   3.414780e-02
  5.625611e-01    1.792768e+00   3.418197e-02
  5.647716e-01    1.755106e+00   3.374759e-02
  5.669821e-01    1.763255e+00   3.375290e-02
  5.691925e-01    1.795223e+00   3.398441e-02
  5.714030e-01    1.761588e+00   3.359276e-02
  5.736134e-01    1.729185e+00   3.321159e-02
  5.758239e-01    1.724676e+00   3.309746e-02
  5.780343e-01    1.691966e+00   3.271275e-02
  5.802448e-01    1.674340e+00   3.247380e-02
  5.824552e-01    1.638386e+00   3.205584e-02
  5.846657e-01    1.629384e+00   3.190101e-02
  5.868762e-01    1.630481e+00   3.184531e-02
  5.890866e-01    1.622208e+00   3.169853e-02
  5.912971e-01    1.619324e+00   3.160473e-02
  5.935075e-01    1.678819e+00   3.211362e-02
  5.957180e-01    1.639898e+00   3.167405e-02
  5.979284e-01    1.639556e+00   3.160609e-02
  6.001389e-01    1.653306e+00   3.167371e-02
  6.023494e-01    1.699762e+00   3.205043e-02
  6.045598e-01    1.675853e+00   3.175942e-02
  6.067703e-01    1.679842e+00   3.173326e-02
  6.089807e-01    1.666218e+00   3.154077e-02
  6.111912e-01    1.664770e+00   3.146411e-02
  6.134016e-01    1.628776e+00   3.106004e-02
  6.156121e-01    1.634995e+00   3.105740e-02
  6.178226e-01    1.684669e+00   3.146325e-02
  6.200330e-01    1.681587e+00   3.137246e-02
  6.222435e-01    1.718372e+00   3.165090e-02
  6.244539e-01    1.751607e+00   3.189297e-02
  6.266644e-01    1.755762e+00   3.186847e-02
  6.288748e-01    1.731745e+00   3.158818e-02
  6.310853e-01    1.723112e+00   3.144816e-02
  6.332957e-01    1.722573e+00   3.138252e-02
  6.355062e-01    1.673312e+00   3.087047e-02
  6.377167e-01    1.708446e+00   3.113300e-02
  6.399271e-01    1.687807e+00   3.088510e-02
  6.421376e-01    1.658177e+00   3.055435e-02
  6.443480e-01    1.713667e+00   3.100230e-02
  6.465585e-01    1.728406e+00   3.107637e-02
  6.487689e-01    1.649231e+00   3.029894e-02
  6.509794e-01    1.662131e+00   3.035981e-02
  6.531899e-01    1.636272e+00   3.006609e-02
  6.554003e-01    1.620001e+00   2.985998e-02
  6.576108e-01    1.604305e+00   2.965964e-02
  6.598212e-01    1.609015e+00   2.964795e-02
  6.620317e-01    1.611547e+00   2.961628e-02
  6.642421e-01    1.588837e+00   2.935246e-02
  6.664526e-01    1.610916e+00   2.950125e-02
  6.686630e-01    1.620012e+00   2.952972e-02
  6.708735e-01    1.616527e+00   2.944384e-02
  6.730840e-01    1.611125e+00   2.934100e-02
  6.752944e-01    1.634726e+00   2.950137e-02
  6.775049e-01    1.619949e+00   2.931443e-02
  6.797153e-01    1.589251e+00   2.898276e-02
  6.819258e-01    1.589360e+00   2.893148e-02
  6.841362e-01    1.592060e+00   2.890397e-02
  6.863467e-01    1.560956e+00   2.856896e-02
  6.885572e-01    1.593383e+00   2.881247e-02
  6.907676e-01    1.602275e+00   2.884097e-02
  6.929781e-01    1.597975e+00   2.875107e-02
  6.951885e-01    1.580458e+00   2.854238e-02
  6.973990e-01    1.616844e+00   2.881805e-02
  6.996094e-01    1.592584e+00   2.855069e-02
  7.018199e-01    1.620183e+00   2.874650e-02
  7.040303e-01    1.601627e+00   2.853117e-02
  7.062408e-01    1.655153e+00   2.895322e-02
  7.084513e-01    1.629461e+00   2.867767e-02
  7.106617e-01    1.573425e+00   2.813129e-02
  7.128722e-01    1.571343e+00   2.806401e-02
  7.150826e-01    1.623536e+00   2.847712e-02
  7.172931e-01    1.613139e+00   2.833687e-02
  7.195035e-01    1.564347e+00   2.785706e-02
  7.217140e-01    1.585403e+00   2.809351e-02
  7.239245e-01    1.549129e+00   2.799518e-02
  7.261349e-01    1.542439e+00   2.804213e-02
  7.283454e-01    1.589680e+00   2.854108e-02
  7.305558e-01    1.582264e+00   2.852856e-02
  7.327663e-01    1.605563e+00   2.878073e-02
  7.349767e-01    1.629830e+00   2.901409e-02
  7.371872e-01    1.607381e+00   2.880229e-02
  7.393976e-01    1.572072e+00   2.846993e-02
  7.416081e-01    1.541196e+00   2.817297e-02
  7.438186e-01    1.528192e+00   2.791167e-02
  7.460290e-01    1.565744e+00   2.795912e-02
  7.482395e-01    1.568019e+00   2.780862e-02
  7.504499e-01    1.562377e+00   2.762281e-02
  7.526604e-01    1.603981e+00   2.787053e-02
  7.548708e-01    1.582364e+00   2.759245e-02
  7.570813e-01    1.607354e+00   2.775799e-02
  7.592918e-01    1.548466e+00   2.720989e-02
  7.615022e-01    1.548802e+00   2.717929e-02
  7.637127e-01    1.617079e+00   2.773870e-02
  7.659231e-01    1.595199e+00   2.751821e-02
  7.681336e-01    1.608343e+00   2.759940e-02
  7.703440e-01    1.610915e+00   2.758989e-02
  7.725545e-01    1.594296e+00   2.741610e-02
  7.747650e-01    1.617597e+00   2.757704e-02
  7.769754e-01    1.617645e+00   2.752403e-02
  7.791859e-01    1.607038e+00   2.737962e-02
  7.813963e-01    1.606092e+00   2.731853e-02
  7.836068e-01    1.549845e+00   2.678447e-02
  7.858172e-01    1.589060e+00   2.707049e-02
  7.880277e-01    1.608235e+00   2.718155e-02
  7.902381e-01    1.584938e+00   2.693491e-02
  7.924486e-01    1.629975e+00   2.726432e-02
  7.946591e-01    1.627348e+00   2.719365e-02
  7.968695e-01    1.643760e+00   2.728152e-02
  7.990800e-01    1.675440e+00   2.749394e-02
  8.012904e-01    1.669624e+00   2.739872e-02
  8.035009e-01    1.634845e+00   2.706360e-02
  8.057113e-01    1.640287e+00   2.706174e-02
  8.079218e-01    1.622578e+00   2.686881e-02
  8.101323e-01    1.618942e+00   2.679312e-02
  8.123427e-01    1.643227e+00   2.694729e-02
  8.145532e-01    1.634414e+00   2.682897e-02
  8.167636e-01    1.635167e+00   2.679000e-02
  8.189741e-01    1.637866e+00   2.676742e-02
  8.211845e-01    1.617889e+00   2.655908e-02
  8.233950e-01    1.610189e+00   2.645273e-02
  8.256054e-01    1.631603e+00   2.658392e-02
  8.278159e-01    1.657952e+00   2.675347e-02
  8.300264e-01    1.636057e+00   2.653317e-02
  8.322368e-01    1.653559e+00   2.663139e-02
  8.344473e-01    1.673005e+00   2.674371e-02
  8.366577e-01    1.641097e+00   2.644485e-02
  8.388682e-01    1.644747e+00   2.643190e-02
  8.410786e-01    1.686827e+00   2.672524e-02
  8.432891e-01    1.668920e+00   2.654078e-02
  8.454996e-01    1.653227e+00   2.637389e-02
  8.477100e-01    1.686648e+00   2.659687e-02
  8.499205e-01    1.657393e+00   2.632380e-02
  8.521309e-01    1.652467e+00   2.624366e-02
  8.543414e-01    1.630095e+00   2.602474e-02
  8.565518e-01    1.630854e+00   2.599026e-02
  8.587623e-01    1.660102e+00   2.618145e-02
  8.609727e-01    1.655370e+00   2.610358e-02
  8.631832e-01    1.660836e+00   2.610633e-02
  8.653937e-01    1.630839e+00   2.582974e-02
  8.676041e-01    1.626431e+00   2.575589e-02
  8.698146e-01    1.582521e+00   2.536700e-02
  8.720250e-01    1.607368e+00   2.552640e-02
  8.742355e-01    1.601851e+00   2.544377e-02
  8.764459e-01    1.577958e+00   2.521478e-02
  8.786564e-01    1.591472e+00   2.528475e-02
  8.808669e-01    1.629887e+00   2.554931e-02
  8.830773e-01    1.597781e+00   2.525835e-02
  8.852878e-01    1.571423e+00   2.501157e-02
  8.874982e-01    1.622854e+00   2.538068e-02
  8.897087e-01    1.569213e+00   2.492044e-02
  8.919191e-01    1.557623e+00   2.479095e-02
  8.941296e-01    1.574758e+00   2.488996e-02
  8.963401e-01    1.574617e+00   2.485272e-02
  8.985505e-01    1.552377e+00   2.464018e-02
  9.007610e-01    1.567178e+00   2.472097e-02
  9.029714e-01    1.616037e+00   2.506738e-02
  9.051819e-01    1.587083e+00   2.480474e-02
  9.073923e-01    1.583093e+00   2.473713e-02
  9.096028e-01    1.599587e+00   2.483077e-02
  9.118132e-01    1.627374e+00   2.500899e-02
  9.140237e-01    1.587897e+00   2.466731e-02
  9.162342e-01    1.598632e+00   2.471600e-02
  9.184446e-01    1.602675e+00   2.471144e-02
  9.206551e-01    1.586446e+00   2.455058e-02
  9.228655e-01    1.590160e+00   2.454415e-02
  9.250760e-01    1.612704e+00   2.468206e-02
  9.272864e-01    1.601871e+00   2.456476e-02
  9.294969e-01    1.604964e+00   2.455263e-02
  9.317074e-01    1.617470e+00   2.461328e-02
  9.339178e-01    1.602639e+00   2.446671e-02
  9.361283e-01    1.628926e+00   2.463018e-02
  9.383387e-01    1.663578e+00   2.485693e-02
  9.405492e-01    1.639959e+00   2.464539e-02
  9.427596e-01    1.638449e+00   2.459856e-02
  9.449701e-01    1.674320e+00   2.483258e-02
  9.471805e-01    1.664255e+00   2.472279e-02
  9.493910e-01    1.655779e+00   2.462590e-02
  9.516015e-01    1.685547e+00   2.481158e-02
  9.538119e-01    1.697187e+00   2.486301e-02
  9.560224e-01    1.698417e+00   2.483698e-02
  9.582328e-01    1.712176e+00   2.490395e-02
  9.604433e-01    1.761401e+00   2.522361e-02
  9.626537e-01    1.815696e+00   2.557499e-02
  9.648642e-01    1.831350e+00   2.564984e-02
  9.670747e-01    1.822757e+00   2.555429e-02
  9.692851e-01    1.827318e+00   2.555225e-02
  9.714956e-01    1.791566e+00   2.526537e-02
  9.737060e-01    1.818200e+00   2.541901e-02
  9.759165e-01    1.843997e+00   2.556263e-02
  9.781269e-01    1.828719e+00   2.542322e-02
  9.803374e-01    1.779496e+00   2.504404e-02
  9.825478e-01    1.795117e+00   2.512054e-02
  9.847583e-01    1.790499e+00   2.505413e-02
  9.869688e-01    1.800563e+00   2.509083e-02
  9.891792e-01    1.785227e+00   2.495053e-02
  9.913897e-01    1.820889e+00   2.516449e-02
  9.936001e-01    1.813269e+00   2.507894e-02
  9.958106e-01    1.731181e+00   2.447139e-02
  9.980210e-01    1.675595e+00   2.404405e-02
  1.000231e+00    1.625704e+00   2.381314e-02
  1.002442e+00    1.622957e+00   2.391941e-02
  1.004652e+00    1.619175e+00   2.395820e-02
  1.006863e+00    1.575234e+00   2.367990e-02
  1.009073e+00    1.569418e+00   2.367231e-02
  1.011284e+00    1.579484e+00   2.377986e-02
  1.013494e+00    1.570452e+00   2.373530e-02
  1.015705e+00    1.541505e+00   2.353774e-02
  1.017915e+00    1.536924e+00   2.351895e-02
  1.020126e+00    1.521230e+00   2.341436e-02
  1.022336e+00    1.525292e+00   2.345717e-02
  1.024547e+00    1.526101e+00   2.347449e-02
  1.026757e+00    1.556510e+00   2.371562e-02
  1.028967e+00    1.545585e+00   2.363993e-02
  1.031178e+00    1.541820e+00   2.361731e-02
  1.033388e+00    1.526193e+00   2.350235e-02
  1.035599e+00    1.501356e+00   2.331374e-02
  1.037809e+00    1.472956e+00   2.309538e-02
  1.040020e+00    1.502918e+00   2.333033e-02
  1.042230e+00    1.490083e+00   2.323245e-02
  1.044441e+00    1.491105e+00   2.324018e-02
  1.046651e+00    1.460527e+00   2.300084e-02
  1.048862e+00    1.453402e+00   2.294386e-02
  1.051072e+00    1.487275e+00   2.320736e-02
  1.053282e+00    1.463284e+00   2.301849e-02
  1.055493e+00    1.455099e+00   2.294975e-02
  1.057703e+00    1.507435e+00   2.335730e-02
  1.059914e+00    1.514612e+00   2.340857e-02
  1.062124e+00    1.485803e+00   2.318081e-02
  1.064335e+00    1.471117e+00   2.306254e-02
  1.066545e+00    1.477423e+00   2.310593e-02
  1.068756e+00    1.498166e+00   2.326382e-02
  1.070966e+00    1.479571e+00   2.311245e-02
  1.073177e+00    1.480490e+00   2.311354e-02
  1.075387e+00    1.534477e+00   2.352585e-02
  1.077597e+00    1.539508e+00   2.355697e-02
  1.079808e+00    1.508802e+00   2.318612e-02
  1.082018e+00    1.472341e+00   2.271457e-02
  1.084229e+00    1.478215e+00   2.264912e-02
  1.086439e+00    1.483652e+00   2.260244e-02
  1.088650e+00    1.499807e+00   2.264832e-02
  1.090860e+00    1.483244e+00   2.245464e-02
  1.093071e+00    1.468696e+00   2.228168e-02
  1.095281e+00    1.470090e+00   2.223450e-02
  1.097492e+00    1.502995e+00   2.242597e-02
  1.099702e+00    1.543894e+00   2.267583e-02
  1.101912e+00    1.554854e+00   2.270543e-02
  1.104123e+00    1.502308e+00   2.226916e-02
  1.106333e+00    1.460586e+00   2.191289e-02
  1.108544e+00    1.477209e+00   2.199223e-02
  1.110754e+00    1.488021e+00   2.202866e-02
  1.112965e+00    1.440067e+00   2.163000e-02
  1.115175e+00    1.421190e+00   2.144656e-02
  1.117386e+00    1.402069e+00   2.126272e-02
  1.119596e+00    1.392178e+00   2.114997e-02
  1.121807e+00    1.398055e+00   2.115590e-02
  1.124017e+00    1.392779e+00   2.107951e-02
  1.126228e+00    1.364323e+00   2.082781e-02
  1.128438e+00    1.355453e+00   2.072383e-02
  1.130648e+00    1.378388e+00   2.086435e-02
  1.132859e+00    1.403592e+00   2.101979e-02
  1.135069e+00    1.389756e+00   2.088126e-02
  1.137280e+00    1.361994e+00   2.063899e-02
  1.139490e+00    1.350131e+00   2.051627e-02
  1.141701e+00    1.372208e+00   2.065036e-02
  1.143911e+00    1.385621e+00   2.071916e-02
  1.146122e+00    1.382093e+00   2.066075e-02
  1.148332e+00    1.376552e+00   2.058743e-02
  1.150543e+00    1.381938e+00   2.059680e-02
  1.152753e+00    1.342297e+00   2.026877e-02
  1.154963e+00    1.368244e+00   2.043274e-02
  1.157174e+00    1.363710e+00   2.036881e-02
  1.159384e+00    1.352245e+00   2.025338e-02
  1.161595e+00    1.341197e+00   2.014094e-02
  1.163805e+00    1.371203e+00   2.033570e-02
  1.166016e+00    1.344550e+00   2.010795e-02
  1.168226e+00    1.360176e+00   2.019552e-02
  1.170437e+00    1.362087e+00   2.018115e-02
  1.172647e+00    1.359103e+00   2.013019e-02
  1.174858e+00    1.366846e+00   2.015934e-02
  1.177068e+00    1.344522e+00   1.996598e-02
  1.179278e+00    1.330397e+00   1.983256e-02
  1.181489e+00    1.353592e+00   1.997777e-02
  1.183699e+00    1.339768e+00   1.984809e-02
  1.185910e+00    1.335792e+00   1.979109e-02
  1.188120e+00    1.319350e+00   1.964258e-02
  1.190331e+00    1.366775e+00   1.996560e-02
  1.192541e+00    1.375603e+00   2.000241e-02
  1.194752e+00    1.350639e+00   1.979306e-02
  1.196962e+00    1.335598e+00   1.965694e-02
  1.199173e+00    1.347461e+00   1.971757e-02
  1.201383e+00    1.338774e+00   1.962688e-02
  1.203593e+00    1.333395e+00   1.956272e-02
  1.205804e+00    1.361063e+00   1.973863e-02
  1.208014e+00    1.358364e+00   1.969212e-02
  1.210225e+00    1.352500e+00   1.962421e-02
  1.212435e+00    1.363038e+00   1.967561e-02
  1.214646e+00    1.341811e+00   1.949578e-02
  1.216856e+00    1.326463e+00   1.935870e-02
  1.219067e+00    1.331041e+00   1.936777e-02
  1.221277e+00    1.344235e+00   1.943857e-02
  1.223488e+00    1.337671e+00   1.936542e-02
  1.225698e+00    1.337872e+00   1.934009e-02
  1.227909e+00    1.344847e+00   1.936034e-02
  1.230119e+00    1.324002e+00   1.917816e-02
  1.232329e+00    1.335589e+00   1.923134e-02
  1.234540e+00    1.350600e+00   1.930881e-02
  1.236750e+00    1.359265e+00   1.934030e-02
  1.238961e+00    1.363968e+00   1.934660e-02
  1.241171e+00    1.355112e+00   1.925949e-02
  1.243382e+00    1.337813e+00   1.911274e-02
  1.245592e+00    1.324830e+00   1.899590e-02
  1.247803e+00    1.326406e+00   1.898375e-02
  1.250013e+00    1.331343e+00   1.899565e-02
  1.252224e+00    1.384677e+00   1.934887e-02
  1.254434e+00    1.360858e+00   1.915791e-02
  1.256644e+00    1.346348e+00   1.903230e-02
  1.258855e+00    1.337047e+00   1.894331e-02
  1.261065e+00    1.341609e+00   1.895228e-02
  1.263276e+00    1.346742e+00   1.896559e-02
  1.265486e+00    1.341421e+00   1.890530e-02
  1.267697e+00    1.331244e+00   1.881058e-02
  1.269907e+00    1.329324e+00   1.877448e-02
  1.272118e+00    1.334904e+00   1.879141e-02
  1.274328e+00    1.330513e+00   1.873791e-02
  1.276539e+00    1.335187e+00   1.874813e-02
  1.278749e+00    1.326769e+00   1.866684e-02
  1.280959e+00    1.332525e+00   1.868489e-02
  1.283170e+00    1.349179e+00   1.877887e-02
  1.285380e+00    1.389620e+00   1.903546e-02
  1.287591e+00    1.362495e+00   1.882663e-02
  1.289801e+00    1.355753e+00   1.875873e-02
  1.292012e+00    1.336585e+00   1.860863e-02
  1.294222e+00    1.352560e+00   1.870325e-02
  1.296433e+00    1.349813e+00   1.866866e-02
  1.298643e+00    1.332409e+00   1.853154e-02
  1.300854e+00    1.374303e+00   1.880406e-02
  1.303064e+00    1.357783e+00   1.867144e-02
  1.305274e+00    1.360109e+00   1.866590e-02
  1.307485e+00    1.347413e+00   1.855705e-02
  1.309695e+00    1.370375e+00   1.869209e-02
  1.311906e+00    1.365388e+00   1.863622e-02
  1.314116e+00    1.340114e+00   1.844222e-02
  1.316327e+00    1.347432e+00   1.847082e-02
  1.318537e+00    1.351504e+00   1.847683e-02
  1.320748e+00    1.353252e+00   1.846718e-02
  1.322958e+00    1.382415e+00   1.864435e-02
  1.325169e+00    1.366969e+00   1.851876e-02
  1.327379e+00    1.349919e+00   1.838107e-02
  1.329589e+00    1.384707e+00   1.859508e-02
  1.331800e+00    1.381396e+00   1.855190e-02
  1.334010e+00    1.400821e+00   1.866084e-02
  1.336221e+00    1.403929e+00   1.865936e-02
  1.338431e+00    1.379699e+00   1.847655e-02
  1.340642e+00    1.390565e+00   1.861427e-02
  1.342852e+00    1.411979e+00   1.886002e-02
  1.345063e+00    1.402298e+00   1.884569e-02
  1.347273e+00    1.357760e+00   1.857935e-02
  1.349484e+00    1.354565e+00   1.858518e-02
  1.351694e+00    1.361722e+00   1.865703e-02
  1.353905e+00    1.334324e+00   1.848629e-02
  1.356115e+00    1.316729e+00   1.837884e-02
  1.358325e+00    1.332037e+00   1.849860e-02
  1.360536e+00    1.350582e+00   1.863855e-02
  1.362746e+00    1.326770e+00   1.848301e-02
  1.364957e+00    1.360075e+00   1.872122e-02
  1.367167e+00    1.372130e+00   1.881124e-02
  1.369378e+00    1.434537e+00   1.924044e-02
  1.371588e+00    1.527458e+00   1.985930e-02
  1.373799e+00    1.553665e+00   2.003291e-02
  1.376009e+00    1.502232e+00   1.970218e-02
  1.378220e+00    1.420482e+00   1.916116e-02
  1.380430e+00    1.463405e+00   1.945131e-02
  1.382640e+00    1.505299e+00   1.972878e-02
  1.384851e+00    1.450711e+00   1.936868e-02
  1.387061e+00    1.389831e+00   1.895822e-02
  1.389272e+00    1.346576e+00   1.866107e-02
  1.391482e+00    1.337039e+00   1.859418e-02
  1.393693e+00    1.325733e+00   1.851452e-02
  1.395903e+00    1.317466e+00   1.845518e-02
  1.398114e+00    1.316708e+00   1.844847e-02
  1.400324e+00    1.302629e+00   1.834743e-02
  1.402535e+00    1.322526e+00   1.848466e-02
  1.404745e+00    1.300129e+00   1.832509e-02
  1.406955e+00    1.301519e+00   1.833215e-02
  1.409166e+00    1.296926e+00   1.829646e-02
  1.411376e+00    1.295820e+00   1.828549e-02
  1.413587e+00    1.296988e+00   1.828989e-02
  1.415797e+00    1.261005e+00   1.803087e-02
  1.418008e+00    1.267465e+00   1.803514e-02
  1.420218e+00    1.259490e+00   1.782922e-02
  1.422429e+00    1.271391e+00   1.782789e-02
  1.424639e+00    1.279329e+00   1.781853e-02
  1.426850e+00    1.294351e+00   1.786762e-02
  1.429060e+00    1.285080e+00   1.775424e-02
  1.431270e+00    1.326995e+00   1.799614e-02
  1.433481e+00    1.331575e+00   1.798527e-02
  1.435691e+00    1.328023e+00   1.792196e-02
  1.437902e+00    1.288875e+00   1.761912e-02
  1.440112e+00    1.251884e+00   1.732933e-02
  1.442323e+00    1.264199e+00   1.738137e-02
  1.444533e+00    1.301666e+00   1.760411e-02
  1.446744e+00    1.254504e+00   1.725133e-02
  1.448954e+00    1.270064e+00   1.732777e-02
  1.451165e+00    1.281796e+00   1.737773e-02
  1.453375e+00    1.295724e+00   1.744357e-02
  1.455586e+00    1.281247e+00   1.731755e-02
  1.457796e+00    1.276501e+00   1.725787e-02
  1.460006e+00    1.284559e+00   1.728483e-02
  1.462217e+00    1.308926e+00   1.742138e-02
  1.464427e+00    1.329427e+00   1.753109e-02
  1.466638e+00    1.323346e+00   1.746510e-02
  1.468848e+00    1.331604e+00   1.749354e-02
  1.471059e+00    1.318878e+00   1.738421e-02
  1.473269e+00    1.285334e+00   1.713715e-02
  1.475480e+00    1.308446e+00   1.726640e-02
  1.477690e+00    1.305862e+00   1.722516e-02
  1.479901e+00    1.302129e+00   1.717637e-02
  1.482111e+00    1.283987e+00   1.703282e-02
  1.484321e+00    1.279335e+00   1.697871e-02
  1.486532e+00    1.303132e+00   1.711323e-02
  1.488742e+00    1.304579e+00   1.709974e-02
  1.490953e+00    1.272281e+00   1.686406e-02
  1.493163e+00    1.281351e+00   1.690163e-02
  1.495374e+00    1.263008e+00   1.675873e-02
  1.497584e+00    1.234854e+00   1.654946e-02
  1.499795e+00    1.264548e+00   1.672556e-02
  1.502005e+00    1.248765e+00   1.659929e-02
  1.504216e+00    1.248999e+00   1.657988e-02
  1.506426e+00    1.265558e+00   1.666856e-02
  1.508636e+00    1.273319e+00   1.669899e-02
  1.510847e+00    1.347122e+00   1.715353e-02
  1.513057e+00    1.369820e+00   1.727126e-02
  1.515268e+00    1.317641e+00   1.691279e-02
  1.517478e+00    1.280661e+00   1.664832e-02
  1.519689e+00    1.262462e+00   1.650457e-02
  1.521899e+00    1.270260e+00   1.653220e-02
  1.524110e+00    1.276811e+00   1.655425e-02
  1.526320e+00    1.288746e+00   1.661157e-02
  1.528531e+00    1.253686e+00   1.636428e-02
  1.530741e+00    1.236873e+00   1.623512e-02
  1.532951e+00    1.248838e+00   1.629389e-02
  1.535162e+00    1.241436e+00   1.633184e-02
  1.537372e+00    1.260636e+00   1.652486e-02
  1.539583e+00    1.256741e+00   1.653367e-02
  1.541793e+00    1.252875e+00   1.651517e-02
  1.544004e+00    1.256031e+00   1.653622e-02
  1.546214e+00    1.268975e+00   1.661970e-02
  1.548425e+00    1.255799e+00   1.653344e-02
  1.550635e+00    1.261769e+00   1.658244e-02
  1.552846e+00    1.260968e+00   1.658690e-02
  1.555056e+00    1.254709e+00   1.650404e-02
  1.557266e+00    1.236633e+00   1.627461e-02
  1.559477e+00    1.248542e+00   1.629358e-02
  1.561687e+00    1.252336e+00   1.628754e-02
  1.563898e+00    1.275191e+00   1.641814e-02
  1.566108e+00    1.269414e+00   1.636478e-02
  1.568319e+00    1.275527e+00   1.638833e-02
  1.570529e+00    1.256295e+00   1.623906e-02
  1.572740e+00    1.230353e+00   1.604305e-02
  1.574950e+00    1.261973e+00   1.622139e-02
  1.577161e+00    1.246947e+00   1.609905e-02
  1.579371e+00    1.250589e+00   1.609880e-02
  1.581582e+00    1.272066e+00   1.621647e-02
  1.583792e+00    1.253384e+00   1.607887e-02
  1.586002e+00    1.260481e+00   1.610658e-02
  1.588213e+00    1.261169e+00   1.609362e-02
  1.590423e+00    1.268814e+00   1.612206e-02
  1.592634e+00    1.271622e+00   1.611804e-02
  1.594844e+00    1.265975e+00   1.606060e-02
  1.597055e+00    1.253486e+00   1.596062e-02
  1.599265e+00    1.225425e+00   1.576035e-02
  1.601476e+00    1.239367e+00   1.582946e-02
  1.603686e+00    1.287972e+00   1.611672e-02
  1.605897e+00    1.363320e+00   1.656029e-02
  1.608107e+00    1.383339e+00   1.666079e-02
  1.610317e+00    1.308143e+00   1.618179e-02
  1.612528e+00    1.257749e+00   1.584768e-02
  1.614738e+00    1.288261e+00   1.601937e-02
  1.616949e+00    1.232109e+00   1.564735e-02
  1.619159e+00    1.205547e+00   1.545915e-02
  1.621370e+00    1.200854e+00   1.541073e-02
  1.623580e+00    1.201337e+00   1.539558e-02
  1.625791e+00    1.203680e+00   1.539237e-02
  1.628001e+00    1.197086e+00   1.533194e-02
  1.630212e+00    1.182695e+00   1.522182e-02
  1.632422e+00    1.152350e+00   1.500764e-02
  1.634632e+00    1.162391e+00   1.505571e-02
  1.636843e+00    1.161214e+00   1.503066e-02
  1.639053e+00    1.156458e+00   1.498270e-02
  1.641264e+00    1.171406e+00   1.506210e-02
  1.643474e+00    1.149073e+00   1.490056e-02
  1.645685e+00    1.162529e+00   1.497083e-02
  1.647895e+00    1.160848e+00   1.494339e-02
  1.650106e+00    1.145840e+00   1.482950e-02
  1.652316e+00    1.151341e+00   1.484856e-02
  1.654527e+00    1.138135e+00   1.474654e-02
  1.656737e+00    1.109514e+00   1.454354e-02
  1.658947e+00    1.121536e+00   1.460592e-02
  1.661158e+00    1.114654e+00   1.454487e-02
  1.663368e+00    1.102870e+00   1.445190e-02
  1.665579e+00    1.124328e+00   1.457563e-02
  1.667789e+00    1.125050e+00   1.456400e-02
  1.670000e+00    1.114625e+00   1.448089e-02
  1.672210e+00    1.096517e+00   1.434697e-02
  1.674421e+00    1.106923e+00   1.439957e-02
  1.676631e+00    1.079259e+00   1.420276e-02
  1.678842e+00    1.084397e+00   1.422086e-02
  1.681052e+00    1.098703e+00   1.429894e-02
  1.683263e+00    1.079257e+00   1.415679e-02
  1.685473e+00    1.077321e+00   1.412898e-02
  1.687683e+00    1.093756e+00   1.422084e-02
  1.689894e+00    1.105465e+00   1.428082e-02
  1.692104e+00    1.065643e+00   1.400641e-02
  1.694315e+00    1.080949e+00   1.409204e-02
  1.696525e+00    1.073160e+00   1.402603e-02
  1.698736e+00    1.077889e+00   1.404198e-02
  1.700946e+00    1.063099e+00   1.393016e-02
  1.703157e+00    1.048368e+00   1.381872e-02
  1.705367e+00    1.031929e+00   1.369562e-02
  1.707578e+00    9.988917e-01   1.346036e-02
  1.709788e+00    1.031395e+00   1.366358e-02
  1.711998e+00    1.033618e+00   1.366335e-02
  1.714209e+00    1.036781e+00   1.366983e-02
  1.716419e+00    1.016191e+00   1.351928e-02
  1.718630e+00    9.940096e-01   1.335688e-02
  1.720840e+00    1.012562e+00   1.346690e-02
  1.723051e+00    9.939150e-01   1.332867e-02
  1.725261e+00    9.765615e-01   1.319743e-02
  1.727472e+00    1.001162e+00   1.334857e-02
  1.729682e+00    9.985658e-01   1.331791e-02
  1.731893e+00    1.002435e+00   1.332983e-02
  1.734103e+00    1.004811e+00   1.333188e-02
  1.736313e+00    9.685752e-01   1.307552e-02
  1.738524e+00    9.892738e-01   1.320076e-02
  1.740734e+00    9.697145e-01   1.305611e-02
  1.742945e+00    9.536278e-01   1.293422e-02
  1.745155e+00    9.539170e-01   1.292297e-02
  1.747366e+00    9.676427e-01   1.300197e-02
  1.749576e+00    9.706700e-01   1.300871e-02
  1.751787e+00    9.873984e-01   1.310695e-02
  1.753997e+00    9.922878e-01   1.312591e-02
  1.756208e+00    9.983670e-01   1.315269e-02
  1.758418e+00    9.788238e-01   1.301018e-02
  1.760628e+00    9.640049e-01   1.289798e-02
  1.762839e+00    9.597948e-01   1.285662e-02
  1.765049e+00    9.364738e-01   1.268652e-02
  1.767260e+00    9.625374e-01   1.284900e-02
  1.769470e+00    1.017341e+00   1.319632e-02
  1.771681e+00    1.066201e+00   1.349560e-02
  1.773891e+00    1.030572e+00   1.325463e-02
  1.776102e+00    9.765506e-01   1.288949e-02
  1.778312e+00    9.618691e-01   1.277937e-02
  1.780523e+00    9.526464e-01   1.270515e-02
  1.782733e+00    9.582232e-01   1.272947e-02
  1.784944e+00    9.489604e-01   1.265483e-02
  1.787154e+00    9.155566e-01   1.241767e-02
  1.789364e+00    9.313675e-01   1.251194e-02
  1.791575e+00    9.322051e-01   1.250501e-02
  1.793785e+00    9.363042e-01   1.251998e-02
  1.795996e+00    9.234595e-01   1.242127e-02
  1.798206e+00    9.086505e-01   1.230882e-02
  1.800417e+00    9.012761e-01   1.224619e-02
  1.802627e+00    8.931127e-01   1.217880e-02
  1.804838e+00    8.978360e-01   1.219896e-02
  1.807048e+00    8.806335e-01   1.206889e-02
  1.809259e+00    8.778962e-01   1.203673e-02
  1.811469e+00    9.147543e-01   1.227176e-02
  1.813679e+00    8.952935e-01   1.212562e-02
  1.815890e+00    8.841072e-01   1.203500e-02
  1.818100e+00    8.714693e-01   1.193375e-02
  1.820311e+00    8.818117e-01   1.198971e-02
  1.822521e+00    8.688842e-01   1.188683e-02
  1.824732e+00    8.684852e-01   1.186946e-02
  1.826942e+00    8.833781e-01   1.195849e-02
  1.829153e+00    8.804473e-01   1.192698e-02
  1.831363e+00    8.829082e-01   1.193161e-02
  1.833574e+00    8.525189e-01   1.171299e-02
  1.835784e+00    8.568859e-01   1.173165e-02
  1.837994e+00    8.771232e-01   1.185769e-02
  1.840205e+00    8.587440e-01   1.172173e-02
  1.842415e+00    8.551803e-01   1.168572e-02
  1.844626e+00    8.578101e-01   1.169220e-02
  1.846836e+00    8.724484e-01   1.178006e-02
  1.849047e+00    9.218833e-01   1.209723e-02
  1.851257e+00    9.547276e-01   1.230082e-02
  1.853468e+00    8.735415e-01   1.175734e-02
  1.855678e+00    8.748832e-01   1.175738e-02
  1.857889e+00    8.925462e-01   1.186682e-02
  1.860099e+00    8.762473e-01   1.174925e-02
  1.862309e+00    8.609060e-01   1.163740e-02
  1.864520e+00    8.576611e-01   1.160687e-02
  1.866730e+00    8.533252e-01   1.156812e-02
  1.868941e+00    8.509166e-01   1.154084e-02
  1.871151e+00    8.484517e-01   1.151274e-02
  1.873362e+00    8.492062e-01   1.150653e-02
  1.875572e+00    8.369006e-01   1.141199e-02
  1.877783e+00    8.544770e-01   1.151974e-02
  1.879993e+00    8.261806e-01   1.131637e-02
  1.882204e+00    8.476399e-01   1.145147e-02
  1.884414e+00    8.408396e-01   1.139441e-02
  1.886624e+00    8.345197e-01   1.134049e-02
  1.888835e+00    8.323148e-01   1.131458e-02
  1.891045e+00    8.274640e-01   1.127077e-02
  1.893256e+00    8.292452e-01   1.127186e-02
  1.895466e+00    8.338962e-01   1.129227e-02
  1.897677e+00    8.285598e-01   1.124522e-02
  1.899887e+00    8.478791e-01   1.136447e-02
  1.902098e+00    8.415664e-01   1.131120e-02
  1.904308e+00    8.352519e-01   1.125806e-02
  1.906519e+00    8.500600e-01   1.134646e-02
  1.908729e+00    8.160876e-01   1.110690e-02
  1.910940e+00    8.425516e-01   1.127431e-02
  1.913150e+00    8.126240e-01   1.106178e-02
  1.915360e+00    8.148310e-01   1.106621e-02
  1.917571e+00    8.225566e-01   1.110769e-02
  1.919781e+00    8.175696e-01   1.106331e-02
  1.921992e+00    8.047816e-01   1.096591e-02
  1.924202e+00    8.121198e-01   1.100508e-02
  1.926413e+00    7.964412e-01   1.088815e-02
  1.928623e+00    8.078408e-01   1.095529e-02
  1.930834e+00    8.134203e-01   1.098263e-02
  1.933044e+00    8.051061e-01   1.091574e-02
  1.935255e+00    7.984527e-01   1.086028e-02
  1.937465e+00    7.959245e-01   1.083276e-02
  1.939675e+00    7.972300e-01   1.083085e-02
  1.941886e+00    8.007544e-01   1.084451e-02
  1.944096e+00    8.012860e-01   1.083795e-02
  1.946307e+00    7.920609e-01   1.076509e-02
  1.948517e+00    8.039953e-01   1.083543e-02
  1.950728e+00    7.912005e-01   1.073867e-02
  1.952938e+00    7.958917e-01   1.076037e-02
  1.955149e+00    7.911779e-01   1.071827e-02
  1.957359e+00    7.730505e-01   1.058487e-02
  1.959570e+00    7.881007e-01   1.067657e-02
  1.961780e+00    7.919636e-01   1.069282e-02
  1.963990e+00    7.955236e-01   1.070666e-02
  1.966201e+00    7.920949e-01   1.067352e-02
  1.968411e+00    7.757478e-01   1.055272e-02
  1.970622e+00    7.872807e-01   1.062079e-02
  1.972832e+00    7.932407e-01   1.065091e-02
  1.975043e+00    8.046617e-01   1.071714e-02
  1.977253e+00    8.025476e-01   1.069301e-02
  1.979464e+00    7.962530e-01   1.064088e-02
  1.981674e+00    7.888594e-01   1.058105e-02
  1.983885e+00    7.898237e-01   1.057745e-02
  1.986095e+00    7.710892e-01   1.044160e-02
  1.988305e+00    7.757546e-01   1.046328e-02
  1.990516e+00    7.601379e-01   1.034760e-02
  1.992726e+00    7.798493e-01   1.047125e-02
  1.994937e+00    7.719080e-01   1.040769e-02
  1.997147e+00    7.749357e-01   1.041836e-02
  1.999358e+00    7.671897e-01   1.035636e-02
  2.001568e+00    7.785521e-01   1.042192e-02
  2.003779e+00    7.676215e-01   1.033662e-02
  2.005989e+00    7.848541e-01   1.043987e-02
  2.008200e+00    7.941062e-01   1.048953e-02
  2.010410e+00    7.696689e-01   1.031513e-02
  2.012621e+00    7.697083e-01   1.030366e-02
  2.014831e+00    7.487745e-01   1.015127e-02
  2.017041e+00    7.654833e-01   1.025350e-02
  2.019252e+00    7.779456e-01   1.032662e-02
  2.021462e+00    7.509362e-01   1.013635e-02
  2.023673e+00    7.650010e-01   1.022142e-02
  2.025883e+00    7.845703e-01   1.034169e-02
  2.028094e+00    7.825175e-01   1.031839e-02
  2.030304e+00    7.699910e-01   1.022589e-02
  2.032515e+00    7.571540e-01   1.013100e-02
  2.034725e+00    7.729123e-01   1.022635e-02
  2.036936e+00    7.753882e-01   1.023328e-02
  2.039146e+00    7.698227e-01   1.018684e-02
  2.041356e+00    7.756023e-01   1.021524e-02
  2.043567e+00    7.754397e-01   1.020474e-02
  2.045777e+00    7.793230e-01   1.022088e-02
  2.047988e+00    7.571699e-01   1.006518e-02
  2.050198e+00    7.480377e-01   9.995883e-03
  2.052409e+00    7.547391e-01   1.003290e-02
  2.054619e+00    7.462816e-01   9.969182e-03
  2.056830e+00    7.574997e-01   1.003661e-02
  2.059040e+00    7.639140e-01   1.007145e-02
  2.061251e+00    7.695018e-01   1.010087e-02
  2.063461e+00    7.770418e-01   1.014249e-02
  2.065671e+00    7.850004e-01   1.018538e-02
  2.067882e+00    7.835070e-01   1.016649e-02
  2.070092e+00    7.650790e-01   1.003692e-02
  2.072303e+00    7.665619e-01   1.003737e-02
  2.074513e+00    7.699193e-01   1.004986e-02
  2.076724e+00    7.675649e-01   1.002487e-02
  2.078934e+00    7.543904e-01   9.929392e-03
  2.081145e+00    7.614500e-01   9.966548e-03
  2.083355e+00    7.629815e-01   9.967254e-03
  2.085566e+00    7.597673e-01   9.937228e-03
  2.087776e+00    7.619017e-01   9.941527e-03
  2.089986e+00    7.456452e-01   9.826070e-03
  2.092197e+00    7.581469e-01   9.899001e-03
  2.094407e+00    7.500843e-01   9.836939e-03
  2.096618e+00    7.379953e-01   9.748407e-03
  2.098828e+00    7.556401e-01   9.854822e-03
  2.101039e+00    7.489297e-01   9.801894e-03
  2.103249e+00    7.407827e-01   9.739707e-03
  2.105460e+00    7.419294e-01   9.738151e-03
  2.107670e+00    7.403205e-01   9.718779e-03
  2.109881e+00    7.278253e-01   9.627262e-03
  2.112091e+00    7.300213e-01   9.632743e-03
  2.114301e+00    7.507877e-01   9.759843e-03
  2.116512e+00    7.694721e-01   9.871483e-03
  2.118722e+00    7.406178e-01   9.675714e-03
  2.120933e+00    7.165179e-01   9.508133e-03
  2.123143e+00    7.229273e-01   9.541621e-03
  2.125354e+00    7.356712e-01   9.616723e-03
  2.127564e+00    7.412010e-01   9.643917e-03
  2.129775e+00    7.381688e-01   9.615316e-03
  2.131985e+00    7.380826e-01   9.605548e-03
  2.134196e+00    7.077402e-01   9.397476e-03
  2.136406e+00    7.181675e-01   9.457672e-03
  2.138617e+00    7.090786e-01   9.389189e-03
  2.140827e+00    6.985413e-01   9.335106e-03
  2.143037e+00    6.983369e-01   9.378926e-03
  2.145248e+00    7.048081e-01   9.444275e-03
  2.147458e+00    6.940305e-01   9.386804e-03
  2.149669e+00    6.940893e-01   9.398990e-03
  2.151879e+00    6.864550e-01   9.356273e-03
  2.154090e+00    6.797351e-01   9.317566e-03
  2.156300e+00    6.953841e-01   9.430776e-03
  2.158511e+00    7.037413e-01   9.492618e-03
  2.160721e+00    6.980721e-01   9.459103e-03
  2.162932e+00    7.067640e-01   9.521589e-03
  2.165142e+00    7.003240e-01   9.481139e-03
  2.167352e+00    6.988288e-01   9.473921e-03
  2.169563e+00    6.944694e-01   9.446288e-03
  2.171773e+00    6.917455e-01   9.430178e-03
  2.173984e+00    6.846864e-01   9.383346e-03
  2.176194e+00    6.948270e-01   9.453777e-03
  2.178405e+00    6.921278e-01   9.436088e-03
  2.180615e+00    6.994770e-01   9.486741e-03
  2.182826e+00    7.002143e-01   9.492431e-03
  2.185036e+00    6.910268e-01   9.429999e-03
  2.187247e+00    6.930850e-01   9.443977e-03
  2.189457e+00    6.996527e-01   9.488209e-03
  2.191667e+00    6.787983e-01   9.345574e-03
  2.193878e+00    6.711681e-01   9.292316e-03
  2.196088e+00    6.721331e-01   9.298332e-03
  2.198299e+00    6.803347e-01   9.353786e-03
  2.200509e+00    6.756539e-01   9.320530e-03
  2.202720e+00    6.599600e-01   9.210493e-03
  2.204930e+00    6.661096e-01   9.252081e-03
  2.207141e+00    6.739594e-01   9.305323e-03
  2.209351e+00    6.920193e-01   9.427284e-03
  2.211562e+00    6.792367e-01   9.338195e-03
  2.213772e+00    6.783493e-01   9.276546e-03
  2.215982e+00    6.743382e-01   9.204919e-03
  2.218193e+00    6.783869e-01   9.202818e-03
  2.220403e+00    6.727131e-01   9.139713e-03
  2.222614e+00    6.740002e-01   9.127488e-03
  2.224824e+00    6.686292e-01   9.071745e-03
  2.227035e+00    6.655142e-01   9.033224e-03
  2.229245e+00    6.794693e-01   9.110390e-03
  2.231456e+00    6.707820e-01   9.036353e-03
  2.233666e+00    6.660144e-01   8.989139e-03
  2.235877e+00    6.741617e-01   9.029640e-03
  2.238087e+00    6.797085e-01   9.053153e-03
  2.240298e+00    6.673042e-01   8.956400e-03
  2.242508e+00    6.706858e-01   8.963929e-03
  2.244718e+00    6.721902e-01   8.958112e-03
  2.246929e+00    6.667932e-01   8.907704e-03
  2.249139e+00    6.311463e-01   8.654263e-03
  2.251350e+00    6.534225e-01   8.794077e-03
  2.253560e+00    6.517549e-01   8.771417e-03
  2.255771e+00    6.628554e-01   8.834401e-03
  2.257981e+00    6.672980e-01   8.852777e-03
  2.260192e+00    6.732395e-01   8.880902e-03
  2.262402e+00    6.800266e-01   8.914587e-03
  2.264613e+00    6.627368e-01   8.789713e-03
  2.266823e+00    6.553406e-01   8.730177e-03
  2.269033e+00    6.641952e-01   8.778567e-03
  2.271244e+00    6.597458e-01   8.738744e-03
  2.273454e+00    6.658885e-01   8.769057e-03
  2.275665e+00    6.535136e-01   8.676942e-03
  2.277875e+00    6.645604e-01   8.740011e-03
  2.280086e+00    6.666602e-01   8.743732e-03
  2.282296e+00    6.539862e-01   8.650846e-03
  2.284507e+00    6.589100e-01   8.673225e-03
  2.286717e+00    6.525362e-01   8.621729e-03
  2.288928e+00    6.596157e-01   8.658496e-03
  2.291138e+00    6.519793e-01   8.598850e-03
  2.293348e+00    6.532086e-01   8.597404e-03
  2.295559e+00    6.671593e-01   8.679354e-03
  2.297769e+00    6.630462e-01   8.643255e-03
  2.299980e+00    6.613703e-01   8.622924e-03
  2.302190e+00    6.612355e-01   8.612858e-03
  2.304401e+00    6.555411e-01   8.566365e-03
  2.306611e+00    6.543022e-01   8.549029e-03
  2.308822e+00    6.703314e-01   8.644625e-03
  2.311032e+00    6.391277e-01   8.434636e-03
  2.313243e+00    6.345188e-01   8.397955e-03
  2.315453e+00    6.424965e-01   8.443058e-03
  2.317663e+00    6.362869e-01   8.393102e-03
  2.319874e+00    6.376187e-01   8.393212e-03
  2.322084e+00    6.448068e-01   8.431441e-03
  2.324295e+00    6.541088e-01   8.483746e-03
  2.326505e+00    6.565649e-01   8.490531e-03
  2.328716e+00    6.557959e-01   8.476925e-03
  2.330926e+00    6.528182e-01   8.448799e-03
  2.333137e+00    6.501132e-01   8.422843e-03
  2.335347e+00    6.451168e-01   8.381527e-03
  2.337558e+00    6.480050e-01   8.391974e-03
  2.339768e+00    6.565381e-01   8.438372e-03
  2.341979e+00    6.506215e-01   8.391825e-03
  2.344189e+00    6.415728e-01   8.324844e-03
  2.346399e+00    6.481137e-01   8.358583e-03
  2.348610e+00    6.519977e-01   8.375050e-03
  2.350820e+00    6.349315e-01   8.256526e-03
  2.353031e+00    6.215329e-01   8.160735e-03
  2.355241e+00    6.175284e-01   8.126453e-03
  2.357452e+00    6.340080e-01   8.225729e-03
  2.359662e+00    6.383060e-01   8.245314e-03
  2.361873e+00    6.160437e-01   8.092108e-03
  2.364083e+00    6.234561e-01   8.132696e-03
  2.366294e+00    6.226193e-01   8.119142e-03
  2.368504e+00    6.216663e-01   8.104919e-03
  2.370714e+00    6.089576e-01   8.013668e-03
  2.372925e+00    6.331505e-01   8.163203e-03
  2.375135e+00    6.244122e-01   8.098629e-03
  2.377346e+00    6.248567e-01   8.093551e-03
  2.379556e+00    6.281951e-01   8.107218e-03
  2.381767e+00    5.944136e-01   7.878548e-03
  2.383977e+00    6.086043e-01   7.964138e-03
  2.386188e+00    6.212655e-01   8.038660e-03
  2.388398e+00    6.123361e-01   7.972748e-03
  2.390609e+00    6.187647e-01   8.006762e-03
  2.392819e+00    6.147019e-01   7.972676e-03
  2.395029e+00    6.044302e-01   7.898175e-03
  2.397240e+00    6.216574e-01   8.002021e-03
  2.399450e+00    6.261672e-01   8.023121e-03
  2.401661e+00    6.188512e-01   7.968398e-03
  2.403871e+00    5.959293e-01   7.811767e-03
  2.406082e+00    6.035078e-01   7.853878e-03
  2.408292e+00    6.003382e-01   7.825499e-03
  2.410503e+00    6.134416e-01   7.902915e-03
  2.412713e+00    6.020461e-01   7.821418e-03
  2.414924e+00    5.849056e-01   7.701909e-03
  2.417134e+00    6.039826e-01   7.818866e-03
  2.419344e+00    5.878820e-01   7.706651e-03
  2.421555e+00    5.967013e-01   7.756758e-03
  2.423765e+00    5.930980e-01   7.725932e-03
  2.425976e+00    6.042407e-01   7.790348e-03
  2.428186e+00    6.042206e-01   7.782958e-03
  2.430397e+00    5.885927e-01   7.674243e-03
  2.432607e+00    5.799383e-01   7.610407e-03
  2.434818e+00    5.807694e-01   7.608415e-03
  2.437028e+00    6.048030e-01   7.757028e-03
  2.439239e+00    5.962617e-01   7.694411e-03
  2.441449e+00    5.814738e-01   7.591262e-03
  2.443659e+00    5.734685e-01   7.531573e-03
  2.445870e+00    5.684254e-01   7.510412e-03
  2.448080e+00    5.653703e-01   7.524480e-03
  2.450291e+00    5.577875e-01   7.490168e-03
  2.452501e+00    5.716888e-01   7.594049e-03
  2.454712e+00    5.777418e-01   7.642607e-03
  2.456922e+00    5.684106e-01   7.587253e-03
  2.459133e+00    5.683788e-01   7.592477e-03
  2.461343e+00    5.657986e-01   7.579560e-03
  2.463554e+00    5.560166e-01   7.517207e-03
  2.465764e+00    5.592747e-01   7.542328e-03
  2.467975e+00    5.481708e-01   7.469333e-03
  2.470185e+00    5.516918e-01   7.495535e-03
  2.472395e+00    5.344145e-01   7.378418e-03
  2.474606e+00    5.642680e-01   7.583261e-03
  2.476816e+00    5.720120e-01   7.635906e-03
  2.479027e+00    5.622389e-01   7.571237e-03
  2.481237e+00    5.445101e-01   7.451202e-03
  2.483448e+00    5.280291e-01   7.337865e-03
  2.485658e+00    5.350392e-01   7.386246e-03
  2.487869e+00    5.339489e-01   7.378771e-03
  2.490079e+00    5.345731e-01   7.382564e-03
  2.492290e+00    5.586421e-01   7.546486e-03
  2.494500e+00    5.372103e-01   7.399601e-03
  2.496710e+00    5.296956e-01   7.346959e-03
  2.498921e+00    5.350572e-01   7.383063e-03
  2.501131e+00    5.245216e-01   7.309069e-03
  2.503342e+00    5.217983e-01   7.288813e-03
  2.505552e+00    5.328197e-01   7.364262e-03
  2.507763e+00    5.207369e-01   7.278889e-03
  2.509973e+00    5.170134e-01   7.251426e-03
  2.512184e+00    5.161214e-01   7.243570e-03
  2.514394e+00    5.175037e-01   7.243996e-03
  2.516605e+00    5.182647e-01   7.202618e-03
  2.518815e+00    5.320831e-01   7.269518e-03
  2.521025e+00    5.266075e-01   7.211038e-03
  2.523236e+00    5.382544e-01   7.272149e-03
  2.525446e+00    5.269731e-01   7.179903e-03
  2.527657e+00    5.239823e-01   7.144923e-03
  2.529867e+00    5.253018e-01   7.139708e-03
  2.532078e+00    5.379479e-01   7.209940e-03
  2.534288e+00    5.227597e-01   7.093563e-03
  2.536499e+00    5.247593e-01   7.095185e-03
  2.538709e+00    5.240420e-01   7.079333e-03
  2.540920e+00    5.226145e-01   7.059050e-03
  2.543130e+00    5.324964e-01   7.115034e-03
  2.545340e+00    5.337713e-01   7.113382e-03
  2.547551e+00    5.201998e-01   7.012480e-03
  2.549761e+00    5.115927e-01   6.944704e-03
  2.551972e+00    5.154555e-01   6.961595e-03
  2.554182e+00    5.183697e-01   6.972088e-03
  2.556393e+00    5.191447e-01   6.968232e-03
  2.558603e+00    5.064366e-01   6.873449e-03
  2.560814e+00    5.132301e-01   6.910768e-03
  2.563024e+00    5.096655e-01   6.878209e-03
  2.565235e+00    5.184723e-01   6.927890e-03
  2.567445e+00    5.197712e-01   6.926991e-03
  2.569656e+00    5.213367e-01   6.927654e-03
  2.571866e+00    5.162423e-01   6.884362e-03
  2.574076e+00    5.216563e-01   6.911071e-03
  2.576287e+00    5.128424e-01   6.844143e-03
  2.578497e+00    5.067406e-01   6.795510e-03
  2.580708e+00    5.247829e-01   6.907292e-03
  2.582918e+00    5.085149e-01   6.791668e-03
  2.585129e+00    5.101811e-01   6.795060e-03
  2.587339e+00    5.194276e-01   6.848649e-03
  2.589550e+00    5.162069e-01   6.819797e-03
  2.591760e+00    5.112448e-01   6.779229e-03
  2.593971e+00    4.923991e-01   6.645711e-03
  2.596181e+00    4.984728e-01   6.680428e-03
  2.598391e+00    4.957185e-01   6.656836e-03
  2.600602e+00    4.988324e-01   6.671853e-03
  2.602812e+00    4.979031e-01   6.658197e-03
  2.605023e+00    5.014536e-01   6.674758e-03
  2.607233e+00    5.196961e-01   6.787878e-03
  2.609444e+00    5.133399e-01   6.738975e-03
  2.611654e+00    4.997900e-01   6.642167e-03
  2.613865e+00    5.027086e-01   6.654508e-03
  2.616075e+00    5.147324e-01   6.726437e-03
  2.618286e+00    5.048827e-01   6.654773e-03
  2.620496e+00    5.054383e-01   6.651725e-03
  2.622706e+00    5.039078e-01   6.635922e-03
  2.624917e+00    5.070093e-01   6.650439e-03
  2.627127e+00    4.996586e-01   6.596352e-03
  2.629338e+00    4.952002e-01   6.560913e-03
  2.631548e+00    5.144522e-01   6.680996e-03
  2.633759e+00    5.181286e-01   6.697580e-03
  2.635969e+00    5.130324e-01   6.657793e-03
  2.638180e+00    5.123442e-01   6.646269e-03
  2.640390e+00    5.018491e-01   6.571234e-03
  2.642601e+00    4.979475e-01   6.539002e-03
  2.644811e+00    4.821543e-01   6.427523e-03
  2.647021e+00    4.918900e-01   6.485564e-03
  2.649232e+00    4.880473e-01   6.453547e-03
  2.651442e+00    4.992860e-01   6.520922e-03
  2.653653e+00    5.102215e-01   6.585089e-03
  2.655863e+00    4.978750e-01   6.498243e-03
  2.658074e+00    5.068576e-01   6.549934e-03
  2.660284e+00    5.091598e-01   6.558349e-03
  2.662495e+00    5.099468e-01   6.556596e-03
  2.664705e+00    4.913324e-01   6.429286e-03
  2.666916e+00    4.961276e-01   6.454112e-03
  2.669126e+00    4.928804e-01   6.426520e-03
  2.671337e+00    4.883310e-01   6.390262e-03
  2.673547e+00    5.024690e-01   6.475673e-03
  2.675757e+00    4.874899e-01   6.372029e-03
  2.677968e+00    4.924272e-01   6.397691e-03
  2.680178e+00    4.886011e-01   6.366433e-03
  2.682389e+00    4.944681e-01   6.398125e-03
  2.684599e+00    4.952276e-01   6.396854e-03
  2.686810e+00    4.822137e-01   6.305685e-03
  2.689020e+00    4.921402e-01   6.363973e-03
  2.691231e+00    5.012780e-01   6.416424e-03
  2.693441e+00    4.878908e-01   6.324050e-03
  2.695652e+00    4.850672e-01   6.299229e-03
  2.697862e+00    4.801466e-01   6.260926e-03
  2.700072e+00    4.733884e-01   6.210730e-03
  2.702283e+00    4.768087e-01   6.226969e-03
  2.704493e+00    4.887765e-01   6.298363e-03
  2.706704e+00    4.917400e-01   6.311000e-03
  2.708914e+00    4.767092e-01   6.207910e-03
  2.711125e+00    4.775333e-01   6.207078e-03
  2.713335e+00    4.858918e-01   6.255087e-03
  2.715546e+00    4.783650e-01   6.200060e-03
  2.717756e+00    4.822002e-01   6.218986e-03
  2.719967e+00    4.901540e-01   6.263833e-03
  2.722177e+00    4.863359e-01   6.233275e-03
  2.724387e+00    4.832745e-01   6.207512e-03
  2.726598e+00    4.899112e-01   6.243919e-03
  2.728808e+00    4.869596e-01   6.218913e-03
  2.731019e+00    4.803076e-01   6.170206e-03
  2.733229e+00    4.839525e-01   6.187757e-03
  2.735440e+00    4.898302e-01   6.218914e-03
  2.737650e+00    4.820016e-01   6.163026e-03
  2.739861e+00    4.690559e-01   6.073715e-03
  2.742071e+00    4.614041e-01   6.018351e-03
  2.744282e+00    4.785925e-01   6.123183e-03
  2.746492e+00    4.864839e-01   6.167430e-03
  2.748702e+00    4.706595e-01   6.060449e-03
  2.750913e+00    4.745879e-01   6.079940e-03
  2.753123e+00    4.811281e-01   6.115572e-03
  2.755334e+00    4.732199e-01   6.059085e-03
  2.757544e+00    4.695817e-01   6.030065e-03
  2.759755e+00    4.860401e-01   6.128905e-03
  2.761965e+00    4.913338e-01   6.156155e-03
  2.764176e+00    4.755800e-01   6.050695e-03
  2.766386e+00    4.834318e-01   6.094627e-03
  2.768597e+00    4.807272e-01   6.071688e-03
  2.770807e+00    4.797763e-01   6.059784e-03
  2.773017e+00    4.805792e-01   6.058889e-03
  2.775228e+00    4.770906e-01   6.031073e-03
  2.777438e+00    4.787312e-01   6.035634e-03
  2.779649e+00    4.873506e-01   6.083772e-03
  2.781859e+00    4.701337e-01   5.969640e-03
  2.784070e+00    4.671435e-01   5.944801e-03
  2.786280e+00    4.819146e-01   6.032279e-03
  2.788491e+00    4.772644e-01   5.997257e-03
  2.790701e+00    4.808706e-01   6.014207e-03
  2.792912e+00    4.799983e-01   6.002760e-03
  2.795122e+00    4.724894e-01   5.949911e-03
  2.797333e+00    4.699868e-01   5.928613e-03
  2.799543e+00    4.721801e-01   5.936578e-03
  2.801753e+00    4.762403e-01   5.956192e-03
  2.803964e+00    4.684536e-01   5.901680e-03
  2.806174e+00    4.785590e-01   5.958813e-03
  2.808385e+00    4.775128e-01   5.945488e-03
  2.810595e+00    4.640833e-01   5.854516e-03
  2.812806e+00    4.609206e-01   5.827990e-03
  2.815016e+00    4.767058e-01   5.922203e-03
  2.817227e+00    4.738425e-01   5.930305e-03
  2.819437e+00    4.806965e-01   5.984211e-03
  2.821648e+00    4.778269e-01   5.968623e-03
  2.823858e+00    4.759945e-01   5.962517e-03
  2.826068e+00    4.761848e-01   5.968708e-03
  2.828279e+00    4.719075e-01   5.945874e-03
  2.830489e+00    4.760245e-01   5.975104e-03
  2.832700e+00    4.766371e-01   5.981524e-03
  2.834910e+00    4.711456e-01   5.949029e-03
  2.837121e+00    4.711786e-01   5.950941e-03
  2.839331e+00    4.671740e-01   5.926829e-03
  2.841542e+00    4.753865e-01   5.979708e-03
  2.843752e+00    4.734787e-01   5.968497e-03
  2.845963e+00    4.713613e-01   5.955521e-03
  2.848173e+00    4.758154e-01   5.983685e-03
  2.850383e+00    4.795238e-01   6.007266e-03
  2.852594e+00    4.689078e-01   5.940302e-03
  2.854804e+00    4.703164e-01   5.948730e-03
  2.857015e+00    4.716857e-01   5.956921e-03
  2.859225e+00    4.772889e-01   5.991972e-03
  2.861436e+00    4.617519e-01   5.892978e-03
  2.863646e+00    4.667992e-01   5.925132e-03
  2.865857e+00    4.556713e-01   5.854428e-03
  2.868067e+00    4.575786e-01   5.866870e-03
  2.870278e+00    4.628434e-01   5.900181e-03
  2.872488e+00    4.624149e-01   5.896298e-03
  2.874698e+00    4.648895e-01   5.911001e-03
  2.876909e+00    4.686966e-01   5.933819e-03
  2.879119e+00    4.721804e-01   5.954193e-03
  2.881330e+00    4.526339e-01   5.828212e-03
  2.883540e+00    4.539452e-01   5.835246e-03
  2.885751e+00    4.674287e-01   5.919625e-03
  2.887961e+00    4.602890e-01   5.872377e-03
  2.890172e+00    4.509423e-01   5.810850e-03
  2.892382e+00    4.567856e-01   5.846582e-03
  2.894593e+00    4.591816e-01   5.860090e-03
  2.896803e+00    4.618667e-01   5.875201e-03
  2.899014e+00    4.535387e-01   5.820104e-03
  2.901224e+00    4.513679e-01   5.804197e-03
  2.903434e+00    4.524382e-01   5.809127e-03
  2.905645e+00    4.643922e-01   5.883127e-03
  2.907855e+00    4.744509e-01   5.944388e-03
  2.910066e+00    4.695690e-01   5.911623e-03
  2.912276e+00    4.568757e-01   5.829058e-03
  2.914487e+00    4.532944e-01   5.803711e-03
  2.916697e+00    4.638224e-01   5.868487e-03
  2.918908e+00    4.620556e-01   5.855300e-03
  2.921118e+00    4.731221e-01   5.922250e-03
  2.923329e+00    4.695129e-01   5.897286e-03
  2.925539e+00    4.625970e-01   5.851404e-03
  2.927749e+00    4.702001e-01   5.896918e-03
  2.929960e+00    4.626977e-01   5.846933e-03
  2.932170e+00    4.626207e-01   5.844075e-03
  2.934381e+00    4.588632e-01   5.817856e-03
  2.936591e+00    4.606222e-01   5.826411e-03
  2.938802e+00    4.555654e-01   5.791617e-03
  2.941012e+00    4.612889e-01   5.825548e-03
  2.943223e+00    4.665578e-01   5.855986e-03
  2.945433e+00    4.643898e-01   5.838611e-03
  2.947644e+00    4.553604e-01   5.777420e-03
  2.949854e+00    4.666527e-01   5.844298e-03
  2.952064e+00    4.663588e-01   5.838186e-03
  2.954275e+00    4.627911e-01   5.811364e-03
  2.956485e+00    4.594584e-01   5.786199e-03
  2.958696e+00    4.622925e-01   5.799599e-03
  2.960906e+00    4.505067e-01   5.721040e-03
  2.963117e+00    4.549747e-01   5.744843e-03
  2.965327e+00    4.501262e-01   5.710284e-03
  2.967538e+00    4.494749e-01   5.703230e-03
  2.969748e+00    4.453999e-01   5.674559e-03
  2.971959e+00    4.495587e-01   5.697839e-03
  2.974169e+00    4.590825e-01   5.755297e-03
  2.976379e+00    4.548844e-01   5.726005e-03
  2.978590e+00    4.618629e-01   5.766586e-03
  2.980800e+00    4.477344e-01   5.674935e-03
  2.983011e+00    4.484626e-01   5.676760e-03
  2.985221e+00    4.530432e-01   5.702528e-03
  2.987432e+00    4.552605e-01   5.713344e-03
  2.989642e+00    4.506602e-01   5.681808e-03
  2.991853e+00    4.491400e-01   5.668935e-03
  2.994063e+00    4.495048e-01   5.668354e-03
  2.996274e+00    4.433554e-01   5.626306e-03
  2.998484e+00    4.609993e-01   5.734417e-03
  3.000694e+00    4.673627e-01   5.770386e-03
  3.002905e+00    4.469822e-01   5.640246e-03
  3.005115e+00    4.513838e-01   5.664980e-03
  3.007326e+00    4.468367e-01   5.633214e-03
  3.009536e+00    4.622121e-01   5.726043e-03
  3.011747e+00    4.592108e-01   5.704500e-03
  3.013957e+00    4.533652e-01   5.664881e-03
  3.016168e+00    4.537322e-01   5.663917e-03
  3.018378e+00    4.560204e-01   5.675131e-03
  3.020589e+00    4.511139e-01   5.641304e-03
  3.022799e+00    4.509540e-01   5.637152e-03
  3.025010e+00    4.536384e-01   5.650660e-03
  3.027220e+00    4.597403e-01   5.685396e-03
  3.029430e+00    4.708558e-01   5.750411e-03
  3.031641e+00    4.621991e-01   5.694134e-03
  3.033851e+00    4.562747e-01   5.653998e-03
  3.036062e+00    4.531821e-01   5.632007e-03
  3.038272e+00    4.540647e-01   5.633896e-03
  3.040483e+00    4.595852e-01   5.664793e-03
  3.042693e+00    4.661402e-01   5.701744e-03
  3.044904e+00    4.518924e-01   5.609896e-03
  3.047114e+00    4.453710e-01   5.564485e-03
  3.049325e+00    4.613115e-01   5.658746e-03
  3.051535e+00    4.498112e-01   5.583398e-03
  3.053745e+00    4.401307e-01   5.518276e-03
  3.055956e+00    4.526334e-01   5.591522e-03
  3.058166e+00    4.568113e-01   5.612981e-03
  3.060377e+00    4.575632e-01   5.612792e-03
  3.062587e+00    4.571002e-01   5.605286e-03
  3.064798e+00    4.552633e-01   5.589727e-03
  3.067008e+00    4.480426e-01   5.540518e-03
  3.069219e+00    4.459456e-01   5.523016e-03
  3.071429e+00    4.529126e-01   5.562483e-03
  3.073640e+00    4.606536e-01   5.606448e-03
  3.075850e+00    4.619806e-01   5.610876e-03
  3.078060e+00    4.529745e-01   5.552808e-03
  3.080271e+00    4.406510e-01   5.473308e-03
  3.082481e+00    4.456867e-01   5.501052e-03
  3.084692e+00    4.481425e-01   5.512808e-03
  3.086902e+00    4.573098e-01   5.565635e-03
  3.089113e+00    4.454934e-01   5.489694e-03
  3.091323e+00    4.510470e-01   5.520433e-03
  3.093534e+00    4.393808e-01   5.445225e-03
  3.095744e+00    4.550644e-01   5.538142e-03
  3.097955e+00    4.557461e-01   5.538725e-03
  3.100165e+00    4.433616e-01   5.459631e-03
  3.102375e+00    4.584062e-01   5.548007e-03
  3.104586e+00    4.568037e-01   5.534797e-03
  3.106796e+00    4.413010e-01   5.436553e-03
  3.109007e+00    4.530779e-01   5.505378e-03
  3.111217e+00    4.497900e-01   5.481664e-03
  3.113428e+00    4.425282e-01   5.433840e-03
  3.115638e+00    4.426084e-01   5.431076e-03
  3.117849e+00    4.460216e-01   5.448281e-03
  3.120059e+00    4.521256e-01   5.481919e-03
  3.122270e+00    4.465576e-01   5.444816e-03
  3.124480e+00    4.510871e-01   5.468640e-03
  3.126691e+00    4.483990e-01   5.448752e-03
  3.128901e+00    4.426096e-01   5.410338e-03
  3.131111e+00    4.531756e-01   5.470661e-03
  3.133322e+00    4.325476e-01   5.341310e-03
  3.135532e+00    4.382359e-01   5.372924e-03
  3.137743e+00    4.488913e-01   5.434345e-03
  3.139953e+00    4.409958e-01   5.382698e-03
  3.142164e+00    4.412473e-01   5.396205e-03
  3.144374e+00    4.378187e-01   5.403452e-03
  3.146585e+00    4.462603e-01   5.469939e-03
  3.148795e+00    4.360910e-01   5.417950e-03
  3.151006e+00    4.345034e-01   5.416551e-03
  3.153216e+00    4.288159e-01   5.388013e-03
  3.155426e+00    4.410641e-01   5.470717e-03
  3.157637e+00    4.449073e-01   5.500074e-03
  3.159847e+00    4.319746e-01   5.424378e-03
  3.162058e+00    4.265596e-01   5.394607e-03
  3.164268e+00    4.298376e-01   5.419323e-03
  3.166479e+00    4.401531e-01   5.487609e-03
  3.168689e+00    4.532537e-01   5.572107e-03
  3.170900e+00    4.472082e-01   5.538023e-03
  3.173110e+00    4.480324e-01   5.546024e-03
  3.175321e+00    4.441929e-01   5.524725e-03
  3.177531e+00    4.425263e-01   5.517095e-03
  3.179741e+00    4.417908e-01   5.514601e-03
  3.181952e+00    4.265200e-01   5.420536e-03
  3.184162e+00    4.276826e-01   5.430077e-03
  3.186373e+00    4.346892e-01   5.475980e-03
  3.188583e+00    4.141390e-01   5.346721e-03
  3.190794e+00    4.376166e-01   5.497904e-03
  3.193004e+00    4.267165e-01   5.430271e-03
  3.195215e+00    4.206238e-01   5.392826e-03
  3.197425e+00    4.229273e-01   5.408762e-03
  3.199636e+00    4.402781e-01   5.517811e-03
  3.201846e+00    4.292724e-01   5.447840e-03
  3.204056e+00    4.310139e-01   5.459739e-03
  3.206267e+00    4.362016e-01   5.493353e-03
  3.208477e+00    4.388085e-01   5.510669e-03
  3.210688e+00    4.372903e-01   5.501993e-03
  3.212898e+00    4.214824e-01   5.402197e-03
  3.215109e+00    4.279105e-01   5.443961e-03
  3.217319e+00    4.324297e-01   5.473283e-03
  3.219530e+00    4.287930e-01   5.450624e-03
  3.221740e+00    4.301889e-01   5.460032e-03
  3.223951e+00    4.283890e-01   5.449075e-03
  3.226161e+00    4.285119e-01   5.450035e-03
  3.228372e+00    4.361445e-01   5.498901e-03
  3.230582e+00    4.315278e-01   5.469857e-03
  3.232792e+00    4.442852e-01   5.550350e-03
  3.235003e+00    4.269518e-01   5.441260e-03
  3.237213e+00    4.222961e-01   5.411595e-03
  3.239424e+00    4.232716e-01   5.417851e-03
  3.241634e+00    4.231173e-01   5.416977e-03
  3.243845e+00    4.359687e-01   5.498698e-03
  3.246055e+00    4.222502e-01   5.411244e-03
  3.248266e+00    4.327756e-01   5.478438e-03
  3.250476e+00    4.251926e-01   5.429974e-03
  3.252687e+00    3.949573e-01   5.233249e-03
  3.254897e+00    4.192033e-01   5.391355e-03
  3.257107e+00    4.251520e-01   5.429177e-03
  3.259318e+00    4.169329e-01   5.376216e-03
  3.261528e+00    4.169147e-01   5.375958e-03
  3.263739e+00    4.165426e-01   5.373005e-03
  3.265949e+00    4.254557e-01   5.430055e-03
  3.268160e+00    4.185755e-01   5.385580e-03
  3.270370e+00    4.148441e-01   5.360996e-03
  3.272581e+00    4.150379e-01   5.361981e-03
  3.274791e+00    4.228161e-01   5.411464e-03
  3.277002e+00    4.302060e-01   5.457970e-03
  3.279212e+00    4.344416e-01   5.484410e-03
  3.281422e+00    4.321656e-01   5.469435e-03
  3.283633e+00    4.119059e-01   5.339040e-03
  3.285843e+00    4.177711e-01   5.376562e-03
  3.288054e+00    4.190993e-01   5.384183e-03
  3.290264e+00    4.127528e-01   5.342941e-03
  3.292475e+00    4.077097e-01   5.309376e-03
  3.294685e+00    4.120591e-01   5.337005e-03
  3.296896e+00    4.169600e-01   5.367896e-03
  3.299106e+00    4.244739e-01   5.415477e-03
  3.301317e+00    4.345357e-01   5.478270e-03
  3.303527e+00    4.296191e-01   5.446709e-03
  3.305737e+00    4.225129e-01   5.400431e-03
  3.307948e+00    4.246686e-01   5.413521e-03
  3.310158e+00    4.266636e-01   5.425356e-03
  3.312369e+00    4.384890e-01   5.499148e-03
  3.314579e+00    4.166534e-01   5.359560e-03
  3.316790e+00    4.302245e-01   5.445441e-03
  3.319000e+00    4.175185e-01   5.363241e-03
  3.321211e+00    4.227463e-01   5.396111e-03
  3.323421e+00    4.331129e-01   5.460649e-03
  3.325632e+00    4.264519e-01   5.417609e-03
  3.327842e+00    4.027473e-01   5.264016e-03
  3.330052e+00    4.059753e-01   5.283963e-03
  3.332263e+00    4.268961e-01   5.417428e-03
  3.334473e+00    4.303148e-01   5.438110e-03
  3.336684e+00    4.300556e-01   5.435247e-03
  3.338894e+00    4.148655e-01   5.337528e-03
  3.341105e+00    4.198392e-01   5.368223e-03
  3.343315e+00    4.192533e-01   5.363345e-03
  3.345526e+00    4.164813e-01   5.344686e-03
  3.347736e+00    4.202919e-01   5.367671e-03
  3.349947e+00    4.039585e-01   5.261435e-03
  3.352157e+00    4.164743e-01   5.341124e-03
  3.354368e+00    4.162486e-01   5.338412e-03
  3.356578e+00    4.150475e-01   5.329695e-03
  3.358788e+00    3.944491e-01   5.194451e-03
  3.360999e+00    4.124688e-01   5.310543e-03
  3.363209e+00    3.931294e-01   5.183569e-03
  3.365420e+00    4.092344e-01   5.287165e-03
  3.367630e+00    4.111046e-01   5.298229e-03
  3.369841e+00    4.139691e-01   5.315243e-03
  3.372051e+00    4.196625e-01   5.349678e-03
  3.374262e+00    4.080890e-01   5.273000e-03
  3.376472e+00    4.157676e-01   5.319912e-03
  3.378683e+00    4.079525e-01   5.267204e-03
  3.380893e+00    4.071037e-01   5.259402e-03
  3.383103e+00    4.084476e-01   5.265406e-03
  3.385314e+00    4.120047e-01   5.286052e-03
  3.387524e+00    4.062974e-01   5.246623e-03
  3.389735e+00    4.122935e-01   5.282566e-03
  3.391945e+00    4.066289e-01   5.242493e-03
  3.394156e+00    4.006867e-01   5.199906e-03
  3.396366e+00    4.086469e-01   5.247901e-03
  3.398577e+00    4.008026e-01   5.194288e-03
  3.400787e+00    3.984896e-01   5.190994e-03
  3.402998e+00    4.077874e-01   5.289182e-03
  3.405208e+00    4.065151e-01   5.301601e-03
  3.407418e+00    4.029249e-01   5.293953e-03
  3.409629e+00    4.165077e-01   5.396675e-03
  3.411839e+00    4.004218e-01   5.303258e-03
  3.414050e+00    3.886474e-01   5.235556e-03
  3.416260e+00    3.903856e-01   5.256837e-03
  3.418471e+00    3.959104e-01   5.303359e-03
  3.420681e+00    3.990619e-01   5.332992e-03
  3.422892e+00    3.903774e-01   5.282644e-03
  3.425102e+00    3.976384e-01   5.339417e-03
  3.427313e+00    4.036112e-01   5.386726e-03
  3.429523e+00    3.872388e-01   5.283389e-03
  3.431733e+00    3.749495e-01   5.205458e-03
  3.433944e+00    3.853502e-01   5.283638e-03
  3.436154e+00    3.906861e-01   5.326387e-03
  3.438365e+00    3.892158e-01   5.322356e-03
  3.440575e+00    3.990891e-01   5.395522e-03
  3.442786e+00    3.929388e-01   5.359483e-03
  3.444996e+00    3.807221e-01   5.281037e-03
  3.447207e+00    3.811929e-01   5.289634e-03
  3.449417e+00    3.760185e-01   5.294688e-03
  3.451628e+00    3.715937e-01   5.292973e-03
  3.453838e+00    3.666433e-01   5.278725e-03
  3.456049e+00    3.732663e-01   5.350317e-03
  3.458259e+00    3.714473e-01   5.359333e-03
  3.460469e+00    3.748934e-01   5.404155e-03
  3.462680e+00    3.702484e-01   5.389735e-03
  3.464890e+00    3.773246e-01   5.459046e-03
  3.467101e+00    3.609979e-01   5.356980e-03
  3.469311e+00    3.756512e-01   5.481229e-03
  3.471522e+00    3.843555e-01   5.561024e-03
  3.473732e+00    3.910040e-01   5.625096e-03
  3.475943e+00    3.975118e-01   5.687709e-03
  3.478153e+00    4.041194e-01   5.750572e-03
  3.480364e+00    4.119009e-01   5.821147e-03
  3.482574e+00    4.287110e-01   5.954568e-03
  3.484784e+00    4.285103e-01   5.968357e-03
  3.486995e+00    4.341756e-01   6.023115e-03
  3.489205e+00    4.356924e-01   6.048512e-03
  3.491416e+00    4.452967e-01   6.130028e-03
  3.493626e+00    4.398848e-01   6.107362e-03
  3.495837e+00    4.446199e-01   6.154953e-03
  3.498047e+00    4.524935e-01   6.223834e-03
  3.500258e+00    4.581972e-01   6.277607e-03
  3.502468e+00    4.679987e-01   6.359046e-03
  3.504679e+00    4.713363e-01   6.396336e-03
  3.506889e+00    4.703108e-01   6.403887e-03
  3.509099e+00    4.655574e-01   6.385702e-03
  3.511310e+00    4.786218e-01   6.489196e-03
  3.513520e+00    4.817016e-01   6.524424e-03
  3.515731e+00    4.997645e-01   6.660217e-03
  3.517941e+00    4.956601e-01   6.647270e-03
  3.520152e+00    4.953348e-01   6.659405e-03
  3.522362e+00    5.039851e-01   6.731845e-03
  3.524573e+00    5.097461e-01   6.784510e-03
  3.526783e+00    5.216926e-01   6.877070e-03
  3.528994e+00    5.093613e-01   6.807472e-03
  3.531204e+00    5.150524e-01   6.857748e-03
  3.533414e+00    5.343963e-01   6.997531e-03
  3.535625e+00    5.280132e-01   6.968003e-03
  3.537835e+00    5.335171e-01   7.016319e-03
  3.540046e+00    5.418394e-01   7.079832e-03
  3.542256e+00    5.351025e-01   7.043218e-03
  3.544467e+00    5.412336e-01   7.091088e-03
  3.546677e+00    5.585965e-01   7.211694e-03
  3.548888e+00    5.354840e-01   7.068413e-03
  3.551098e+00    5.349718e-01   7.072303e-03
  3.553309e+00    5.439209e-01   7.139456e-03
  3.555519e+00    5.453897e-01   7.160445e-03
  3.557729e+00    5.413867e-01   7.145927e-03
  3.559940e+00    5.379452e-01   7.134744e-03
  3.562150e+00    5.442040e-01   7.187926e-03
  3.564361e+00    5.364557e-01   7.149902e-03
  3.566571e+00    5.366655e-01   7.165131e-03
  3.568782e+00    5.390322e-01   7.195076e-03
  3.570992e+00    5.540435e-01   7.308540e-03
  3.573203e+00    5.564085e-01   7.338550e-03
  3.575413e+00    5.268880e-01   7.154912e-03
  3.577624e+00    5.281892e-01   7.177722e-03
  3.579834e+00    5.373606e-01   7.253665e-03
  3.582045e+00    5.462357e-01   7.327487e-03
  3.584255e+00    5.565961e-01   7.410985e-03
  3.586465e+00    5.381071e-01   7.300835e-03
  3.588676e+00    5.307729e-01   7.265022e-03
  3.590886e+00    5.335902e-01   7.297939e-03
  3.593097e+00    5.517945e-01   7.436091e-03
  3.595307e+00    5.355595e-01   7.339838e-03
  3.597518e+00    5.406728e-01   7.389077e-03
  3.599728e+00    5.335953e-01   7.354588e-03
  3.601939e+00    5.359831e-01   7.385144e-03
  3.604149e+00    5.383017e-01   7.415511e-03
  3.606360e+00    5.371737e-01   7.421910e-03
  3.608570e+00    5.469102e-01   7.503171e-03
  3.610780e+00    5.394183e-01   7.462757e-03
  3.612991e+00    5.232159e-01   7.359695e-03
  3.615201e+00    5.453718e-01   7.523781e-03
  3.617412e+00    5.437428e-01   7.519893e-03
  3.619622e+00    5.523647e-01   7.585331e-03
  3.621833e+00    5.293752e-01   7.432498e-03
  3.624043e+00    5.340886e-01   7.474956e-03
  3.626254e+00    5.520353e-01   7.609424e-03
  3.628464e+00    5.449560e-01   7.571531e-03
  3.630675e+00    5.510249e-01   7.627951e-03
  3.632885e+00    5.252449e-01   7.461686e-03
  3.635095e+00    5.251520e-01   7.475315e-03
  3.637306e+00    5.461928e-01   7.638121e-03
  3.639516e+00    5.436463e-01   7.634978e-03
  3.641727e+00    5.377373e-01   7.608004e-03
  3.643937e+00    5.230985e-01   7.518135e-03
  3.646148e+00    5.454239e-01   7.691651e-03
  3.648358e+00    5.339168e-01   7.624980e-03
  3.650569e+00    5.375001e-01   7.665311e-03
  3.652779e+00    5.317600e-01   7.639046e-03
  3.654990e+00    5.384339e-01   7.701776e-03
  3.657200e+00    5.410905e-01   7.735802e-03
  3.659410e+00    5.062202e-01   7.496969e-03
  3.661621e+00    5.377922e-01   7.742386e-03
  3.663831e+00    5.284901e-01   7.690240e-03
  3.666042e+00    5.247058e-01   7.677702e-03
  3.668252e+00    5.514009e-01   7.886090e-03
  3.670463e+00    5.430372e-01   7.841500e-03
  3.672673e+00    5.344455e-01   7.794691e-03
  3.674884e+00    5.247388e-01   7.738872e-03
  3.677094e+00    5.276492e-01   7.775787e-03
  3.679305e+00    5.384473e-01   7.870589e-03
  3.681515e+00    5.443744e-01   7.929656e-03
  3.683726e+00    5.357240e-01   7.882288e-03
  3.685936e+00    5.339183e-01   7.884766e-03
  3.688146e+00    5.383756e-01   7.933523e-03
  3.690357e+00    5.441764e-01   7.992372e-03
  3.692567e+00    5.272065e-01   7.882874e-03
  3.694778e+00    5.154477e-01   7.810347e-03
  3.696988e+00    5.118696e-01   7.798987e-03
  3.699199e+00    5.292148e-01   7.946236e-03
  3.701409e+00    5.415603e-01   8.055108e-03
  3.703620e+00    5.360626e-01   8.030546e-03
  3.705830e+00    5.391550e-01   8.070328e-03
  3.708041e+00    5.175812e-01   7.923740e-03
  3.710251e+00    5.258293e-01   8.003307e-03
  3.712461e+00    5.285193e-01   8.040652e-03
  3.714672e+00    4.970358e-01   7.813800e-03
  3.716882e+00    5.024630e-01   7.872733e-03
  3.719093e+00    5.176098e-01   8.007599e-03
  3.721303e+00    5.098157e-01   7.963901e-03
  3.723514e+00    5.108739e-01   7.989294e-03
  3.725724e+00    5.282328e-01   8.141191e-03
  3.727935e+00    5.153177e-01   8.058480e-03
  3.730145e+00    5.303513e-01   8.192745e-03
  3.732356e+00    5.092562e-01   8.045511e-03
  3.734566e+00    5.458156e-01   8.347421e-03
  3.736776e+00    5.240850e-01   8.197460e-03
  3.738987e+00    5.196964e-01   8.180902e-03
  3.741197e+00    5.237318e-01   8.230790e-03
  3.743408e+00    4.994265e-01   8.055358e-03
  3.745618e+00    5.013719e-01   8.089097e-03
  3.747829e+00    5.209849e-01   8.264083e-03
  3.750039e+00    5.062296e-01   8.164468e-03
  3.752250e+00    4.982551e-01   8.118206e-03
  3.754460e+00    5.110252e-01   8.240078e-03
  3.756671e+00    5.231969e-01   8.356692e-03
  3.758881e+00    5.110512e-01   8.277843e-03
  3.761091e+00    5.044478e-01   8.243235e-03
  3.763302e+00    4.956611e-01   8.189959e-03
  3.765512e+00    5.036352e-01   8.274768e-03
  3.767723e+00    5.336508e-01   8.537586e-03
  3.769933e+00    5.414026e-01   8.619415e-03
  3.772144e+00    5.208958e-01   8.474476e-03
  3.774354e+00    5.064501e-01   8.375978e-03
  3.776565e+00    5.178417e-01   8.489716e-03
  3.778775e+00    5.149963e-01   8.486564e-03
  3.780986e+00    5.163281e-01   8.518097e-03
  3.783196e+00    4.964555e-01   8.372636e-03
  3.785407e+00    4.960862e-01   8.389823e-03
  3.787617e+00    5.137626e-01   8.558922e-03
  3.789827e+00    5.146849e-01   8.587437e-03
  3.792038e+00    5.170808e-01   8.628523e-03
  3.794248e+00    5.121107e-01   8.608366e-03
  3.796459e+00    4.935676e-01   8.472257e-03
  3.798669e+00    5.041754e-01   8.584267e-03
  3.800880e+00    4.985589e-01   8.557688e-03
  3.803090e+00    5.151581e-01   8.721125e-03
  3.805301e+00    4.955453e-01   8.575531e-03
  3.807511e+00    5.188838e-01   8.797559e-03
  3.809722e+00    5.242302e-01   8.865523e-03
  3.811932e+00    5.160452e-01   8.818598e-03
  3.814142e+00    5.110932e-01   8.799395e-03
  3.816353e+00    5.001475e-01   8.727504e-03
  3.818563e+00    4.889510e-01   8.652140e-03
  3.820774e+00    4.838330e-01   8.629538e-03
  3.822984e+00    4.762036e-01   8.584122e-03
  3.825195e+00    4.806952e-01   8.647786e-03
  3.827405e+00    5.006703e-01   8.849584e-03
  3.829616e+00    5.035630e-01   8.899353e-03
  3.831826e+00    4.986956e-01   8.880444e-03
  3.834037e+00    5.007398e-01   8.923224e-03
  3.836247e+00    4.850315e-01   8.806550e-03
  3.838457e+00    4.512659e-01   8.518321e-03
  3.840668e+00    4.808378e-01   8.817773e-03
  3.842878e+00    4.908591e-01   8.934596e-03
  3.845089e+00    4.720097e-01   8.786304e-03
  3.847299e+00    4.929753e-01   9.005089e-03
  3.849510e+00    5.065337e-01   9.154161e-03
  3.851720e+00    4.954194e-01   9.074667e-03
  3.853931e+00    5.028959e-01   9.161999e-03
  3.856141e+00    5.036820e-01   9.188327e-03
  3.858352e+00    5.044052e-01   9.214377e-03
  3.860562e+00    4.922397e-01   9.121871e-03
  3.862772e+00    4.896099e-01   9.117009e-03
  3.864983e+00    4.670048e-01   8.923112e-03
  3.867193e+00    4.868944e-01   9.130826e-03
  3.869404e+00    4.956562e-01   9.232444e-03
  3.871614e+00    4.928825e-01   9.226548e-03
  3.873825e+00    5.239390e-01   9.533771e-03
  3.876035e+00    4.968122e-01   9.304316e-03
  3.878246e+00    5.008830e-01   9.368356e-03
  3.880456e+00    5.081996e-01   9.465944e-03
  3.882667e+00    4.990309e-01   9.409781e-03
  3.884877e+00    5.169717e-01   9.607838e-03
  3.887087e+00    5.196230e-01   9.663312e-03
  3.889298e+00    5.027736e-01   9.536070e-03
  3.891508e+00    5.089028e-01   9.625021e-03
  3.893719e+00    4.957226e-01   9.530803e-03
  3.895929e+00    4.798765e-01   9.408305e-03
  3.898140e+00    4.964561e-01   9.601300e-03
  3.900350e+00    4.887124e-01   9.558165e-03
  3.902561e+00    4.894925e-01   9.598245e-03
  3.904771e+00    4.572028e-01   9.307850e-03
  3.906982e+00    5.019938e-01   9.786800e-03
  3.909192e+00    4.851441e-01   9.654501e-03
  3.911403e+00    4.781497e-01   9.618185e-03
  3.913613e+00    4.958506e-01   9.829201e-03
  3.915823e+00    4.765005e-01   9.669869e-03
  3.918034e+00    4.874512e-01   9.815559e-03
  3.920244e+00    5.094001e-01   1.007058e-02
  3.922455e+00    4.791000e-01   9.802311e-03
  3.924665e+00    4.719163e-01   9.764294e-03
  3.926876e+00    5.051749e-01   1.014025e-02
  3.929086e+00    4.906251e-01   1.003072e-02
  3.931297e+00    4.992455e-01   1.015355e-02
  3.933507e+00    5.114650e-01   1.030679e-02
  3.935718e+00    5.273925e-01   1.049590e-02
  3.937928e+00    5.222878e-01   1.047556e-02
  3.940138e+00    4.831493e-01   1.010457e-02
  3.942349e+00    5.129552e-01   1.044219e-02
  3.944559e+00    4.780932e-01   1.011087e-02
  3.946770e+00    4.855475e-01   1.021957e-02
  3.948980e+00    4.844378e-01   1.023839e-02
  3.951191e+00    4.874155e-01   1.030081e-02
  3.953401e+00    4.881535e-01   1.033995e-02
  3.955612e+00    4.974741e-01   1.047025e-02
  3.957822e+00    4.811946e-01   1.032900e-02
  3.960033e+00    4.878998e-01   1.043343e-02
  3.962243e+00    5.071021e-01   1.067033e-02
  3.964453e+00    4.816031e-01   1.043156e-02
  3.966664e+00    5.072203e-01   1.073953e-02
  3.968874e+00    4.770950e-01   1.044386e-02
  3.971085e+00    5.183899e-01   1.090910e-02
  3.973295e+00    4.701679e-01   1.041055e-02
  3.975506e+00    4.806150e-01   1.054696e-02
  3.977716e+00    5.194818e-01   1.098789e-02
  3.979927e+00    4.890943e-01   1.068401e-02
  3.982137e+00    4.551817e-01   1.032845e-02
  3.984348e+00    4.998029e-01   1.084577e-02
  3.986558e+00    4.800641e-01   1.065159e-02
  3.988768e+00    4.995476e-01   1.088902e-02
  3.990979e+00    5.040718e-01   1.096134e-02
  3.993189e+00    4.899998e-01   1.083052e-02
  3.995400e+00    4.815955e-01   1.076064e-02
  3.997610e+00    4.703825e-01   1.066405e-02
  3.999821e+00    4.745677e-01   1.074845e-02
  4.002031e+00    4.982923e-01   1.105276e-02
  4.004242e+00    4.988568e-01   1.109806e-02
  4.006452e+00    5.074469e-01   1.123353e-02
  4.008663e+00    4.881743e-01   1.105833e-02
  4.010873e+00    4.562615e-01   1.072954e-02
  4.013084e+00    4.492554e-01   1.068616e-02
  4.015294e+00    4.978726e-01   1.129116e-02
  4.017504e+00    4.771881e-01   1.109564e-02
  4.019715e+00    4.915755e-01   1.130444e-02
  4.021925e+00    4.687286e-01   1.108104e-02
  4.024136e+00    4.518007e-01   1.092124e-02
  4.026346e+00    4.832377e-01   1.133893e-02
  4.028557e+00    4.791205e-01   1.133459e-02
  4.030767e+00    5.007814e-01   1.163446e-02
  4.032978e+00    4.697222e-01   1.131346e-02
  4.035188e+00    4.819731e-01   1.150617e-02
  4.037399e+00    5.146894e-01   1.193930e-02
  4.039609e+00    5.306111e-01   1.217273e-02
  4.041819e+00    5.020415e-01   1.189010e-02
  4.044030e+00    4.748482e-01   1.161309e-02
  4.046240e+00    4.616728e-01   1.149962e-02
  4.048451e+00    4.755161e-01   1.172118e-02
  4.050661e+00    4.652554e-01   1.164465e-02
  4.052872e+00    4.632956e-01   1.167169e-02
  4.055082e+00    4.973375e-01   1.214717e-02
  4.057293e+00    5.204172e-01   1.248174e-02
  4.059503e+00    4.465527e-01   1.161472e-02
  4.061714e+00    4.574911e-01   1.181092e-02
  4.063924e+00    4.574248e-01   1.186541e-02
  4.066134e+00    4.969326e-01   1.242550e-02
  4.068345e+00    4.546770e-01   1.194281e-02
  4.070555e+00    4.604025e-01   1.207555e-02
  4.072766e+00    5.314304e-01   1.303767e-02
  4.074976e+00    4.559380e-01   1.213638e-02
  4.077187e+00    4.975136e-01   1.274072e-02
  4.079397e+00    4.559046e-01   1.225853e-02
  4.081608e+00    4.636661e-01   1.242673e-02
  4.083818e+00    4.846759e-01   1.277122e-02
  4.086029e+00    4.924991e-01   1.294178e-02
  4.088239e+00    4.576845e-01   1.254316e-02
  4.090449e+00    4.611980e-01   1.265951e-02
  4.092660e+00    4.777765e-01   1.295588e-02
  4.094870e+00    4.805150e-01   1.306521e-02
  4.097081e+00    5.104636e-01   1.353999e-02
  4.099291e+00    5.075359e-01   1.355695e-02
  4.101502e+00    5.129768e-01   1.368036e-02
  4.103712e+00    4.693341e-01   1.313415e-02
  4.105923e+00    4.880212e-01   1.344500e-02
  4.108133e+00    4.936904e-01   1.357496e-02
  4.110344e+00    4.689252e-01   1.328080e-02
  4.112554e+00    4.649050e-01   1.327575e-02
  4.114764e+00    4.799563e-01   1.354350e-02
  4.116975e+00    4.932989e-01   1.378428e-02
  4.119185e+00    4.729199e-01   1.355147e-02
  4.121396e+00    4.619591e-01   1.344885e-02
  4.123606e+00    4.947245e-01   1.397467e-02
  4.125817e+00    4.773867e-01   1.378507e-02
  4.128027e+00    4.887470e-01   1.400695e-02
  4.130238e+00    5.081214e-01   1.434305e-02
  4.132448e+00    4.848188e-01   1.407121e-02
  4.134659e+00    4.640591e-01   1.382587e-02
  4.136869e+00    4.393724e-01   1.351306e-02
  4.139080e+00    4.885820e-01   1.431385e-02
  4.141290e+00    5.255806e-01   1.491180e-02
  4.143500e+00    4.975789e-01   1.457607e-02
  4.145711e+00    4.726044e-01   1.427192e-02
  4.147921e+00    4.511697e-01   1.400844e-02
  4.150132e+00    4.952391e-01   1.474661e-02
  4.152342e+00    5.473281e-01   1.557797e-02
  4.154553e+00    4.538645e-01   1.425325e-02
  4.156763e+00    5.229567e-01   1.537518e-02
  4.158974e+00    4.901358e-01   1.495992e-02
  4.161184e+00    5.344715e-01   1.569917e-02
  4.163395e+00    5.171999e-01   1.552259e-02
  4.165605e+00    4.195072e-01   1.405228e-02
  4.167815e+00    5.027655e-01   1.546399e-02
  4.170026e+00    4.865774e-01   1.529338e-02
  4.172236e+00    5.097401e-01   1.573750e-02
  4.174447e+00    5.362030e-01   1.622886e-02
  4.176657e+00    4.652222e-01   1.519924e-02
  4.178868e+00    4.972447e-01   1.580252e-02
  4.181078e+00    4.510422e-01   1.513510e-02
  4.183289e+00    4.677878e-01   1.550188e-02
  4.185499e+00    5.111954e-01   1.630074e-02
  4.187710e+00    4.766361e-01   1.583236e-02
  4.189920e+00    4.956962e-01   1.624289e-02
  4.192130e+00    4.639456e-01   1.581047e-02
  4.194341e+00    4.550812e-01   1.575439e-02
  4.196551e+00    4.352718e-01   1.550533e-02
  4.198762e+00    4.897807e-01   1.655195e-02
  4.200972e+00    4.018180e-01   1.508931e-02
  4.203183e+00    4.220614e-01   1.556646e-02
  4.205393e+00    5.097114e-01   1.722055e-02
  4.207604e+00    4.765814e-01   1.676503e-02
  4.209814e+00    5.288210e-01   1.778120e-02
  4.212025e+00    4.987281e-01   1.739027e-02
  4.214235e+00    4.945321e-01   1.743964e-02
  4.216445e+00    4.624512e-01   1.698650e-02
  4.218656e+00    4.564896e-01   1.700320e-02
  4.220866e+00    4.696607e-01   1.737420e-02
  4.223077e+00    5.146508e-01   1.832725e-02
  4.225287e+00    5.312127e-01   1.876663e-02
  4.227498e+00    4.660318e-01   1.771535e-02
  4.229708e+00    4.893074e-01   1.829976e-02
  4.231919e+00    5.070609e-01   1.878310e-02
  4.234129e+00    4.735143e-01   1.830334e-02
  4.236340e+00    4.836739e-01   1.865687e-02
  4.238550e+00    4.638327e-01   1.843149e-02
  4.240761e+00    4.609310e-01   1.853618e-02
  4.242971e+00    4.087924e-01   1.761605e-02
  4.245181e+00    4.309756e-01   1.825779e-02
  4.247392e+00    4.942284e-01   1.973432e-02
  4.249602e+00    4.478417e-01   1.897227e-02
  4.251813e+00    3.835595e-01   1.773070e-02
  4.254023e+00    4.558584e-01   1.952437e-02
  4.256234e+00    5.245056e-01   2.116708e-02
  4.258444e+00    4.834892e-01   2.053528e-02
  4.260655e+00    3.897693e-01   1.864057e-02
  4.262865e+00    4.563455e-01   2.039815e-02
  4.265076e+00    4.646176e-01   2.081648e-02
  4.267286e+00    5.584238e-01   2.309216e-02
  4.269496e+00    4.498267e-01   2.097870e-02
  4.271707e+00    5.127426e-01   2.267398e-02
  4.273917e+00    4.729494e-01   2.205805e-02
  4.276128e+00    4.710140e-01   2.230493e-02
  4.278338e+00    4.697337e-01   2.257285e-02
  4.280549e+00    4.495194e-01   2.239821e-02
  4.282759e+00    4.049335e-01   2.156376e-02
  4.284970e+00    4.576531e-01   2.326387e-02
  4.287180e+00    5.010023e-01   2.463251e-02
  4.289391e+00    4.810900e-01   2.431917e-02
  4.291601e+00    4.313216e-01   2.321101e-02
  4.293811e+00    4.056815e-01   2.268663e-02
  4.296022e+00    4.841310e-01   2.498134e-02
  4.298232e+00    5.228116e-01   2.617938e-02
  4.300443e+00    4.450183e-01   2.435115e-02
  4.302653e+00    5.124081e-01   2.635702e-02
  4.304864e+00    4.878771e-01   2.594085e-02
  4.307074e+00    5.313829e-01   2.731560e-02
  4.309285e+00    5.855969e-01   2.893663e-02
  4.311495e+00    3.879418e-01   2.377262e-02
  4.313706e+00    4.242525e-01   2.509376e-02
  4.315916e+00    4.046396e-01   2.474736e-02
  4.318126e+00    5.009735e-01   2.780891e-02
  4.320337e+00    4.498270e-01   2.661723e-02
  4.322547e+00    4.925646e-01   2.814901e-02
  4.324758e+00    4.731678e-01   2.787590e-02
  4.326968e+00    5.157242e-01   2.942965e-02
  4.329179e+00    5.328711e-01   3.024586e-02
  4.331389e+00    4.404493e-01   2.781427e-02
  4.333600e+00    3.970480e-01   2.672434e-02
  4.335810e+00    4.917347e-01   3.009325e-02
  4.338021e+00    4.574828e-01   2.939851e-02
  4.340231e+00    4.917584e-01   3.086224e-02
  4.342442e+00    5.461338e-01   3.296003e-02
  4.344652e+00    3.973993e-01   2.849893e-02
  4.346862e+00    3.746403e-01   2.805651e-02
  4.349073e+00    4.063594e-01   2.964644e-02
  4.351283e+00    3.603336e-01   2.833375e-02
  4.353494e+00    5.922607e-01   3.688536e-02
  4.355704e+00    4.862720e-01   3.396229e-02
  4.357915e+00    4.788214e-01   3.426091e-02
  4.360125e+00    5.099028e-01   3.595902e-02
  4.362336e+00    5.496973e-01   3.801683e-02
  4.364546e+00    4.536979e-01   3.516638e-02
  4.366757e+00    6.290271e-01   4.223150e-02
  4.368967e+00    5.258411e-01   3.938294e-02
  4.371177e+00    4.348546e-01   3.657587e-02
  4.373388e+00    5.686576e-01   4.275971e-02
  4.375598e+00    4.926413e-01   4.070979e-02
  4.377809e+00    4.275688e-01   3.888314e-02
  4.380019e+00    4.165815e-01   3.934748e-02
  4.382230e+00    4.459514e-01   4.184564e-02
  4.384440e+00    3.783921e-01   3.965393e-02
  4.386651e+00    5.048499e-01   4.721728e-02
  4.388861e+00    7.333577e-01   5.881752e-02
  4.391072e+00    6.940262e-01   5.922984e-02
  4.393282e+00    4.753847e-01   5.091509e-02
  4.395492e+00    5.289381e-01   5.593646e-02
  4.397703e+00    4.041728e-01   5.113453e-02
  4.399913e+00    4.327842e-01   5.558831e-02
  4.402124e+00    2.544707e-01   4.504599e-02
  4.404334e+00    4.895284e-01   6.640882e-02
  4.406545e+00    1.084050e-01   3.357244e-02
  4.408755e+00    4.319926e-01   7.269532e-02
  4.410966e+00    5.631053e-01   9.185176e-02
  4.413176e+00    1.552984e-01   5.462430e-02
  4.415387e+00   -6.262586e-01            nan
  4.417597e+00   -1.836953e+00            nan
  4.419807e+00    1.372970e-01   1.330704e-01
