# == pyFAI calibration ==
# Distance Sample to Detector: 0.216 m
# PONI: 1.166e-01, 1.308e-01 m
# Rotations: 0.000000 0.000000 0.000000 rad
# 
# == Fit2d calibration ==
# Distance Sample-beamCenter: 216.000 mm
# Center: x=1744.293, y=1555.000 pix
# Tilt: 0.000 deg  TiltPlanRot: 0.000 deg
# 
# Detector Eiger 9M	 PixelSize= 7.500e-05, 7.500e-05 m
#    Detector has a mask: True 
#    Detector has a dark current: False 
#    detector has a flat field: False 
# 
# Wavelength: 9.8e-11 m
# Mask applied: from detector
# Dark current applied: False
# Flat field applied: False
# Polarization factor: None
# Normalization factor: 1.0
# 
# Headers of the input frame:
# {
# "_array_data.header_convention": "SLS_1.0",
# "_array_data.header_contents": "# Detector: Dectris Eiger 9M, S/N E-18-0102\r\n# Pixel_size 75e-6 m x 75e-6 m\r\n# Silicon sensor, thickness 0.000450 m\r\n# Exposure_time 0.024997 s\r\n# Exposure_period 0.025000 s\r\n# Count_cutoff 62318 counts\r\n# Wavelength 0.980106 A\r\n# Detector_distance 0.215992 m\r\n# Beam_xy (1555, 1744) pixels\r\n# Start_angle 0.000000 deg.\r\n# Angle_increment 0.000000 deg.",
# "Content-Type": "application/octet-stream;",
# "conversions": "x-CBF_BYTE_OFFSET",
# "Content-Transfer-Encoding": "BINARY",
# "X-Binary-Size": "10166618",
# "X-Binary-ID": "1",
# "X-Binary-Element-Type": "signed 32-bit integer",
# "X-Binary-Element-Byte-Order": "LITTLE_ENDIAN",
# "Content-MD5": "M7qt9hMsqp1jBMzPBrNhlQ==",
# "X-Binary-Number-of-Elements": "10166590",
# "X-Binary-Size-Fastest-Dimension": "3110",
# "X-Binary-Size-Second-Dimension": "3269",
# "X-Binary-Size-Padding": "4095"
# }
# --> H:/Proxima2a_2019-04-05/RAW_DATA/C5_gel17_position5/C5_mesh_1_data.cbf/C5_mesh_1_data.cbf000167.dat
#        q_A^-1              I           sigma 
  1.105228e-03    2.287084e+00   8.183293e-01
  3.315685e-03    1.762551e+00   4.367333e-01
  5.526141e-03    1.737663e+00   3.353165e-01
  7.736597e-03    1.314708e+00   2.463967e-01
  9.947054e-03    1.236615e+00   2.106657e-01
  1.215751e-02    1.596479e+00   2.164463e-01
  1.436797e-02    1.521628e+00   1.943704e-01
  1.657842e-02    1.407959e+00   1.740361e-01
  1.878888e-02    1.339571e+00   1.594580e-01
  2.099934e-02    1.351877e+00   1.515552e-01
  2.320979e-02    1.249766e+00   1.385949e-01
  2.542025e-02    1.520951e+00   1.461057e-01
  2.763070e-02    1.352102e+00   1.321281e-01
  2.984116e-02    1.243178e+00   1.219111e-01
  3.205162e-02    1.259381e+00   1.184035e-01
  3.426207e-02    1.401394e+00   1.207967e-01
  3.647253e-02    1.430954e+00   1.183049e-01
  3.868299e-02    1.444771e+00   1.154370e-01
  4.089344e-02    1.469193e+00   1.132192e-01
  4.310390e-02    1.377185e+00   1.067628e-01
  4.531436e-02    1.406102e+00   1.052141e-01
  4.752481e-02    1.496884e+00   1.060018e-01
  4.973527e-02    1.443855e+00   1.017686e-01
  5.194572e-02    1.405546e+00   9.824838e-02
  5.415618e-02    1.407632e+00   9.629048e-02
  5.636664e-02    1.461412e+00   9.617265e-02
  5.857709e-02    1.513168e+00   9.599711e-02
  6.078755e-02    1.584274e+00   9.642120e-02
  6.299801e-02    1.536255e+00   9.326701e-02
  6.520846e-02    1.474029e+00   8.979741e-02
  6.741892e-02    1.589713e+00   9.170843e-02
  6.962938e-02    1.548191e+00   8.905917e-02
  7.183983e-02    1.513478e+00   8.668824e-02
  7.405029e-02    1.432669e+00   8.307192e-02
  7.626074e-02    1.390948e+00   8.065769e-02
  7.847120e-02    1.429529e+00   8.060658e-02
  8.068166e-02    1.425410e+00   7.937948e-02
  8.289211e-02    1.458248e+00   7.921043e-02
  8.510257e-02    1.404574e+00   7.672233e-02
  8.731303e-02    1.441897e+00   7.674176e-02
  8.952348e-02    1.521200e+00   7.784680e-02
  9.173394e-02    1.507770e+00   7.655991e-02
  9.394439e-02    1.432605e+00   7.374161e-02
  9.615485e-02    1.393258e+00   7.187959e-02
  9.836531e-02    1.454024e+00   7.259858e-02
  1.005758e-01    1.615131e+00   7.566991e-02
  1.027862e-01    1.564085e+00   7.365769e-02
  1.049967e-01    1.559123e+00   7.276125e-02
  1.072071e-01    1.564726e+00   7.213566e-02
  1.094176e-01    1.490503e+00   6.968813e-02
  1.116280e-01    1.593296e+00   7.133257e-02
  1.138385e-01    1.569767e+00   7.011179e-02
  1.160490e-01    1.523637e+00   6.841206e-02
  1.182594e-01    1.508665e+00   6.743445e-02
  1.204699e-01    1.484982e+00   6.628589e-02
  1.226803e-01    1.452068e+00   6.495132e-02
  1.248908e-01    1.536897e+00   6.622680e-02
  1.271012e-01    1.572593e+00   6.640511e-02
  1.293117e-01    1.660792e+00   6.765522e-02
  1.315222e-01    1.600809e+00   6.586020e-02
  1.337326e-01    1.612593e+00   6.555231e-02
  1.359431e-01    1.605220e+00   6.544057e-02
  1.381535e-01    1.484034e+00   6.376650e-02
  1.403640e-01    1.498843e+00   6.436056e-02
  1.425744e-01    1.505789e+00   6.461256e-02
  1.447849e-01    1.547240e+00   6.551095e-02
  1.469953e-01    1.519997e+00   6.489097e-02
  1.492058e-01    1.485775e+00   6.408177e-02
  1.514163e-01    1.539392e+00   6.511945e-02
  1.536267e-01    1.499629e+00   6.414745e-02
  1.558372e-01    1.478309e+00   6.354920e-02
  1.580476e-01    1.564067e+00   6.520788e-02
  1.602581e-01    1.664280e+00   6.709360e-02
  1.624685e-01    1.673041e+00   6.708580e-02
  1.646790e-01    1.625812e+00   6.594224e-02
  1.668895e-01    1.644571e+00   6.613003e-02
  1.690999e-01    1.683050e+00   6.669829e-02
  1.713104e-01    1.792464e+00   6.861857e-02
  1.735208e-01    1.794273e+00   6.843968e-02
  1.757313e-01    1.797995e+00   6.829593e-02
  1.779417e-01    1.817653e+00   6.844430e-02
  1.801522e-01    1.861764e+00   6.904922e-02
  1.823626e-01    1.848755e+00   6.857850e-02
  1.845731e-01    1.830990e+00   6.802712e-02
  1.867836e-01    1.897944e+00   6.902599e-02
  1.889940e-01    1.989372e+00   7.043809e-02
  1.912045e-01    1.899395e+00   6.859692e-02
  1.934149e-01    1.936819e+00   6.903755e-02
  1.956254e-01    1.960650e+00   6.923189e-02
  1.978358e-01    1.981026e+00   6.935221e-02
  2.000463e-01    2.011025e+00   6.964380e-02
  2.022568e-01    2.011250e+00   6.941910e-02
  2.044672e-01    1.998067e+00   6.895421e-02
  2.066777e-01    1.978833e+00   6.839371e-02
  2.088881e-01    2.081703e+00   6.991943e-02
  2.110986e-01    1.952592e+00   6.748426e-02
  2.133090e-01    1.928741e+00   6.685277e-02
  2.155195e-01    1.921071e+00   6.649840e-02
  2.177300e-01    2.009225e+00   6.747279e-02
  2.199404e-01    1.911500e+00   6.407731e-02
  2.221509e-01    1.998196e+00   6.443855e-02
  2.243613e-01    1.926621e+00   6.247179e-02
  2.265718e-01    1.980479e+00   6.264083e-02
  2.287822e-01    2.046554e+00   6.304692e-02
  2.309927e-01    2.152844e+00   6.407434e-02
  2.332031e-01    2.157063e+00   6.358817e-02
  2.354136e-01    2.180268e+00   6.341114e-02
  2.376241e-01    2.110796e+00   6.190842e-02
  2.398345e-01    2.119288e+00   6.157373e-02
  2.420450e-01    2.106442e+00   6.094812e-02
  2.442554e-01    2.147294e+00   6.111235e-02
  2.464659e-01    2.097802e+00   5.999844e-02
  2.486763e-01    2.094034e+00   5.955049e-02
  2.508868e-01    2.070307e+00   5.883864e-02
  2.530973e-01    2.073805e+00   5.852320e-02
  2.553077e-01    2.066323e+00   5.806321e-02
  2.575182e-01    2.093494e+00   5.809791e-02
  2.597286e-01    2.069200e+00   5.742407e-02
  2.619391e-01    2.070011e+00   5.710467e-02
  2.641495e-01    2.005446e+00   5.589597e-02
  2.663600e-01    1.947390e+00   5.477804e-02
  2.685704e-01    1.988423e+00   5.505209e-02
  2.707809e-01    2.039681e+00   5.546119e-02
  2.729914e-01    2.027086e+00   5.500156e-02
  2.752018e-01    1.998302e+00   5.432542e-02
  2.774123e-01    2.033876e+00   5.452688e-02
  2.796227e-01    2.028156e+00   5.418082e-02
  2.818332e-01    1.988462e+00   5.338038e-02
  2.840436e-01    1.970229e+00   5.287750e-02
  2.862541e-01    1.973638e+00   5.266883e-02
  2.884646e-01    1.965965e+00   5.231688e-02
  2.906750e-01    1.889310e+00   5.104363e-02
  2.928855e-01    1.890159e+00   5.081851e-02
  2.950959e-01    1.884083e+00   5.050373e-02
  2.973064e-01    1.888754e+00   5.033899e-02
  2.995168e-01    1.942788e+00   5.082277e-02
  3.017273e-01    1.888204e+00   4.988284e-02
  3.039377e-01    1.965064e+00   5.066511e-02
  3.061482e-01    2.022362e+00   5.117612e-02
  3.083587e-01    1.956320e+00   5.011572e-02
  3.105691e-01    1.978539e+00   5.018426e-02
  3.127796e-01    1.918271e+00   4.920626e-02
  3.149900e-01    1.936305e+00   4.923104e-02
  3.172005e-01    1.887559e+00   4.840865e-02
  3.194109e-01    1.868956e+00   4.797065e-02
  3.216214e-01    1.888006e+00   4.801778e-02
  3.238319e-01    1.872598e+00   4.763197e-02
  3.260423e-01    1.845240e+00   4.709443e-02
  3.282528e-01    1.865645e+00   4.716557e-02
  3.304632e-01    1.936988e+00   4.787274e-02
  3.326737e-01    1.906798e+00   4.731290e-02
  3.348841e-01    1.816536e+00   4.600040e-02
  3.370946e-01    1.850753e+00   4.625694e-02
  3.393050e-01    1.860555e+00   4.620358e-02
  3.415155e-01    1.860666e+00   4.603124e-02
  3.437260e-01    1.825937e+00   4.543060e-02
  3.459364e-01    1.816042e+00   4.513976e-02
  3.481469e-01    1.820524e+00   4.503042e-02
  3.503573e-01    1.860695e+00   4.535872e-02
  3.525678e-01    1.874514e+00   4.536458e-02
  3.547782e-01    1.864991e+00   4.508566e-02
  3.569887e-01    1.835480e+00   4.456906e-02
  3.591992e-01    1.845206e+00   4.452886e-02
  3.614096e-01    1.822796e+00   4.410419e-02
  3.636201e-01    1.782171e+00   4.345669e-02
  3.658305e-01    1.767200e+00   4.312615e-02
  3.680410e-01    1.792442e+00   4.328369e-02
  3.702514e-01    1.841195e+00   4.372084e-02
  3.724619e-01    1.823023e+00   4.335640e-02
  3.746724e-01    1.763382e+00   4.249904e-02
  3.768828e-01    1.790654e+00   4.268227e-02
  3.790933e-01    1.839705e+00   4.312199e-02
  3.813037e-01    1.748755e+00   4.190499e-02
  3.835142e-01    1.758803e+00   4.188717e-02
  3.857246e-01    1.755515e+00   4.171256e-02
  3.879351e-01    1.837704e+00   4.253969e-02
  3.901455e-01    1.801280e+00   4.198195e-02
  3.923560e-01    1.807796e+00   4.192412e-02
  3.945665e-01    1.866006e+00   4.245868e-02
  3.967769e-01    1.802563e+00   4.159996e-02
  3.989874e-01    1.781350e+00   4.122535e-02
  4.011978e-01    1.763306e+00   4.088987e-02
  4.034083e-01    1.790963e+00   4.108279e-02
  4.056187e-01    1.820195e+00   4.128913e-02
  4.078292e-01    1.755582e+00   4.042695e-02
  4.100397e-01    1.788647e+00   4.068128e-02
  4.122501e-01    1.842100e+00   4.116117e-02
  4.144606e-01    1.795091e+00   4.051210e-02
  4.166710e-01    1.802084e+00   4.047021e-02
  4.188815e-01    1.817451e+00   4.052236e-02
  4.210919e-01    1.836450e+00   4.061423e-02
  4.233024e-01    1.832337e+00   4.044939e-02
  4.255128e-01    1.795948e+00   3.992999e-02
  4.277233e-01    1.805621e+00   3.992231e-02
  4.299338e-01    1.804600e+00   3.979622e-02
  4.321442e-01    1.751247e+00   3.909132e-02
  4.343547e-01    1.787045e+00   3.937716e-02
  4.365651e-01    1.794746e+00   3.934982e-02
  4.387756e-01    1.715589e+00   3.836454e-02
  4.409860e-01    1.783866e+00   3.901211e-02
  4.431965e-01    1.774959e+00   3.880702e-02
  4.454070e-01    1.760431e+00   3.854036e-02
  4.476174e-01    1.681939e+00   3.756792e-02
  4.498279e-01    1.704832e+00   3.771980e-02
  4.520383e-01    1.758042e+00   3.819882e-02
  4.542488e-01    1.744900e+00   3.795316e-02
  4.564592e-01    1.689891e+00   3.724992e-02
  4.586697e-01    1.696397e+00   3.722250e-02
  4.608801e-01    1.698797e+00   3.714904e-02
  4.630906e-01    1.724889e+00   3.733411e-02
  4.653011e-01    1.764011e+00   3.765585e-02
  4.675115e-01    1.718042e+00   3.706411e-02
  4.697220e-01    1.717855e+00   3.696503e-02
  4.719324e-01    1.711680e+00   3.680312e-02
  4.741429e-01    1.680058e+00   3.636762e-02
  4.763533e-01    1.648602e+00   3.593319e-02
  4.785638e-01    1.673509e+00   3.611007e-02
  4.807743e-01    1.748368e+00   3.681503e-02
  4.829847e-01    1.644811e+00   3.561791e-02
  4.851952e-01    1.633746e+00   3.540805e-02
  4.874056e-01    1.675057e+00   3.576251e-02
  4.896161e-01    1.658637e+00   3.549857e-02
  4.918265e-01    1.643266e+00   3.524593e-02
  4.940370e-01    1.616531e+00   3.487174e-02
  4.962475e-01    1.637323e+00   3.500861e-02
  4.984579e-01    1.621987e+00   3.475842e-02
  5.006684e-01    1.639407e+00   3.485934e-02
  5.028788e-01    1.662723e+00   3.502131e-02
  5.050893e-01    1.667010e+00   3.498112e-02
  5.072997e-01    1.679843e+00   3.503072e-02
  5.095102e-01    1.688056e+00   3.503214e-02
  5.117206e-01    1.730087e+00   3.538125e-02
  5.139311e-01    1.668840e+00   3.466712e-02
  5.161416e-01    1.634831e+00   3.423098e-02
  5.183520e-01    1.655968e+00   3.436965e-02
  5.205625e-01    1.664010e+00   3.437232e-02
  5.227729e-01    1.679518e+00   3.445157e-02
  5.249834e-01    1.689004e+00   3.446852e-02
  5.271938e-01    1.682122e+00   3.431797e-02
  5.294043e-01    1.713838e+00   3.456004e-02
  5.316148e-01    1.747766e+00   3.482052e-02
  5.338252e-01    1.762717e+00   3.488922e-02
  5.360357e-01    1.736711e+00   3.455206e-02
  5.382461e-01    1.756106e+00   3.466590e-02
  5.404566e-01    1.747287e+00   3.450006e-02
  5.426670e-01    1.738115e+00   3.433187e-02
  5.448775e-01    1.766462e+00   3.453336e-02
  5.470879e-01    1.760607e+00   3.439922e-02
  5.492984e-01    1.750955e+00   3.422850e-02
  5.515089e-01    1.771907e+00   3.435631e-02
  5.537193e-01    1.796813e+00   3.452072e-02
  5.559298e-01    1.775621e+00   3.424127e-02
  5.581402e-01    1.804824e+00   3.444625e-02
  5.603507e-01    1.808766e+00   3.440881e-02
  5.625611e-01    1.767095e+00   3.393634e-02
  5.647716e-01    1.782017e+00   3.400532e-02
  5.669821e-01    1.815923e+00   3.425331e-02
  5.691925e-01    1.753312e+00   3.358538e-02
  5.714030e-01    1.745138e+00   3.343556e-02
  5.736134e-01    1.710725e+00   3.303384e-02
  5.758239e-01    1.707544e+00   3.293268e-02
  5.780343e-01    1.646613e+00   3.227135e-02
  5.802448e-01    1.652330e+00   3.225964e-02
  5.824552e-01    1.672120e+00   3.238417e-02
  5.846657e-01    1.609964e+00   3.171035e-02
  5.868762e-01    1.598840e+00   3.153480e-02
  5.890866e-01    1.623301e+00   3.170919e-02
  5.912971e-01    1.632439e+00   3.173248e-02
  5.935075e-01    1.643387e+00   3.177291e-02
  5.957180e-01    1.643199e+00   3.170591e-02
  5.979284e-01    1.628603e+00   3.150036e-02
  6.001389e-01    1.602670e+00   3.118489e-02
  6.023494e-01    1.654095e+00   3.161696e-02
  6.045598e-01    1.595875e+00   3.099232e-02
  6.067703e-01    1.629079e+00   3.125010e-02
  6.089807e-01    1.643818e+00   3.132803e-02
  6.111912e-01    1.681104e+00   3.161809e-02
  6.134016e-01    1.668800e+00   3.143933e-02
  6.156121e-01    1.723545e+00   3.188735e-02
  6.178226e-01    1.690621e+00   3.151879e-02
  6.200330e-01    1.694283e+00   3.149066e-02
  6.222435e-01    1.700230e+00   3.148340e-02
  6.244539e-01    1.688689e+00   3.131492e-02
  6.266644e-01    1.666976e+00   3.105226e-02
  6.288748e-01    1.694908e+00   3.125039e-02
  6.310853e-01    1.711475e+00   3.134177e-02
  6.332957e-01    1.736245e+00   3.150682e-02
  6.355062e-01    1.703728e+00   3.114975e-02
  6.377167e-01    1.726091e+00   3.129337e-02
  6.399271e-01    1.694936e+00   3.095025e-02
  6.421376e-01    1.695283e+00   3.089433e-02
  6.443480e-01    1.706733e+00   3.093952e-02
  6.465585e-01    1.687708e+00   3.070831e-02
  6.487689e-01    1.660493e+00   3.040220e-02
  6.509794e-01    1.653645e+00   3.028222e-02
  6.531899e-01    1.626346e+00   2.997476e-02
  6.554003e-01    1.605586e+00   2.972684e-02
  6.576108e-01    1.585231e+00   2.948280e-02
  6.598212e-01    1.584268e+00   2.941909e-02
  6.620317e-01    1.559916e+00   2.913799e-02
  6.642421e-01    1.627169e+00   2.970440e-02
  6.664526e-01    1.670876e+00   3.004527e-02
  6.686630e-01    1.651079e+00   2.981153e-02
  6.708735e-01    1.611414e+00   2.939723e-02
  6.730840e-01    1.611618e+00   2.934549e-02
  6.752944e-01    1.580320e+00   2.900631e-02
  6.775049e-01    1.586859e+00   2.901345e-02
  6.797153e-01    1.623016e+00   2.928901e-02
  6.819258e-01    1.625971e+00   2.926280e-02
  6.841362e-01    1.623726e+00   2.919000e-02
  6.863467e-01    1.585666e+00   2.879420e-02
  6.885572e-01    1.614940e+00   2.900670e-02
  6.907676e-01    1.594958e+00   2.877505e-02
  6.929781e-01    1.603253e+00   2.879849e-02
  6.951885e-01    1.629980e+00   2.898611e-02
  6.973990e-01    1.613184e+00   2.878540e-02
  6.996094e-01    1.624940e+00   2.883927e-02
  7.018199e-01    1.645566e+00   2.897080e-02
  7.040303e-01    1.615927e+00   2.865828e-02
  7.062408e-01    1.578719e+00   2.827680e-02
  7.084513e-01    1.593194e+00   2.835673e-02
  7.106617e-01    1.576669e+00   2.816027e-02
  7.128722e-01    1.543836e+00   2.781730e-02
  7.150826e-01    1.565684e+00   2.796515e-02
  7.172931e-01    1.598128e+00   2.820471e-02
  7.195035e-01    1.572058e+00   2.792563e-02
  7.217140e-01    1.578941e+00   2.803621e-02
  7.239245e-01    1.546656e+00   2.797281e-02
  7.261349e-01    1.593232e+00   2.850012e-02
  7.283454e-01    1.561885e+00   2.829049e-02
  7.305558e-01    1.516008e+00   2.792486e-02
  7.327663e-01    1.559567e+00   2.836549e-02
  7.349767e-01    1.564722e+00   2.842866e-02
  7.371872e-01    1.567372e+00   2.844157e-02
  7.393976e-01    1.585179e+00   2.858836e-02
  7.416081e-01    1.579468e+00   2.852062e-02
  7.438186e-01    1.599599e+00   2.855634e-02
  7.460290e-01    1.561478e+00   2.792103e-02
  7.482395e-01    1.526408e+00   2.743716e-02
  7.504499e-01    1.538929e+00   2.741473e-02
  7.526604e-01    1.535958e+00   2.727316e-02
  7.548708e-01    1.535897e+00   2.718430e-02
  7.570813e-01    1.541781e+00   2.718589e-02
  7.592918e-01    1.564979e+00   2.735457e-02
  7.615022e-01    1.589976e+00   2.753821e-02
  7.637127e-01    1.553053e+00   2.718404e-02
  7.659231e-01    1.540263e+00   2.704021e-02
  7.681336e-01    1.566854e+00   2.724108e-02
  7.703440e-01    1.582184e+00   2.734275e-02
  7.725545e-01    1.567193e+00   2.718208e-02
  7.747650e-01    1.609179e+00   2.750518e-02
  7.769754e-01    1.593524e+00   2.731805e-02
  7.791859e-01    1.596997e+00   2.729397e-02
  7.813963e-01    1.575509e+00   2.705717e-02
  7.836068e-01    1.585918e+00   2.709438e-02
  7.858172e-01    1.594384e+00   2.711582e-02
  7.880277e-01    1.587624e+00   2.700681e-02
  7.902381e-01    1.547931e+00   2.661861e-02
  7.924486e-01    1.608816e+00   2.708678e-02
  7.946591e-01    1.597231e+00   2.694085e-02
  7.968695e-01    1.600585e+00   2.692085e-02
  7.990800e-01    1.621968e+00   2.705166e-02
  8.012904e-01    1.593030e+00   2.676288e-02
  8.035009e-01    1.590418e+00   2.669334e-02
  8.057113e-01    1.630580e+00   2.698153e-02
  8.079218e-01    1.648673e+00   2.708400e-02
  8.101323e-01    1.654201e+00   2.708331e-02
  8.123427e-01    1.661214e+00   2.709438e-02
  8.145532e-01    1.650544e+00   2.696102e-02
  8.167636e-01    1.642483e+00   2.684989e-02
  8.189741e-01    1.632268e+00   2.672162e-02
  8.211845e-01    1.702178e+00   2.724213e-02
  8.233950e-01    1.680531e+00   2.702437e-02
  8.256054e-01    1.648034e+00   2.671744e-02
  8.278159e-01    1.628216e+00   2.651247e-02
  8.300264e-01    1.598835e+00   2.622962e-02
  8.322368e-01    1.633699e+00   2.647096e-02
  8.344473e-01    1.629195e+00   2.639124e-02
  8.366577e-01    1.612559e+00   2.621389e-02
  8.388682e-01    1.632884e+00   2.633641e-02
  8.410786e-01    1.682847e+00   2.669368e-02
  8.432891e-01    1.671094e+00   2.655806e-02
  8.454996e-01    1.639130e+00   2.626121e-02
  8.477100e-01    1.607654e+00   2.596658e-02
  8.499205e-01    1.608724e+00   2.593440e-02
  8.521309e-01    1.659091e+00   2.629619e-02
  8.543414e-01    1.650942e+00   2.619063e-02
  8.565518e-01    1.608959e+00   2.581521e-02
  8.587623e-01    1.649616e+00   2.609863e-02
  8.609727e-01    1.627730e+00   2.588475e-02
  8.631832e-01    1.614123e+00   2.573657e-02
  8.653937e-01    1.613801e+00   2.569445e-02
  8.676041e-01    1.609488e+00   2.562139e-02
  8.698146e-01    1.593567e+00   2.545538e-02
  8.720250e-01    1.590181e+00   2.538957e-02
  8.742355e-01    1.595455e+00   2.539292e-02
  8.764459e-01    1.590493e+00   2.531472e-02
  8.786564e-01    1.615658e+00   2.547616e-02
  8.808669e-01    1.598153e+00   2.529937e-02
  8.830773e-01    1.577754e+00   2.509955e-02
  8.852878e-01    1.608420e+00   2.530429e-02
  8.874982e-01    1.587776e+00   2.510490e-02
  8.897087e-01    1.585467e+00   2.504914e-02
  8.919191e-01    1.614064e+00   2.523612e-02
  8.941296e-01    1.576545e+00   2.490408e-02
  8.963401e-01    1.598590e+00   2.504118e-02
  8.985505e-01    1.598263e+00   2.500169e-02
  9.007610e-01    1.546112e+00   2.455430e-02
  9.029714e-01    1.542929e+00   2.449379e-02
  9.051819e-01    1.591628e+00   2.484021e-02
  9.073923e-01    1.607608e+00   2.492795e-02
  9.096028e-01    1.592335e+00   2.477442e-02
  9.118132e-01    1.587543e+00   2.470104e-02
  9.140237e-01    1.579875e+00   2.460490e-02
  9.162342e-01    1.595186e+00   2.468935e-02
  9.184446e-01    1.616074e+00   2.481452e-02
  9.206551e-01    1.611661e+00   2.474491e-02
  9.228655e-01    1.627299e+00   2.482911e-02
  9.250760e-01    1.665954e+00   2.508623e-02
  9.272864e-01    1.651368e+00   2.494142e-02
  9.294969e-01    1.632420e+00   2.476174e-02
  9.317074e-01    1.651164e+00   2.486832e-02
  9.339178e-01    1.609368e+00   2.451803e-02
  9.361283e-01    1.625594e+00   2.460498e-02
  9.383387e-01    1.591034e+00   2.430893e-02
  9.405492e-01    1.627407e+00   2.455086e-02
  9.427596e-01    1.647275e+00   2.466474e-02
  9.449701e-01    1.626200e+00   2.447315e-02
  9.471805e-01    1.671297e+00   2.477502e-02
  9.493910e-01    1.679636e+00   2.480267e-02
  9.516015e-01    1.664825e+00   2.465861e-02
  9.538119e-01    1.664137e+00   2.461971e-02
  9.560224e-01    1.730495e+00   2.507043e-02
  9.582328e-01    1.741249e+00   2.511450e-02
  9.604433e-01    1.736885e+00   2.504746e-02
  9.626537e-01    1.765129e+00   2.521636e-02
  9.648642e-01    1.773060e+00   2.523833e-02
  9.670747e-01    1.769726e+00   2.517981e-02
  9.692851e-01    1.802369e+00   2.537721e-02
  9.714956e-01    1.830677e+00   2.553964e-02
  9.737060e-01    1.831837e+00   2.551419e-02
  9.759165e-01    1.809322e+00   2.532115e-02
  9.781269e-01    1.804979e+00   2.525764e-02
  9.803374e-01    1.848265e+00   2.552336e-02
  9.825478e-01    1.807161e+00   2.520468e-02
  9.847583e-01    1.788121e+00   2.503750e-02
  9.869688e-01    1.791939e+00   2.503066e-02
  9.891792e-01    1.787901e+00   2.496921e-02
  9.913897e-01    1.768400e+00   2.479916e-02
  9.936001e-01    1.774651e+00   2.481042e-02
  9.958106e-01    1.816320e+00   2.506589e-02
  9.980210e-01    1.752602e+00   2.459038e-02
  1.000231e+00    1.696049e+00   2.432288e-02
  1.002442e+00    1.633851e+00   2.399957e-02
  1.004652e+00    1.617464e+00   2.394552e-02
  1.006863e+00    1.601297e+00   2.387499e-02
  1.009073e+00    1.609968e+00   2.397619e-02
  1.011284e+00    1.608787e+00   2.399942e-02
  1.013494e+00    1.621121e+00   2.411516e-02
  1.015705e+00    1.605427e+00   2.402081e-02
  1.017915e+00    1.567054e+00   2.374837e-02
  1.020126e+00    1.592407e+00   2.395586e-02
  1.022336e+00    1.573518e+00   2.382512e-02
  1.024547e+00    1.527647e+00   2.348640e-02
  1.026757e+00    1.553084e+00   2.368950e-02
  1.028967e+00    1.522350e+00   2.346159e-02
  1.031178e+00    1.517981e+00   2.343400e-02
  1.033388e+00    1.580349e+00   2.391570e-02
  1.035599e+00    1.546804e+00   2.366398e-02
  1.037809e+00    1.573608e+00   2.387140e-02
  1.040020e+00    1.613597e+00   2.417415e-02
  1.042230e+00    1.613761e+00   2.417736e-02
  1.044441e+00    1.634928e+00   2.433519e-02
  1.046651e+00    1.681557e+00   2.467994e-02
  1.048862e+00    1.723349e+00   2.498391e-02
  1.051072e+00    1.727317e+00   2.501013e-02
  1.053282e+00    1.785684e+00   2.542812e-02
  1.055493e+00    1.894287e+00   2.618509e-02
  1.057703e+00    2.213219e+00   2.830181e-02
  1.059914e+00    2.632210e+00   3.085914e-02
  1.062124e+00    2.144600e+00   2.784996e-02
  1.064335e+00    1.605863e+00   2.409568e-02
  1.066545e+00    1.486266e+00   2.317499e-02
  1.068756e+00    1.454573e+00   2.292286e-02
  1.070966e+00    1.467305e+00   2.301644e-02
  1.073177e+00    1.487373e+00   2.316722e-02
  1.075387e+00    1.514644e+00   2.337332e-02
  1.077597e+00    1.552132e+00   2.365333e-02
  1.079808e+00    1.605369e+00   2.391660e-02
  1.082018e+00    1.528522e+00   2.314390e-02
  1.084229e+00    1.468103e+00   2.257154e-02
  1.086439e+00    1.446050e+00   2.231418e-02
  1.088650e+00    1.500470e+00   2.265331e-02
  1.090860e+00    1.549549e+00   2.295102e-02
  1.093071e+00    1.582685e+00   2.313018e-02
  1.095281e+00    1.546040e+00   2.280166e-02
  1.097492e+00    1.491160e+00   2.233751e-02
  1.099702e+00    1.463090e+00   2.207448e-02
  1.101912e+00    1.434331e+00   2.180769e-02
  1.104123e+00    1.451558e+00   2.188975e-02
  1.106333e+00    1.447581e+00   2.181512e-02
  1.108544e+00    1.415064e+00   2.152468e-02
  1.110754e+00    1.414504e+00   2.147757e-02
  1.112965e+00    1.408317e+00   2.139022e-02
  1.115175e+00    1.413721e+00   2.139012e-02
  1.117386e+00    1.443528e+00   2.157478e-02
  1.119596e+00    1.408800e+00   2.127587e-02
  1.121807e+00    1.404862e+00   2.120735e-02
  1.124017e+00    1.410248e+00   2.121128e-02
  1.126228e+00    1.397406e+00   2.107882e-02
  1.128438e+00    1.393340e+00   2.101148e-02
  1.130648e+00    1.401295e+00   2.103700e-02
  1.132859e+00    1.427125e+00   2.119529e-02
  1.135069e+00    1.386062e+00   2.085349e-02
  1.137280e+00    1.402253e+00   2.094179e-02
  1.139490e+00    1.368415e+00   2.065474e-02
  1.141701e+00    1.329075e+00   2.032323e-02
  1.143911e+00    1.342620e+00   2.039512e-02
  1.146122e+00    1.356293e+00   2.046701e-02
  1.148332e+00    1.356809e+00   2.043924e-02
  1.150543e+00    1.408540e+00   2.079408e-02
  1.152753e+00    1.407200e+00   2.075302e-02
  1.154963e+00    1.366516e+00   2.041985e-02
  1.157174e+00    1.363520e+00   2.036739e-02
  1.159384e+00    1.396815e+00   2.058442e-02
  1.161595e+00    1.438022e+00   2.085529e-02
  1.163805e+00    1.477353e+00   2.110815e-02
  1.166016e+00    1.497613e+00   2.122163e-02
  1.168226e+00    1.494726e+00   2.117088e-02
  1.170437e+00    1.447555e+00   2.080468e-02
  1.172647e+00    1.474227e+00   2.096542e-02
  1.174858e+00    1.567873e+00   2.159092e-02
  1.177068e+00    1.648524e+00   2.210822e-02
  1.179278e+00    1.651283e+00   2.209526e-02
  1.181489e+00    1.690295e+00   2.232460e-02
  1.183699e+00    1.691520e+00   2.230195e-02
  1.185910e+00    1.643729e+00   2.195409e-02
  1.188120e+00    1.564220e+00   2.138790e-02
  1.190331e+00    1.525506e+00   2.109315e-02
  1.192541e+00    1.441172e+00   2.047361e-02
  1.194752e+00    1.381944e+00   2.002113e-02
  1.196962e+00    1.353890e+00   1.979111e-02
  1.199173e+00    1.365598e+00   1.984983e-02
  1.201383e+00    1.353474e+00   1.973432e-02
  1.203593e+00    1.356320e+00   1.973019e-02
  1.205804e+00    1.366473e+00   1.977782e-02
  1.208014e+00    1.362106e+00   1.971923e-02
  1.210225e+00    1.369690e+00   1.974852e-02
  1.212435e+00    1.369270e+00   1.972054e-02
  1.214646e+00    1.397014e+00   1.989275e-02
  1.216856e+00    1.391550e+00   1.982796e-02
  1.219067e+00    1.403607e+00   1.988872e-02
  1.221277e+00    1.354731e+00   1.951433e-02
  1.223488e+00    1.326858e+00   1.928699e-02
  1.225698e+00    1.342030e+00   1.937013e-02
  1.227909e+00    1.329208e+00   1.924743e-02
  1.230119e+00    1.362729e+00   1.945660e-02
  1.232329e+00    1.391505e+00   1.962980e-02
  1.234540e+00    1.362744e+00   1.939543e-02
  1.236750e+00    1.358596e+00   1.933555e-02
  1.238961e+00    1.352970e+00   1.926845e-02
  1.241171e+00    1.406522e+00   1.962137e-02
  1.243382e+00    1.438808e+00   1.982106e-02
  1.245592e+00    1.389059e+00   1.945094e-02
  1.247803e+00    1.362823e+00   1.924260e-02
  1.250013e+00    1.338336e+00   1.904549e-02
  1.252224e+00    1.338661e+00   1.902466e-02
  1.254434e+00    1.345833e+00   1.905184e-02
  1.256644e+00    1.327712e+00   1.890012e-02
  1.258855e+00    1.340665e+00   1.896891e-02
  1.261065e+00    1.340510e+00   1.894453e-02
  1.263276e+00    1.313560e+00   1.873049e-02
  1.265486e+00    1.325791e+00   1.879483e-02
  1.267697e+00    1.320811e+00   1.873672e-02
  1.269907e+00    1.331789e+00   1.879189e-02
  1.272118e+00    1.330493e+00   1.876033e-02
  1.274328e+00    1.340424e+00   1.880755e-02
  1.276539e+00    1.350400e+00   1.885463e-02
  1.278749e+00    1.337609e+00   1.874294e-02
  1.280959e+00    1.317836e+00   1.858163e-02
  1.283170e+00    1.327633e+00   1.862832e-02
  1.285380e+00    1.327879e+00   1.860778e-02
  1.287591e+00    1.342221e+00   1.868604e-02
  1.289801e+00    1.343840e+00   1.867612e-02
  1.292012e+00    1.365322e+00   1.880760e-02
  1.294222e+00    1.369767e+00   1.882185e-02
  1.296433e+00    1.372739e+00   1.882652e-02
  1.298643e+00    1.349561e+00   1.865045e-02
  1.300854e+00    1.354210e+00   1.866609e-02
  1.303064e+00    1.371907e+00   1.876828e-02
  1.305274e+00    1.367310e+00   1.871525e-02
  1.307485e+00    1.354180e+00   1.860360e-02
  1.309695e+00    1.329520e+00   1.841136e-02
  1.311906e+00    1.325248e+00   1.836023e-02
  1.314116e+00    1.355772e+00   1.854964e-02
  1.316327e+00    1.348391e+00   1.847740e-02
  1.318537e+00    1.358762e+00   1.852636e-02
  1.320748e+00    1.387713e+00   1.870085e-02
  1.322958e+00    1.352546e+00   1.844184e-02
  1.325169e+00    1.362556e+00   1.848882e-02
  1.327379e+00    1.375163e+00   1.855216e-02
  1.329589e+00    1.364487e+00   1.845882e-02
  1.331800e+00    1.361001e+00   1.841445e-02
  1.334010e+00    1.365890e+00   1.842671e-02
  1.336221e+00    1.381877e+00   1.851222e-02
  1.338431e+00    1.365900e+00   1.838393e-02
  1.340642e+00    1.358859e+00   1.840084e-02
  1.342852e+00    1.346001e+00   1.841410e-02
  1.345063e+00    1.364060e+00   1.858696e-02
  1.347273e+00    1.355735e+00   1.856548e-02
  1.349484e+00    1.352619e+00   1.857183e-02
  1.351694e+00    1.370502e+00   1.871709e-02
  1.353905e+00    1.338422e+00   1.851464e-02
  1.356115e+00    1.342492e+00   1.855777e-02
  1.358325e+00    1.338261e+00   1.854176e-02
  1.360536e+00    1.376186e+00   1.881437e-02
  1.362746e+00    1.356604e+00   1.868969e-02
  1.364957e+00    1.310135e+00   1.837431e-02
  1.367167e+00    1.324855e+00   1.848434e-02
  1.369378e+00    1.322800e+00   1.847596e-02
  1.371588e+00    1.333489e+00   1.855558e-02
  1.373799e+00    1.318725e+00   1.845622e-02
  1.376009e+00    1.283440e+00   1.821094e-02
  1.378220e+00    1.293224e+00   1.828273e-02
  1.380430e+00    1.269667e+00   1.811808e-02
  1.382640e+00    1.273251e+00   1.814451e-02
  1.384851e+00    1.282742e+00   1.821288e-02
  1.387061e+00    1.267715e+00   1.810618e-02
  1.389272e+00    1.274439e+00   1.815433e-02
  1.391482e+00    1.293179e+00   1.828665e-02
  1.393693e+00    1.296005e+00   1.830575e-02
  1.395903e+00    1.294374e+00   1.829273e-02
  1.398114e+00    1.279114e+00   1.818319e-02
  1.400324e+00    1.298947e+00   1.832148e-02
  1.402535e+00    1.282098e+00   1.819996e-02
  1.404745e+00    1.267469e+00   1.809345e-02
  1.406955e+00    1.292482e+00   1.826838e-02
  1.409166e+00    1.294585e+00   1.827995e-02
  1.411376e+00    1.241913e+00   1.790112e-02
  1.413587e+00    1.261261e+00   1.803621e-02
  1.415797e+00    1.258985e+00   1.801641e-02
  1.418008e+00    1.278126e+00   1.811083e-02
  1.420218e+00    1.291455e+00   1.805405e-02
  1.422429e+00    1.286127e+00   1.793092e-02
  1.424639e+00    1.254241e+00   1.764296e-02
  1.426850e+00    1.252082e+00   1.757346e-02
  1.429060e+00    1.255789e+00   1.755073e-02
  1.431270e+00    1.250987e+00   1.747317e-02
  1.433481e+00    1.270176e+00   1.756571e-02
  1.435691e+00    1.265617e+00   1.749581e-02
  1.437902e+00    1.251265e+00   1.736011e-02
  1.440112e+00    1.278685e+00   1.751384e-02
  1.442323e+00    1.257696e+00   1.733662e-02
  1.444533e+00    1.242392e+00   1.719863e-02
  1.446744e+00    1.260941e+00   1.729551e-02
  1.448954e+00    1.281638e+00   1.740655e-02
  1.451165e+00    1.269600e+00   1.729488e-02
  1.453375e+00    1.239116e+00   1.705827e-02
  1.455586e+00    1.208462e+00   1.681848e-02
  1.457796e+00    1.228663e+00   1.693139e-02
  1.460006e+00    1.249545e+00   1.704764e-02
  1.462217e+00    1.257425e+00   1.707523e-02
  1.464427e+00    1.256870e+00   1.704598e-02
  1.466638e+00    1.258164e+00   1.702954e-02
  1.468848e+00    1.262970e+00   1.703676e-02
  1.471059e+00    1.263722e+00   1.701679e-02
  1.473269e+00    1.264764e+00   1.699948e-02
  1.475480e+00    1.271771e+00   1.702270e-02
  1.477690e+00    1.237295e+00   1.676685e-02
  1.479901e+00    1.256708e+00   1.687412e-02
  1.482111e+00    1.275326e+00   1.697527e-02
  1.484321e+00    1.246334e+00   1.675829e-02
  1.486532e+00    1.271800e+00   1.690624e-02
  1.488742e+00    1.259747e+00   1.680336e-02
  1.490953e+00    1.253525e+00   1.673928e-02
  1.493163e+00    1.267916e+00   1.681279e-02
  1.495374e+00    1.243678e+00   1.662998e-02
  1.497584e+00    1.238116e+00   1.657130e-02
  1.499795e+00    1.275665e+00   1.679893e-02
  1.502005e+00    1.274914e+00   1.677217e-02
  1.504216e+00    1.268373e+00   1.670799e-02
  1.506426e+00    1.250819e+00   1.657121e-02
  1.508636e+00    1.244106e+00   1.650633e-02
  1.510847e+00    1.268219e+00   1.664360e-02
  1.513057e+00    1.264517e+00   1.659413e-02
  1.515268e+00    1.260780e+00   1.654381e-02
  1.517478e+00    1.246956e+00   1.642780e-02
  1.519689e+00    1.227769e+00   1.627620e-02
  1.521899e+00    1.236329e+00   1.630990e-02
  1.524110e+00    1.239101e+00   1.630795e-02
  1.526320e+00    1.255827e+00   1.639804e-02
  1.528531e+00    1.247319e+00   1.632266e-02
  1.530741e+00    1.245849e+00   1.629393e-02
  1.532951e+00    1.229437e+00   1.616682e-02
  1.535162e+00    1.238614e+00   1.631326e-02
  1.537372e+00    1.263619e+00   1.654440e-02
  1.539583e+00    1.236557e+00   1.640038e-02
  1.541793e+00    1.233397e+00   1.638627e-02
  1.544004e+00    1.265211e+00   1.659655e-02
  1.546214e+00    1.242833e+00   1.644762e-02
  1.548425e+00    1.228562e+00   1.635316e-02
  1.550635e+00    1.244183e+00   1.646648e-02
  1.552846e+00    1.240692e+00   1.645301e-02
  1.555056e+00    1.239591e+00   1.640430e-02
  1.557266e+00    1.257998e+00   1.641460e-02
  1.559477e+00    1.267502e+00   1.641681e-02
  1.561687e+00    1.268752e+00   1.639394e-02
  1.563898e+00    1.268284e+00   1.637363e-02
  1.566108e+00    1.254913e+00   1.627104e-02
  1.568319e+00    1.259657e+00   1.628606e-02
  1.570529e+00    1.254482e+00   1.622732e-02
  1.572740e+00    1.243268e+00   1.612705e-02
  1.574950e+00    1.240337e+00   1.608174e-02
  1.577161e+00    1.249967e+00   1.611852e-02
  1.579371e+00    1.265326e+00   1.619339e-02
  1.581582e+00    1.240373e+00   1.601320e-02
  1.583792e+00    1.231716e+00   1.593926e-02
  1.586002e+00    1.237614e+00   1.595983e-02
  1.588213e+00    1.241963e+00   1.597061e-02
  1.590423e+00    1.247699e+00   1.598735e-02
  1.592634e+00    1.234620e+00   1.588180e-02
  1.594844e+00    1.230882e+00   1.583644e-02
  1.597055e+00    1.235108e+00   1.584318e-02
  1.599265e+00    1.247557e+00   1.590203e-02
  1.601476e+00    1.236085e+00   1.580850e-02
  1.603686e+00    1.257305e+00   1.592370e-02
  1.605897e+00    1.244713e+00   1.582357e-02
  1.608107e+00    1.226030e+00   1.568489e-02
  1.610317e+00    1.232275e+00   1.570552e-02
  1.612528e+00    1.214856e+00   1.557510e-02
  1.614738e+00    1.205415e+00   1.549572e-02
  1.616949e+00    1.205267e+00   1.547594e-02
  1.619159e+00    1.213827e+00   1.551217e-02
  1.621370e+00    1.168781e+00   1.520354e-02
  1.623580e+00    1.168638e+00   1.518460e-02
  1.625791e+00    1.166097e+00   1.515017e-02
  1.628001e+00    1.164441e+00   1.512145e-02
  1.630212e+00    1.129438e+00   1.487515e-02
  1.632422e+00    1.153882e+00   1.501760e-02
  1.634632e+00    1.152787e+00   1.499339e-02
  1.636843e+00    1.149983e+00   1.495782e-02
  1.639053e+00    1.130151e+00   1.481129e-02
  1.641264e+00    1.162086e+00   1.500207e-02
  1.643474e+00    1.165291e+00   1.500532e-02
  1.645685e+00    1.158997e+00   1.494809e-02
  1.647895e+00    1.153142e+00   1.489370e-02
  1.650106e+00    1.149854e+00   1.485548e-02
  1.652316e+00    1.113280e+00   1.460106e-02
  1.654527e+00    1.111836e+00   1.457515e-02
  1.656737e+00    1.123303e+00   1.463365e-02
  1.658947e+00    1.098880e+00   1.445765e-02
  1.661158e+00    1.121187e+00   1.458742e-02
  1.663368e+00    1.121139e+00   1.457111e-02
  1.665579e+00    1.095343e+00   1.438654e-02
  1.667789e+00    1.092140e+00   1.434941e-02
  1.670000e+00    1.092820e+00   1.433853e-02
  1.672210e+00    1.111203e+00   1.444273e-02
  1.674421e+00    1.081325e+00   1.423209e-02
  1.676631e+00    1.081693e+00   1.421877e-02
  1.678842e+00    1.064170e+00   1.408762e-02
  1.681052e+00    1.086387e+00   1.421857e-02
  1.683263e+00    1.073688e+00   1.412021e-02
  1.685473e+00    1.081854e+00   1.415867e-02
  1.687683e+00    1.085199e+00   1.416511e-02
  1.689894e+00    1.081207e+00   1.412325e-02
  1.692104e+00    1.063956e+00   1.399532e-02
  1.694315e+00    1.039525e+00   1.381940e-02
  1.696525e+00    1.062852e+00   1.395849e-02
  1.698736e+00    1.059328e+00   1.392056e-02
  1.700946e+00    1.053616e+00   1.386789e-02
  1.703157e+00    1.054327e+00   1.385794e-02
  1.705367e+00    1.037773e+00   1.373434e-02
  1.707578e+00    1.030978e+00   1.367483e-02
  1.709788e+00    1.038355e+00   1.370962e-02
  1.711998e+00    9.921065e-01   1.338619e-02
  1.714209e+00    9.914044e-01   1.336734e-02
  1.716419e+00    1.007542e+00   1.346160e-02
  1.718630e+00    1.005257e+00   1.343227e-02
  1.720840e+00    1.019525e+00   1.351310e-02
  1.723051e+00    1.115400e+00   1.411975e-02
  1.725261e+00    1.091807e+00   1.395446e-02
  1.727472e+00    1.018710e+00   1.346506e-02
  1.729682e+00    1.008378e+00   1.338317e-02
  1.731893e+00    1.029068e+00   1.350576e-02
  1.734103e+00    1.031099e+00   1.350513e-02
  1.736313e+00    1.024612e+00   1.344847e-02
  1.738524e+00    9.759645e-01   1.311166e-02
  1.740734e+00    9.844174e-01   1.315472e-02
  1.742945e+00    9.856405e-01   1.314950e-02
  1.745155e+00    1.008436e+00   1.328714e-02
  1.747366e+00    9.715459e-01   1.302817e-02
  1.749576e+00    9.846740e-01   1.310220e-02
  1.751787e+00    9.720487e-01   1.300471e-02
  1.753997e+00    9.393218e-01   1.277078e-02
  1.756208e+00    9.768968e-01   1.301048e-02
  1.758418e+00    9.757408e-01   1.298967e-02
  1.760628e+00    9.741860e-01   1.296591e-02
  1.762839e+00    9.815173e-01   1.300127e-02
  1.765049e+00    9.758881e-01   1.295076e-02
  1.767260e+00    9.345023e-01   1.266051e-02
  1.769470e+00    9.277015e-01   1.260156e-02
  1.771681e+00    9.377713e-01   1.265673e-02
  1.773891e+00    9.326259e-01   1.260903e-02
  1.776102e+00    9.455995e-01   1.268356e-02
  1.778312e+00    9.616209e-01   1.277771e-02
  1.780523e+00    1.042318e+00   1.328961e-02
  1.782733e+00    1.125343e+00   1.379493e-02
  1.784944e+00    1.046398e+00   1.328866e-02
  1.787154e+00    9.592257e-01   1.271040e-02
  1.789364e+00    9.065656e-01   1.234423e-02
  1.791575e+00    9.100571e-01   1.235556e-02
  1.793785e+00    9.156231e-01   1.238092e-02
  1.795996e+00    9.105278e-01   1.233399e-02
  1.798206e+00    9.044766e-01   1.228052e-02
  1.800417e+00    9.069581e-01   1.228473e-02
  1.802627e+00    9.011303e-01   1.223336e-02
  1.804838e+00    9.113683e-01   1.229054e-02
  1.807048e+00    9.101519e-01   1.226948e-02
  1.809259e+00    9.496143e-01   1.251872e-02
  1.811469e+00    9.897031e-01   1.276461e-02
  1.813679e+00    9.430379e-01   1.244476e-02
  1.815890e+00    8.986672e-01   1.213367e-02
  1.818100e+00    9.125876e-01   1.221206e-02
  1.820311e+00    8.992457e-01   1.210765e-02
  1.822521e+00    8.867285e-01   1.200827e-02
  1.824732e+00    8.799804e-01   1.194776e-02
  1.826942e+00    8.793584e-01   1.193125e-02
  1.829153e+00    8.655775e-01   1.182584e-02
  1.831363e+00    8.933921e-01   1.200222e-02
  1.833574e+00    8.747203e-01   1.186453e-02
  1.835784e+00    8.877150e-01   1.194083e-02
  1.837994e+00    8.951628e-01   1.197900e-02
  1.840205e+00    8.744218e-01   1.182825e-02
  1.842415e+00    8.527895e-01   1.166937e-02
  1.844626e+00    8.818915e-01   1.185518e-02
  1.846836e+00    8.833625e-01   1.185354e-02
  1.849047e+00    8.554009e-01   1.165291e-02
  1.851257e+00    8.301120e-01   1.146995e-02
  1.853468e+00    8.629607e-01   1.168588e-02
  1.855678e+00    8.978657e-01   1.191081e-02
  1.857889e+00    8.796427e-01   1.178074e-02
  1.860099e+00    8.558345e-01   1.161157e-02
  1.862309e+00    8.702303e-01   1.170025e-02
  1.864520e+00    8.729471e-01   1.170985e-02
  1.866730e+00    8.444349e-01   1.150770e-02
  1.868941e+00    8.446714e-01   1.149841e-02
  1.871151e+00    8.431523e-01   1.147673e-02
  1.873362e+00    8.349192e-01   1.140933e-02
  1.875572e+00    8.301056e-01   1.136557e-02
  1.877783e+00    8.490391e-01   1.148301e-02
  1.879993e+00    8.683976e-01   1.160190e-02
  1.882204e+00    8.460461e-01   1.144072e-02
  1.884414e+00    8.300269e-01   1.132089e-02
  1.886624e+00    8.604543e-01   1.151535e-02
  1.888835e+00    8.645593e-01   1.153167e-02
  1.891045e+00    8.508582e-01   1.142897e-02
  1.893256e+00    8.394569e-01   1.134106e-02
  1.895466e+00    8.235968e-01   1.122232e-02
  1.897677e+00    8.461092e-01   1.136367e-02
  1.899887e+00    8.445300e-01   1.134202e-02
  1.902098e+00    8.503468e-01   1.137004e-02
  1.904308e+00    8.543859e-01   1.138628e-02
  1.906519e+00    8.457919e-01   1.131795e-02
  1.908729e+00    8.404956e-01   1.127176e-02
  1.910940e+00    8.481336e-01   1.131160e-02
  1.913150e+00    8.599653e-01   1.137941e-02
  1.915360e+00    8.648627e-01   1.140092e-02
  1.917571e+00    8.256010e-01   1.112823e-02
  1.919781e+00    8.237185e-01   1.110482e-02
  1.921992e+00    8.175238e-01   1.105240e-02
  1.924202e+00    8.071347e-01   1.097124e-02
  1.926413e+00    8.031259e-01   1.093375e-02
  1.928623e+00    7.955293e-01   1.087149e-02
  1.930834e+00    7.886590e-01   1.081418e-02
  1.933044e+00    7.953188e-01   1.084918e-02
  1.935255e+00    7.931931e-01   1.082446e-02
  1.937465e+00    7.775432e-01   1.070694e-02
  1.939675e+00    7.763060e-01   1.068777e-02
  1.941886e+00    7.826660e-01   1.072133e-02
  1.944096e+00    7.848080e-01   1.072592e-02
  1.946307e+00    7.844729e-01   1.071341e-02
  1.948517e+00    7.939032e-01   1.076720e-02
  1.950728e+00    7.846239e-01   1.069395e-02
  1.952938e+00    7.849380e-01   1.068607e-02
  1.955149e+00    7.719659e-01   1.058733e-02
  1.957359e+00    7.872738e-01   1.068179e-02
  1.959570e+00    8.020736e-01   1.077080e-02
  1.961780e+00    7.903506e-01   1.068194e-02
  1.963990e+00    7.727289e-01   1.055216e-02
  1.966201e+00    7.682235e-01   1.051144e-02
  1.968411e+00    7.678291e-01   1.049873e-02
  1.970622e+00    7.752299e-01   1.053919e-02
  1.972832e+00    7.729681e-01   1.051393e-02
  1.975043e+00    7.622579e-01   1.043095e-02
  1.977253e+00    7.784057e-01   1.053094e-02
  1.979464e+00    7.595721e-01   1.039289e-02
  1.981674e+00    7.636216e-01   1.041041e-02
  1.983885e+00    7.640029e-01   1.040311e-02
  1.986095e+00    7.805999e-01   1.050579e-02
  1.988305e+00    7.544879e-01   1.031887e-02
  1.990516e+00    7.700905e-01   1.041513e-02
  1.992726e+00    7.714462e-01   1.041467e-02
  1.994937e+00    7.672417e-01   1.037620e-02
  1.997147e+00    7.544293e-01   1.027959e-02
  1.999358e+00    7.716697e-01   1.038655e-02
  2.001568e+00    7.565008e-01   1.027326e-02
  2.003779e+00    7.857993e-01   1.045829e-02
  2.005989e+00    7.818480e-01   1.041987e-02
  2.008200e+00    7.803958e-01   1.039858e-02
  2.010410e+00    7.811393e-01   1.039170e-02
  2.012621e+00    7.768021e-01   1.035103e-02
  2.014831e+00    7.806134e-01   1.036484e-02
  2.017041e+00    7.621667e-01   1.023128e-02
  2.019252e+00    7.647690e-01   1.023879e-02
  2.021462e+00    7.459245e-01   1.010246e-02
  2.023673e+00    7.629024e-01   1.020740e-02
  2.025883e+00    7.529786e-01   1.013135e-02
  2.028094e+00    7.390512e-01   1.002771e-02
  2.030304e+00    7.615758e-01   1.016984e-02
  2.032515e+00    7.508869e-01   1.008898e-02
  2.034725e+00    7.801545e-01   1.027414e-02
  2.036936e+00    7.836767e-01   1.028784e-02
  2.039146e+00    7.565432e-01   1.009861e-02
  2.041356e+00    7.491856e-01   1.003976e-02
  2.043567e+00    7.430763e-01   9.989535e-03
  2.045777e+00    7.463306e-01   1.000218e-02
  2.047988e+00    7.326539e-01   9.900887e-03
  2.050198e+00    7.447684e-01   9.974009e-03
  2.052409e+00    7.564315e-01   1.004413e-02
  2.054619e+00    7.530120e-01   1.001404e-02
  2.056830e+00    7.380224e-01   9.906749e-03
  2.059040e+00    7.404655e-01   9.915669e-03
  2.061251e+00    7.343215e-01   9.867282e-03
  2.063461e+00    7.199594e-01   9.762859e-03
  2.065671e+00    7.381127e-01   9.876503e-03
  2.067882e+00    7.487078e-01   9.938154e-03
  2.070092e+00    7.332531e-01   9.825931e-03
  2.072303e+00    7.343688e-01   9.824344e-03
  2.074513e+00    7.250510e-01   9.752625e-03
  2.076724e+00    7.307889e-01   9.781758e-03
  2.078934e+00    7.473076e-01   9.882659e-03
  2.081145e+00    7.442805e-01   9.853550e-03
  2.083355e+00    7.322571e-01   9.764506e-03
  2.085566e+00    7.351575e-01   9.774967e-03
  2.087776e+00    7.355398e-01   9.768021e-03
  2.089986e+00    7.355777e-01   9.759501e-03
  2.092197e+00    7.294958e-01   9.710174e-03
  2.094407e+00    7.306544e-01   9.708677e-03
  2.096618e+00    7.401457e-01   9.762601e-03
  2.098828e+00    7.307239e-01   9.691000e-03
  2.101039e+00    7.086104e-01   9.534402e-03
  2.103249e+00    7.067996e-01   9.513666e-03
  2.105460e+00    7.250490e-01   9.626742e-03
  2.107670e+00    7.148046e-01   9.549829e-03
  2.109881e+00    7.274705e-01   9.624898e-03
  2.112091e+00    7.235078e-01   9.589681e-03
  2.114301e+00    7.318875e-01   9.636222e-03
  2.116512e+00    7.261161e-01   9.589356e-03
  2.118722e+00    7.031562e-01   9.427822e-03
  2.120933e+00    6.941646e-01   9.358641e-03
  2.123143e+00    7.070549e-01   9.436292e-03
  2.125354e+00    7.020076e-01   9.394136e-03
  2.127564e+00    7.063812e-01   9.414657e-03
  2.129775e+00    7.064831e-01   9.406684e-03
  2.131985e+00    7.023019e-01   9.369822e-03
  2.134196e+00    7.052668e-01   9.381042e-03
  2.136406e+00    6.907961e-01   9.275689e-03
  2.138617e+00    6.964199e-01   9.305012e-03
  2.140827e+00    6.899555e-01   9.277541e-03
  2.143037e+00    7.116257e-01   9.467733e-03
  2.145248e+00    6.943003e-01   9.373624e-03
  2.147458e+00    6.961196e-01   9.400923e-03
  2.149669e+00    6.919768e-01   9.384672e-03
  2.151879e+00    7.000563e-01   9.448493e-03
  2.154090e+00    7.183441e-01   9.578527e-03
  2.156300e+00    6.983799e-01   9.451102e-03
  2.158511e+00    6.835523e-01   9.355451e-03
  2.160721e+00    6.818337e-01   9.348453e-03
  2.162932e+00    6.796334e-01   9.337038e-03
  2.165142e+00    6.886250e-01   9.401610e-03
  2.167352e+00    6.869232e-01   9.392873e-03
  2.169563e+00    6.986240e-01   9.474487e-03
  2.171773e+00    7.067817e-01   9.532124e-03
  2.173984e+00    6.953651e-01   9.456242e-03
  2.176194e+00    6.889629e-01   9.413796e-03
  2.178405e+00    6.904707e-01   9.424793e-03
  2.180615e+00    6.868152e-01   9.400487e-03
  2.182826e+00    6.867454e-01   9.400683e-03
  2.185036e+00    6.928049e-01   9.442130e-03
  2.187247e+00    6.756475e-01   9.324420e-03
  2.189457e+00    6.852651e-01   9.390143e-03
  2.191667e+00    6.882621e-01   9.410489e-03
  2.193878e+00    6.776245e-01   9.336905e-03
  2.196088e+00    6.919224e-01   9.434219e-03
  2.198299e+00    6.822894e-01   9.367223e-03
  2.200509e+00    6.879978e-01   9.405271e-03
  2.202720e+00    6.907566e-01   9.422950e-03
  2.204930e+00    6.727402e-01   9.298027e-03
  2.207141e+00    6.947529e-01   9.447764e-03
  2.209351e+00    6.952386e-01   9.449202e-03
  2.211562e+00    6.900673e-01   9.412345e-03
  2.213772e+00    6.867051e-01   9.333516e-03
  2.215982e+00    6.602833e-01   9.108484e-03
  2.218193e+00    6.686256e-01   9.136372e-03
  2.220403e+00    6.553624e-01   9.021075e-03
  2.222614e+00    6.698843e-01   9.099581e-03
  2.224824e+00    6.629475e-01   9.033107e-03
  2.227035e+00    6.712664e-01   9.072187e-03
  2.229245e+00    6.746551e-01   9.078053e-03
  2.231456e+00    6.672239e-01   9.012349e-03
  2.233666e+00    6.643960e-01   8.978218e-03
  2.235877e+00    6.754116e-01   9.038009e-03
  2.238087e+00    6.619667e-01   8.934210e-03
  2.240298e+00    6.806055e-01   9.045218e-03
  2.242508e+00    6.747062e-01   8.990761e-03
  2.244718e+00    6.780248e-01   8.996904e-03
  2.246929e+00    6.821304e-01   9.009554e-03
  2.249139e+00    6.771673e-01   8.964221e-03
  2.251350e+00    6.920693e-01   9.050419e-03
  2.253560e+00    6.992847e-01   9.085607e-03
  2.255771e+00    6.966252e-01   9.056661e-03
  2.257981e+00    7.092935e-01   9.127074e-03
  2.260192e+00    7.208192e-01   9.189380e-03
  2.262402e+00    7.061222e-01   9.084030e-03
  2.264613e+00    6.960761e-01   9.008076e-03
  2.266823e+00    6.909986e-01   8.964549e-03
  2.269033e+00    6.959262e-01   8.985813e-03
  2.271244e+00    7.120650e-01   9.078616e-03
  2.273454e+00    7.281072e-01   9.169576e-03
  2.275665e+00    7.254839e-01   9.142258e-03
  2.277875e+00    7.206074e-01   9.101126e-03
  2.280086e+00    6.765022e-01   8.808046e-03
  2.282296e+00    6.646427e-01   8.721042e-03
  2.284507e+00    6.598635e-01   8.679489e-03
  2.286717e+00    6.673422e-01   8.719003e-03
  2.288928e+00    6.623155e-01   8.676201e-03
  2.291138e+00    6.646898e-01   8.682254e-03
  2.293348e+00    6.605030e-01   8.645292e-03
  2.295559e+00    6.544479e-01   8.596265e-03
  2.297769e+00    6.510479e-01   8.564699e-03
  2.299980e+00    6.515446e-01   8.558617e-03
  2.302190e+00    6.548581e-01   8.571241e-03
  2.304401e+00    6.421417e-01   8.478351e-03
  2.306611e+00    6.441010e-01   8.482140e-03
  2.308822e+00    6.537623e-01   8.537096e-03
  2.311032e+00    6.501420e-01   8.507011e-03
  2.313243e+00    6.500232e-01   8.499920e-03
  2.315453e+00    6.690030e-01   8.615465e-03
  2.317663e+00    6.343251e-01   8.380172e-03
  2.319874e+00    6.241050e-01   8.303791e-03
  2.322084e+00    6.494899e-01   8.461995e-03
  2.324295e+00    6.398060e-01   8.390497e-03
  2.326505e+00    6.462972e-01   8.423877e-03
  2.328716e+00    6.527352e-01   8.457108e-03
  2.330926e+00    6.418092e-01   8.377268e-03
  2.333137e+00    6.362481e-01   8.332536e-03
  2.335347e+00    6.632951e-01   8.498789e-03
  2.337558e+00    6.360207e-01   8.314030e-03
  2.339768e+00    6.521584e-01   8.410169e-03
  2.341979e+00    6.467038e-01   8.366526e-03
  2.344189e+00    6.371487e-01   8.296085e-03
  2.346399e+00    6.509171e-01   8.376650e-03
  2.348610e+00    6.371909e-01   8.279401e-03
  2.350820e+00    6.466907e-01   8.332619e-03
  2.353031e+00    6.384845e-01   8.271278e-03
  2.355241e+00    6.445438e-01   8.302310e-03
  2.357452e+00    6.281835e-01   8.187869e-03
  2.359662e+00    6.339186e-01   8.216922e-03
  2.361873e+00    6.268024e-01   8.162457e-03
  2.364083e+00    6.254928e-01   8.145973e-03
  2.366294e+00    6.130921e-01   8.056793e-03
  2.368504e+00    6.396008e-01   8.220970e-03
  2.370714e+00    6.323798e-01   8.166341e-03
  2.372925e+00    6.129342e-01   8.031840e-03
  2.375135e+00    6.167552e-01   8.048800e-03
  2.377346e+00    6.188645e-01   8.054669e-03
  2.379556e+00    6.066594e-01   7.967030e-03
  2.381767e+00    6.179931e-01   8.033268e-03
  2.383977e+00    6.129031e-01   7.992251e-03
  2.386188e+00    6.013369e-01   7.908666e-03
  2.388398e+00    6.026935e-01   7.909738e-03
  2.390609e+00    5.964767e-01   7.861222e-03
  2.392819e+00    6.082298e-01   7.930585e-03
  2.395029e+00    6.055274e-01   7.905351e-03
  2.397240e+00    5.974498e-01   7.844688e-03
  2.399450e+00    6.036087e-01   7.877267e-03
  2.401661e+00    6.098182e-01   7.910016e-03
  2.403871e+00    6.122842e-01   7.918234e-03
  2.406082e+00    5.988967e-01   7.823829e-03
  2.408292e+00    5.808693e-01   7.697567e-03
  2.410503e+00    6.021695e-01   7.829959e-03
  2.412713e+00    6.090065e-01   7.866488e-03
  2.414924e+00    6.089804e-01   7.858824e-03
  2.417134e+00    6.115331e-01   7.867594e-03
  2.419344e+00    6.148451e-01   7.881385e-03
  2.421555e+00    6.081642e-01   7.830919e-03
  2.423765e+00    5.990098e-01   7.764345e-03
  2.425976e+00    6.169633e-01   7.871937e-03
  2.428186e+00    5.930609e-01   7.710752e-03
  2.430397e+00    6.011782e-01   7.755837e-03
  2.432607e+00    5.930552e-01   7.696017e-03
  2.434818e+00    5.782539e-01   7.591906e-03
  2.437028e+00    6.000700e-01   7.726629e-03
  2.439239e+00    5.951376e-01   7.687140e-03
  2.441449e+00    6.056111e-01   7.747201e-03
  2.443659e+00    5.791687e-01   7.568930e-03
  2.445870e+00    5.695497e-01   7.517828e-03
  2.448080e+00    5.858811e-01   7.659755e-03
  2.450291e+00    5.772539e-01   7.619749e-03
  2.452501e+00    5.732444e-01   7.604377e-03
  2.454712e+00    5.778986e-01   7.643644e-03
  2.456922e+00    5.689042e-01   7.590553e-03
  2.459133e+00    5.572013e-01   7.517436e-03
  2.461343e+00    5.660704e-01   7.581392e-03
  2.463554e+00    5.624580e-01   7.560615e-03
  2.465764e+00    5.607494e-01   7.552269e-03
  2.467975e+00    5.496185e-01   7.479189e-03
  2.470185e+00    5.482620e-01   7.472193e-03
  2.472395e+00    5.514185e-01   7.494874e-03
  2.474606e+00    5.510782e-01   7.494135e-03
  2.476816e+00    5.524965e-01   7.504507e-03
  2.479027e+00    5.486025e-01   7.478851e-03
  2.481237e+00    5.572806e-01   7.538070e-03
  2.483448e+00    5.353609e-01   7.388629e-03
  2.485658e+00    5.310392e-01   7.358590e-03
  2.487869e+00    5.447835e-01   7.453264e-03
  2.490079e+00    5.346823e-01   7.383314e-03
  2.492290e+00    5.369316e-01   7.398400e-03
  2.494500e+00    5.580720e-01   7.541890e-03
  2.496710e+00    5.502068e-01   7.487859e-03
  2.498921e+00    5.537086e-01   7.510646e-03
  2.501131e+00    5.415854e-01   7.427010e-03
  2.503342e+00    5.320044e-01   7.359753e-03
  2.505552e+00    5.411746e-01   7.421772e-03
  2.507763e+00    5.486179e-01   7.471193e-03
  2.509973e+00    5.397499e-01   7.409170e-03
  2.512184e+00    5.324538e-01   7.357296e-03
  2.514394e+00    5.392302e-01   7.394479e-03
  2.516605e+00    5.468694e-01   7.398732e-03
  2.518815e+00    5.384541e-01   7.312909e-03
  2.521025e+00    5.343648e-01   7.263954e-03
  2.523236e+00    5.402774e-01   7.285801e-03
  2.525446e+00    5.301393e-01   7.201448e-03
  2.527657e+00    5.268075e-01   7.164151e-03
  2.529867e+00    5.271509e-01   7.152280e-03
  2.532078e+00    5.266598e-01   7.133895e-03
  2.534288e+00    5.077680e-01   6.991107e-03
  2.536499e+00    5.171112e-01   7.043282e-03
  2.538709e+00    5.180690e-01   7.038869e-03
  2.540920e+00    5.192511e-01   7.036303e-03
  2.543130e+00    5.234488e-01   7.054335e-03
  2.545340e+00    5.250766e-01   7.055202e-03
  2.547551e+00    5.325875e-01   7.095471e-03
  2.549761e+00    5.235128e-01   7.025152e-03
  2.551972e+00    5.255588e-01   7.029492e-03
  2.554182e+00    5.084771e-01   6.905240e-03
  2.556393e+00    5.223582e-01   6.989759e-03
  2.558603e+00    5.127764e-01   6.916348e-03
  2.560814e+00    5.109357e-01   6.895297e-03
  2.563024e+00    5.144103e-01   6.910146e-03
  2.565235e+00    5.359719e-01   7.043832e-03
  2.567445e+00    5.220765e-01   6.942353e-03
  2.569656e+00    5.116308e-01   6.862856e-03
  2.571866e+00    5.092942e-01   6.837892e-03
  2.574076e+00    5.180421e-01   6.887073e-03
  2.576287e+00    5.168087e-01   6.870559e-03
  2.578497e+00    5.123613e-01   6.833100e-03
  2.580708e+00    5.219100e-01   6.888351e-03
  2.582918e+00    5.255180e-01   6.904267e-03
  2.585129e+00    5.220323e-01   6.873539e-03
  2.587339e+00    5.243324e-01   6.880909e-03
  2.589550e+00    5.114534e-01   6.788337e-03
  2.591760e+00    5.129704e-01   6.790641e-03
  2.593971e+00    5.270772e-01   6.875752e-03
  2.596181e+00    5.027729e-01   6.709189e-03
  2.598391e+00    5.147079e-01   6.783124e-03
  2.600602e+00    5.164167e-01   6.788447e-03
  2.602812e+00    5.067780e-01   6.717272e-03
  2.605023e+00    5.153416e-01   6.766566e-03
  2.607233e+00    4.947613e-01   6.623043e-03
  2.609444e+00    4.983766e-01   6.640025e-03
  2.611654e+00    4.996476e-01   6.641213e-03
  2.613865e+00    5.007017e-01   6.641225e-03
  2.616075e+00    5.070799e-01   6.676233e-03
  2.618286e+00    5.093342e-01   6.684050e-03
  2.620496e+00    5.052332e-01   6.650378e-03
  2.622706e+00    5.133898e-01   6.698062e-03
  2.624917e+00    4.920683e-01   6.551727e-03
  2.627127e+00    4.881370e-01   6.519854e-03
  2.629338e+00    4.923300e-01   6.541866e-03
  2.631548e+00    4.983278e-01   6.575475e-03
  2.633759e+00    4.952644e-01   6.548133e-03
  2.635969e+00    4.935351e-01   6.530051e-03
  2.638180e+00    5.078400e-01   6.616988e-03
  2.640390e+00    4.902083e-01   6.494570e-03
  2.642601e+00    4.912900e-01   6.495144e-03
  2.644811e+00    5.014802e-01   6.555051e-03
  2.647021e+00    4.986477e-01   6.529985e-03
  2.649232e+00    4.816297e-01   6.410981e-03
  2.651442e+00    4.881669e-01   6.447901e-03
  2.653653e+00    5.087950e-01   6.575870e-03
  2.655863e+00    4.985986e-01   6.502964e-03
  2.658074e+00    5.129579e-01   6.589228e-03
  2.660284e+00    5.114855e-01   6.573316e-03
  2.662495e+00    5.144055e-01   6.585196e-03
  2.664705e+00    5.184001e-01   6.603995e-03
  2.666916e+00    5.076423e-01   6.528588e-03
  2.669126e+00    5.039144e-01   6.498057e-03
  2.671337e+00    5.012406e-01   6.474178e-03
  2.673547e+00    5.017887e-01   6.471291e-03
  2.675757e+00    4.952517e-01   6.422549e-03
  2.677968e+00    5.014711e-01   6.456178e-03
  2.680178e+00    5.004255e-01   6.442998e-03
  2.682389e+00    5.031045e-01   6.453775e-03
  2.684599e+00    4.793437e-01   6.293423e-03
  2.686810e+00    4.939389e-01   6.381887e-03
  2.689020e+00    4.877429e-01   6.335483e-03
  2.691231e+00    4.844869e-01   6.308048e-03
  2.693441e+00    4.852086e-01   6.306629e-03
  2.695652e+00    4.909728e-01   6.337463e-03
  2.697862e+00    4.864282e-01   6.301745e-03
  2.700072e+00    4.856424e-01   6.290593e-03
  2.702283e+00    4.849874e-01   6.280158e-03
  2.704493e+00    4.841076e-01   6.268207e-03
  2.706704e+00    4.958656e-01   6.337413e-03
  2.708914e+00    4.851888e-01   6.262876e-03
  2.711125e+00    4.761102e-01   6.197826e-03
  2.713335e+00    4.850439e-01   6.249641e-03
  2.715546e+00    4.772907e-01   6.193073e-03
  2.717756e+00    4.818201e-01   6.216547e-03
  2.719967e+00    4.744815e-01   6.162880e-03
  2.722177e+00    4.854278e-01   6.227443e-03
  2.724387e+00    4.769811e-01   6.166979e-03
  2.726598e+00    4.817237e-01   6.191508e-03
  2.728808e+00    4.725522e-01   6.126240e-03
  2.731019e+00    4.774104e-01   6.151544e-03
  2.733229e+00    4.917198e-01   6.237219e-03
  2.735440e+00    4.844953e-01   6.184969e-03
  2.737650e+00    4.786021e-01   6.141237e-03
  2.739861e+00    4.915895e-01   6.217889e-03
  2.742071e+00    4.797295e-01   6.136712e-03
  2.744282e+00    4.827335e-01   6.149624e-03
  2.746492e+00    4.811223e-01   6.133350e-03
  2.748702e+00    4.876611e-01   6.168924e-03
  2.750913e+00    4.913123e-01   6.186150e-03
  2.753123e+00    4.775847e-01   6.093013e-03
  2.755334e+00    4.751156e-01   6.071203e-03
  2.757544e+00    4.756260e-01   6.068752e-03
  2.759755e+00    4.796238e-01   6.088321e-03
  2.761965e+00    4.853909e-01   6.118809e-03
  2.764176e+00    4.781587e-01   6.067078e-03
  2.766386e+00    4.713653e-01   6.018087e-03
  2.768597e+00    4.769138e-01   6.047551e-03
  2.770807e+00    4.821696e-01   6.074884e-03
  2.773017e+00    4.739771e-01   6.017137e-03
  2.775228e+00    4.722013e-01   6.000080e-03
  2.777438e+00    4.766512e-01   6.022505e-03
  2.779649e+00    4.852881e-01   6.070888e-03
  2.781859e+00    4.790337e-01   6.025875e-03
  2.784070e+00    4.662356e-01   5.939031e-03
  2.786280e+00    4.794341e-01   6.016728e-03
  2.788491e+00    4.694130e-01   5.947733e-03
  2.790701e+00    4.737669e-01   5.969616e-03
  2.792912e+00    4.664876e-01   5.917685e-03
  2.795122e+00    4.660892e-01   5.909473e-03
  2.797333e+00    4.675694e-01   5.913338e-03
  2.799543e+00    4.733092e-01   5.943672e-03
  2.801753e+00    4.709951e-01   5.923304e-03
  2.803964e+00    4.619204e-01   5.860382e-03
  2.806174e+00    4.553203e-01   5.812334e-03
  2.808385e+00    4.758748e-01   5.935275e-03
  2.810595e+00    4.801469e-01   5.954961e-03
  2.812806e+00    4.757164e-01   5.920816e-03
  2.815016e+00    4.639992e-01   5.842741e-03
  2.817227e+00    4.651529e-01   5.875675e-03
  2.819437e+00    4.816579e-01   5.990192e-03
  2.821648e+00    4.665205e-01   5.897589e-03
  2.823858e+00    4.678053e-01   5.910994e-03
  2.826068e+00    4.753237e-01   5.963314e-03
  2.828279e+00    4.723751e-01   5.948821e-03
  2.830489e+00    4.738868e-01   5.961669e-03
  2.832700e+00    4.772805e-01   5.985561e-03
  2.834910e+00    4.558367e-01   5.851588e-03
  2.837121e+00    4.478188e-01   5.801555e-03
  2.839331e+00    4.565878e-01   5.859284e-03
  2.841542e+00    4.607563e-01   5.886977e-03
  2.843752e+00    4.706230e-01   5.950456e-03
  2.845963e+00    4.676926e-01   5.932314e-03
  2.848173e+00    4.700860e-01   5.947547e-03
  2.850383e+00    4.733396e-01   5.968398e-03
  2.852594e+00    4.628436e-01   5.901779e-03
  2.854804e+00    4.651916e-01   5.916217e-03
  2.857015e+00    4.628246e-01   5.900726e-03
  2.859225e+00    4.581423e-01   5.870545e-03
  2.861436e+00    4.685667e-01   5.936293e-03
  2.863646e+00    4.565490e-01   5.859725e-03
  2.865857e+00    4.573514e-01   5.865209e-03
  2.868067e+00    4.522941e-01   5.832898e-03
  2.870278e+00    4.676630e-01   5.930815e-03
  2.872488e+00    4.674807e-01   5.928511e-03
  2.874698e+00    4.675748e-01   5.928034e-03
  2.876909e+00    4.862883e-01   6.044155e-03
  2.879119e+00    4.636525e-01   5.900193e-03
  2.881330e+00    4.551828e-01   5.844580e-03
  2.883540e+00    4.675718e-01   5.922192e-03
  2.885751e+00    4.547095e-01   5.838533e-03
  2.887961e+00    4.685580e-01   5.924876e-03
  2.890172e+00    4.656218e-01   5.904684e-03
  2.892382e+00    4.519935e-01   5.815836e-03
  2.894593e+00    4.733211e-01   5.949613e-03
  2.896803e+00    4.668247e-01   5.906671e-03
  2.899014e+00    4.625817e-01   5.877839e-03
  2.901224e+00    4.567551e-01   5.838728e-03
  2.903434e+00    4.585606e-01   5.848299e-03
  2.905645e+00    4.574329e-01   5.838898e-03
  2.907855e+00    4.527509e-01   5.806857e-03
  2.910066e+00    4.475141e-01   5.771105e-03
  2.912276e+00    4.581829e-01   5.837394e-03
  2.914487e+00    4.462298e-01   5.758310e-03
  2.916697e+00    4.577828e-01   5.830159e-03
  2.918908e+00    4.528239e-01   5.796513e-03
  2.921118e+00    4.580039e-01   5.826869e-03
  2.923329e+00    4.582539e-01   5.826135e-03
  2.925539e+00    4.677125e-01   5.883673e-03
  2.927749e+00    4.538645e-01   5.793596e-03
  2.929960e+00    4.544236e-01   5.794387e-03
  2.932170e+00    4.556884e-01   5.800147e-03
  2.934381e+00    4.515745e-01   5.771455e-03
  2.936591e+00    4.564511e-01   5.799956e-03
  2.938802e+00    4.516111e-01   5.766446e-03
  2.941012e+00    4.591485e-01   5.812002e-03
  2.943223e+00    4.419632e-01   5.699565e-03
  2.945433e+00    4.615555e-01   5.820747e-03
  2.947644e+00    4.508475e-01   5.748734e-03
  2.949854e+00    4.544564e-01   5.767421e-03
  2.952064e+00    4.459047e-01   5.708715e-03
  2.954275e+00    4.557509e-01   5.766994e-03
  2.956485e+00    4.648315e-01   5.819920e-03
  2.958696e+00    4.474196e-01   5.705560e-03
  2.960906e+00    4.643342e-01   5.808155e-03
  2.963117e+00    4.588598e-01   5.769338e-03
  2.965327e+00    4.433533e-01   5.667146e-03
  2.967538e+00    4.545732e-01   5.735499e-03
  2.969748e+00    4.572563e-01   5.749573e-03
  2.971959e+00    4.586461e-01   5.755150e-03
  2.974169e+00    4.553534e-01   5.731879e-03
  2.976379e+00    4.517728e-01   5.706381e-03
  2.978590e+00    4.471426e-01   5.673950e-03
  2.980800e+00    4.570243e-01   5.733505e-03
  2.983011e+00    4.541891e-01   5.712884e-03
  2.985221e+00    4.525059e-01   5.699138e-03
  2.987432e+00    4.711837e-01   5.812400e-03
  2.989642e+00    4.617236e-01   5.751131e-03
  2.991853e+00    4.569502e-01   5.718019e-03
  2.994063e+00    4.473679e-01   5.654861e-03
  2.996274e+00    4.546919e-01   5.697775e-03
  2.998484e+00    4.555742e-01   5.700603e-03
  3.000694e+00    4.494671e-01   5.658821e-03
  3.002905e+00    4.524434e-01   5.674581e-03
  3.005115e+00    4.597853e-01   5.717454e-03
  3.007326e+00    4.577380e-01   5.701533e-03
  3.009536e+00    4.463637e-01   5.627022e-03
  3.011747e+00    4.545367e-01   5.675390e-03
  3.013957e+00    4.529397e-01   5.662214e-03
  3.016168e+00    4.595262e-01   5.699973e-03
  3.018378e+00    4.492094e-01   5.632592e-03
  3.020589e+00    4.543902e-01   5.661751e-03
  3.022799e+00    4.500767e-01   5.631668e-03
  3.025010e+00    4.578140e-01   5.676600e-03
  3.027220e+00    4.528829e-01   5.642856e-03
  3.029430e+00    4.402370e-01   5.560301e-03
  3.031641e+00    4.595298e-01   5.677648e-03
  3.033851e+00    4.568686e-01   5.657680e-03
  3.036062e+00    4.480580e-01   5.600073e-03
  3.038272e+00    4.444507e-01   5.573950e-03
  3.040483e+00    4.416731e-01   5.553306e-03
  3.042693e+00    4.459575e-01   5.576923e-03
  3.044904e+00    4.493881e-01   5.594339e-03
  3.047114e+00    4.480651e-01   5.581293e-03
  3.049325e+00    4.578276e-01   5.637344e-03
  3.051535e+00    4.417298e-01   5.533002e-03
  3.053745e+00    4.470949e-01   5.561757e-03
  3.055956e+00    4.524226e-01   5.590234e-03
  3.058166e+00    4.579198e-01   5.619780e-03
  3.060377e+00    4.597110e-01   5.625951e-03
  3.062587e+00    4.573438e-01   5.606775e-03
  3.064798e+00    4.546299e-01   5.585846e-03
  3.067008e+00    4.521915e-01   5.566095e-03
  3.069219e+00    4.601308e-01   5.610184e-03
  3.071429e+00    4.494773e-01   5.541354e-03
  3.073640e+00    4.406916e-01   5.483630e-03
  3.075850e+00    4.574138e-01   5.583059e-03
  3.078060e+00    4.646626e-01   5.623992e-03
  3.080271e+00    4.539638e-01   5.555366e-03
  3.082481e+00    4.554795e-01   5.561162e-03
  3.084692e+00    4.503264e-01   5.526233e-03
  3.086902e+00    4.488206e-01   5.513738e-03
  3.089113e+00    4.441827e-01   5.481618e-03
  3.091323e+00    4.473480e-01   5.497744e-03
  3.093534e+00    4.467842e-01   5.490907e-03
  3.095744e+00    4.605226e-01   5.571252e-03
  3.097955e+00    4.707170e-01   5.628966e-03
  3.100165e+00    4.657075e-01   5.595519e-03
  3.102375e+00    4.608282e-01   5.562656e-03
  3.104586e+00    4.651010e-01   5.584824e-03
  3.106796e+00    4.641787e-01   5.575703e-03
  3.109007e+00    4.575790e-01   5.532666e-03
  3.111217e+00    4.567265e-01   5.523760e-03
  3.113428e+00    4.573384e-01   5.523996e-03
  3.115638e+00    4.489711e-01   5.470010e-03
  3.117849e+00    4.467373e-01   5.452634e-03
  3.120059e+00    4.404895e-01   5.410943e-03
  3.122270e+00    4.354115e-01   5.376417e-03
  3.124480e+00    4.514162e-01   5.470638e-03
  3.126691e+00    4.437369e-01   5.420359e-03
  3.128901e+00    4.326730e-01   5.349254e-03
  3.131111e+00    4.430636e-01   5.409283e-03
  3.133322e+00    4.541849e-01   5.473261e-03
  3.135532e+00    4.527673e-01   5.461283e-03
  3.137743e+00    4.502114e-01   5.442342e-03
  3.139953e+00    4.428571e-01   5.394018e-03
  3.142164e+00    4.379880e-01   5.376256e-03
  3.144374e+00    4.436851e-01   5.439529e-03
  3.146585e+00    4.546996e-01   5.521405e-03
  3.148795e+00    4.452947e-01   5.474836e-03
  3.151006e+00    4.364641e-01   5.428752e-03
  3.153216e+00    4.431280e-01   5.477197e-03
  3.155426e+00    4.355885e-01   5.436662e-03
  3.157637e+00    4.382053e-01   5.458479e-03
  3.159847e+00    4.445712e-01   5.502889e-03
  3.162058e+00    4.446106e-01   5.507571e-03
  3.164268e+00    4.384462e-01   5.473333e-03
  3.166479e+00    4.330653e-01   5.443253e-03
  3.168689e+00    4.428264e-01   5.507635e-03
  3.170900e+00    4.521076e-01   5.568268e-03
  3.173110e+00    4.479886e-01   5.545765e-03
  3.175321e+00    4.351519e-01   5.468206e-03
  3.177531e+00    4.351190e-01   5.470734e-03
  3.179741e+00    4.325811e-01   5.456808e-03
  3.181952e+00    4.429117e-01   5.523710e-03
  3.184162e+00    4.443151e-01   5.534661e-03
  3.186373e+00    4.315952e-01   5.456451e-03
  3.188583e+00    4.353472e-01   5.481900e-03
  3.190794e+00    4.410325e-01   5.519344e-03
  3.193004e+00    4.176303e-01   5.372145e-03
  3.195215e+00    4.286841e-01   5.444230e-03
  3.197425e+00    4.414660e-01   5.526058e-03
  3.199636e+00    4.206744e-01   5.393571e-03
  3.201846e+00    4.275230e-01   5.436708e-03
  3.204056e+00    4.271023e-01   5.434932e-03
  3.206267e+00    4.239466e-01   5.415635e-03
  3.208477e+00    4.153252e-01   5.361195e-03
  3.210688e+00    4.310651e-01   5.462675e-03
  3.212898e+00    4.317605e-01   5.467645e-03
  3.215109e+00    4.420134e-01   5.532966e-03
  3.217319e+00    4.218760e-01   5.406090e-03
  3.219530e+00    4.351263e-01   5.490716e-03
  3.221740e+00    4.306746e-01   5.463111e-03
  3.223951e+00    4.387237e-01   5.514415e-03
  3.226161e+00    4.329637e-01   5.478280e-03
  3.228372e+00    4.266043e-01   5.438429e-03
  3.230582e+00    4.309417e-01   5.466141e-03
  3.232792e+00    4.241938e-01   5.423410e-03
  3.235003e+00    4.272951e-01   5.443427e-03
  3.237213e+00    4.309428e-01   5.466722e-03
  3.239424e+00    4.293874e-01   5.456852e-03
  3.241634e+00    4.274798e-01   5.444834e-03
  3.243845e+00    4.376911e-01   5.509551e-03
  3.246055e+00    4.264438e-01   5.438029e-03
  3.248266e+00    4.335724e-01   5.483497e-03
  3.250476e+00    4.251525e-01   5.429713e-03
  3.252687e+00    4.264928e-01   5.438147e-03
  3.254897e+00    4.275481e-01   5.444770e-03
  3.257107e+00    4.328156e-01   5.477886e-03
  3.259318e+00    4.196562e-01   5.393750e-03
  3.261528e+00    4.263701e-01   5.436573e-03
  3.263739e+00    4.278175e-01   5.445228e-03
  3.265949e+00    4.402249e-01   5.523502e-03
  3.268160e+00    4.257973e-01   5.431837e-03
  3.270370e+00    4.258399e-01   5.431585e-03
  3.272581e+00    4.248296e-01   5.424864e-03
  3.274791e+00    4.179858e-01   5.380469e-03
  3.277002e+00    4.266226e-01   5.435200e-03
  3.279212e+00    4.196517e-01   5.390241e-03
  3.281422e+00    4.250919e-01   5.424482e-03
  3.283633e+00    4.282506e-01   5.443922e-03
  3.285843e+00    4.365724e-01   5.496211e-03
  3.288054e+00    4.361435e-01   5.492573e-03
  3.290264e+00    4.187598e-01   5.381684e-03
  3.292475e+00    4.366455e-01   5.494557e-03
  3.294685e+00    4.306369e-01   5.455990e-03
  3.296896e+00    4.248869e-01   5.418685e-03
  3.299106e+00    4.232257e-01   5.407534e-03
  3.301317e+00    4.083169e-01   5.310416e-03
  3.303527e+00    4.284337e-01   5.439185e-03
  3.305737e+00    4.275720e-01   5.432659e-03
  3.307948e+00    4.332980e-01   5.468239e-03
  3.310158e+00    4.297785e-01   5.445150e-03
  3.312369e+00    4.375722e-01   5.493365e-03
  3.314579e+00    4.255937e-01   5.416773e-03
  3.316790e+00    4.354206e-01   5.478212e-03
  3.319000e+00    4.292780e-01   5.438273e-03
  3.321211e+00    4.144853e-01   5.343104e-03
  3.323421e+00    4.356307e-01   5.476515e-03
  3.325632e+00    4.289211e-01   5.433265e-03
  3.327842e+00    4.177674e-01   5.361264e-03
  3.330052e+00    4.163760e-01   5.351244e-03
  3.332263e+00    4.154171e-01   5.344066e-03
  3.334473e+00    4.197822e-01   5.371178e-03
  3.336684e+00    4.246345e-01   5.400850e-03
  3.338894e+00    4.433381e-01   5.517648e-03
  3.341105e+00    4.358799e-01   5.469827e-03
  3.343315e+00    4.377442e-01   5.480327e-03
  3.345526e+00    4.135482e-01   5.325864e-03
  3.347736e+00    4.021098e-01   5.250277e-03
  3.349947e+00    4.175741e-01   5.349354e-03
  3.352157e+00    4.161150e-01   5.338839e-03
  3.354368e+00    4.225571e-01   5.378703e-03
  3.356578e+00    4.364710e-01   5.465492e-03
  3.358788e+00    4.282260e-01   5.412304e-03
  3.360999e+00    4.175790e-01   5.343338e-03
  3.363209e+00    4.166305e-01   5.336251e-03
  3.365420e+00    4.187202e-01   5.348106e-03
  3.367630e+00    4.153232e-01   5.325351e-03
  3.369841e+00    4.066977e-01   5.268346e-03
  3.372051e+00    4.230630e-01   5.371314e-03
  3.374262e+00    4.245670e-01   5.378378e-03
  3.376472e+00    4.306682e-01   5.414417e-03
  3.378683e+00    4.184994e-01   5.334867e-03
  3.380893e+00    4.098686e-01   5.277240e-03
  3.383103e+00    4.137625e-01   5.299537e-03
  3.385314e+00    4.311700e-01   5.407609e-03
  3.387524e+00    4.065711e-01   5.248394e-03
  3.389735e+00    4.058766e-01   5.241278e-03
  3.391945e+00    4.126240e-01   5.281015e-03
  3.394156e+00    4.146212e-01   5.289531e-03
  3.396366e+00    4.023113e-01   5.207077e-03
  3.398577e+00    4.157045e-01   5.289951e-03
  3.400787e+00    4.124002e-01   5.280830e-03
  3.402998e+00    3.993073e-01   5.233912e-03
  3.405208e+00    3.947962e-01   5.224610e-03
  3.407418e+00    4.016580e-01   5.285629e-03
  3.409629e+00    3.970910e-01   5.269395e-03
  3.411839e+00    3.856260e-01   5.204342e-03
  3.414050e+00    3.930026e-01   5.264805e-03
  3.416260e+00    3.891034e-01   5.248197e-03
  3.418471e+00    4.097860e-01   5.395500e-03
  3.420681e+00    3.830321e-01   5.224797e-03
  3.422892e+00    3.832696e-01   5.234310e-03
  3.425102e+00    3.972503e-01   5.336828e-03
  3.427313e+00    3.853089e-01   5.263164e-03
  3.429523e+00    3.911668e-01   5.310113e-03
  3.431733e+00    3.873822e-01   5.291054e-03
  3.433944e+00    3.773159e-01   5.228281e-03
  3.436154e+00    3.721825e-01   5.198737e-03
  3.438365e+00    3.823555e-01   5.275234e-03
  3.440575e+00    3.807649e-01   5.270198e-03
  3.442786e+00    3.750921e-01   5.236337e-03
  3.444996e+00    3.851304e-01   5.311532e-03
  3.447207e+00    3.742424e-01   5.241208e-03
  3.449417e+00    3.777628e-01   5.306923e-03
  3.451628e+00    3.824428e-01   5.369694e-03
  3.453838e+00    3.810855e-01   5.381679e-03
  3.456049e+00    3.805318e-01   5.402138e-03
  3.458259e+00    3.706734e-01   5.353761e-03
  3.460469e+00    3.522028e-01   5.238072e-03
  3.462680e+00    3.586351e-01   5.304524e-03
  3.464890e+00    3.709834e-01   5.412981e-03
  3.467101e+00    3.649485e-01   5.386182e-03
  3.469311e+00    3.898230e-01   5.583690e-03
  3.471522e+00    3.850176e-01   5.565792e-03
  3.473732e+00    3.987493e-01   5.680532e-03
  3.475943e+00    4.073025e-01   5.757350e-03
  3.478153e+00    4.010682e-01   5.728822e-03
  3.480364e+00    3.999723e-01   5.736240e-03
  3.482574e+00    4.133813e-01   5.847126e-03
  3.484784e+00    4.284198e-01   5.967733e-03
  3.486995e+00    4.347452e-01   6.027074e-03
  3.489205e+00    4.309029e-01   6.015155e-03
  3.491416e+00    4.470869e-01   6.142355e-03
  3.493626e+00    4.495092e-01   6.173795e-03
  3.495837e+00    4.478662e-01   6.177392e-03
  3.498047e+00    4.579552e-01   6.261280e-03
  3.500258e+00    4.548874e-01   6.254900e-03
  3.502468e+00    4.640748e-01   6.332330e-03
  3.504679e+00    4.809056e-01   6.460922e-03
  3.506889e+00    4.583043e-01   6.321644e-03
  3.509099e+00    4.554048e-01   6.315678e-03
  3.511310e+00    4.766625e-01   6.475878e-03
  3.513520e+00    5.046496e-01   6.678048e-03
  3.515731e+00    4.822875e-01   6.542750e-03
  3.517941e+00    4.813385e-01   6.550507e-03
  3.520152e+00    4.995485e-01   6.687677e-03
  3.522362e+00    5.229384e-01   6.857228e-03
  3.524573e+00    5.107962e-01   6.791535e-03
  3.526783e+00    5.113796e-01   6.808752e-03
  3.528994e+00    5.084583e-01   6.801413e-03
  3.531204e+00    5.175611e-01   6.874443e-03
  3.533414e+00    5.472335e-01   7.081077e-03
  3.535625e+00    5.295518e-01   6.978145e-03
  3.537835e+00    5.429909e-01   7.078332e-03
  3.540046e+00    5.529388e-01   7.151983e-03
  3.542256e+00    5.575198e-01   7.189222e-03
  3.544467e+00    5.584355e-01   7.202922e-03
  3.546677e+00    5.490505e-01   7.149816e-03
  3.548888e+00    5.278110e-01   7.017579e-03
  3.551098e+00    5.419908e-01   7.118514e-03
  3.553309e+00    5.472706e-01   7.161424e-03
  3.555519e+00    5.413907e-01   7.134158e-03
  3.557729e+00    5.238240e-01   7.029068e-03
  3.559940e+00    5.494827e-01   7.210813e-03
  3.562150e+00    5.457250e-01   7.197995e-03
  3.564361e+00    5.405225e-01   7.176929e-03
  3.566571e+00    5.502230e-01   7.255094e-03
  3.568782e+00    5.282229e-01   7.122586e-03
  3.570992e+00    5.188110e-01   7.072339e-03
  3.573203e+00    5.305141e-01   7.165748e-03
  3.575413e+00    5.332448e-01   7.197940e-03
  3.577624e+00    5.144445e-01   7.083704e-03
  3.579834e+00    5.294030e-01   7.199761e-03
  3.582045e+00    5.470525e-01   7.332968e-03
  3.584255e+00    5.395271e-01   7.296483e-03
  3.586465e+00    5.230368e-01   7.197853e-03
  3.588676e+00    5.364929e-01   7.304054e-03
  3.590886e+00    5.372477e-01   7.322924e-03
  3.593097e+00    5.275033e-01   7.270586e-03
  3.595307e+00    5.240617e-01   7.260618e-03
  3.597518e+00    5.276997e-01   7.299858e-03
  3.599728e+00    5.406288e-01   7.402934e-03
  3.601939e+00    5.220693e-01   7.288647e-03
  3.604149e+00    5.270107e-01   7.337333e-03
  3.606360e+00    5.224618e-01   7.319574e-03
  3.608570e+00    5.369657e-01   7.434642e-03
  3.610780e+00    5.462378e-01   7.509757e-03
  3.612991e+00    5.545877e-01   7.577123e-03
  3.615201e+00    5.365132e-01   7.462448e-03
  3.617412e+00    5.553079e-01   7.599430e-03
  3.619622e+00    5.394267e-01   7.495972e-03
  3.621833e+00    5.408205e-01   7.512401e-03
  3.624043e+00    5.512388e-01   7.594052e-03
  3.626254e+00    5.339013e-01   7.483413e-03
  3.628464e+00    5.218361e-01   7.409179e-03
  3.630675e+00    5.259376e-01   7.452278e-03
  3.632885e+00    5.241205e-01   7.453692e-03
  3.635095e+00    5.184884e-01   7.427746e-03
  3.637306e+00    5.335307e-01   7.549046e-03
  3.639516e+00    5.297094e-01   7.536502e-03
  3.641727e+00    5.278807e-01   7.537923e-03
  3.643937e+00    5.406672e-01   7.643351e-03
  3.646148e+00    5.510615e-01   7.731296e-03
  3.648358e+00    5.379301e-01   7.653600e-03
  3.650569e+00    5.696703e-01   7.891355e-03
  3.652779e+00    5.400009e-01   7.698020e-03
  3.654990e+00    5.349110e-01   7.676540e-03
  3.657200e+00    5.205687e-01   7.587668e-03
  3.659410e+00    5.609323e-01   7.891700e-03
  3.661621e+00    5.483370e-01   7.817937e-03
  3.663831e+00    5.301072e-01   7.702009e-03
  3.666042e+00    5.345839e-01   7.749616e-03
  3.668252e+00    5.295889e-01   7.728562e-03
  3.670463e+00    5.394889e-01   7.815853e-03
  3.672673e+00    5.226067e-01   7.707851e-03
  3.674884e+00    5.256960e-01   7.745924e-03
  3.677094e+00    5.273592e-01   7.773663e-03
  3.679305e+00    5.284581e-01   7.797274e-03
  3.681515e+00    5.339732e-01   7.853504e-03
  3.683726e+00    5.323359e-01   7.857327e-03
  3.685936e+00    5.271227e-01   7.834462e-03
  3.688146e+00    5.145253e-01   7.755794e-03
  3.690357e+00    5.219119e-01   7.827133e-03
  3.692567e+00    5.305704e-01   7.907981e-03
  3.694778e+00    5.239744e-01   7.874685e-03
  3.696988e+00    5.283839e-01   7.923768e-03
  3.699199e+00    5.364358e-01   8.000312e-03
  3.701409e+00    5.156761e-01   7.860263e-03
  3.703620e+00    5.120296e-01   7.848457e-03
  3.705830e+00    5.163479e-01   7.897813e-03
  3.708041e+00    5.124338e-01   7.884194e-03
  3.710251e+00    5.222411e-01   7.975987e-03
  3.712461e+00    5.169388e-01   7.952051e-03
  3.714672e+00    4.994507e-01   7.832732e-03
  3.716882e+00    5.313513e-01   8.095876e-03
  3.719093e+00    5.397578e-01   8.177145e-03
  3.721303e+00    5.275905e-01   8.101553e-03
  3.723514e+00    5.161334e-01   8.030311e-03
  3.725724e+00    5.110987e-01   8.008087e-03
  3.727935e+00    5.179175e-01   8.078799e-03
  3.730145e+00    5.105028e-01   8.037924e-03
  3.732356e+00    5.214117e-01   8.141037e-03
  3.734566e+00    5.114596e-01   8.080398e-03
  3.736776e+00    5.238770e-01   8.195837e-03
  3.738987e+00    5.135358e-01   8.132252e-03
  3.741197e+00    5.293205e-01   8.274616e-03
  3.743408e+00    5.146452e-01   8.177108e-03
  3.745618e+00    5.072561e-01   8.136476e-03
  3.747829e+00    5.068121e-01   8.150907e-03
  3.750039e+00    4.957606e-01   8.079595e-03
  3.752250e+00    5.308081e-01   8.379175e-03
  3.754460e+00    5.045338e-01   8.187582e-03
  3.756671e+00    5.238889e-01   8.362260e-03
  3.758881e+00    5.091873e-01   8.262701e-03
  3.761091e+00    5.254835e-01   8.413334e-03
  3.763302e+00    5.182575e-01   8.374590e-03
  3.765512e+00    5.108512e-01   8.333819e-03
  3.767723e+00    5.273603e-01   8.487154e-03
  3.769933e+00    5.256568e-01   8.493123e-03
  3.772144e+00    4.972727e-01   8.280113e-03
  3.774354e+00    4.872872e-01   8.215955e-03
  3.776565e+00    5.156165e-01   8.471475e-03
  3.778775e+00    5.226912e-01   8.549729e-03
  3.780986e+00    5.095676e-01   8.462154e-03
  3.783196e+00    4.863994e-01   8.287424e-03
  3.785407e+00    4.998601e-01   8.421619e-03
  3.787617e+00    5.076336e-01   8.507776e-03
  3.789827e+00    4.899072e-01   8.378156e-03
  3.792038e+00    4.787207e-01   8.302290e-03
  3.794248e+00    5.115522e-01   8.603630e-03
  3.796459e+00    5.060996e-01   8.579128e-03
  3.798669e+00    4.996642e-01   8.545792e-03
  3.800880e+00    5.142256e-01   8.691125e-03
  3.803090e+00    4.969033e-01   8.565236e-03
  3.805301e+00    5.092950e-01   8.693646e-03
  3.807511e+00    5.479424e-01   9.040545e-03
  3.809722e+00    5.112205e-01   8.754835e-03
  3.811932e+00    4.930134e-01   8.619608e-03
  3.814142e+00    4.952017e-01   8.661511e-03
  3.816353e+00    5.063772e-01   8.781595e-03
  3.818563e+00    5.110679e-01   8.845713e-03
  3.820774e+00    5.045204e-01   8.812089e-03
  3.822984e+00    4.926088e-01   8.730735e-03
  3.825195e+00    4.836908e-01   8.674705e-03
  3.827405e+00    5.020202e-01   8.861512e-03
  3.829616e+00    4.879019e-01   8.759889e-03
  3.831826e+00    4.912539e-01   8.813882e-03
  3.834037e+00    4.946436e-01   8.868738e-03
  3.836247e+00    4.865255e-01   8.820075e-03
  3.838457e+00    5.038276e-01   9.000720e-03
  3.840668e+00    5.154601e-01   9.129738e-03
  3.842878e+00    4.935544e-01   8.959136e-03
  3.845089e+00    4.793214e-01   8.854083e-03
  3.847299e+00    4.840894e-01   8.923540e-03
  3.849510e+00    5.074576e-01   9.162566e-03
  3.851720e+00    4.863316e-01   8.991006e-03
  3.853931e+00    4.996926e-01   9.132775e-03
  3.856141e+00    4.981313e-01   9.137592e-03
  3.858352e+00    4.919270e-01   9.099679e-03
  3.860562e+00    4.929490e-01   9.128439e-03
  3.862772e+00    5.135747e-01   9.337406e-03
  3.864983e+00    5.007811e-01   9.240220e-03
  3.867193e+00    4.996093e-01   9.249278e-03
  3.869404e+00    4.770767e-01   9.057806e-03
  3.871614e+00    4.763919e-01   9.070891e-03
  3.873825e+00    5.007810e-01   9.320614e-03
  3.876035e+00    5.066135e-01   9.395629e-03
  3.878246e+00    5.366115e-01   9.696744e-03
  3.880456e+00    5.037016e-01   9.424025e-03
  3.882667e+00    5.022522e-01   9.440089e-03
  3.884877e+00    4.668064e-01   9.129846e-03
  3.887087e+00    4.980942e-01   9.460922e-03
  3.889298e+00    5.066594e-01   9.572821e-03
  3.891508e+00    4.703866e-01   9.253695e-03
  3.893719e+00    5.016370e-01   9.587394e-03
  3.895929e+00    5.054792e-01   9.656040e-03
  3.898140e+00    4.692346e-01   9.334399e-03
  3.900350e+00    4.787224e-01   9.459981e-03
  3.902561e+00    5.022184e-01   9.722149e-03
  3.904771e+00    4.921833e-01   9.657424e-03
  3.906982e+00    5.046775e-01   9.812863e-03
  3.909192e+00    5.177891e-01   9.974018e-03
  3.911403e+00    4.819247e-01   9.656162e-03
  3.913613e+00    4.803566e-01   9.674350e-03
  3.915823e+00    4.931548e-01   9.837434e-03
  3.918034e+00    4.810971e-01   9.751386e-03
  3.920244e+00    4.942394e-01   9.919633e-03
  3.922455e+00    4.572209e-01   9.575804e-03
  3.924665e+00    5.041285e-01   1.009204e-02
  3.926876e+00    4.857571e-01   9.943494e-03
  3.929086e+00    5.098955e-01   1.022579e-02
  3.931297e+00    4.738073e-01   9.891568e-03
  3.933507e+00    4.695508e-01   9.875448e-03
  3.935718e+00    5.033405e-01   1.025380e-02
  3.937928e+00    5.115703e-01   1.036746e-02
  3.940138e+00    4.889444e-01   1.016493e-02
  3.942349e+00    5.194200e-01   1.050788e-02
  3.944559e+00    4.980509e-01   1.031970e-02
  3.946770e+00    4.935998e-01   1.030393e-02
  3.948980e+00    4.880349e-01   1.027641e-02
  3.951191e+00    4.850952e-01   1.027625e-02
  3.953401e+00    4.976570e-01   1.044009e-02
  3.955612e+00    4.763432e-01   1.024557e-02
  3.957822e+00    4.965323e-01   1.049225e-02
  3.960033e+00    5.040870e-01   1.060513e-02
  3.962243e+00    4.947825e-01   1.053993e-02
  3.964453e+00    4.957014e-01   1.058308e-02
  3.966664e+00    5.262098e-01   1.093874e-02
  3.968874e+00    4.977419e-01   1.066751e-02
  3.971085e+00    4.922434e-01   1.063048e-02
  3.973295e+00    4.838230e-01   1.056057e-02
  3.975506e+00    4.969385e-01   1.072457e-02
  3.977716e+00    5.160762e-01   1.095187e-02
  3.979927e+00    4.694297e-01   1.046693e-02
  3.982137e+00    5.249982e-01   1.109228e-02
  3.984348e+00    5.110795e-01   1.096746e-02
  3.986558e+00    5.112196e-01   1.099185e-02
  3.988768e+00    4.919159e-01   1.080545e-02
  3.990979e+00    5.342110e-01   1.128432e-02
  3.993189e+00    5.090961e-01   1.103957e-02
  3.995400e+00    4.893277e-01   1.084667e-02
  3.997610e+00    4.746243e-01   1.071200e-02
  3.999821e+00    4.812373e-01   1.082379e-02
  4.002031e+00    4.592258e-01   1.061063e-02
  4.004242e+00    4.799095e-01   1.088533e-02
  4.006452e+00    4.786628e-01   1.091023e-02
  4.008663e+00    4.998810e-01   1.119006e-02
  4.010873e+00    4.797887e-01   1.100267e-02
  4.013084e+00    4.655119e-01   1.087787e-02
  4.015294e+00    4.921372e-01   1.122592e-02
  4.017504e+00    4.547963e-01   1.083222e-02
  4.019715e+00    4.724459e-01   1.108234e-02
  4.021925e+00    4.700902e-01   1.109711e-02
  4.024136e+00    4.608511e-01   1.103003e-02
  4.026346e+00    4.884354e-01   1.139972e-02
  4.028557e+00    5.085189e-01   1.167717e-02
  4.030767e+00    4.850978e-01   1.145083e-02
  4.032978e+00    4.600811e-01   1.119680e-02
  4.035188e+00    4.597532e-01   1.123782e-02
  4.037399e+00    4.815453e-01   1.154841e-02
  4.039609e+00    5.135970e-01   1.197599e-02
  4.041819e+00    4.840464e-01   1.167503e-02
  4.044030e+00    4.845831e-01   1.173154e-02
  4.046240e+00    4.806971e-01   1.173407e-02
  4.048451e+00    4.977083e-01   1.199164e-02
  4.050661e+00    4.842736e-01   1.188018e-02
  4.052872e+00    4.724906e-01   1.178703e-02
  4.055082e+00    4.565957e-01   1.163905e-02
  4.057293e+00    4.549358e-01   1.167004e-02
  4.059503e+00    4.687511e-01   1.189980e-02
  4.061714e+00    4.849353e-01   1.216005e-02
  4.063924e+00    5.099781e-01   1.252858e-02
  4.066134e+00    4.936175e-01   1.238406e-02
  4.068345e+00    4.465449e-01   1.183546e-02
  4.070555e+00    4.782445e-01   1.230735e-02
  4.072766e+00    4.716313e-01   1.228219e-02
  4.074976e+00    4.919313e-01   1.260630e-02
  4.077187e+00    5.183021e-01   1.300419e-02
  4.079397e+00    4.598828e-01   1.231191e-02
  4.081608e+00    4.816313e-01   1.266519e-02
  4.083818e+00    4.878924e-01   1.281356e-02
  4.086029e+00    5.058141e-01   1.311545e-02
  4.088239e+00    4.619131e-01   1.260112e-02
  4.090449e+00    4.476647e-01   1.247225e-02
  4.092660e+00    4.685318e-01   1.282993e-02
  4.094870e+00    5.132586e-01   1.350303e-02
  4.097081e+00    4.870519e-01   1.322595e-02
  4.099291e+00    4.722080e-01   1.307655e-02
  4.101502e+00    5.102822e-01   1.364439e-02
  4.103712e+00    5.057390e-01   1.363405e-02
  4.105923e+00    4.827106e-01   1.337157e-02
  4.108133e+00    4.601528e-01   1.310574e-02
  4.110344e+00    4.889054e-01   1.356072e-02
  4.112554e+00    4.776736e-01   1.345694e-02
  4.114764e+00    4.396681e-01   1.296256e-02
  4.116975e+00    5.021187e-01   1.390684e-02
  4.119185e+00    5.034882e-01   1.398251e-02
  4.121396e+00    5.159580e-01   1.421324e-02
  4.123606e+00    4.889988e-01   1.389351e-02
  4.125817e+00    4.823754e-01   1.385703e-02
  4.128027e+00    4.881960e-01   1.399904e-02
  4.130238e+00    4.997483e-01   1.422431e-02
  4.132448e+00    5.052270e-01   1.436432e-02
  4.134659e+00    4.901386e-01   1.420909e-02
  4.136869e+00    4.867045e-01   1.422235e-02
  4.139080e+00    4.747522e-01   1.410984e-02
  4.141290e+00    4.940483e-01   1.445764e-02
  4.143500e+00    4.577471e-01   1.398037e-02
  4.145711e+00    4.560835e-01   1.402027e-02
  4.147921e+00    5.311178e-01   1.519888e-02
  4.150132e+00    5.041505e-01   1.487887e-02
  4.152342e+00    4.980318e-01   1.485988e-02
  4.154553e+00    5.098583e-01   1.510684e-02
  4.156763e+00    4.851611e-01   1.480927e-02
  4.158974e+00    5.034613e-01   1.516181e-02
  4.161184e+00    5.052577e-01   1.526418e-02
  4.163395e+00    5.115865e-01   1.543798e-02
  4.165605e+00    5.208455e-01   1.565792e-02
  4.167815e+00    4.738805e-01   1.501343e-02
  4.170026e+00    4.605514e-01   1.487864e-02
  4.172236e+00    4.754214e-01   1.519855e-02
  4.174447e+00    4.773761e-01   1.531272e-02
  4.176657e+00    5.316318e-01   1.624779e-02
  4.178868e+00    5.515137e-01   1.664233e-02
  4.181078e+00    5.210293e-01   1.626734e-02
  4.183289e+00    4.733115e-01   1.559320e-02
  4.185499e+00    4.195160e-01   1.476683e-02
  4.187710e+00    4.881338e-01   1.602191e-02
  4.189920e+00    5.000528e-01   1.631446e-02
  4.192130e+00    4.462416e-01   1.550552e-02
  4.194341e+00    5.053926e-01   1.660243e-02
  4.196551e+00    4.985656e-01   1.659445e-02
  4.198762e+00    4.985773e-01   1.669984e-02
  4.200972e+00    4.984552e-01   1.680600e-02
  4.203183e+00    4.461345e-01   1.600433e-02
  4.205393e+00    4.495449e-01   1.617236e-02
  4.207604e+00    4.171278e-01   1.568472e-02
  4.209814e+00    4.540941e-01   1.647689e-02
  4.212025e+00    3.991649e-01   1.555775e-02
  4.214235e+00    5.234741e-01   1.794275e-02
  4.216445e+00    4.863425e-01   1.742004e-02
  4.218656e+00    4.458844e-01   1.680441e-02
  4.220866e+00    4.990847e-01   1.791014e-02
  4.223077e+00    4.925505e-01   1.792965e-02
  4.225287e+00    4.780801e-01   1.780316e-02
  4.227498e+00    4.518512e-01   1.744371e-02
  4.229708e+00    4.096923e-01   1.674527e-02
  4.231919e+00    4.989774e-01   1.863241e-02
  4.234129e+00    4.532961e-01   1.790855e-02
  4.236340e+00    4.360385e-01   1.771432e-02
  4.238550e+00    4.721668e-01   1.859605e-02
  4.240761e+00    5.046585e-01   1.939549e-02
  4.242971e+00    4.818704e-01   1.912602e-02
  4.245181e+00    4.892392e-01   1.945261e-02
  4.247392e+00    4.943315e-01   1.973667e-02
  4.249602e+00    4.890384e-01   1.982542e-02
  4.251813e+00    4.432802e-01   1.906139e-02
  4.254023e+00    3.750548e-01   1.770991e-02
  4.256234e+00    4.344722e-01   1.926460e-02
  4.258444e+00    4.743277e-01   2.033945e-02
  4.260655e+00    5.028154e-01   2.117199e-02
  4.262865e+00    4.337711e-01   1.988743e-02
  4.265076e+00    4.379872e-01   2.021127e-02
  4.267286e+00    4.417899e-01   2.053946e-02
  4.269496e+00    4.419558e-01   2.079389e-02
  4.271707e+00    4.935641e-01   2.224642e-02
  4.273917e+00    4.966948e-01   2.260436e-02
  4.276128e+00    5.213649e-01   2.346784e-02
  4.278338e+00    5.020925e-01   2.333693e-02
  4.280549e+00    4.261626e-01   2.180845e-02
  4.282759e+00    4.965466e-01   2.387884e-02
  4.284970e+00    4.534232e-01   2.315618e-02
  4.287180e+00    4.836969e-01   2.420348e-02
  4.289391e+00    4.809331e-01   2.431493e-02
  4.291601e+00    4.556701e-01   2.385767e-02
  4.293811e+00    3.888097e-01   2.220959e-02
  4.296022e+00    4.047831e-01   2.284322e-02
  4.298232e+00    5.235118e-01   2.619587e-02
  4.300443e+00    4.104510e-01   2.338733e-02
  4.302653e+00    4.250201e-01   2.400436e-02
  4.304864e+00    5.200268e-01   2.678123e-02
  4.307074e+00    4.852866e-01   2.610468e-02
  4.309285e+00    4.349338e-01   2.493782e-02
  4.311495e+00    4.861824e-01   2.661251e-02
  4.313706e+00    3.788812e-01   2.371373e-02
  4.315916e+00    4.496926e-01   2.608839e-02
  4.318126e+00    4.952535e-01   2.765024e-02
  4.320337e+00    4.134538e-01   2.551867e-02
  4.322547e+00    4.482355e-01   2.685232e-02
  4.324758e+00    4.052204e-01   2.579704e-02
  4.326968e+00    4.744910e-01   2.822853e-02
  4.329179e+00    5.100865e-01   2.959185e-02
  4.331389e+00    4.093341e-01   2.681418e-02
  4.333600e+00    5.230290e-01   3.067080e-02
  4.335810e+00    4.897576e-01   3.003340e-02
  4.338021e+00    4.043148e-01   2.763763e-02
  4.340231e+00    4.279322e-01   2.878963e-02
  4.342442e+00    4.150161e-01   2.873347e-02
  4.344652e+00    3.093378e-01   2.514191e-02
  4.346862e+00    4.520107e-01   3.081902e-02
  4.349073e+00    4.825448e-01   3.230518e-02
  4.351283e+00    4.327779e-01   3.105157e-02
  4.353494e+00    5.025969e-01   3.397873e-02
  4.355704e+00    4.428923e-01   3.241262e-02
  4.357915e+00    4.097953e-01   3.169555e-02
  4.360125e+00    4.205603e-01   3.265706e-02
  4.362336e+00    3.761787e-01   3.145024e-02
  4.364546e+00    4.303001e-01   3.424575e-02
  4.366757e+00    5.313932e-01   3.881659e-02
  4.368967e+00    4.497793e-01   3.642369e-02
  4.371177e+00    4.498813e-01   3.720205e-02
  4.373388e+00    4.059661e-01   3.612856e-02
  4.375598e+00    5.060830e-01   4.126026e-02
  4.377809e+00    3.551802e-01   3.544074e-02
  4.380019e+00    3.197737e-01   3.447155e-02
  4.382230e+00    2.905357e-01   3.377820e-02
  4.384440e+00    3.489074e-01   3.807660e-02
  4.386651e+00    4.500564e-01   4.458236e-02
  4.388861e+00    4.549955e-01   4.632766e-02
  4.391072e+00    4.127504e-01   4.567840e-02
  4.393282e+00    3.185919e-01   4.167998e-02
  4.395492e+00    5.548356e-01   5.728889e-02
  4.397703e+00    5.395235e-01   5.908037e-02
  4.399913e+00    3.463374e-01   4.972903e-02
  4.402124e+00    4.589788e-01   6.049231e-02
  4.404334e+00    3.111408e-01   5.294978e-02
  4.406545e+00    2.560237e-01   5.160136e-02
  4.408755e+00    7.434057e-02   3.014380e-02
  4.410966e+00    3.411807e-01   7.149240e-02
  4.413176e+00    4.875196e-01   9.674972e-02
  4.415387e+00   -5.870483e-01            nan
  4.417597e+00   -1.900513e+00            nan
  4.419807e+00   -3.766224e-01            nan
