# == pyFAI calibration ==
# Distance Sample to Detector: 0.216 m
# PONI: 1.166e-01, 1.308e-01 m
# Rotations: 0.000000 0.000000 0.000000 rad
# 
# == Fit2d calibration ==
# Distance Sample-beamCenter: 216.000 mm
# Center: x=1744.293, y=1555.000 pix
# Tilt: 0.000 deg  TiltPlanRot: 0.000 deg
# 
# Detector Eiger 9M	 PixelSize= 7.500e-05, 7.500e-05 m
#    Detector has a mask: True 
#    Detector has a dark current: False 
#    detector has a flat field: False 
# 
# Wavelength: 9.8e-11 m
# Mask applied: from detector
# Dark current applied: False
# Flat field applied: False
# Polarization factor: None
# Normalization factor: 1.0
# 
# Headers of the input frame:
# {
# "_array_data.header_convention": "SLS_1.0",
# "_array_data.header_contents": "# Detector: Dectris Eiger 9M, S/N E-18-0102\r\n# Pixel_size 75e-6 m x 75e-6 m\r\n# Silicon sensor, thickness 0.000450 m\r\n# Exposure_time 0.024997 s\r\n# Exposure_period 0.025000 s\r\n# Count_cutoff 62318 counts\r\n# Wavelength 0.980106 A\r\n# Detector_distance 0.215992 m\r\n# Beam_xy (1555, 1744) pixels\r\n# Start_angle 0.000000 deg.\r\n# Angle_increment 0.000000 deg.",
# "Content-Type": "application/octet-stream;",
# "conversions": "x-CBF_BYTE_OFFSET",
# "Content-Transfer-Encoding": "BINARY",
# "X-Binary-Size": "10166618",
# "X-Binary-ID": "1",
# "X-Binary-Element-Type": "signed 32-bit integer",
# "X-Binary-Element-Byte-Order": "LITTLE_ENDIAN",
# "Content-MD5": "dL1Jqdy2DzrBOXxcco9c6A==",
# "X-Binary-Number-of-Elements": "10166590",
# "X-Binary-Size-Fastest-Dimension": "3110",
# "X-Binary-Size-Second-Dimension": "3269",
# "X-Binary-Size-Padding": "4095"
# }
# --> H:/Proxima2a_2019-04-05/RAW_DATA/C5_gel17_position5/C5_mesh_1_data.cbf/C5_mesh_1_data.cbf000133.dat
#        q_A^-1              I           sigma 
  1.105228e-03    7.129164e-01   4.568843e-01
  3.315685e-03    1.264345e+00   3.698948e-01
  5.526141e-03    1.097744e+00   2.665156e-01
  7.736597e-03    1.306303e+00   2.456078e-01
  9.947054e-03    1.504150e+00   2.323390e-01
  1.215751e-02    1.314735e+00   1.964209e-01
  1.436797e-02    1.406919e+00   1.869005e-01
  1.657842e-02    1.225633e+00   1.623770e-01
  1.878888e-02    1.478511e+00   1.675235e-01
  2.099934e-02    1.348492e+00   1.513653e-01
  2.320979e-02    1.330274e+00   1.429893e-01
  2.542025e-02    1.415673e+00   1.409584e-01
  2.763070e-02    1.549819e+00   1.414591e-01
  2.984116e-02    1.457742e+00   1.320130e-01
  3.205162e-02    1.325503e+00   1.214721e-01
  3.426207e-02    1.353951e+00   1.187344e-01
  3.647253e-02    1.477466e+00   1.202122e-01
  3.868299e-02    1.344348e+00   1.113529e-01
  4.089344e-02    1.483444e+00   1.137670e-01
  4.310390e-02    1.501180e+00   1.114654e-01
  4.531436e-02    1.531027e+00   1.097886e-01
  4.752481e-02    1.426083e+00   1.034645e-01
  4.973527e-02    1.367246e+00   9.903190e-02
  5.194572e-02    1.452531e+00   9.987701e-02
  5.415618e-02    1.474685e+00   9.855720e-02
  5.636664e-02    1.473545e+00   9.657103e-02
  5.857709e-02    1.436654e+00   9.353855e-02
  6.078755e-02    1.501086e+00   9.385559e-02
  6.299801e-02    1.533543e+00   9.318466e-02
  6.520846e-02    1.506509e+00   9.078134e-02
  6.741892e-02    1.596955e+00   9.191708e-02
  6.962938e-02    1.557126e+00   8.931578e-02
  7.183983e-02    1.468187e+00   8.538133e-02
  7.405029e-02    1.500267e+00   8.500909e-02
  7.626074e-02    1.526293e+00   8.449080e-02
  7.847120e-02    1.424090e+00   8.045310e-02
  8.068166e-02    1.410460e+00   7.896211e-02
  8.289211e-02    1.432203e+00   7.849988e-02
  8.510257e-02    1.529659e+00   8.006573e-02
  8.731303e-02    1.465501e+00   7.736737e-02
  8.952348e-02    1.417043e+00   7.513443e-02
  9.173394e-02    1.398316e+00   7.372870e-02
  9.394439e-02    1.469475e+00   7.468448e-02
  9.615485e-02    1.482532e+00   7.414668e-02
  9.836531e-02    1.429823e+00   7.199188e-02
  1.005758e-01    1.630756e+00   7.603504e-02
  1.027862e-01    1.658289e+00   7.584345e-02
  1.049967e-01    1.458952e+00   7.038506e-02
  1.072071e-01    1.524725e+00   7.120762e-02
  1.094176e-01    1.554402e+00   7.116624e-02
  1.116280e-01    1.485377e+00   6.887445e-02
  1.138385e-01    1.559833e+00   6.988958e-02
  1.160490e-01    1.532931e+00   6.862041e-02
  1.182594e-01    1.559473e+00   6.856054e-02
  1.204699e-01    1.599668e+00   6.879795e-02
  1.226803e-01    1.564578e+00   6.742066e-02
  1.248908e-01    1.553305e+00   6.657939e-02
  1.271012e-01    1.601982e+00   6.702271e-02
  1.293117e-01    1.628021e+00   6.698442e-02
  1.315222e-01    1.641364e+00   6.668922e-02
  1.337326e-01    1.583000e+00   6.494805e-02
  1.359431e-01    1.533145e+00   6.395455e-02
  1.381535e-01    1.596436e+00   6.613725e-02
  1.403640e-01    1.632091e+00   6.716051e-02
  1.425744e-01    1.583410e+00   6.625699e-02
  1.447849e-01    1.615053e+00   6.693115e-02
  1.469953e-01    1.624959e+00   6.709406e-02
  1.492058e-01    1.673209e+00   6.800375e-02
  1.514163e-01    1.630690e+00   6.702271e-02
  1.536267e-01    1.531258e+00   6.482039e-02
  1.558372e-01    1.582691e+00   6.575451e-02
  1.580476e-01    1.672464e+00   6.742963e-02
  1.602581e-01    1.672689e+00   6.726289e-02
  1.624685e-01    1.690238e+00   6.742971e-02
  1.646790e-01    1.690675e+00   6.724477e-02
  1.668895e-01    1.635032e+00   6.593798e-02
  1.690999e-01    1.631165e+00   6.566215e-02
  1.713104e-01    1.769512e+00   6.817784e-02
  1.735208e-01    1.788792e+00   6.833508e-02
  1.757313e-01    1.889457e+00   7.001143e-02
  1.779417e-01    1.931286e+00   7.055134e-02
  1.801522e-01    1.821994e+00   6.830775e-02
  1.823626e-01    1.926724e+00   7.000966e-02
  1.845731e-01    1.949677e+00   7.019734e-02
  1.867836e-01    1.883184e+00   6.875709e-02
  1.889940e-01    1.910487e+00   6.902741e-02
  1.912045e-01    1.985058e+00   7.012670e-02
  1.934149e-01    2.022373e+00   7.054587e-02
  1.956254e-01    2.006852e+00   7.004285e-02
  1.978358e-01    2.085912e+00   7.116448e-02
  2.000463e-01    2.063725e+00   7.055043e-02
  2.022568e-01    2.009859e+00   6.939507e-02
  2.044672e-01    2.062227e+00   7.005253e-02
  2.066777e-01    1.932911e+00   6.759547e-02
  2.088881e-01    1.976183e+00   6.812431e-02
  2.110986e-01    1.926061e+00   6.702421e-02
  2.133090e-01    1.988322e+00   6.787749e-02
  2.155195e-01    1.963915e+00   6.723586e-02
  2.177300e-01    1.898353e+00   6.558473e-02
  2.199404e-01    1.947791e+00   6.468273e-02
  2.221509e-01    1.958151e+00   6.378958e-02
  2.243613e-01    2.065348e+00   6.468184e-02
  2.265718e-01    2.085847e+00   6.428559e-02
  2.287822e-01    2.056973e+00   6.320722e-02
  2.309927e-01    2.090896e+00   6.314576e-02
  2.332031e-01    2.187329e+00   6.403270e-02
  2.354136e-01    2.232316e+00   6.416357e-02
  2.376241e-01    2.245451e+00   6.385257e-02
  2.398345e-01    2.201905e+00   6.276245e-02
  2.420450e-01    2.091440e+00   6.073068e-02
  2.442554e-01    2.207228e+00   6.195936e-02
  2.464659e-01    2.175206e+00   6.109531e-02
  2.486763e-01    2.182269e+00   6.079217e-02
  2.508868e-01    2.124050e+00   5.959743e-02
  2.530973e-01    2.183655e+00   6.005320e-02
  2.553077e-01    2.168874e+00   5.948658e-02
  2.575182e-01    2.142871e+00   5.877908e-02
  2.597286e-01    2.118212e+00   5.810017e-02
  2.619391e-01    2.201839e+00   5.889495e-02
  2.641495e-01    2.137566e+00   5.770784e-02
  2.663600e-01    1.994737e+00   5.543996e-02
  2.685704e-01    2.049615e+00   5.589276e-02
  2.707809e-01    2.065697e+00   5.581379e-02
  2.729914e-01    2.077945e+00   5.568726e-02
  2.752018e-01    2.106608e+00   5.577818e-02
  2.774123e-01    2.123202e+00   5.571141e-02
  2.796227e-01    2.046311e+00   5.442278e-02
  2.818332e-01    2.038994e+00   5.405438e-02
  2.840436e-01    2.041192e+00   5.382136e-02
  2.862541e-01    1.927114e+00   5.204437e-02
  2.884646e-01    2.034786e+00   5.322471e-02
  2.906750e-01    2.058094e+00   5.327487e-02
  2.928855e-01    1.987398e+00   5.210931e-02
  2.950959e-01    1.966518e+00   5.159674e-02
  2.973064e-01    1.892906e+00   5.039432e-02
  2.995168e-01    1.954444e+00   5.097498e-02
  3.017273e-01    2.003520e+00   5.138346e-02
  3.039377e-01    1.957520e+00   5.056779e-02
  3.061482e-01    1.960620e+00   5.038888e-02
  3.083587e-01    1.926697e+00   4.973486e-02
  3.105691e-01    1.894327e+00   4.910465e-02
  3.127796e-01    1.818839e+00   4.791402e-02
  3.149900e-01    1.928917e+00   4.913700e-02
  3.172005e-01    1.947957e+00   4.917704e-02
  3.194109e-01    1.912708e+00   4.852889e-02
  3.216214e-01    1.948037e+00   4.877520e-02
  3.238319e-01    1.873449e+00   4.764281e-02
  3.260423e-01    1.883864e+00   4.758475e-02
  3.282528e-01    1.873579e+00   4.726576e-02
  3.304632e-01    1.825386e+00   4.647317e-02
  3.326737e-01    1.943628e+00   4.776761e-02
  3.348841e-01    1.905686e+00   4.711568e-02
  3.370946e-01    1.772556e+00   4.526918e-02
  3.393050e-01    1.860639e+00   4.620462e-02
  3.415155e-01    1.879223e+00   4.626021e-02
  3.437260e-01    1.839407e+00   4.559788e-02
  3.459364e-01    1.875497e+00   4.587270e-02
  3.481469e-01    1.872524e+00   4.566904e-02
  3.503573e-01    1.879542e+00   4.558784e-02
  3.525678e-01    1.891878e+00   4.557421e-02
  3.547782e-01    1.885352e+00   4.533112e-02
  3.569887e-01    1.889109e+00   4.521547e-02
  3.591992e-01    1.888552e+00   4.504884e-02
  3.614096e-01    1.851519e+00   4.445031e-02
  3.636201e-01    1.790561e+00   4.355887e-02
  3.658305e-01    1.807345e+00   4.361324e-02
  3.680410e-01    1.821272e+00   4.363037e-02
  3.702514e-01    1.804631e+00   4.328455e-02
  3.724619e-01    1.810704e+00   4.320967e-02
  3.746724e-01    1.774037e+00   4.262724e-02
  3.768828e-01    1.805009e+00   4.285304e-02
  3.790933e-01    1.816517e+00   4.284934e-02
  3.813037e-01    1.867205e+00   4.330093e-02
  3.835142e-01    1.823582e+00   4.265159e-02
  3.857246e-01    1.815071e+00   4.241423e-02
  3.879351e-01    1.786126e+00   4.193849e-02
  3.901455e-01    1.816830e+00   4.216276e-02
  3.923560e-01    1.781095e+00   4.161338e-02
  3.945665e-01    1.778848e+00   4.145522e-02
  3.967769e-01    1.833222e+00   4.195224e-02
  3.989874e-01    1.866813e+00   4.220267e-02
  4.011978e-01    1.829059e+00   4.164530e-02
  4.034083e-01    1.819462e+00   4.140837e-02
  4.056187e-01    1.817424e+00   4.125768e-02
  4.078292e-01    1.847731e+00   4.147436e-02
  4.100397e-01    1.834644e+00   4.120105e-02
  4.122501e-01    1.817187e+00   4.088188e-02
  4.144606e-01    1.853421e+00   4.116503e-02
  4.166710e-01    1.831713e+00   4.080157e-02
  4.188815e-01    1.795331e+00   4.027502e-02
  4.210919e-01    1.768137e+00   3.985168e-02
  4.233024e-01    1.780233e+00   3.987015e-02
  4.255128e-01    1.833670e+00   4.034713e-02
  4.277233e-01    1.861754e+00   4.053814e-02
  4.299338e-01    1.819709e+00   3.996247e-02
  4.321442e-01    1.799871e+00   3.963029e-02
  4.343547e-01    1.827705e+00   3.982263e-02
  4.365651e-01    1.802701e+00   3.943692e-02
  4.387756e-01    1.789557e+00   3.918287e-02
  4.409860e-01    1.791103e+00   3.909119e-02
  4.431965e-01    1.748941e+00   3.852154e-02
  4.454070e-01    1.706572e+00   3.794621e-02
  4.476174e-01    1.717944e+00   3.796788e-02
  4.498279e-01    1.747151e+00   3.818510e-02
  4.520383e-01    1.767825e+00   3.830495e-02
  4.542488e-01    1.737323e+00   3.787067e-02
  4.564592e-01    1.766289e+00   3.808263e-02
  4.586697e-01    1.713335e+00   3.740786e-02
  4.608801e-01    1.723774e+00   3.742114e-02
  4.630906e-01    1.737260e+00   3.746777e-02
  4.653011e-01    1.692841e+00   3.688841e-02
  4.675115e-01    1.719373e+00   3.707844e-02
  4.697220e-01    1.760211e+00   3.741797e-02
  4.719324e-01    1.723900e+00   3.693426e-02
  4.741429e-01    1.755345e+00   3.717353e-02
  4.763533e-01    1.743980e+00   3.695803e-02
  4.785638e-01    1.734478e+00   3.676197e-02
  4.807743e-01    1.711195e+00   3.642156e-02
  4.829847e-01    1.708575e+00   3.630171e-02
  4.851952e-01    1.766292e+00   3.681636e-02
  4.874056e-01    1.743460e+00   3.648543e-02
  4.896161e-01    1.713904e+00   3.608513e-02
  4.918265e-01    1.825017e+00   3.714398e-02
  4.940370e-01    1.803334e+00   3.683154e-02
  4.962475e-01    1.739307e+00   3.608245e-02
  4.984579e-01    1.732613e+00   3.592418e-02
  5.006684e-01    1.739501e+00   3.590775e-02
  5.028788e-01    1.715044e+00   3.556805e-02
  5.050893e-01    1.705567e+00   3.538335e-02
  5.072997e-01    1.734749e+00   3.559860e-02
  5.095102e-01    1.701688e+00   3.517330e-02
  5.117206e-01    1.713794e+00   3.521425e-02
  5.139311e-01    1.723058e+00   3.522576e-02
  5.161416e-01    1.658690e+00   3.447987e-02
  5.183520e-01    1.607973e+00   3.386794e-02
  5.205625e-01    1.673294e+00   3.446807e-02
  5.227729e-01    1.670685e+00   3.436085e-02
  5.249834e-01    1.686439e+00   3.444234e-02
  5.271938e-01    1.724328e+00   3.474582e-02
  5.294043e-01    1.772048e+00   3.514206e-02
  5.316148e-01    1.765712e+00   3.499885e-02
  5.338252e-01    1.769770e+00   3.495893e-02
  5.360357e-01    1.761268e+00   3.479548e-02
  5.382461e-01    1.737035e+00   3.447717e-02
  5.404566e-01    1.701694e+00   3.404697e-02
  5.426670e-01    1.786509e+00   3.480653e-02
  5.448775e-01    1.796734e+00   3.482802e-02
  5.470879e-01    1.813605e+00   3.491311e-02
  5.492984e-01    1.820435e+00   3.490102e-02
  5.515089e-01    1.749916e+00   3.414245e-02
  5.537193e-01    1.768881e+00   3.425134e-02
  5.559298e-01    1.769536e+00   3.418254e-02
  5.581402e-01    1.825959e+00   3.464735e-02
  5.603507e-01    1.861432e+00   3.490616e-02
  5.625611e-01    1.784494e+00   3.410301e-02
  5.647716e-01    1.777249e+00   3.395980e-02
  5.669821e-01    1.805261e+00   3.415260e-02
  5.691925e-01    1.796053e+00   3.399226e-02
  5.714030e-01    1.788614e+00   3.384949e-02
  5.736134e-01    1.675751e+00   3.269444e-02
  5.758239e-01    1.683994e+00   3.270476e-02
  5.780343e-01    1.695839e+00   3.275019e-02
  5.802448e-01    1.638700e+00   3.212631e-02
  5.824552e-01    1.681823e+00   3.247799e-02
  5.846657e-01    1.635648e+00   3.196228e-02
  5.868762e-01    1.639650e+00   3.193473e-02
  5.890866e-01    1.656068e+00   3.202763e-02
  5.912971e-01    1.660755e+00   3.200652e-02
  5.935075e-01    1.666249e+00   3.199315e-02
  5.957180e-01    1.655049e+00   3.182003e-02
  5.979284e-01    1.656054e+00   3.176472e-02
  6.001389e-01    1.659243e+00   3.173052e-02
  6.023494e-01    1.701705e+00   3.206876e-02
  6.045598e-01    1.655178e+00   3.156291e-02
  6.067703e-01    1.647494e+00   3.142623e-02
  6.089807e-01    1.690319e+00   3.176805e-02
  6.111912e-01    1.673271e+00   3.154435e-02
  6.134016e-01    1.693184e+00   3.166817e-02
  6.156121e-01    1.750994e+00   3.214027e-02
  6.178226e-01    1.719021e+00   3.178243e-02
  6.200330e-01    1.689404e+00   3.144530e-02
  6.222435e-01    1.670934e+00   3.121096e-02
  6.244539e-01    1.725943e+00   3.165846e-02
  6.266644e-01    1.701146e+00   3.136891e-02
  6.288748e-01    1.707837e+00   3.136935e-02
  6.310853e-01    1.735521e+00   3.156119e-02
  6.332957e-01    1.733601e+00   3.148282e-02
  6.355062e-01    1.765112e+00   3.170593e-02
  6.377167e-01    1.747700e+00   3.148865e-02
  6.399271e-01    1.708623e+00   3.107497e-02
  6.421376e-01    1.720327e+00   3.112170e-02
  6.443480e-01    1.731798e+00   3.116587e-02
  6.465585e-01    1.754879e+00   3.131346e-02
  6.487689e-01    1.689372e+00   3.066544e-02
  6.509794e-01    1.658623e+00   3.032777e-02
  6.531899e-01    1.642190e+00   3.012041e-02
  6.554003e-01    1.624654e+00   2.990283e-02
  6.576108e-01    1.614173e+00   2.975071e-02
  6.598212e-01    1.623165e+00   2.977805e-02
  6.620317e-01    1.642748e+00   2.990160e-02
  6.642421e-01    1.633081e+00   2.975834e-02
  6.664526e-01    1.655240e+00   2.990436e-02
  6.686630e-01    1.631142e+00   2.963098e-02
  6.708735e-01    1.616053e+00   2.943953e-02
  6.730840e-01    1.600939e+00   2.924810e-02
  6.752944e-01    1.590170e+00   2.909655e-02
  6.775049e-01    1.619517e+00   2.931050e-02
  6.797153e-01    1.641392e+00   2.945435e-02
  6.819258e-01    1.637233e+00   2.936397e-02
  6.841362e-01    1.629807e+00   2.924460e-02
  6.863467e-01    1.632458e+00   2.921597e-02
  6.885572e-01    1.626702e+00   2.911215e-02
  6.907676e-01    1.628227e+00   2.907360e-02
  6.929781e-01    1.665293e+00   2.935041e-02
  6.951885e-01    1.617269e+00   2.887288e-02
  6.973990e-01    1.628160e+00   2.891871e-02
  6.996094e-01    1.581319e+00   2.844955e-02
  7.018199e-01    1.619568e+00   2.874102e-02
  7.040303e-01    1.617095e+00   2.866863e-02
  7.062408e-01    1.577225e+00   2.826343e-02
  7.084513e-01    1.571748e+00   2.816521e-02
  7.106617e-01    1.592501e+00   2.830129e-02
  7.128722e-01    1.609734e+00   2.840477e-02
  7.150826e-01    1.610290e+00   2.836074e-02
  7.172931e-01    1.585241e+00   2.809075e-02
  7.195035e-01    1.593479e+00   2.811525e-02
  7.217140e-01    1.596471e+00   2.819141e-02
  7.239245e-01    1.558718e+00   2.808168e-02
  7.261349e-01    1.578032e+00   2.836384e-02
  7.283454e-01    1.603714e+00   2.866679e-02
  7.305558e-01    1.570309e+00   2.842057e-02
  7.327663e-01    1.614958e+00   2.886482e-02
  7.349767e-01    1.638109e+00   2.908769e-02
  7.371872e-01    1.610322e+00   2.882862e-02
  7.393976e-01    1.603419e+00   2.875237e-02
  7.416081e-01    1.573547e+00   2.846713e-02
  7.438186e-01    1.553558e+00   2.814238e-02
  7.460290e-01    1.522964e+00   2.757451e-02
  7.482395e-01    1.569821e+00   2.782460e-02
  7.504499e-01    1.565118e+00   2.764702e-02
  7.526604e-01    1.566080e+00   2.753928e-02
  7.548708e-01    1.589869e+00   2.765781e-02
  7.570813e-01    1.559521e+00   2.734185e-02
  7.592918e-01    1.544834e+00   2.717795e-02
  7.615022e-01    1.534500e+00   2.705353e-02
  7.637127e-01    1.568170e+00   2.731599e-02
  7.659231e-01    1.595111e+00   2.751746e-02
  7.681336e-01    1.572318e+00   2.728856e-02
  7.703440e-01    1.580881e+00   2.733147e-02
  7.725545e-01    1.581307e+00   2.730421e-02
  7.747650e-01    1.641261e+00   2.777799e-02
  7.769754e-01    1.603874e+00   2.740664e-02
  7.791859e-01    1.577031e+00   2.712280e-02
  7.813963e-01    1.571256e+00   2.702063e-02
  7.836068e-01    1.587601e+00   2.710876e-02
  7.858172e-01    1.581890e+00   2.700938e-02
  7.880277e-01    1.626792e+00   2.733789e-02
  7.902381e-01    1.648445e+00   2.746926e-02
  7.924486e-01    1.593726e+00   2.695946e-02
  7.946591e-01    1.619214e+00   2.712560e-02
  7.968695e-01    1.612105e+00   2.701757e-02
  7.990800e-01    1.583275e+00   2.672703e-02
  8.012904e-01    1.625746e+00   2.703627e-02
  8.035009e-01    1.641207e+00   2.711621e-02
  8.057113e-01    1.648825e+00   2.713207e-02
  8.079218e-01    1.645896e+00   2.706118e-02
  8.101323e-01    1.641025e+00   2.697523e-02
  8.123427e-01    1.637178e+00   2.689766e-02
  8.145532e-01    1.616445e+00   2.668108e-02
  8.167636e-01    1.627730e+00   2.672901e-02
  8.189741e-01    1.648180e+00   2.685156e-02
  8.211845e-01    1.648987e+00   2.681313e-02
  8.233950e-01    1.643535e+00   2.672523e-02
  8.256054e-01    1.651282e+00   2.674374e-02
  8.278159e-01    1.634533e+00   2.656386e-02
  8.300264e-01    1.672032e+00   2.682327e-02
  8.322368e-01    1.685110e+00   2.688429e-02
  8.344473e-01    1.652332e+00   2.657796e-02
  8.366577e-01    1.665976e+00   2.664454e-02
  8.388682e-01    1.625221e+00   2.627455e-02
  8.410786e-01    1.650723e+00   2.643768e-02
  8.432891e-01    1.644526e+00   2.634609e-02
  8.454996e-01    1.662678e+00   2.644917e-02
  8.477100e-01    1.655793e+00   2.635247e-02
  8.499205e-01    1.670947e+00   2.643121e-02
  8.521309e-01    1.634929e+00   2.610402e-02
  8.543414e-01    1.639228e+00   2.609753e-02
  8.565518e-01    1.643318e+00   2.608939e-02
  8.587623e-01    1.633414e+00   2.597016e-02
  8.609727e-01    1.616587e+00   2.579598e-02
  8.631832e-01    1.648059e+00   2.600570e-02
  8.653937e-01    1.599794e+00   2.558273e-02
  8.676041e-01    1.605909e+00   2.559287e-02
  8.698146e-01    1.607062e+00   2.556294e-02
  8.720250e-01    1.571780e+00   2.524225e-02
  8.742355e-01    1.597717e+00   2.541090e-02
  8.764459e-01    1.602651e+00   2.541131e-02
  8.786564e-01    1.600270e+00   2.535455e-02
  8.808669e-01    1.630059e+00   2.555067e-02
  8.830773e-01    1.595031e+00   2.523660e-02
  8.852878e-01    1.576317e+00   2.505050e-02
  8.874982e-01    1.619863e+00   2.535729e-02
  8.897087e-01    1.628026e+00   2.538312e-02
  8.919191e-01    1.612508e+00   2.522396e-02
  8.941296e-01    1.611979e+00   2.518239e-02
  8.963401e-01    1.617093e+00   2.518570e-02
  8.985505e-01    1.617655e+00   2.515290e-02
  9.007610e-01    1.635978e+00   2.525780e-02
  9.029714e-01    1.607776e+00   2.500323e-02
  9.051819e-01    1.584563e+00   2.478503e-02
  9.073923e-01    1.561987e+00   2.457170e-02
  9.096028e-01    1.574724e+00   2.463702e-02
  9.118132e-01    1.602615e+00   2.481802e-02
  9.140237e-01    1.599948e+00   2.476073e-02
  9.162342e-01    1.589265e+00   2.464348e-02
  9.184446e-01    1.609569e+00   2.476453e-02
  9.206551e-01    1.617635e+00   2.479073e-02
  9.228655e-01    1.600578e+00   2.462443e-02
  9.250760e-01    1.604496e+00   2.461916e-02
  9.272864e-01    1.621032e+00   2.471125e-02
  9.294969e-01    1.613645e+00   2.461895e-02
  9.317074e-01    1.615305e+00   2.459680e-02
  9.339178e-01    1.627911e+00   2.465886e-02
  9.361283e-01    1.602155e+00   2.442696e-02
  9.383387e-01    1.616780e+00   2.450480e-02
  9.405492e-01    1.625438e+00   2.453602e-02
  9.427596e-01    1.643072e+00   2.463324e-02
  9.449701e-01    1.659553e+00   2.472285e-02
  9.471805e-01    1.674234e+00   2.479679e-02
  9.493910e-01    1.670604e+00   2.473588e-02
  9.516015e-01    1.697309e+00   2.489800e-02
  9.538119e-01    1.743085e+00   2.519694e-02
  9.560224e-01    1.736728e+00   2.511556e-02
  9.582328e-01    1.736194e+00   2.507802e-02
  9.604433e-01    1.742770e+00   2.508986e-02
  9.626537e-01    1.766813e+00   2.522838e-02
  9.648642e-01    1.819327e+00   2.556547e-02
  9.670747e-01    1.836846e+00   2.565288e-02
  9.692851e-01    1.822233e+00   2.551665e-02
  9.714956e-01    1.863370e+00   2.576668e-02
  9.737060e-01    1.887635e+00   2.589984e-02
  9.759165e-01    1.915228e+00   2.605167e-02
  9.781269e-01    1.970833e+00   2.639256e-02
  9.803374e-01    1.938017e+00   2.613575e-02
  9.825478e-01    1.897810e+00   2.582907e-02
  9.847583e-01    1.851040e+00   2.547421e-02
  9.869688e-01    1.804333e+00   2.511707e-02
  9.891792e-01    1.781554e+00   2.492486e-02
  9.913897e-01    1.735506e+00   2.456744e-02
  9.936001e-01    1.725665e+00   2.446560e-02
  9.958106e-01    1.710956e+00   2.432802e-02
  9.980210e-01    1.684317e+00   2.410655e-02
  1.000231e+00    1.650250e+00   2.399223e-02
  1.002442e+00    1.632552e+00   2.399002e-02
  1.004652e+00    1.628970e+00   2.403054e-02
  1.006863e+00    1.627686e+00   2.407092e-02
  1.009073e+00    1.589680e+00   2.382464e-02
  1.011284e+00    1.599348e+00   2.392893e-02
  1.013494e+00    1.572051e+00   2.374736e-02
  1.015705e+00    1.571577e+00   2.376623e-02
  1.017915e+00    1.564354e+00   2.372789e-02
  1.020126e+00    1.571769e+00   2.380012e-02
  1.022336e+00    1.633917e+00   2.427802e-02
  1.024547e+00    1.761930e+00   2.522312e-02
  1.026757e+00    1.837037e+00   2.576424e-02
  1.028967e+00    1.869522e+00   2.599950e-02
  1.031178e+00    1.823097e+00   2.568140e-02
  1.033388e+00    1.678025e+00   2.464374e-02
  1.035599e+00    1.596835e+00   2.404362e-02
  1.037809e+00    1.630214e+00   2.429696e-02
  1.040020e+00    1.700953e+00   2.481987e-02
  1.042230e+00    1.759759e+00   2.524737e-02
  1.044441e+00    1.727210e+00   2.501256e-02
  1.046651e+00    1.829555e+00   2.574308e-02
  1.048862e+00    2.010803e+00   2.698723e-02
  1.051072e+00    1.829731e+00   2.574098e-02
  1.053282e+00    1.587496e+00   2.397559e-02
  1.055493e+00    1.531096e+00   2.354144e-02
  1.057703e+00    1.553678e+00   2.371288e-02
  1.059914e+00    1.559550e+00   2.375325e-02
  1.062124e+00    1.690210e+00   2.472393e-02
  1.064335e+00    1.855488e+00   2.590075e-02
  1.066545e+00    1.820892e+00   2.565156e-02
  1.068756e+00    1.672010e+00   2.457657e-02
  1.070966e+00    1.535075e+00   2.354200e-02
  1.073177e+00    1.502786e+00   2.328694e-02
  1.075387e+00    1.482121e+00   2.312104e-02
  1.077597e+00    1.467210e+00   2.299718e-02
  1.079808e+00    1.467014e+00   2.286279e-02
  1.082018e+00    1.428430e+00   2.237330e-02
  1.084229e+00    1.436600e+00   2.232803e-02
  1.086439e+00    1.448385e+00   2.233219e-02
  1.088650e+00    1.454818e+00   2.230608e-02
  1.090860e+00    1.432125e+00   2.206429e-02
  1.093071e+00    1.429528e+00   2.198256e-02
  1.095281e+00    1.429415e+00   2.192476e-02
  1.097492e+00    1.412910e+00   2.174352e-02
  1.099702e+00    1.440654e+00   2.190456e-02
  1.101912e+00    1.419017e+00   2.169096e-02
  1.104123e+00    1.377717e+00   2.132574e-02
  1.106333e+00    1.374073e+00   2.125399e-02
  1.108544e+00    1.435919e+00   2.168270e-02
  1.110754e+00    1.415186e+00   2.148277e-02
  1.112965e+00    1.384935e+00   2.121189e-02
  1.115175e+00    1.399942e+00   2.128563e-02
  1.117386e+00    1.386218e+00   2.114219e-02
  1.119596e+00    1.376336e+00   2.102929e-02
  1.121807e+00    1.404042e+00   2.120117e-02
  1.124017e+00    1.393385e+00   2.108407e-02
  1.126228e+00    1.421570e+00   2.126028e-02
  1.128438e+00    1.408554e+00   2.112588e-02
  1.130648e+00    1.390286e+00   2.095422e-02
  1.132859e+00    1.365792e+00   2.073484e-02
  1.135069e+00    1.389566e+00   2.087981e-02
  1.137280e+00    1.385968e+00   2.081984e-02
  1.139490e+00    1.354491e+00   2.054937e-02
  1.141701e+00    1.379186e+00   2.070280e-02
  1.143911e+00    1.395307e+00   2.079145e-02
  1.146122e+00    1.394116e+00   2.075041e-02
  1.148332e+00    1.397890e+00   2.074639e-02
  1.150543e+00    1.359405e+00   2.042819e-02
  1.152753e+00    1.368376e+00   2.046473e-02
  1.154963e+00    1.345883e+00   2.026509e-02
  1.157174e+00    1.368219e+00   2.040245e-02
  1.159384e+00    1.362964e+00   2.033349e-02
  1.161595e+00    1.360288e+00   2.028379e-02
  1.163805e+00    1.345859e+00   2.014689e-02
  1.166016e+00    1.362989e+00   2.024535e-02
  1.168226e+00    1.330745e+00   1.997585e-02
  1.170437e+00    1.364554e+00   2.019940e-02
  1.172647e+00    1.399441e+00   2.042673e-02
  1.174858e+00    1.420081e+00   2.054815e-02
  1.177068e+00    1.384287e+00   2.025908e-02
  1.179278e+00    1.378615e+00   2.018877e-02
  1.181489e+00    1.341188e+00   1.988601e-02
  1.183699e+00    1.358206e+00   1.998419e-02
  1.185910e+00    1.389710e+00   2.018655e-02
  1.188120e+00    1.371190e+00   2.002477e-02
  1.190331e+00    1.375571e+00   2.002977e-02
  1.192541e+00    1.333696e+00   1.969538e-02
  1.194752e+00    1.343867e+00   1.974337e-02
  1.196962e+00    1.373224e+00   1.993190e-02
  1.199173e+00    1.354940e+00   1.977224e-02
  1.201383e+00    1.324191e+00   1.951968e-02
  1.203593e+00    1.328228e+00   1.952479e-02
  1.205804e+00    1.330370e+00   1.951480e-02
  1.208014e+00    1.343675e+00   1.958534e-02
  1.210225e+00    1.350939e+00   1.961290e-02
  1.212435e+00    1.343879e+00   1.953683e-02
  1.214646e+00    1.335212e+00   1.944779e-02
  1.216856e+00    1.309976e+00   1.923801e-02
  1.219067e+00    1.351890e+00   1.951886e-02
  1.221277e+00    1.363441e+00   1.957695e-02
  1.223488e+00    1.306782e+00   1.914054e-02
  1.225698e+00    1.322208e+00   1.922652e-02
  1.227909e+00    1.348180e+00   1.938432e-02
  1.230119e+00    1.357203e+00   1.941713e-02
  1.232329e+00    1.361785e+00   1.941902e-02
  1.234540e+00    1.359697e+00   1.937375e-02
  1.236750e+00    1.349649e+00   1.927176e-02
  1.238961e+00    1.334255e+00   1.913472e-02
  1.241171e+00    1.330323e+00   1.908251e-02
  1.243382e+00    1.335318e+00   1.909490e-02
  1.245592e+00    1.342738e+00   1.912385e-02
  1.247803e+00    1.345162e+00   1.911750e-02
  1.250013e+00    1.354993e+00   1.916364e-02
  1.252224e+00    1.351267e+00   1.911401e-02
  1.254434e+00    1.368360e+00   1.921063e-02
  1.256644e+00    1.376255e+00   1.924252e-02
  1.258855e+00    1.356741e+00   1.908231e-02
  1.261065e+00    1.344681e+00   1.897398e-02
  1.263276e+00    1.312028e+00   1.871957e-02
  1.265486e+00    1.338546e+00   1.888500e-02
  1.267697e+00    1.356692e+00   1.898952e-02
  1.269907e+00    1.336614e+00   1.882591e-02
  1.272118e+00    1.346175e+00   1.887056e-02
  1.274328e+00    1.343593e+00   1.882979e-02
  1.276539e+00    1.337119e+00   1.876168e-02
  1.278749e+00    1.356490e+00   1.887475e-02
  1.280959e+00    1.355667e+00   1.884645e-02
  1.283170e+00    1.356941e+00   1.883282e-02
  1.285380e+00    1.341505e+00   1.870302e-02
  1.287591e+00    1.321419e+00   1.854067e-02
  1.289801e+00    1.360464e+00   1.879127e-02
  1.292012e+00    1.369348e+00   1.883533e-02
  1.294222e+00    1.363569e+00   1.877921e-02
  1.296433e+00    1.336832e+00   1.857869e-02
  1.298643e+00    1.320020e+00   1.844518e-02
  1.300854e+00    1.364042e+00   1.873373e-02
  1.303064e+00    1.357499e+00   1.866948e-02
  1.305274e+00    1.355058e+00   1.863120e-02
  1.307485e+00    1.367301e+00   1.869349e-02
  1.309695e+00    1.353293e+00   1.857523e-02
  1.311906e+00    1.336879e+00   1.844065e-02
  1.314116e+00    1.351372e+00   1.851949e-02
  1.316327e+00    1.380765e+00   1.869791e-02
  1.318537e+00    1.341558e+00   1.840871e-02
  1.320748e+00    1.345117e+00   1.841160e-02
  1.322958e+00    1.363242e+00   1.851459e-02
  1.325169e+00    1.376557e+00   1.858359e-02
  1.327379e+00    1.369851e+00   1.851629e-02
  1.329589e+00    1.335258e+00   1.826006e-02
  1.331800e+00    1.334249e+00   1.823256e-02
  1.334010e+00    1.376296e+00   1.849677e-02
  1.336221e+00    1.370891e+00   1.843850e-02
  1.338431e+00    1.354571e+00   1.830752e-02
  1.340642e+00    1.348378e+00   1.832975e-02
  1.342852e+00    1.348565e+00   1.843163e-02
  1.345063e+00    1.381115e+00   1.870279e-02
  1.347273e+00    1.348106e+00   1.851318e-02
  1.349484e+00    1.350178e+00   1.855505e-02
  1.351694e+00    1.365786e+00   1.868485e-02
  1.353905e+00    1.337503e+00   1.850829e-02
  1.356115e+00    1.332417e+00   1.848800e-02
  1.358325e+00    1.343472e+00   1.857784e-02
  1.360536e+00    1.337977e+00   1.855138e-02
  1.362746e+00    1.309259e+00   1.836064e-02
  1.364957e+00    1.307388e+00   1.835503e-02
  1.367167e+00    1.322244e+00   1.846612e-02
  1.369378e+00    1.302797e+00   1.833574e-02
  1.371588e+00    1.318919e+00   1.845392e-02
  1.373799e+00    1.343293e+00   1.862733e-02
  1.376009e+00    1.339150e+00   1.860201e-02
  1.378220e+00    1.319228e+00   1.846561e-02
  1.380430e+00    1.312602e+00   1.842188e-02
  1.382640e+00    1.308919e+00   1.839691e-02
  1.384851e+00    1.284516e+00   1.822548e-02
  1.387061e+00    1.313810e+00   1.843240e-02
  1.389272e+00    1.323605e+00   1.850121e-02
  1.391482e+00    1.317299e+00   1.845641e-02
  1.393693e+00    1.290000e+00   1.826329e-02
  1.395903e+00    1.284201e+00   1.822070e-02
  1.398114e+00    1.271180e+00   1.812672e-02
  1.400324e+00    1.265980e+00   1.808749e-02
  1.402535e+00    1.291603e+00   1.826727e-02
  1.404745e+00    1.288782e+00   1.824496e-02
  1.406955e+00    1.285200e+00   1.821687e-02
  1.409166e+00    1.281114e+00   1.818456e-02
  1.411376e+00    1.275544e+00   1.814189e-02
  1.413587e+00    1.257155e+00   1.800681e-02
  1.415797e+00    1.279507e+00   1.816265e-02
  1.418008e+00    1.267735e+00   1.803709e-02
  1.420218e+00    1.230942e+00   1.762600e-02
  1.422429e+00    1.242311e+00   1.762282e-02
  1.424639e+00    1.275797e+00   1.779391e-02
  1.426850e+00    1.271402e+00   1.770852e-02
  1.429060e+00    1.264840e+00   1.761386e-02
  1.431270e+00    1.266154e+00   1.757878e-02
  1.433481e+00    1.260929e+00   1.750165e-02
  1.435691e+00    1.278971e+00   1.758785e-02
  1.437902e+00    1.267389e+00   1.747163e-02
  1.440112e+00    1.261228e+00   1.739387e-02
  1.442323e+00    1.258417e+00   1.734158e-02
  1.444533e+00    1.282388e+00   1.747326e-02
  1.446744e+00    1.286453e+00   1.746960e-02
  1.448954e+00    1.270982e+00   1.733405e-02
  1.451165e+00    1.257639e+00   1.721320e-02
  1.453375e+00    1.249689e+00   1.713088e-02
  1.455586e+00    1.278560e+00   1.729937e-02
  1.457796e+00    1.273330e+00   1.723642e-02
  1.460006e+00    1.295136e+00   1.735585e-02
  1.462217e+00    1.252047e+00   1.703868e-02
  1.464427e+00    1.259434e+00   1.706334e-02
  1.466638e+00    1.260326e+00   1.704416e-02
  1.468848e+00    1.260503e+00   1.702012e-02
  1.471059e+00    1.275981e+00   1.709911e-02
  1.473269e+00    1.283651e+00   1.712594e-02
  1.475480e+00    1.271247e+00   1.701920e-02
  1.477690e+00    1.272462e+00   1.700345e-02
  1.479901e+00    1.269037e+00   1.695670e-02
  1.482111e+00    1.261054e+00   1.688003e-02
  1.484321e+00    1.266128e+00   1.689082e-02
  1.486532e+00    1.275262e+00   1.692926e-02
  1.488742e+00    1.288825e+00   1.699616e-02
  1.490953e+00    1.273049e+00   1.686915e-02
  1.493163e+00    1.277233e+00   1.687444e-02
  1.495374e+00    1.265354e+00   1.677427e-02
  1.497584e+00    1.247227e+00   1.663217e-02
  1.499795e+00    1.255336e+00   1.666453e-02
  1.502005e+00    1.252853e+00   1.662644e-02
  1.504216e+00    1.260665e+00   1.665711e-02
  1.506426e+00    1.280392e+00   1.676597e-02
  1.508636e+00    1.241149e+00   1.648673e-02
  1.510847e+00    1.232720e+00   1.640901e-02
  1.513057e+00    1.232771e+00   1.638451e-02
  1.515268e+00    1.259881e+00   1.653790e-02
  1.517478e+00    1.248165e+00   1.643576e-02
  1.519689e+00    1.225521e+00   1.626130e-02
  1.521899e+00    1.266495e+00   1.650767e-02
  1.524110e+00    1.249545e+00   1.637654e-02
  1.526320e+00    1.244946e+00   1.632685e-02
  1.528531e+00    1.277088e+00   1.651628e-02
  1.530741e+00    1.274597e+00   1.648086e-02
  1.532951e+00    1.252795e+00   1.631968e-02
  1.535162e+00    1.258026e+00   1.644060e-02
  1.537372e+00    1.236945e+00   1.636885e-02
  1.539583e+00    1.239627e+00   1.642070e-02
  1.541793e+00    1.262455e+00   1.657818e-02
  1.544004e+00    1.275360e+00   1.666298e-02
  1.546214e+00    1.254341e+00   1.652358e-02
  1.548425e+00    1.266369e+00   1.660288e-02
  1.550635e+00    1.250030e+00   1.650513e-02
  1.552846e+00    1.238593e+00   1.643907e-02
  1.555056e+00    1.259918e+00   1.653826e-02
  1.557266e+00    1.245175e+00   1.633073e-02
  1.559477e+00    1.227430e+00   1.615523e-02
  1.561687e+00    1.226538e+00   1.611892e-02
  1.563898e+00    1.235670e+00   1.616170e-02
  1.566108e+00    1.249978e+00   1.623901e-02
  1.568319e+00    1.251910e+00   1.623590e-02
  1.570529e+00    1.249857e+00   1.619739e-02
  1.572740e+00    1.245359e+00   1.614059e-02
  1.574950e+00    1.248272e+00   1.613310e-02
  1.577161e+00    1.245446e+00   1.608935e-02
  1.579371e+00    1.265978e+00   1.619755e-02
  1.581582e+00    1.260156e+00   1.614038e-02
  1.583792e+00    1.243140e+00   1.601302e-02
  1.586002e+00    1.237255e+00   1.595751e-02
  1.588213e+00    1.249104e+00   1.601645e-02
  1.590423e+00    1.247816e+00   1.598811e-02
  1.592634e+00    1.264668e+00   1.607389e-02
  1.594844e+00    1.253651e+00   1.598225e-02
  1.597055e+00    1.239127e+00   1.586893e-02
  1.599265e+00    1.233133e+00   1.580985e-02
  1.601476e+00    1.234268e+00   1.579686e-02
  1.603686e+00    1.220793e+00   1.569080e-02
  1.605897e+00    1.229425e+00   1.572609e-02
  1.608107e+00    1.218889e+00   1.563914e-02
  1.610317e+00    1.232096e+00   1.570438e-02
  1.612528e+00    1.207625e+00   1.552869e-02
  1.614738e+00    1.217901e+00   1.557576e-02
  1.616949e+00    1.209055e+00   1.550026e-02
  1.619159e+00    1.204284e+00   1.545106e-02
  1.621370e+00    1.193520e+00   1.536360e-02
  1.623580e+00    1.178410e+00   1.524797e-02
  1.625791e+00    1.181216e+00   1.524806e-02
  1.628001e+00    1.175666e+00   1.519415e-02
  1.630212e+00    1.147104e+00   1.499104e-02
  1.632422e+00    1.143724e+00   1.495135e-02
  1.634632e+00    1.173133e+00   1.512512e-02
  1.636843e+00    1.156742e+00   1.500171e-02
  1.639053e+00    1.133805e+00   1.483522e-02
  1.641264e+00    1.176721e+00   1.509623e-02
  1.643474e+00    1.167551e+00   1.501990e-02
  1.645685e+00    1.153280e+00   1.491116e-02
  1.647895e+00    1.164476e+00   1.496670e-02
  1.650106e+00    1.177052e+00   1.503014e-02
  1.652316e+00    1.158144e+00   1.489236e-02
  1.654527e+00    1.141917e+00   1.477100e-02
  1.656737e+00    1.113966e+00   1.457272e-02
  1.658947e+00    1.098243e+00   1.445345e-02
  1.661158e+00    1.151601e+00   1.478395e-02
  1.663368e+00    1.192299e+00   1.502640e-02
  1.665579e+00    1.179672e+00   1.493008e-02
  1.667789e+00    1.122428e+00   1.454704e-02
  1.670000e+00    1.108936e+00   1.444387e-02
  1.672210e+00    1.072105e+00   1.418638e-02
  1.674421e+00    1.073754e+00   1.418216e-02
  1.676631e+00    1.092494e+00   1.428959e-02
  1.678842e+00    1.084159e+00   1.421931e-02
  1.681052e+00    1.073733e+00   1.413553e-02
  1.683263e+00    1.080055e+00   1.416201e-02
  1.685473e+00    1.081612e+00   1.415710e-02
  1.687683e+00    1.063773e+00   1.402457e-02
  1.689894e+00    1.078498e+00   1.410556e-02
  1.692104e+00    1.064982e+00   1.400204e-02
  1.694315e+00    1.072235e+00   1.403513e-02
  1.696525e+00    1.054270e+00   1.390205e-02
  1.698736e+00    1.031949e+00   1.373947e-02
  1.700946e+00    1.050443e+00   1.384699e-02
  1.703157e+00    1.036951e+00   1.374327e-02
  1.705367e+00    1.038590e+00   1.373974e-02
  1.707578e+00    1.037430e+00   1.371756e-02
  1.709788e+00    1.031111e+00   1.366170e-02
  1.711998e+00    1.037762e+00   1.369073e-02
  1.714209e+00    9.977329e-01   1.340995e-02
  1.716419e+00    1.010750e+00   1.348301e-02
  1.718630e+00    1.010301e+00   1.346593e-02
  1.720840e+00    1.003635e+00   1.340739e-02
  1.723051e+00    1.029952e+00   1.356813e-02
  1.725261e+00    1.011952e+00   1.343446e-02
  1.727472e+00    1.004109e+00   1.336821e-02
  1.729682e+00    9.907605e-01   1.326577e-02
  1.731893e+00    9.825491e-01   1.319696e-02
  1.734103e+00    1.008612e+00   1.335705e-02
  1.736313e+00    1.009488e+00   1.334883e-02
  1.738524e+00    1.003771e+00   1.329714e-02
  1.740734e+00    1.004827e+00   1.329039e-02
  1.742945e+00    9.884914e-01   1.316852e-02
  1.745155e+00    9.840789e-01   1.312569e-02
  1.747366e+00    9.678340e-01   1.300326e-02
  1.749576e+00    9.740319e-01   1.303122e-02
  1.751787e+00    9.603637e-01   1.292628e-02
  1.753997e+00    9.606695e-01   1.291510e-02
  1.756208e+00    9.587063e-01   1.288879e-02
  1.758418e+00    9.642802e-01   1.291315e-02
  1.760628e+00    9.590010e-01   1.286446e-02
  1.762839e+00    9.660637e-01   1.289853e-02
  1.765049e+00    9.590141e-01   1.283829e-02
  1.767260e+00    9.392003e-01   1.269231e-02
  1.769470e+00    9.252339e-01   1.258478e-02
  1.771681e+00    9.403895e-01   1.267440e-02
  1.773891e+00    9.152570e-01   1.249106e-02
  1.776102e+00    9.476898e-01   1.269758e-02
  1.778312e+00    9.243892e-01   1.252792e-02
  1.780523e+00    9.155670e-01   1.245545e-02
  1.782733e+00    9.108018e-01   1.241048e-02
  1.784944e+00    9.299363e-01   1.252731e-02
  1.787154e+00    9.384386e-01   1.257189e-02
  1.789364e+00    9.241883e-01   1.246364e-02
  1.791575e+00    9.233239e-01   1.244529e-02
  1.793785e+00    9.110101e-01   1.234971e-02
  1.795996e+00    9.145285e-01   1.236104e-02
  1.798206e+00    9.212483e-01   1.239384e-02
  1.800417e+00    9.384524e-01   1.249621e-02
  1.802627e+00    9.925461e-01   1.283884e-02
  1.804838e+00    1.023633e+00   1.302555e-02
  1.807048e+00    1.005500e+00   1.289618e-02
  1.809259e+00    9.842974e-01   1.274531e-02
  1.811469e+00    9.928296e-01   1.278475e-02
  1.813679e+00    9.916818e-01   1.276166e-02
  1.815890e+00    9.684400e-01   1.259593e-02
  1.818100e+00    9.146051e-01   1.222555e-02
  1.820311e+00    8.925316e-01   1.206237e-02
  1.822521e+00    8.850043e-01   1.199658e-02
  1.824732e+00    8.911381e-01   1.202326e-02
  1.826942e+00    8.626481e-01   1.181736e-02
  1.829153e+00    8.616178e-01   1.179874e-02
  1.831363e+00    8.880138e-01   1.196606e-02
  1.833574e+00    8.727632e-01   1.185124e-02
  1.835784e+00    8.686380e-01   1.181185e-02
  1.837994e+00    8.765900e-01   1.185405e-02
  1.840205e+00    9.096083e-01   1.206388e-02
  1.842415e+00    9.240987e-01   1.214747e-02
  1.844626e+00    9.019917e-01   1.198953e-02
  1.846836e+00    8.783469e-01   1.181985e-02
  1.849047e+00    8.694477e-01   1.174818e-02
  1.851257e+00    8.652886e-01   1.171046e-02
  1.853468e+00    8.758042e-01   1.177254e-02
  1.855678e+00    8.633315e-01   1.167952e-02
  1.857889e+00    8.552077e-01   1.161594e-02
  1.860099e+00    8.545333e-01   1.160275e-02
  1.862309e+00    8.556107e-01   1.160155e-02
  1.864520e+00    8.562087e-01   1.159703e-02
  1.866730e+00    8.630272e-01   1.163369e-02
  1.868941e+00    8.525802e-01   1.155212e-02
  1.871151e+00    8.749594e-01   1.169119e-02
  1.873362e+00    8.677368e-01   1.163140e-02
  1.875572e+00    8.634294e-01   1.159146e-02
  1.877783e+00    8.482480e-01   1.147768e-02
  1.879993e+00    8.295710e-01   1.133958e-02
  1.882204e+00    8.269683e-01   1.131098e-02
  1.884414e+00    8.217631e-01   1.126440e-02
  1.886624e+00    8.310090e-01   1.131660e-02
  1.888835e+00    8.198506e-01   1.122955e-02
  1.891045e+00    8.212495e-01   1.122836e-02
  1.893256e+00    8.179806e-01   1.119503e-02
  1.895466e+00    8.515549e-01   1.141121e-02
  1.897677e+00    8.352584e-01   1.129058e-02
  1.899887e+00    8.171206e-01   1.115645e-02
  1.902098e+00    8.134015e-01   1.112031e-02
  1.904308e+00    8.143108e-01   1.111603e-02
  1.906519e+00    8.156155e-01   1.111421e-02
  1.908729e+00    8.042591e-01   1.102610e-02
  1.910940e+00    8.190301e-01   1.111582e-02
  1.913150e+00    8.284860e-01   1.116921e-02
  1.915360e+00    8.251205e-01   1.113588e-02
  1.917571e+00    8.106226e-01   1.102681e-02
  1.919781e+00    8.085791e-01   1.100230e-02
  1.921992e+00    8.175221e-01   1.105237e-02
  1.924202e+00    8.303310e-01   1.112778e-02
  1.926413e+00    8.129635e-01   1.100051e-02
  1.928623e+00    8.000932e-01   1.090264e-02
  1.930834e+00    8.131138e-01   1.098056e-02
  1.933044e+00    8.124294e-01   1.096527e-02
  1.935255e+00    8.084854e-01   1.092829e-02
  1.937465e+00    8.152349e-01   1.096338e-02
  1.939675e+00    8.181148e-01   1.097182e-02
  1.941886e+00    7.880720e-01   1.075829e-02
  1.944096e+00    7.969379e-01   1.080849e-02
  1.946307e+00    7.981723e-01   1.080655e-02
  1.948517e+00    7.955373e-01   1.077828e-02
  1.950728e+00    7.804052e-01   1.066515e-02
  1.952938e+00    7.935984e-01   1.074486e-02
  1.955149e+00    7.984241e-01   1.076723e-02
  1.957359e+00    8.040986e-01   1.079533e-02
  1.959570e+00    7.975615e-01   1.074049e-02
  1.961780e+00    7.853427e-01   1.064802e-02
  1.963990e+00    7.914005e-01   1.067889e-02
  1.966201e+00    7.862660e-01   1.063417e-02
  1.968411e+00    7.736597e-01   1.053852e-02
  1.970622e+00    7.737771e-01   1.052932e-02
  1.972832e+00    7.850494e-01   1.059576e-02
  1.975043e+00    7.950067e-01   1.065266e-02
  1.977253e+00    7.922931e-01   1.062447e-02
  1.979464e+00    7.884579e-01   1.058866e-02
  1.981674e+00    7.942779e-01   1.061732e-02
  1.983885e+00    7.985564e-01   1.063576e-02
  1.986095e+00    7.726938e-01   1.045247e-02
  1.988305e+00    7.724358e-01   1.044086e-02
  1.990516e+00    7.774268e-01   1.046463e-02
  1.992726e+00    7.791660e-01   1.046665e-02
  1.994937e+00    7.836663e-01   1.048664e-02
  1.997147e+00    7.921314e-01   1.053333e-02
  1.999358e+00    7.720959e-01   1.038943e-02
  2.001568e+00    7.739157e-01   1.039083e-02
  2.003779e+00    7.631882e-01   1.030673e-02
  2.005989e+00    7.636820e-01   1.029810e-02
  2.008200e+00    7.598488e-01   1.026078e-02
  2.010410e+00    7.612969e-01   1.025886e-02
  2.012621e+00    7.576183e-01   1.022243e-02
  2.014831e+00    7.575344e-01   1.021045e-02
  2.017041e+00    7.733659e-01   1.030618e-02
  2.019252e+00    7.714252e-01   1.028323e-02
  2.021462e+00    7.752233e-01   1.029895e-02
  2.023673e+00    7.714757e-01   1.026461e-02
  2.025883e+00    7.745442e-01   1.027539e-02
  2.028094e+00    7.677636e-01   1.022067e-02
  2.030304e+00    7.621993e-01   1.017401e-02
  2.032515e+00    7.621593e-01   1.016443e-02
  2.034725e+00    7.681220e-01   1.019461e-02
  2.036936e+00    7.749984e-01   1.023071e-02
  2.039146e+00    7.540573e-01   1.008199e-02
  2.041356e+00    7.452309e-01   1.001323e-02
  2.043567e+00    7.456936e-01   1.000710e-02
  2.045777e+00    7.457327e-01   9.998173e-03
  2.047988e+00    7.519832e-01   1.003063e-02
  2.050198e+00    7.474899e-01   9.992230e-03
  2.052409e+00    7.471145e-01   9.982085e-03
  2.054619e+00    7.632961e-01   1.008218e-02
  2.056830e+00    7.677839e-01   1.010452e-02
  2.059040e+00    7.725217e-01   1.012802e-02
  2.061251e+00    7.696517e-01   1.010186e-02
  2.063461e+00    7.686296e-01   1.008746e-02
  2.065671e+00    7.646575e-01   1.005254e-02
  2.067882e+00    7.544105e-01   9.975933e-03
  2.070092e+00    7.649819e-01   1.003626e-02
  2.072303e+00    7.727659e-01   1.007791e-02
  2.074513e+00    7.792343e-01   1.011046e-02
  2.076724e+00    7.760193e-01   1.007993e-02
  2.078934e+00    7.530623e-01   9.920658e-03
  2.081145e+00    7.389868e-01   9.818446e-03
  2.083355e+00    7.351708e-01   9.783917e-03
  2.085566e+00    7.550079e-01   9.906042e-03
  2.087776e+00    7.657122e-01   9.966348e-03
  2.089986e+00    7.704294e-01   9.988033e-03
  2.092197e+00    7.770075e-01   1.002138e-02
  2.094407e+00    7.766854e-01   1.000984e-02
  2.096618e+00    7.487220e-01   9.819012e-03
  2.098828e+00    7.335076e-01   9.709434e-03
  2.101039e+00    7.269663e-01   9.657096e-03
  2.103249e+00    7.349595e-01   9.701340e-03
  2.105460e+00    7.355308e-01   9.696080e-03
  2.107670e+00    7.186766e-01   9.575659e-03
  2.109881e+00    7.175170e-01   9.558837e-03
  2.112091e+00    7.131376e-01   9.520697e-03
  2.114301e+00    7.207870e-01   9.562882e-03
  2.116512e+00    7.017784e-01   9.427267e-03
  2.118722e+00    7.099591e-01   9.473310e-03
  2.120933e+00    7.093756e-01   9.460626e-03
  2.123143e+00    7.002620e-01   9.390863e-03
  2.125354e+00    7.036906e-01   9.405369e-03
  2.127564e+00    7.161187e-01   9.479352e-03
  2.129775e+00    6.994864e-01   9.359979e-03
  2.131985e+00    7.166269e-01   9.464899e-03
  2.134196e+00    7.018202e-01   9.358098e-03
  2.136406e+00    6.977063e-01   9.321971e-03
  2.138617e+00    6.824672e-01   9.211319e-03
  2.140827e+00    6.848190e-01   9.242956e-03
  2.143037e+00    6.829452e-01   9.274993e-03
  2.145248e+00    6.887850e-01   9.336300e-03
  2.147458e+00    6.873156e-01   9.341290e-03
  2.149669e+00    6.952636e-01   9.406928e-03
  2.151879e+00    7.080648e-01   9.502398e-03
  2.154090e+00    6.927084e-01   9.406065e-03
  2.156300e+00    7.100804e-01   9.529914e-03
  2.158511e+00    7.068592e-01   9.513617e-03
  2.160721e+00    7.042052e-01   9.500588e-03
  2.162932e+00    6.832286e-01   9.361711e-03
  2.165142e+00    6.855839e-01   9.380813e-03
  2.167352e+00    7.020828e-01   9.495957e-03
  2.169563e+00    6.840671e-01   9.375269e-03
  2.171773e+00    6.952276e-01   9.453880e-03
  2.173984e+00    6.999270e-01   9.487210e-03
  2.176194e+00    6.852871e-01   9.388655e-03
  2.178405e+00    6.994546e-01   9.485900e-03
  2.180615e+00    6.845033e-01   9.384664e-03
  2.182826e+00    6.848232e-01   9.387515e-03
  2.185036e+00    6.951684e-01   9.458221e-03
  2.187247e+00    6.914870e-01   9.433081e-03
  2.189457e+00    6.938286e-01   9.448639e-03
  2.191667e+00    6.811967e-01   9.362060e-03
  2.193878e+00    6.679714e-01   9.270176e-03
  2.196088e+00    6.757271e-01   9.323142e-03
  2.198299e+00    6.815664e-01   9.362261e-03
  2.200509e+00    6.797957e-01   9.349051e-03
  2.202720e+00    6.686687e-01   9.271059e-03
  2.204930e+00    6.954951e-01   9.453955e-03
  2.207141e+00    6.896871e-01   9.413289e-03
  2.209351e+00    6.867957e-01   9.391633e-03
  2.211562e+00    6.851643e-01   9.378855e-03
  2.213772e+00    6.640692e-01   9.178384e-03
  2.215982e+00    6.904950e-01   9.314525e-03
  2.218193e+00    6.897170e-01   9.279368e-03
  2.220403e+00    6.713991e-01   9.130772e-03
  2.222614e+00    6.754413e-01   9.137248e-03
  2.224824e+00    6.782011e-01   9.136436e-03
  2.227035e+00    6.813913e-01   9.140356e-03
  2.229245e+00    6.809386e-01   9.120230e-03
  2.231456e+00    6.761648e-01   9.072531e-03
  2.233666e+00    6.694177e-01   9.012101e-03
  2.235877e+00    6.545818e-01   8.897544e-03
  2.238087e+00    6.739656e-01   9.014815e-03
  2.240298e+00    6.666958e-01   8.952327e-03
  2.242508e+00    6.555883e-01   8.862464e-03
  2.244718e+00    6.630722e-01   8.897153e-03
  2.246929e+00    6.554548e-01   8.831622e-03
  2.249139e+00    6.584686e-01   8.839601e-03
  2.251350e+00    6.668353e-01   8.883882e-03
  2.253560e+00    6.753989e-01   8.929089e-03
  2.255771e+00    6.728723e-01   8.900926e-03
  2.257981e+00    6.505576e-01   8.741024e-03
  2.260192e+00    6.657240e-01   8.831200e-03
  2.262402e+00    6.650428e-01   8.815827e-03
  2.264613e+00    6.550633e-01   8.738668e-03
  2.266823e+00    6.681859e-01   8.815320e-03
  2.269033e+00    6.644564e-01   8.780295e-03
  2.271244e+00    6.795817e-01   8.869135e-03
  2.273454e+00    6.897599e-01   8.924843e-03
  2.275665e+00    6.860175e-01   8.890116e-03
  2.277875e+00    6.595145e-01   8.706778e-03
  2.280086e+00    6.629364e-01   8.719270e-03
  2.282296e+00    6.745058e-01   8.785510e-03
  2.284507e+00    6.644899e-01   8.709880e-03
  2.286717e+00    6.519367e-01   8.617762e-03
  2.288928e+00    6.663769e-01   8.702757e-03
  2.291138e+00    6.640266e-01   8.677936e-03
  2.293348e+00    6.425153e-01   8.526761e-03
  2.295559e+00    6.429073e-01   8.520127e-03
  2.297769e+00    6.554243e-01   8.593431e-03
  2.299980e+00    6.499085e-01   8.547870e-03
  2.302190e+00    6.503224e-01   8.541507e-03
  2.304401e+00    6.546421e-01   8.560467e-03
  2.306611e+00    6.551918e-01   8.554856e-03
  2.308822e+00    6.576328e-01   8.562340e-03
  2.311032e+00    6.587132e-01   8.562882e-03
  2.313243e+00    6.556432e-01   8.536614e-03
  2.315453e+00    6.482783e-01   8.480952e-03
  2.317663e+00    6.602827e-01   8.549897e-03
  2.319874e+00    6.686346e-01   8.594939e-03
  2.322084e+00    6.485036e-01   8.455574e-03
  2.324295e+00    6.412871e-01   8.400197e-03
  2.326505e+00    6.364239e-01   8.359299e-03
  2.328716e+00    6.343381e-01   8.337073e-03
  2.330926e+00    6.539016e-01   8.455808e-03
  2.333137e+00    6.472501e-01   8.404282e-03
  2.335347e+00    6.412407e-01   8.356303e-03
  2.337558e+00    6.404294e-01   8.342783e-03
  2.339768e+00    6.491812e-01   8.390957e-03
  2.341979e+00    6.458771e-01   8.361174e-03
  2.344189e+00    6.451193e-01   8.347815e-03
  2.346399e+00    6.465756e-01   8.348679e-03
  2.348610e+00    6.284336e-01   8.222305e-03
  2.350820e+00    6.325017e-01   8.240695e-03
  2.353031e+00    6.526601e-01   8.362586e-03
  2.355241e+00    6.472727e-01   8.319871e-03
  2.357452e+00    6.341183e-01   8.226456e-03
  2.359662e+00    6.279901e-01   8.178413e-03
  2.361873e+00    6.180562e-01   8.105316e-03
  2.364083e+00    6.310140e-01   8.181824e-03
  2.366294e+00    6.306171e-01   8.171146e-03
  2.368504e+00    6.269222e-01   8.139078e-03
  2.370714e+00    6.376206e-01   8.200104e-03
  2.372925e+00    6.291652e-01   8.137487e-03
  2.375135e+00    6.241513e-01   8.096935e-03
  2.377346e+00    6.131952e-01   8.017676e-03
  2.379556e+00    6.065000e-01   7.965993e-03
  2.381767e+00    6.085114e-01   7.971405e-03
  2.383977e+00    6.145732e-01   8.003118e-03
  2.386188e+00    6.191118e-01   8.024699e-03
  2.388398e+00    6.224278e-01   8.038182e-03
  2.390609e+00    6.274515e-01   8.062766e-03
  2.392819e+00    6.317388e-01   8.082398e-03
  2.395029e+00    6.135997e-01   7.957871e-03
  2.397240e+00    6.062927e-01   7.902535e-03
  2.399450e+00    6.204301e-01   7.986265e-03
  2.401661e+00    6.112085e-01   7.919044e-03
  2.403871e+00    6.095365e-01   7.900442e-03
  2.406082e+00    6.195374e-01   7.957495e-03
  2.408292e+00    6.149018e-01   7.919858e-03
  2.410503e+00    6.033610e-01   7.837724e-03
  2.412713e+00    6.009797e-01   7.814474e-03
  2.414924e+00    5.930055e-01   7.755057e-03
  2.417134e+00    5.966879e-01   7.771513e-03
  2.419344e+00    5.978118e-01   7.771451e-03
  2.421555e+00    5.932132e-01   7.734054e-03
  2.423765e+00    5.964916e-01   7.748007e-03
  2.425976e+00    6.097817e-01   7.825980e-03
  2.428186e+00    6.001503e-01   7.756714e-03
  2.430397e+00    5.903235e-01   7.685499e-03
  2.432607e+00    5.935315e-01   7.699092e-03
  2.434818e+00    5.869951e-01   7.649094e-03
  2.437028e+00    5.761954e-01   7.571362e-03
  2.439239e+00    6.000570e-01   7.718833e-03
  2.441449e+00    5.967205e-01   7.690141e-03
  2.443659e+00    5.782984e-01   7.563235e-03
  2.445870e+00    5.670478e-01   7.501305e-03
  2.448080e+00    5.723779e-01   7.570960e-03
  2.450291e+00    5.720591e-01   7.585383e-03
  2.452501e+00    5.831884e-01   7.670047e-03
  2.454712e+00    5.829968e-01   7.677291e-03
  2.456922e+00    5.678177e-01   7.583298e-03
  2.459133e+00    5.608912e-01   7.542298e-03
  2.461343e+00    5.478733e-01   7.458536e-03
  2.463554e+00    5.548066e-01   7.509018e-03
  2.465764e+00    5.535073e-01   7.503338e-03
  2.467975e+00    5.449115e-01   7.447089e-03
  2.470185e+00    5.565148e-01   7.528221e-03
  2.472395e+00    5.408500e-01   7.422728e-03
  2.474606e+00    5.259671e-01   7.321391e-03
  2.476816e+00    5.337141e-01   7.375840e-03
  2.479027e+00    5.419813e-01   7.433582e-03
  2.481237e+00    5.366630e-01   7.397308e-03
  2.483448e+00    5.373018e-01   7.402005e-03
  2.485658e+00    5.512941e-01   7.497604e-03
  2.487869e+00    5.576332e-01   7.540654e-03
  2.490079e+00    5.510274e-01   7.495321e-03
  2.492290e+00    5.485688e-01   7.478144e-03
  2.494500e+00    5.417617e-01   7.430875e-03
  2.496710e+00    5.415479e-01   7.428702e-03
  2.498921e+00    5.350848e-01   7.383255e-03
  2.501131e+00    5.263436e-01   7.321758e-03
  2.503342e+00    5.149147e-01   7.240584e-03
  2.505552e+00    5.203976e-01   7.277900e-03
  2.507763e+00    5.317165e-01   7.355213e-03
  2.509973e+00    5.328023e-01   7.361325e-03
  2.512184e+00    5.140810e-01   7.229250e-03
  2.514394e+00    5.084590e-01   7.180402e-03
  2.516605e+00    5.294976e-01   7.280257e-03
  2.518815e+00    5.130551e-01   7.138358e-03
  2.521025e+00    5.341968e-01   7.262806e-03
  2.523236e+00    5.346969e-01   7.248073e-03
  2.525446e+00    5.182159e-01   7.120008e-03
  2.527657e+00    5.199591e-01   7.117425e-03
  2.529867e+00    5.211647e-01   7.111555e-03
  2.532078e+00    5.270956e-01   7.136836e-03
  2.534288e+00    5.263562e-01   7.117921e-03
  2.536499e+00    5.259352e-01   7.103120e-03
  2.538709e+00    5.214154e-01   7.061578e-03
  2.540920e+00    5.130241e-01   6.993983e-03
  2.543130e+00    5.215800e-01   7.041727e-03
  2.545340e+00    5.131876e-01   6.974886e-03
  2.547551e+00    5.194425e-01   7.007337e-03
  2.549761e+00    5.236685e-01   7.026216e-03
  2.551972e+00    5.246148e-01   7.023161e-03
  2.554182e+00    5.363786e-01   7.092159e-03
  2.556393e+00    5.322964e-01   7.055948e-03
  2.558603e+00    5.228463e-01   6.983929e-03
  2.560814e+00    5.244932e-01   6.986170e-03
  2.563024e+00    5.240175e-01   6.974390e-03
  2.565235e+00    5.211263e-01   6.945598e-03
  2.567445e+00    5.133882e-01   6.884339e-03
  2.569656e+00    5.208935e-01   6.924692e-03
  2.571866e+00    5.227023e-01   6.927316e-03
  2.574076e+00    5.226761e-01   6.917827e-03
  2.576287e+00    5.246212e-01   6.922272e-03
  2.578497e+00    5.224615e-01   6.900137e-03
  2.580708e+00    5.117217e-01   6.820787e-03
  2.582918e+00    5.114812e-01   6.811448e-03
  2.585129e+00    5.063291e-01   6.769357e-03
  2.587339e+00    5.188416e-01   6.844779e-03
  2.589550e+00    5.076976e-01   6.763367e-03
  2.591760e+00    5.186730e-01   6.828278e-03
  2.593971e+00    5.168064e-01   6.808430e-03
  2.596181e+00    5.119158e-01   6.769915e-03
  2.598391e+00    5.066581e-01   6.729890e-03
  2.600602e+00    5.113554e-01   6.755076e-03
  2.602812e+00    5.191665e-01   6.798876e-03
  2.605023e+00    5.161899e-01   6.772153e-03
  2.607233e+00    4.888699e-01   6.583491e-03
  2.609444e+00    4.996111e-01   6.648233e-03
  2.611654e+00    5.102421e-01   6.711257e-03
  2.613865e+00    4.973843e-01   6.619191e-03
  2.616075e+00    5.003576e-01   6.631835e-03
  2.618286e+00    5.210380e-01   6.760394e-03
  2.620496e+00    5.120525e-01   6.695124e-03
  2.622706e+00    5.016464e-01   6.621009e-03
  2.624917e+00    5.072872e-01   6.652263e-03
  2.627127e+00    5.074697e-01   6.647698e-03
  2.629338e+00    5.075359e-01   6.642148e-03
  2.631548e+00    4.966974e-01   6.564701e-03
  2.633759e+00    4.980098e-01   6.566249e-03
  2.635969e+00    4.963636e-01   6.548741e-03
  2.638180e+00    5.021706e-01   6.579954e-03
  2.640390e+00    4.950240e-01   6.526398e-03
  2.642601e+00    4.939066e-01   6.512403e-03
  2.644811e+00    4.968879e-01   6.524985e-03
  2.647021e+00    5.051681e-01   6.572515e-03
  2.649232e+00    5.006757e-01   6.536521e-03
  2.651442e+00    5.052165e-01   6.559541e-03
  2.653653e+00    5.038909e-01   6.544101e-03
  2.655863e+00    5.080178e-01   6.564104e-03
  2.658074e+00    4.966920e-01   6.483919e-03
  2.660284e+00    5.048066e-01   6.530254e-03
  2.662495e+00    4.949439e-01   6.459430e-03
  2.664705e+00    5.005920e-01   6.489572e-03
  2.666916e+00    5.036352e-01   6.502761e-03
  2.669126e+00    4.994401e-01   6.469154e-03
  2.671337e+00    4.904843e-01   6.404327e-03
  2.673547e+00    4.959925e-01   6.433805e-03
  2.675757e+00    5.021101e-01   6.466877e-03
  2.677968e+00    4.915637e-01   6.392073e-03
  2.680178e+00    5.061943e-01   6.480031e-03
  2.682389e+00    5.103303e-01   6.499943e-03
  2.684599e+00    5.001171e-01   6.428351e-03
  2.686810e+00    4.864786e-01   6.333521e-03
  2.689020e+00    4.881642e-01   6.338211e-03
  2.691231e+00    5.026901e-01   6.425453e-03
  2.693441e+00    4.918943e-01   6.349945e-03
  2.695652e+00    4.834488e-01   6.288708e-03
  2.697862e+00    4.976564e-01   6.374056e-03
  2.700072e+00    4.918322e-01   6.330565e-03
  2.702283e+00    4.961935e-01   6.352294e-03
  2.704493e+00    4.907596e-01   6.311125e-03
  2.706704e+00    4.861352e-01   6.274926e-03
  2.708914e+00    4.840238e-01   6.255360e-03
  2.711125e+00    4.862308e-01   6.263351e-03
  2.713335e+00    4.806073e-01   6.220984e-03
  2.715546e+00    4.831126e-01   6.230737e-03
  2.717756e+00    4.889026e-01   6.262065e-03
  2.719967e+00    4.842207e-01   6.225814e-03
  2.722177e+00    4.887489e-01   6.248706e-03
  2.724387e+00    4.854383e-01   6.221410e-03
  2.726598e+00    4.908960e-01   6.250177e-03
  2.728808e+00    4.871334e-01   6.220030e-03
  2.731019e+00    4.813028e-01   6.176588e-03
  2.733229e+00    4.880630e-01   6.213984e-03
  2.735440e+00    4.737623e-01   6.116074e-03
  2.737650e+00    4.887494e-01   6.205993e-03
  2.739861e+00    4.819020e-01   6.156320e-03
  2.742071e+00    4.910730e-01   6.208826e-03
  2.744282e+00    4.857031e-01   6.168535e-03
  2.746492e+00    4.856092e-01   6.161864e-03
  2.748702e+00    4.855253e-01   6.155419e-03
  2.750913e+00    4.889550e-01   6.171275e-03
  2.753123e+00    4.949654e-01   6.202897e-03
  2.755334e+00    4.866492e-01   6.144444e-03
  2.757544e+00    4.833122e-01   6.117608e-03
  2.759755e+00    4.737407e-01   6.050867e-03
  2.761965e+00    4.770824e-01   6.066215e-03
  2.764176e+00    4.786595e-01   6.070241e-03
  2.766386e+00    4.866789e-01   6.115065e-03
  2.768597e+00    4.853136e-01   6.100575e-03
  2.770807e+00    4.829968e-01   6.080102e-03
  2.773017e+00    4.832839e-01   6.075907e-03
  2.775228e+00    4.826663e-01   6.066214e-03
  2.777438e+00    4.834325e-01   6.065205e-03
  2.779649e+00    4.836687e-01   6.060740e-03
  2.781859e+00    4.715160e-01   5.978406e-03
  2.784070e+00    4.873737e-01   6.072166e-03
  2.786280e+00    4.856705e-01   6.055743e-03
  2.788491e+00    4.754321e-01   5.985739e-03
  2.790701e+00    4.864922e-01   6.049254e-03
  2.792912e+00    4.720820e-01   5.953066e-03
  2.795122e+00    4.831198e-01   6.016455e-03
  2.797333e+00    4.822466e-01   6.005443e-03
  2.799543e+00    4.742561e-01   5.949616e-03
  2.801753e+00    4.672383e-01   5.899641e-03
  2.803964e+00    4.605167e-01   5.851463e-03
  2.806174e+00    4.749216e-01   5.936127e-03
  2.808385e+00    4.795222e-01   5.957973e-03
  2.810595e+00    4.721463e-01   5.905152e-03
  2.812806e+00    4.756044e-01   5.920105e-03
  2.815016e+00    4.683653e-01   5.870160e-03
  2.817227e+00    4.827850e-01   5.986007e-03
  2.819437e+00    4.844220e-01   6.007360e-03
  2.821648e+00    4.735253e-01   5.941694e-03
  2.823858e+00    4.758145e-01   5.961384e-03
  2.826068e+00    4.760977e-01   5.968167e-03
  2.828279e+00    4.652967e-01   5.904090e-03
  2.830489e+00    4.649605e-01   5.905251e-03
  2.832700e+00    4.720224e-01   5.952502e-03
  2.834910e+00    4.602575e-01   5.879875e-03
  2.837121e+00    4.706304e-01   5.947479e-03
  2.839331e+00    4.622863e-01   5.895750e-03
  2.841542e+00    4.558631e-01   5.855638e-03
  2.843752e+00    4.618748e-01   5.894893e-03
  2.845963e+00    4.777426e-01   5.995699e-03
  2.848173e+00    4.792165e-01   6.005039e-03
  2.850383e+00    4.766620e-01   5.989301e-03
  2.852594e+00    4.667871e-01   5.926870e-03
  2.854804e+00    4.675057e-01   5.930915e-03
  2.857015e+00    4.730311e-01   5.965425e-03
  2.859225e+00    4.651854e-01   5.915507e-03
  2.861436e+00    4.507234e-01   5.822185e-03
  2.863646e+00    4.485159e-01   5.807924e-03
  2.865857e+00    4.695012e-01   5.942604e-03
  2.868067e+00    4.606442e-01   5.886494e-03
  2.870278e+00    4.658011e-01   5.919012e-03
  2.872488e+00    4.682538e-01   5.933396e-03
  2.874698e+00    4.679538e-01   5.930452e-03
  2.876909e+00    4.648345e-01   5.909323e-03
  2.879119e+00    4.667494e-01   5.919851e-03
  2.881330e+00    4.810638e-01   6.008441e-03
  2.883540e+00    4.645016e-01   5.902727e-03
  2.885751e+00    4.537154e-01   5.832147e-03
  2.887961e+00    4.745083e-01   5.962373e-03
  2.890172e+00    4.809992e-01   6.001388e-03
  2.892382e+00    4.639440e-01   5.892226e-03
  2.894593e+00    4.573393e-01   5.848326e-03
  2.896803e+00    4.531215e-01   5.819317e-03
  2.899014e+00    4.594304e-01   5.857780e-03
  2.901224e+00    4.571918e-01   5.841521e-03
  2.903434e+00    4.558871e-01   5.831227e-03
  2.905645e+00    4.542929e-01   5.818827e-03
  2.907855e+00    4.481598e-01   5.777319e-03
  2.910066e+00    4.546078e-01   5.816691e-03
  2.912276e+00    4.588301e-01   5.841496e-03
  2.914487e+00    4.620838e-01   5.859721e-03
  2.916697e+00    4.470979e-01   5.761724e-03
  2.918908e+00    4.504457e-01   5.781258e-03
  2.921118e+00    4.563938e-01   5.816619e-03
  2.923329e+00    4.594024e-01   5.833437e-03
  2.925539e+00    4.680840e-01   5.885997e-03
  2.927749e+00    4.522726e-01   5.783431e-03
  2.929960e+00    4.611917e-01   5.837392e-03
  2.932170e+00    4.528398e-01   5.781971e-03
  2.934381e+00    4.567142e-01   5.804223e-03
  2.936591e+00    4.421360e-01   5.708285e-03
  2.938802e+00    4.540460e-01   5.781958e-03
  2.941012e+00    4.603603e-01   5.819677e-03
  2.943223e+00    4.560490e-01   5.789670e-03
  2.945433e+00    4.499958e-01   5.747402e-03
  2.947644e+00    4.609207e-01   5.812589e-03
  2.949854e+00    4.565225e-01   5.780519e-03
  2.952064e+00    4.631536e-01   5.818081e-03
  2.954275e+00    4.664936e-01   5.834569e-03
  2.956485e+00    4.558263e-01   5.763277e-03
  2.958696e+00    4.578200e-01   5.771483e-03
  2.960906e+00    4.559171e-01   5.755289e-03
  2.963117e+00    4.559512e-01   5.751001e-03
  2.965327e+00    4.572208e-01   5.755108e-03
  2.967538e+00    4.453905e-01   5.677267e-03
  2.969748e+00    4.542105e-01   5.730391e-03
  2.971959e+00    4.577132e-01   5.749297e-03
  2.974169e+00    4.556372e-01   5.733651e-03
  2.976379e+00    4.556654e-01   5.730926e-03
  2.978590e+00    4.538838e-01   5.716562e-03
  2.980800e+00    4.562689e-01   5.728753e-03
  2.983011e+00    4.650650e-01   5.780878e-03
  2.985221e+00    4.619437e-01   5.758283e-03
  2.987432e+00    4.518661e-01   5.692014e-03
  2.989642e+00    4.444918e-01   5.642780e-03
  2.991853e+00    4.397669e-01   5.609484e-03
  2.994063e+00    4.448547e-01   5.638946e-03
  2.996274e+00    4.417816e-01   5.616302e-03
  2.998484e+00    4.486410e-01   5.657054e-03
  3.000694e+00    4.495537e-01   5.659359e-03
  3.002905e+00    4.532289e-01   5.679525e-03
  3.005115e+00    4.554890e-01   5.690663e-03
  3.007326e+00    4.613345e-01   5.723882e-03
  3.009536e+00    4.593917e-01   5.708554e-03
  3.011747e+00    4.553372e-01   5.680388e-03
  3.013957e+00    4.449102e-01   5.611810e-03
  3.016168e+00    4.504977e-01   5.643697e-03
  3.018378e+00    4.483471e-01   5.627174e-03
  3.020589e+00    4.551882e-01   5.666722e-03
  3.022799e+00    4.626845e-01   5.709997e-03
  3.025010e+00    4.441340e-01   5.591155e-03
  3.027220e+00    4.605511e-01   5.690410e-03
  3.029430e+00    4.647335e-01   5.712910e-03
  3.031641e+00    4.437711e-01   5.579470e-03
  3.033851e+00    4.478332e-01   5.601439e-03
  3.036062e+00    4.625490e-01   5.689903e-03
  3.038272e+00    4.561993e-01   5.647135e-03
  3.040483e+00    4.453528e-01   5.576399e-03
  3.042693e+00    4.558567e-01   5.638491e-03
  3.044904e+00    4.429190e-01   5.553924e-03
  3.047114e+00    4.392547e-01   5.526151e-03
  3.049325e+00    4.420246e-01   5.539188e-03
  3.051535e+00    4.526348e-01   5.600878e-03
  3.053745e+00    4.471006e-01   5.561802e-03
  3.055956e+00    4.484776e-01   5.565801e-03
  3.058166e+00    4.530654e-01   5.589920e-03
  3.060377e+00    4.515556e-01   5.575817e-03
  3.062587e+00    4.503989e-01   5.564053e-03
  3.064798e+00    4.466234e-01   5.536438e-03
  3.067008e+00    4.559067e-01   5.588905e-03
  3.069219e+00    4.533226e-01   5.568531e-03
  3.071429e+00    4.598089e-01   5.604672e-03
  3.073640e+00    4.431367e-01   5.498823e-03
  3.075850e+00    4.555337e-01   5.571575e-03
  3.078060e+00    4.578596e-01   5.582672e-03
  3.080271e+00    4.499620e-01   5.530826e-03
  3.082481e+00    4.658981e-01   5.624401e-03
  3.084692e+00    4.422373e-01   5.476381e-03
  3.086902e+00    4.491305e-01   5.515630e-03
  3.089113e+00    4.449685e-01   5.486474e-03
  3.091323e+00    4.497189e-01   5.512285e-03
  3.093534e+00    4.502179e-01   5.511970e-03
  3.095744e+00    4.444539e-01   5.473206e-03
  3.097955e+00    4.503117e-01   5.505595e-03
  3.100165e+00    4.501590e-01   5.501316e-03
  3.102375e+00    4.567141e-01   5.537777e-03
  3.104586e+00    4.426998e-01   5.448682e-03
  3.106796e+00    4.438004e-01   5.451919e-03
  3.109007e+00    4.555127e-01   5.520153e-03
  3.111217e+00    4.378319e-01   5.408312e-03
  3.113428e+00    4.556427e-01   5.513746e-03
  3.115638e+00    4.578807e-01   5.524004e-03
  3.117849e+00    4.512409e-01   5.480058e-03
  3.120059e+00    4.566960e-01   5.509566e-03
  3.122270e+00    4.450605e-01   5.435682e-03
  3.124480e+00    4.443875e-01   5.427883e-03
  3.126691e+00    4.352828e-01   5.368465e-03
  3.128901e+00    4.391679e-01   5.389248e-03
  3.131111e+00    4.583471e-01   5.501796e-03
  3.133322e+00    4.419593e-01   5.399113e-03
  3.135532e+00    4.421806e-01   5.397026e-03
  3.137743e+00    4.644061e-01   5.527483e-03
  3.139953e+00    4.447385e-01   5.405482e-03
  3.142164e+00    4.347844e-01   5.356549e-03
  3.144374e+00    4.410380e-01   5.423284e-03
  3.146585e+00    4.313371e-01   5.377690e-03
  3.148795e+00    4.463834e-01   5.481510e-03
  3.151006e+00    4.407097e-01   5.455096e-03
  3.153216e+00    4.453682e-01   5.491022e-03
  3.155426e+00    4.415744e-01   5.473893e-03
  3.157637e+00    4.407229e-01   5.474128e-03
  3.159847e+00    4.520630e-01   5.549066e-03
  3.162058e+00    4.392169e-01   5.474077e-03
  3.164268e+00    4.344933e-01   5.448588e-03
  3.166479e+00    4.407081e-01   5.491082e-03
  3.168689e+00    4.360693e-01   5.465453e-03
  3.170900e+00    4.354996e-01   5.465047e-03
  3.173110e+00    4.322850e-01   5.447690e-03
  3.175321e+00    4.242804e-01   5.399479e-03
  3.177531e+00    4.269544e-01   5.419135e-03
  3.179741e+00    4.347793e-01   5.470677e-03
  3.181952e+00    4.262348e-01   5.418710e-03
  3.184162e+00    4.412686e-01   5.515652e-03
  3.186373e+00    4.372868e-01   5.492311e-03
  3.188583e+00    4.440213e-01   5.536243e-03
  3.190794e+00    4.339421e-01   5.474804e-03
  3.193004e+00    4.258544e-01   5.424779e-03
  3.195215e+00    4.218981e-01   5.400975e-03
  3.197425e+00    4.413485e-01   5.525296e-03
  3.199636e+00    4.394117e-01   5.512389e-03
  3.201846e+00    4.373332e-01   5.498746e-03
  3.204056e+00    4.313208e-01   5.461683e-03
  3.206267e+00    4.427602e-01   5.534505e-03
  3.208477e+00    4.202586e-01   5.392945e-03
  3.210688e+00    4.413155e-01   5.527246e-03
  3.212898e+00    4.284150e-01   5.446434e-03
  3.215109e+00    4.367143e-01   5.499694e-03
  3.217319e+00    4.278815e-01   5.444421e-03
  3.219530e+00    4.398693e-01   5.520562e-03
  3.221740e+00    4.312036e-01   5.466474e-03
  3.223951e+00    4.238296e-01   5.420001e-03
  3.226161e+00    4.234903e-01   5.418018e-03
  3.228372e+00    4.355428e-01   5.495091e-03
  3.230582e+00    4.293405e-01   5.455999e-03
  3.232792e+00    4.129158e-01   5.350815e-03
  3.235003e+00    4.301224e-01   5.461408e-03
  3.237213e+00    4.241170e-01   5.423253e-03
  3.239424e+00    4.346420e-01   5.490122e-03
  3.241634e+00    4.426849e-01   5.540819e-03
  3.243845e+00    4.354616e-01   5.495518e-03
  3.246055e+00    4.312328e-01   5.468482e-03
  3.248266e+00    4.280736e-01   5.448618e-03
  3.250476e+00    4.337927e-01   5.484577e-03
  3.252687e+00    4.254735e-01   5.431682e-03
  3.254897e+00    4.255446e-01   5.431978e-03
  3.257107e+00    4.336150e-01   5.482951e-03
  3.259318e+00    4.240623e-01   5.421984e-03
  3.261528e+00    4.244469e-01   5.424305e-03
  3.263739e+00    4.309101e-01   5.464868e-03
  3.265949e+00    4.315554e-01   5.468851e-03
  3.268160e+00    4.244973e-01   5.423526e-03
  3.270370e+00    4.354394e-01   5.492460e-03
  3.272581e+00    4.190885e-01   5.388100e-03
  3.274791e+00    4.266431e-01   5.435876e-03
  3.277002e+00    4.396036e-01   5.517281e-03
  3.279212e+00    4.357691e-01   5.492782e-03
  3.281422e+00    4.288378e-01   5.448333e-03
  3.283633e+00    4.284971e-01   5.445489e-03
  3.285843e+00    4.314713e-01   5.464013e-03
  3.288054e+00    4.300111e-01   5.453818e-03
  3.290264e+00    4.250517e-01   5.421971e-03
  3.292475e+00    4.301853e-01   5.453754e-03
  3.294685e+00    4.306957e-01   5.456353e-03
  3.296896e+00    4.345648e-01   5.480051e-03
  3.299106e+00    4.323749e-01   5.465666e-03
  3.301317e+00    4.259510e-01   5.423883e-03
  3.303527e+00    4.270304e-01   5.430258e-03
  3.305737e+00    4.272355e-01   5.430541e-03
  3.307948e+00    4.105177e-01   5.322562e-03
  3.310158e+00    4.288309e-01   5.439125e-03
  3.312369e+00    4.248009e-01   5.412626e-03
  3.314579e+00    4.201106e-01   5.381765e-03
  3.316790e+00    4.197457e-01   5.378698e-03
  3.319000e+00    4.305012e-01   5.446000e-03
  3.321211e+00    4.191657e-01   5.373213e-03
  3.323421e+00    4.202006e-01   5.378636e-03
  3.325632e+00    4.215544e-01   5.386393e-03
  3.327842e+00    4.271337e-01   5.421036e-03
  3.330052e+00    4.107591e-01   5.315022e-03
  3.332263e+00    4.317012e-01   5.447812e-03
  3.334473e+00    4.241192e-01   5.398855e-03
  3.336684e+00    4.261339e-01   5.410375e-03
  3.338894e+00    4.375534e-01   5.481533e-03
  3.341105e+00    4.354101e-01   5.466886e-03
  3.343315e+00    4.162636e-01   5.344178e-03
  3.345526e+00    4.107025e-01   5.307474e-03
  3.347736e+00    4.228652e-01   5.384068e-03
  3.349947e+00    4.282147e-01   5.417097e-03
  3.352157e+00    4.300914e-01   5.427750e-03
  3.354368e+00    4.258440e-01   5.399590e-03
  3.356578e+00    4.201016e-01   5.362032e-03
  3.358788e+00    4.002469e-01   5.232505e-03
  3.360999e+00    4.169010e-01   5.338989e-03
  3.363209e+00    4.175880e-01   5.342381e-03
  3.365420e+00    4.145410e-01   5.321340e-03
  3.367630e+00    4.198999e-01   5.354618e-03
  3.369841e+00    4.269083e-01   5.397653e-03
  3.372051e+00    4.152420e-01   5.321448e-03
  3.374262e+00    4.168258e-01   5.329129e-03
  3.376472e+00    4.269247e-01   5.390812e-03
  3.378683e+00    4.240908e-01   5.370386e-03
  3.380893e+00    4.212970e-01   5.350307e-03
  3.383103e+00    4.079836e-01   5.262404e-03
  3.385314e+00    4.183907e-01   5.326870e-03
  3.387524e+00    4.090093e-01   5.264091e-03
  3.389735e+00    4.180988e-01   5.319629e-03
  3.391945e+00    4.096961e-01   5.262236e-03
  3.394156e+00    4.095810e-01   5.257292e-03
  3.396366e+00    4.137085e-01   5.280305e-03
  3.398577e+00    4.103179e-01   5.255582e-03
  3.400787e+00    4.015715e-01   5.211048e-03
  3.402998e+00    3.959105e-01   5.211569e-03
  3.405208e+00    3.998147e-01   5.257721e-03
  3.407418e+00    4.080218e-01   5.327354e-03
  3.409629e+00    3.971636e-01   5.269862e-03
  3.411839e+00    3.957959e-01   5.272517e-03
  3.414050e+00    3.991457e-01   5.305808e-03
  3.416260e+00    3.904861e-01   5.257521e-03
  3.418471e+00    4.023271e-01   5.346160e-03
  3.420681e+00    3.878514e-01   5.257555e-03
  3.422892e+00    3.893750e-01   5.275840e-03
  3.425102e+00    3.912626e-01   5.296464e-03
  3.427313e+00    3.799530e-01   5.226451e-03
  3.429523e+00    3.858915e-01   5.274192e-03
  3.431733e+00    3.760617e-01   5.213180e-03
  3.433944e+00    3.730258e-01   5.198454e-03
  3.436154e+00    3.762203e-01   5.226865e-03
  3.438365e+00    3.783913e-01   5.247822e-03
  3.440575e+00    3.796798e-01   5.262658e-03
  3.442786e+00    3.804286e-01   5.273490e-03
  3.444996e+00    3.788889e-01   5.268307e-03
  3.447207e+00    3.691233e-01   5.205215e-03
  3.449417e+00    3.636737e-01   5.207052e-03
  3.451628e+00    3.822162e-01   5.368080e-03
  3.453838e+00    3.760818e-01   5.346270e-03
  3.456049e+00    3.680889e-01   5.313055e-03
  3.458259e+00    3.770356e-01   5.399504e-03
  3.460469e+00    3.730371e-01   5.390760e-03
  3.462680e+00    3.738365e-01   5.415769e-03
  3.464890e+00    3.705996e-01   5.410218e-03
  3.467101e+00    3.697930e-01   5.421796e-03
  3.469311e+00    3.691403e-01   5.433563e-03
  3.471522e+00    3.802243e-01   5.531028e-03
  3.473732e+00    4.100224e-01   5.760259e-03
  3.475943e+00    4.127100e-01   5.795439e-03
  3.478153e+00    4.252615e-01   5.899066e-03
  3.480364e+00    4.068910e-01   5.785659e-03
  3.482574e+00    4.100712e-01   5.823680e-03
  3.484784e+00    4.265099e-01   5.954406e-03
  3.486995e+00    4.410997e-01   6.070944e-03
  3.489205e+00    4.416268e-01   6.089580e-03
  3.491416e+00    4.337885e-01   6.050305e-03
  3.493626e+00    4.339719e-01   6.066183e-03
  3.495837e+00    4.385461e-01   6.112767e-03
  3.498047e+00    4.448628e-01   6.171114e-03
  3.500258e+00    4.640736e-01   6.317725e-03
  3.502468e+00    4.661708e-01   6.346630e-03
  3.504679e+00    4.601451e-01   6.319946e-03
  3.506889e+00    4.728093e-01   6.420859e-03
  3.509099e+00    4.787943e-01   6.475841e-03
  3.511310e+00    4.900522e-01   6.566228e-03
  3.513520e+00    4.912066e-01   6.588490e-03
  3.515731e+00    4.952869e-01   6.630321e-03
  3.517941e+00    4.979215e-01   6.662407e-03
  3.520152e+00    5.058102e-01   6.729453e-03
  3.522362e+00    5.117224e-01   6.783315e-03
  3.524573e+00    4.974326e-01   6.702097e-03
  3.526783e+00    5.096059e-01   6.796923e-03
  3.528994e+00    5.260556e-01   6.918103e-03
  3.531204e+00    5.132207e-01   6.845568e-03
  3.533414e+00    5.312620e-01   6.976975e-03
  3.535625e+00    5.537169e-01   7.135566e-03
  3.537835e+00    5.555547e-01   7.159778e-03
  3.540046e+00    5.416225e-01   7.078414e-03
  3.542256e+00    5.362336e-01   7.050664e-03
  3.544467e+00    5.418689e-01   7.095262e-03
  3.546677e+00    5.322239e-01   7.039398e-03
  3.548888e+00    5.384472e-01   7.087928e-03
  3.551098e+00    5.468426e-01   7.150347e-03
  3.553309e+00    5.444199e-01   7.142704e-03
  3.555519e+00    5.420700e-01   7.138631e-03
  3.557729e+00    5.452747e-01   7.171537e-03
  3.559940e+00    5.509832e-01   7.220688e-03
  3.562150e+00    5.432229e-01   7.181458e-03
  3.564361e+00    5.312805e-01   7.115341e-03
  3.566571e+00    5.369761e-01   7.167184e-03
  3.568782e+00    5.460894e-01   7.242028e-03
  3.570992e+00    5.225781e-01   7.097997e-03
  3.573203e+00    5.318173e-01   7.174516e-03
  3.575413e+00    5.529702e-01   7.329859e-03
  3.577624e+00    5.391456e-01   7.251786e-03
  3.579834e+00    5.307065e-01   7.208630e-03
  3.582045e+00    5.433697e-01   7.308239e-03
  3.584255e+00    5.362014e-01   7.273953e-03
  3.586465e+00    5.535024e-01   7.404500e-03
  3.588676e+00    5.560392e-01   7.435948e-03
  3.590886e+00    5.523663e-01   7.425221e-03
  3.593097e+00    5.568575e-01   7.470145e-03
  3.595307e+00    5.455806e-01   7.408184e-03
  3.597518e+00    5.506362e-01   7.456843e-03
  3.599728e+00    5.304949e-01   7.333222e-03
  3.601939e+00    5.345864e-01   7.375487e-03
  3.604149e+00    5.463261e-01   7.470577e-03
  3.606360e+00    5.563702e-01   7.553358e-03
  3.608570e+00    5.454376e-01   7.493097e-03
  3.610780e+00    5.512777e-01   7.544321e-03
  3.612991e+00    5.409669e-01   7.483479e-03
  3.615201e+00    5.274317e-01   7.399056e-03
  3.617412e+00    5.186605e-01   7.344387e-03
  3.619622e+00    5.255591e-01   7.398988e-03
  3.621833e+00    5.306420e-01   7.441366e-03
  3.624043e+00    5.120304e-01   7.318992e-03
  3.626254e+00    5.396140e-01   7.523323e-03
  3.628464e+00    5.155848e-01   7.364687e-03
  3.630675e+00    5.371106e-01   7.530988e-03
  3.632885e+00    5.289637e-01   7.488086e-03
  3.635095e+00    5.212438e-01   7.447416e-03
  3.637306e+00    5.667697e-01   7.780659e-03
  3.639516e+00    5.565750e-01   7.725238e-03
  3.641727e+00    5.632548e-01   7.786412e-03
  3.643937e+00    5.287393e-01   7.558605e-03
  3.646148e+00    5.461096e-01   7.696469e-03
  3.648358e+00    5.446538e-01   7.701273e-03
  3.650569e+00    5.448350e-01   7.717443e-03
  3.652779e+00    5.212858e-01   7.563436e-03
  3.654990e+00    5.464925e-01   7.759190e-03
  3.657200e+00    5.384947e-01   7.717223e-03
  3.659410e+00    5.159624e-01   7.568743e-03
  3.661621e+00    5.464084e-01   7.804190e-03
  3.663831e+00    5.289786e-01   7.693788e-03
  3.666042e+00    5.184004e-01   7.631434e-03
  3.668252e+00    5.389706e-01   7.796705e-03
  3.670463e+00    5.361456e-01   7.791576e-03
  3.672673e+00    5.352889e-01   7.800824e-03
  3.674884e+00    5.328590e-01   7.798532e-03
  3.677094e+00    5.445203e-01   7.899113e-03
  3.679305e+00    5.233868e-01   7.759767e-03
  3.681515e+00    5.375392e-01   7.879725e-03
  3.683726e+00    5.254548e-01   7.806341e-03
  3.685936e+00    5.349306e-01   7.892239e-03
  3.688146e+00    5.124119e-01   7.739891e-03
  3.690357e+00    5.384697e-01   7.950305e-03
  3.692567e+00    5.225624e-01   7.848105e-03
  3.694778e+00    5.215128e-01   7.856173e-03
  3.696988e+00    5.137244e-01   7.813092e-03
  3.699199e+00    5.211319e-01   7.885365e-03
  3.701409e+00    5.205300e-01   7.897131e-03
  3.703620e+00    5.071275e-01   7.810829e-03
  3.705830e+00    5.242986e-01   7.958330e-03
  3.708041e+00    5.345468e-01   8.052545e-03
  3.710251e+00    5.086811e-01   7.871777e-03
  3.712461e+00    5.158737e-01   7.943830e-03
  3.714672e+00    5.220906e-01   8.008307e-03
  3.716882e+00    5.141419e-01   7.963709e-03
  3.719093e+00    5.153636e-01   7.990232e-03
  3.721303e+00    5.258333e-01   8.088027e-03
  3.723514e+00    5.198397e-01   8.059084e-03
  3.725724e+00    5.303265e-01   8.157324e-03
  3.727935e+00    5.108421e-01   8.023441e-03
  3.730145e+00    5.120586e-01   8.050167e-03
  3.732356e+00    5.249729e-01   8.168767e-03
  3.734566e+00    5.126050e-01   8.089465e-03
  3.736776e+00    5.247436e-01   8.202591e-03
  3.738987e+00    5.296992e-01   8.259256e-03
  3.741197e+00    5.091653e-01   8.115542e-03
  3.743408e+00    5.129769e-01   8.163862e-03
  3.745618e+00    5.205398e-01   8.242285e-03
  3.747829e+00    5.266184e-01   8.308657e-03
  3.750039e+00    5.027513e-01   8.136392e-03
  3.752250e+00    5.067993e-01   8.187498e-03
  3.754460e+00    4.952925e-01   8.112241e-03
  3.756671e+00    5.245663e-01   8.367641e-03
  3.758881e+00    4.936681e-01   8.135816e-03
  3.761091e+00    5.160176e-01   8.337234e-03
  3.763302e+00    4.990464e-01   8.217906e-03
  3.765512e+00    5.038937e-01   8.276865e-03
  3.767723e+00    5.119048e-01   8.361875e-03
  3.769933e+00    5.031794e-01   8.309579e-03
  3.772144e+00    4.974846e-01   8.281799e-03
  3.774354e+00    4.987954e-01   8.312433e-03
  3.776565e+00    5.091928e-01   8.418544e-03
  3.778775e+00    5.012081e-01   8.372193e-03
  3.780986e+00    5.066748e-01   8.438073e-03
  3.783196e+00    4.935244e-01   8.347857e-03
  3.785407e+00    5.134415e-01   8.535316e-03
  3.787617e+00    4.952170e-01   8.403068e-03
  3.789827e+00    4.991760e-01   8.457029e-03
  3.792038e+00    5.145947e-01   8.607782e-03
  3.794248e+00    5.127831e-01   8.613995e-03
  3.796459e+00    4.956477e-01   8.490064e-03
  3.798669e+00    4.959632e-01   8.514070e-03
  3.800880e+00    5.145069e-01   8.693490e-03
  3.803090e+00    5.144924e-01   8.715528e-03
  3.805301e+00    4.976234e-01   8.593469e-03
  3.807511e+00    5.382978e-01   8.960588e-03
  3.809722e+00    4.999207e-01   8.657602e-03
  3.811932e+00    4.776245e-01   8.483985e-03
  3.814142e+00    5.216315e-01   8.889575e-03
  3.816353e+00    5.200499e-01   8.899449e-03
  3.818563e+00    5.010865e-01   8.758900e-03
  3.820774e+00    4.950930e-01   8.729370e-03
  3.822984e+00    5.152336e-01   8.928937e-03
  3.825195e+00    5.118827e-01   8.923938e-03
  3.827405e+00    5.203153e-01   9.021571e-03
  3.829616e+00    4.985748e-01   8.855150e-03
  3.831826e+00    4.999891e-01   8.891936e-03
  3.834037e+00    4.720935e-01   8.664238e-03
  3.836247e+00    4.959157e-01   8.904750e-03
  3.838457e+00    4.795641e-01   8.781359e-03
  3.840668e+00    5.030966e-01   9.019536e-03
  3.842878e+00    5.112592e-01   9.118399e-03
  3.845089e+00    4.901172e-01   8.953288e-03
  3.847299e+00    4.889637e-01   8.968312e-03
  3.849510e+00    5.146692e-01   9.227432e-03
  3.851720e+00    4.977576e-01   9.095989e-03
  3.853931e+00    5.096751e-01   9.223578e-03
  3.856141e+00    5.195714e-01   9.332179e-03
  3.858352e+00    4.852844e-01   9.038049e-03
  3.860562e+00    4.717866e-01   8.930371e-03
  3.862772e+00    4.706837e-01   8.938968e-03
  3.864983e+00    4.995569e-01   9.228883e-03
  3.867193e+00    5.022997e-01   9.274147e-03
  3.869404e+00    5.105203e-01   9.369866e-03
  3.871614e+00    4.882219e-01   9.182862e-03
  3.873825e+00    4.798220e-01   9.123550e-03
  3.876035e+00    5.015988e-01   9.348996e-03
  3.878246e+00    5.177106e-01   9.524447e-03
  3.880456e+00    5.079350e-01   9.463479e-03
  3.882667e+00    4.759880e-01   9.190000e-03
  3.884877e+00    4.716568e-01   9.177107e-03
  3.887087e+00    5.049336e-01   9.525712e-03
  3.889298e+00    4.743594e-01   9.262655e-03
  3.891508e+00    5.026867e-01   9.566074e-03
  3.893719e+00    5.279362e-01   9.835562e-03
  3.895929e+00    4.928196e-01   9.534343e-03
  3.898140e+00    4.852777e-01   9.492580e-03
  3.900350e+00    4.825770e-01   9.498063e-03
  3.902561e+00    4.794866e-01   9.499539e-03
  3.904771e+00    5.035017e-01   9.767764e-03
  3.906982e+00    5.161935e-01   9.924267e-03
  3.909192e+00    5.028254e-01   9.828761e-03
  3.911403e+00    5.145079e-01   9.977321e-03
  3.913613e+00    4.632218e-01   9.500279e-03
  3.915823e+00    4.938411e-01   9.844194e-03
  3.918034e+00    4.852916e-01   9.793847e-03
  3.920244e+00    4.788824e-01   9.764300e-03
  3.922455e+00    4.722605e-01   9.732033e-03
  3.924665e+00    4.663344e-01   9.706356e-03
  3.926876e+00    4.995727e-01   1.008391e-02
  3.929086e+00    4.811570e-01   9.933403e-03
  3.931297e+00    4.637794e-01   9.786365e-03
  3.933507e+00    4.887033e-01   1.007479e-02
  3.935718e+00    5.143045e-01   1.036484e-02
  3.937928e+00    5.102579e-01   1.035418e-02
  3.940138e+00    4.949633e-01   1.022735e-02
  3.942349e+00    5.119852e-01   1.043233e-02
  3.944559e+00    5.048999e-01   1.039047e-02
  3.946770e+00    4.865484e-01   1.023008e-02
  3.948980e+00    4.783477e-01   1.017393e-02
  3.951191e+00    4.593029e-01   9.999275e-03
  3.953401e+00    4.870387e-01   1.032813e-02
  3.955612e+00    5.125989e-01   1.062819e-02
  3.957822e+00    5.223171e-01   1.076141e-02
  3.960033e+00    4.912914e-01   1.046965e-02
  3.962243e+00    4.786341e-01   1.036644e-02
  3.964453e+00    4.827880e-01   1.044441e-02
  3.966664e+00    5.118548e-01   1.078847e-02
  3.968874e+00    4.611998e-01   1.026845e-02
  3.971085e+00    4.724234e-01   1.041421e-02
  3.973295e+00    5.029065e-01   1.076679e-02
  3.975506e+00    4.895732e-01   1.064487e-02
  3.977716e+00    4.729918e-01   1.048474e-02
  3.979927e+00    4.878473e-01   1.067030e-02
  3.982137e+00    4.888952e-01   1.070406e-02
  3.984348e+00    5.180289e-01   1.104182e-02
  3.986558e+00    4.705955e-01   1.054604e-02
  3.988768e+00    5.059761e-01   1.095884e-02
  3.990979e+00    4.998528e-01   1.091542e-02
  3.993189e+00    4.821871e-01   1.074381e-02
  3.995400e+00    4.700787e-01   1.063124e-02
  3.997610e+00    4.801684e-01   1.077426e-02
  3.999821e+00    5.007353e-01   1.104087e-02
  4.002031e+00    4.877956e-01   1.093577e-02
  4.004242e+00    4.727990e-01   1.080441e-02
  4.006452e+00    4.862036e-01   1.099578e-02
  4.008663e+00    4.793708e-01   1.095817e-02
  4.010873e+00    4.515154e-01   1.067357e-02
  4.013084e+00    4.974825e-01   1.124512e-02
  4.015294e+00    5.117360e-01   1.144724e-02
  4.017504e+00    4.860969e-01   1.119886e-02
  4.019715e+00    4.720207e-01   1.107729e-02
  4.021925e+00    5.067300e-01   1.152139e-02
  4.024136e+00    5.029273e-01   1.152261e-02
  4.026346e+00    5.173009e-01   1.173178e-02
  4.028557e+00    5.301884e-01   1.192334e-02
  4.030767e+00    4.948224e-01   1.156503e-02
  4.032978e+00    4.910657e-01   1.156776e-02
  4.035188e+00    4.747874e-01   1.141999e-02
  4.037399e+00    4.906746e-01   1.165761e-02
  4.039609e+00    4.737054e-01   1.150133e-02
  4.041819e+00    4.968261e-01   1.182816e-02
  4.044030e+00    5.128968e-01   1.206937e-02
  4.046240e+00    4.863781e-01   1.180329e-02
  4.048451e+00    4.743181e-01   1.170642e-02
  4.050661e+00    5.113348e-01   1.220750e-02
  4.052872e+00    4.918452e-01   1.202608e-02
  4.055082e+00    4.791520e-01   1.192300e-02
  4.057293e+00    4.894921e-01   1.210528e-02
  4.059503e+00    4.792903e-01   1.203268e-02
  4.061714e+00    4.855287e-01   1.216763e-02
  4.063924e+00    4.619594e-01   1.192411e-02
  4.066134e+00    5.061828e-01   1.254058e-02
  4.068345e+00    4.780365e-01   1.224573e-02
  4.070555e+00    4.904573e-01   1.246357e-02
  4.072766e+00    4.729351e-01   1.229919e-02
  4.074976e+00    5.030712e-01   1.274818e-02
  4.077187e+00    5.064415e-01   1.285455e-02
  4.079397e+00    4.724391e-01   1.247893e-02
  4.081608e+00    4.753959e-01   1.258282e-02
  4.083818e+00    4.911593e-01   1.285639e-02
  4.086029e+00    4.717939e-01   1.266691e-02
  4.088239e+00    4.319045e-01   1.218476e-02
  4.090449e+00    4.734229e-01   1.282603e-02
  4.092660e+00    5.023866e-01   1.328547e-02
  4.094870e+00    4.972607e-01   1.329085e-02
  4.097081e+00    5.173154e-01   1.363068e-02
  4.099291e+00    4.827956e-01   1.322243e-02
  4.101502e+00    4.836782e-01   1.328386e-02
  4.103712e+00    4.666033e-01   1.309592e-02
  4.105923e+00    4.907767e-01   1.348284e-02
  4.108133e+00    5.204118e-01   1.393749e-02
  4.110344e+00    4.957393e-01   1.365523e-02
  4.112554e+00    4.815836e-01   1.351192e-02
  4.114764e+00    4.706930e-01   1.341193e-02
  4.116975e+00    5.125101e-01   1.405015e-02
  4.119185e+00    5.113844e-01   1.409189e-02
  4.121396e+00    4.584170e-01   1.339720e-02
  4.123606e+00    5.059880e-01   1.413278e-02
  4.125817e+00    5.132929e-01   1.429407e-02
  4.128027e+00    4.779765e-01   1.385188e-02
  4.130238e+00    4.839524e-01   1.399774e-02
  4.132448e+00    4.979931e-01   1.426111e-02
  4.134659e+00    5.109399e-01   1.450732e-02
  4.136869e+00    4.763996e-01   1.407088e-02
  4.139080e+00    5.047169e-01   1.454835e-02
  4.141290e+00    5.111682e-01   1.470597e-02
  4.143500e+00    5.021471e-01   1.464284e-02
  4.145711e+00    4.980691e-01   1.465129e-02
  4.147921e+00    4.730961e-01   1.434492e-02
  4.150132e+00    4.594176e-01   1.420330e-02
  4.152342e+00    4.933865e-01   1.479034e-02
  4.154553e+00    4.415252e-01   1.405812e-02
  4.156763e+00    4.795256e-01   1.472306e-02
  4.158974e+00    4.409757e-01   1.418974e-02
  4.161184e+00    4.909496e-01   1.504637e-02
  4.163395e+00    5.039092e-01   1.532173e-02
  4.165605e+00    4.781215e-01   1.500205e-02
  4.167815e+00    4.947899e-01   1.534107e-02
  4.170026e+00    4.269698e-01   1.432572e-02
  4.172236e+00    5.044323e-01   1.565552e-02
  4.174447e+00    4.828058e-01   1.539957e-02
  4.176657e+00    5.001084e-01   1.575859e-02
  4.178868e+00    5.227398e-01   1.620263e-02
  4.181078e+00    5.305330e-01   1.641484e-02
  4.183289e+00    4.851869e-01   1.578766e-02
  4.185499e+00    4.693667e-01   1.561950e-02
  4.187710e+00    4.583879e-01   1.552641e-02
  4.189920e+00    4.378061e-01   1.526496e-02
  4.192130e+00    5.144445e-01   1.664833e-02
  4.194341e+00    5.227261e-01   1.688482e-02
  4.196551e+00    4.829198e-01   1.633203e-02
  4.198762e+00    4.534214e-01   1.592589e-02
  4.200972e+00    5.287611e-01   1.730913e-02
  4.203183e+00    5.431151e-01   1.765846e-02
  4.205393e+00    4.917526e-01   1.691451e-02
  4.207604e+00    4.868174e-01   1.694411e-02
  4.209814e+00    5.077788e-01   1.742392e-02
  4.212025e+00    4.153376e-01   1.587013e-02
  4.214235e+00    5.173361e-01   1.783697e-02
  4.216445e+00    4.735376e-01   1.718886e-02
  4.218656e+00    4.819736e-01   1.747115e-02
  4.220866e+00    5.077986e-01   1.806621e-02
  4.223077e+00    5.085434e-01   1.821822e-02
  4.225287e+00    4.567805e-01   1.740227e-02
  4.227498e+00    4.457527e-01   1.732543e-02
  4.229708e+00    5.230696e-01   1.892057e-02
  4.231919e+00    5.058292e-01   1.876024e-02
  4.234129e+00    4.751870e-01   1.833578e-02
  4.236340e+00    4.390533e-01   1.777530e-02
  4.238550e+00    4.604143e-01   1.836334e-02
  4.240761e+00    5.549486e-01   2.033871e-02
  4.242971e+00    5.385534e-01   2.021993e-02
  4.245181e+00    4.777401e-01   1.922274e-02
  4.247392e+00    4.568252e-01   1.897312e-02
  4.249602e+00    5.127969e-01   2.030091e-02
  4.251813e+00    5.572165e-01   2.137110e-02
  4.254023e+00    4.990969e-01   2.042982e-02
  4.256234e+00    5.052006e-01   2.077379e-02
  4.258444e+00    4.963448e-01   2.080623e-02
  4.260655e+00    4.863238e-01   2.082197e-02
  4.262865e+00    4.209989e-01   1.959249e-02
  4.265076e+00    5.019818e-01   2.163714e-02
  4.267286e+00    4.821695e-01   2.145801e-02
  4.269496e+00    4.478559e-01   2.093229e-02
  4.271707e+00    5.357460e-01   2.317699e-02
  4.273917e+00    5.442700e-01   2.366275e-02
  4.276128e+00    4.432607e-01   2.163886e-02
  4.278338e+00    4.527444e-01   2.216046e-02
  4.280549e+00    4.582866e-01   2.261530e-02
  4.282759e+00    4.557966e-01   2.287815e-02
  4.284970e+00    4.767533e-01   2.374427e-02
  4.287180e+00    4.826590e-01   2.417720e-02
  4.289391e+00    5.681694e-01   2.642862e-02
  4.291601e+00    5.536932e-01   2.629816e-02
  4.293811e+00    5.293903e-01   2.591585e-02
  4.296022e+00    5.389179e-01   2.635758e-02
  4.298232e+00    5.741289e-01   2.743306e-02
  4.300443e+00    5.232474e-01   2.640567e-02
  4.302653e+00    4.922109e-01   2.583217e-02
  4.304864e+00    5.058057e-01   2.641345e-02
  4.307074e+00    5.710479e-01   2.831689e-02
  4.309285e+00    4.615723e-01   2.568984e-02
  4.311495e+00    4.300448e-01   2.502967e-02
  4.313706e+00    5.282174e-01   2.799928e-02
  4.315916e+00    4.931889e-01   2.732234e-02
  4.318126e+00    4.346019e-01   2.590062e-02
  4.320337e+00    5.767950e-01   3.014129e-02
  4.322547e+00    4.737511e-01   2.760594e-02
  4.324758e+00    4.602405e-01   2.749295e-02
  4.326968e+00    5.778140e-01   3.115063e-02
  4.329179e+00    4.819354e-01   2.876431e-02
  4.331389e+00    4.357943e-01   2.766731e-02
  4.333600e+00    5.068440e-01   3.019267e-02
  4.335810e+00    3.876653e-01   2.672177e-02
  4.338021e+00    3.684222e-01   2.638153e-02
  4.340231e+00    4.325422e-01   2.894443e-02
  4.342442e+00    4.478081e-01   2.984639e-02
  4.344652e+00    3.725942e-01   2.759398e-02
  4.346862e+00    4.595896e-01   3.107538e-02
  4.349073e+00    5.456978e-01   3.435503e-02
  4.351283e+00    4.470099e-01   3.155833e-02
  4.353494e+00    5.189064e-01   3.452602e-02
  4.355704e+00    4.623670e-01   3.311680e-02
  4.357915e+00    4.530951e-01   3.332850e-02
  4.360125e+00    3.716459e-01   3.069879e-02
  4.362336e+00    5.632614e-01   3.848326e-02
  4.364546e+00    4.095213e-01   3.341097e-02
  4.366757e+00    5.286331e-01   3.871549e-02
  4.368967e+00    2.407965e-01   2.665171e-02
  4.371177e+00    4.469340e-01   3.707904e-02
  4.373388e+00    4.294990e-01   3.716147e-02
  4.375598e+00    2.901388e-01   3.124137e-02
  4.377809e+00    4.360394e-01   3.926565e-02
  4.380019e+00    4.462476e-01   4.072365e-02
  4.382230e+00    3.327900e-01   3.614778e-02
  4.384440e+00    3.913842e-01   4.033052e-02
  4.386651e+00    5.076783e-01   4.735007e-02
  4.388861e+00    4.660119e-01   4.688614e-02
  4.391072e+00    5.229810e-01   5.141508e-02
  4.393282e+00    4.961327e-01   5.201435e-02
  4.395492e+00    4.914985e-01   5.392234e-02
  4.397703e+00    4.198709e-01   5.211851e-02
  4.399913e+00    4.443311e-01   5.632451e-02
  4.402124e+00    4.466628e-01   5.967696e-02
  4.404334e+00    3.530587e-01   5.639685e-02
  4.406545e+00    2.876750e-01   5.469247e-02
  4.408755e+00    4.363352e-01   7.306029e-02
  4.410966e+00   -1.031533e-02            nan
  4.413176e+00    2.189343e-02   2.052562e-02
  4.415387e+00   -7.192189e-01            nan
  4.417597e+00   -1.916099e+00            nan
  4.419807e+00   -3.766224e-01            nan
