# == pyFAI calibration ==
# Distance Sample to Detector: 0.216 m
# PONI: 1.166e-01, 1.308e-01 m
# Rotations: 0.000000 0.000000 0.000000 rad
# 
# == Fit2d calibration ==
# Distance Sample-beamCenter: 216.000 mm
# Center: x=1744.293, y=1555.000 pix
# Tilt: 0.000 deg  TiltPlanRot: 0.000 deg
# 
# Detector Eiger 9M	 PixelSize= 7.500e-05, 7.500e-05 m
#    Detector has a mask: True 
#    Detector has a dark current: False 
#    detector has a flat field: False 
# 
# Wavelength: 9.8e-11 m
# Mask applied: from detector
# Dark current applied: False
# Flat field applied: False
# Polarization factor: None
# Normalization factor: 1.0
# 
# Headers of the input frame:
# {
# "_array_data.header_convention": "SLS_1.0",
# "_array_data.header_contents": "# Detector: Dectris Eiger 9M, S/N E-18-0102\r\n# Pixel_size 75e-6 m x 75e-6 m\r\n# Silicon sensor, thickness 0.000450 m\r\n# Exposure_time 0.024997 s\r\n# Exposure_period 0.025000 s\r\n# Count_cutoff 62318 counts\r\n# Wavelength 0.980106 A\r\n# Detector_distance 0.215992 m\r\n# Beam_xy (1555, 1744) pixels\r\n# Start_angle 0.000000 deg.\r\n# Angle_increment 0.000000 deg.",
# "Content-Type": "application/octet-stream;",
# "conversions": "x-CBF_BYTE_OFFSET",
# "Content-Transfer-Encoding": "BINARY",
# "X-Binary-Size": "10166608",
# "X-Binary-ID": "1",
# "X-Binary-Element-Type": "signed 32-bit integer",
# "X-Binary-Element-Byte-Order": "LITTLE_ENDIAN",
# "Content-MD5": "5uyx+uqzh7KTzr6ikLD2cg==",
# "X-Binary-Number-of-Elements": "10166590",
# "X-Binary-Size-Fastest-Dimension": "3110",
# "X-Binary-Size-Second-Dimension": "3269",
# "X-Binary-Size-Padding": "4095"
# }
# --> H:/Proxima2a_2019-04-05/RAW_DATA/C5_gel17_position5/C5_mesh_1_data.cbf/C5_mesh_1_data.cbf000006.dat
#        q_A^-1              I           sigma 
  1.105228e-03    8.395490e-01   4.958039e-01
  3.315685e-03    1.472305e+00   3.991576e-01
  5.526141e-03    1.616135e+00   3.233783e-01
  7.736597e-03    1.724108e+00   2.821645e-01
  9.947054e-03    1.423951e+00   2.260602e-01
  1.215751e-02    1.554864e+00   2.136067e-01
  1.436797e-02    1.480058e+00   1.916969e-01
  1.657842e-02    1.371267e+00   1.717534e-01
  1.878888e-02    1.391980e+00   1.625474e-01
  2.099934e-02    1.317815e+00   1.496337e-01
  2.320979e-02    1.188844e+00   1.351747e-01
  2.542025e-02    1.350193e+00   1.376599e-01
  2.763070e-02    1.449172e+00   1.367887e-01
  2.984116e-02    1.484178e+00   1.332047e-01
  3.205162e-02    1.397317e+00   1.247193e-01
  3.426207e-02    1.474211e+00   1.238953e-01
  3.647253e-02    1.406851e+00   1.173043e-01
  3.868299e-02    1.332374e+00   1.108559e-01
  4.089344e-02    1.302707e+00   1.066115e-01
  4.310390e-02    1.459401e+00   1.099034e-01
  4.531436e-02    1.488590e+00   1.082564e-01
  4.752481e-02    1.369754e+00   1.014006e-01
  4.973527e-02    1.405600e+00   1.004113e-01
  5.194572e-02    1.411481e+00   9.845560e-02
  5.415618e-02    1.305452e+00   9.272979e-02
  5.636664e-02    1.363959e+00   9.291071e-02
  5.857709e-02    1.356460e+00   9.089042e-02
  6.078755e-02    1.380665e+00   9.001224e-02
  6.299801e-02    1.350136e+00   8.743498e-02
  6.520846e-02    1.365939e+00   8.644229e-02
  6.741892e-02    1.427960e+00   8.691764e-02
  6.962938e-02    1.428285e+00   8.554088e-02
  7.183983e-02    1.496555e+00   8.620221e-02
  7.405029e-02    1.426289e+00   8.288672e-02
  7.626074e-02    1.527445e+00   8.452265e-02
  7.847120e-02    1.407682e+00   7.998826e-02
  8.068166e-02    1.468458e+00   8.056921e-02
  8.289211e-02    1.360860e+00   7.651974e-02
  8.510257e-02    1.396581e+00   7.650369e-02
  8.731303e-02    1.456862e+00   7.713899e-02
  8.952348e-02    1.446714e+00   7.591698e-02
  9.173394e-02    1.454504e+00   7.519541e-02
  9.394439e-02    1.439936e+00   7.393003e-02
  9.615485e-02    1.471928e+00   7.388102e-02
  9.836531e-02    1.483816e+00   7.333856e-02
  1.005758e-01    1.490421e+00   7.268985e-02
  1.027862e-01    1.564170e+00   7.365969e-02
  1.049967e-01    1.489959e+00   7.112908e-02
  1.072071e-01    1.484462e+00   7.026114e-02
  1.094176e-01    1.553306e+00   7.114116e-02
  1.116280e-01    1.634982e+00   7.225970e-02
  1.138385e-01    1.623592e+00   7.130366e-02
  1.160490e-01    1.547201e+00   6.893907e-02
  1.182594e-01    1.456004e+00   6.624708e-02
  1.204699e-01    1.358881e+00   6.340906e-02
  1.226803e-01    1.380147e+00   6.332237e-02
  1.248908e-01    1.460821e+00   6.456689e-02
  1.271012e-01    1.613900e+00   6.727158e-02
  1.293117e-01    1.546106e+00   6.527749e-02
  1.315222e-01    1.567705e+00   6.517565e-02
  1.337326e-01    1.505218e+00   6.333231e-02
  1.359431e-01    1.533782e+00   6.396782e-02
  1.381535e-01    1.587690e+00   6.595587e-02
  1.403640e-01    1.483225e+00   6.402436e-02
  1.425744e-01    1.523119e+00   6.498330e-02
  1.447849e-01    1.518239e+00   6.489409e-02
  1.469953e-01    1.467147e+00   6.375286e-02
  1.492058e-01    1.521655e+00   6.485089e-02
  1.514163e-01    1.545149e+00   6.524111e-02
  1.536267e-01    1.618672e+00   6.664488e-02
  1.558372e-01    1.594357e+00   6.599642e-02
  1.580476e-01    1.599232e+00   6.593686e-02
  1.602581e-01    1.512926e+00   6.397007e-02
  1.624685e-01    1.585559e+00   6.530831e-02
  1.646790e-01    1.612033e+00   6.566221e-02
  1.668895e-01    1.652755e+00   6.629435e-02
  1.690999e-01    1.654848e+00   6.613712e-02
  1.713104e-01    1.731477e+00   6.744111e-02
  1.735208e-01    1.712977e+00   6.687130e-02
  1.757313e-01    1.684935e+00   6.611378e-02
  1.779417e-01    1.727802e+00   6.673119e-02
  1.801522e-01    1.726930e+00   6.650186e-02
  1.823626e-01    1.855058e+00   6.869528e-02
  1.845731e-01    1.883106e+00   6.898849e-02
  1.867836e-01    1.931329e+00   6.963044e-02
  1.889940e-01    1.944114e+00   6.963226e-02
  1.912045e-01    1.899453e+00   6.859795e-02
  1.934149e-01    1.977944e+00   6.976664e-02
  1.956254e-01    1.952146e+00   6.908158e-02
  1.978358e-01    2.015679e+00   6.995617e-02
  2.000463e-01    1.978843e+00   6.908431e-02
  2.022568e-01    1.963968e+00   6.859824e-02
  2.044672e-01    2.035820e+00   6.960258e-02
  2.066777e-01    2.084471e+00   7.019554e-02
  2.088881e-01    2.018758e+00   6.885425e-02
  2.110986e-01    2.068312e+00   6.945518e-02
  2.133090e-01    1.949035e+00   6.720359e-02
  2.155195e-01    1.880386e+00   6.579049e-02
  2.177300e-01    1.915157e+00   6.587435e-02
  2.199404e-01    2.005192e+00   6.562890e-02
  2.221509e-01    1.889621e+00   6.266343e-02
  2.243613e-01    1.908413e+00   6.217586e-02
  2.265718e-01    2.038691e+00   6.355476e-02
  2.287822e-01    2.047904e+00   6.306773e-02
  2.309927e-01    2.011827e+00   6.194029e-02
  2.332031e-01    2.121664e+00   6.306423e-02
  2.354136e-01    2.124333e+00   6.259246e-02
  2.376241e-01    2.081807e+00   6.148184e-02
  2.398345e-01    2.068278e+00   6.082819e-02
  2.420450e-01    2.054175e+00   6.018722e-02
  2.442554e-01    2.073721e+00   6.005628e-02
  2.464659e-01    2.085631e+00   5.982413e-02
  2.486763e-01    2.109812e+00   5.977441e-02
  2.508868e-01    2.147151e+00   5.992065e-02
  2.530973e-01    2.104505e+00   5.895482e-02
  2.553077e-01    2.021077e+00   5.742398e-02
  2.575182e-01    2.104458e+00   5.824983e-02
  2.597286e-01    2.119445e+00   5.811710e-02
  2.619391e-01    2.066910e+00   5.706190e-02
  2.641495e-01    1.950872e+00   5.513017e-02
  2.663600e-01    2.033054e+00   5.596989e-02
  2.685704e-01    1.979266e+00   5.492520e-02
  2.707809e-01    1.912175e+00   5.369970e-02
  2.729914e-01    2.002753e+00   5.467042e-02
  2.752018e-01    2.031250e+00   5.477145e-02
  2.774123e-01    2.003282e+00   5.411523e-02
  2.796227e-01    1.966211e+00   5.334701e-02
  2.818332e-01    1.979139e+00   5.325509e-02
  2.840436e-01    1.943418e+00   5.251649e-02
  2.862541e-01    1.981241e+00   5.277019e-02
  2.884646e-01    1.940020e+00   5.197053e-02
  2.906750e-01    1.899906e+00   5.118655e-02
  2.928855e-01    1.951695e+00   5.163912e-02
  2.950959e-01    1.922699e+00   5.101866e-02
  2.973064e-01    1.856298e+00   4.990464e-02
  2.995168e-01    1.952719e+00   5.095248e-02
  3.017273e-01    1.909176e+00   5.015909e-02
  3.039377e-01    1.863021e+00   4.933210e-02
  3.061482e-01    1.920086e+00   4.986528e-02
  3.083587e-01    1.905138e+00   4.945582e-02
  3.105691e-01    1.881724e+00   4.894101e-02
  3.127796e-01    1.981690e+00   5.001304e-02
  3.149900e-01    1.934413e+00   4.920701e-02
  3.172005e-01    1.906299e+00   4.864835e-02
  3.194109e-01    1.910018e+00   4.849477e-02
  3.216214e-01    1.878342e+00   4.789472e-02
  3.238319e-01    1.908394e+00   4.808507e-02
  3.260423e-01    1.880322e+00   4.754001e-02
  3.282528e-01    1.893346e+00   4.751445e-02
  3.304632e-01    1.865047e+00   4.697531e-02
  3.326737e-01    1.885590e+00   4.704905e-02
  3.348841e-01    1.816307e+00   4.599753e-02
  3.370946e-01    1.799196e+00   4.560808e-02
  3.393050e-01    1.829369e+00   4.581472e-02
  3.415155e-01    1.889464e+00   4.638608e-02
  3.437260e-01    1.806190e+00   4.518430e-02
  3.459364e-01    1.806799e+00   4.502473e-02
  3.481469e-01    1.792244e+00   4.467933e-02
  3.503573e-01    1.803169e+00   4.465204e-02
  3.525678e-01    1.840217e+00   4.494766e-02
  3.547782e-01    1.794670e+00   4.422750e-02
  3.569887e-01    1.851557e+00   4.476380e-02
  3.591992e-01    1.822033e+00   4.424839e-02
  3.614096e-01    1.746046e+00   4.316568e-02
  3.636201e-01    1.757954e+00   4.316042e-02
  3.658305e-01    1.798026e+00   4.350066e-02
  3.680410e-01    1.716043e+00   4.235121e-02
  3.702514e-01    1.793448e+00   4.315022e-02
  3.724619e-01    1.757309e+00   4.256782e-02
  3.746724e-01    1.747050e+00   4.230176e-02
  3.768828e-01    1.751626e+00   4.221459e-02
  3.790933e-01    1.781725e+00   4.243701e-02
  3.813037e-01    1.804583e+00   4.256862e-02
  3.835142e-01    1.778776e+00   4.212434e-02
  3.857246e-01    1.754833e+00   4.170447e-02
  3.879351e-01    1.725744e+00   4.122351e-02
  3.901455e-01    1.725757e+00   4.109241e-02
  3.923560e-01    1.768413e+00   4.146495e-02
  3.945665e-01    1.762658e+00   4.126616e-02
  3.967769e-01    1.709296e+00   4.050946e-02
  3.989874e-01    1.732014e+00   4.065042e-02
  4.011978e-01    1.772196e+00   4.099282e-02
  4.034083e-01    1.730228e+00   4.038018e-02
  4.056187e-01    1.736179e+00   4.032495e-02
  4.078292e-01    1.765822e+00   4.054468e-02
  4.100397e-01    1.767260e+00   4.043735e-02
  4.122501e-01    1.751587e+00   4.013718e-02
  4.144606e-01    1.754942e+00   4.005649e-02
  4.166710e-01    1.784527e+00   4.027259e-02
  4.188815e-01    1.778706e+00   4.008810e-02
  4.210919e-01    1.750453e+00   3.965189e-02
  4.233024e-01    1.717809e+00   3.916489e-02
  4.255128e-01    1.715616e+00   3.902673e-02
  4.277233e-01    1.772972e+00   3.955973e-02
  4.299338e-01    1.798147e+00   3.972499e-02
  4.321442e-01    1.780559e+00   3.941711e-02
  4.343547e-01    1.783620e+00   3.933943e-02
  4.365651e-01    1.758797e+00   3.895374e-02
  4.387756e-01    1.723750e+00   3.845569e-02
  4.409860e-01    1.724514e+00   3.835764e-02
  4.431965e-01    1.714433e+00   3.813962e-02
  4.454070e-01    1.760388e+00   3.853986e-02
  4.476174e-01    1.715709e+00   3.794319e-02
  4.498279e-01    1.738287e+00   3.808811e-02
  4.520383e-01    1.709128e+00   3.766367e-02
  4.542488e-01    1.689147e+00   3.734190e-02
  4.564592e-01    1.703612e+00   3.740082e-02
  4.586697e-01    1.704618e+00   3.731258e-02
  4.608801e-01    1.702216e+00   3.718641e-02
  4.630906e-01    1.670356e+00   3.673922e-02
  4.653011e-01    1.700699e+00   3.697392e-02
  4.675115e-01    1.720779e+00   3.709361e-02
  4.697220e-01    1.701001e+00   3.678328e-02
  4.719324e-01    1.696926e+00   3.664415e-02
  4.741429e-01    1.660261e+00   3.615272e-02
  4.763533e-01    1.688414e+00   3.636448e-02
  4.785638e-01    1.658146e+00   3.594396e-02
  4.807743e-01    1.698854e+00   3.628997e-02
  4.829847e-01    1.661058e+00   3.579338e-02
  4.851952e-01    1.656792e+00   3.565692e-02
  4.874056e-01    1.645215e+00   3.544252e-02
  4.896161e-01    1.645367e+00   3.535627e-02
  4.918265e-01    1.642419e+00   3.523686e-02
  4.940370e-01    1.651382e+00   3.524562e-02
  4.962475e-01    1.694896e+00   3.561881e-02
  4.984579e-01    1.678434e+00   3.535804e-02
  5.006684e-01    1.671998e+00   3.520415e-02
  5.028788e-01    1.644116e+00   3.482480e-02
  5.050893e-01    1.690428e+00   3.522598e-02
  5.072997e-01    1.676572e+00   3.499659e-02
  5.095102e-01    1.675730e+00   3.490400e-02
  5.117206e-01    1.643333e+00   3.448277e-02
  5.139311e-01    1.619254e+00   3.414819e-02
  5.161416e-01    1.619306e+00   3.406804e-02
  5.183520e-01    1.650468e+00   3.431254e-02
  5.205625e-01    1.666518e+00   3.439821e-02
  5.227729e-01    1.668489e+00   3.433827e-02
  5.249834e-01    1.675705e+00   3.433256e-02
  5.271938e-01    1.656394e+00   3.405451e-02
  5.294043e-01    1.713840e+00   3.456007e-02
  5.316148e-01    1.679286e+00   3.413154e-02
  5.338252e-01    1.718458e+00   3.444842e-02
  5.360357e-01    1.754466e+00   3.472823e-02
  5.382461e-01    1.747340e+00   3.457928e-02
  5.404566e-01    1.763285e+00   3.465765e-02
  5.426670e-01    1.718540e+00   3.413800e-02
  5.448775e-01    1.742883e+00   3.430211e-02
  5.470879e-01    1.777225e+00   3.456116e-02
  5.492984e-01    1.783637e+00   3.454649e-02
  5.515089e-01    1.761027e+00   3.425067e-02
  5.537193e-01    1.758510e+00   3.415079e-02
  5.559298e-01    1.727416e+00   3.377327e-02
  5.581402e-01    1.745875e+00   3.387905e-02
  5.603507e-01    1.756928e+00   3.391217e-02
  5.625611e-01    1.737405e+00   3.365003e-02
  5.647716e-01    1.775974e+00   3.394762e-02
  5.669821e-01    1.765528e+00   3.377467e-02
  5.691925e-01    1.750808e+00   3.356139e-02
  5.714030e-01    1.755431e+00   3.353400e-02
  5.736134e-01    1.732188e+00   3.324043e-02
  5.758239e-01    1.681677e+00   3.268227e-02
  5.780343e-01    1.681680e+00   3.261317e-02
  5.802448e-01    1.701001e+00   3.273131e-02
  5.824552e-01    1.674791e+00   3.241004e-02
  5.846657e-01    1.620659e+00   3.181548e-02
  5.868762e-01    1.613613e+00   3.168017e-02
  5.890866e-01    1.641234e+00   3.188386e-02
  5.912971e-01    1.640677e+00   3.181245e-02
  5.935075e-01    1.648668e+00   3.182394e-02
  5.957180e-01    1.640917e+00   3.168387e-02
  5.979284e-01    1.644588e+00   3.165456e-02
  6.001389e-01    1.634643e+00   3.149443e-02
  6.023494e-01    1.636200e+00   3.144546e-02
  6.045598e-01    1.627671e+00   3.129953e-02
  6.067703e-01    1.649319e+00   3.144363e-02
  6.089807e-01    1.649314e+00   3.138037e-02
  6.111912e-01    1.640810e+00   3.123687e-02
  6.134016e-01    1.653393e+00   3.129387e-02
  6.156121e-01    1.668668e+00   3.137560e-02
  6.178226e-01    1.655253e+00   3.118736e-02
  6.200330e-01    1.647997e+00   3.105754e-02
  6.222435e-01    1.659368e+00   3.110277e-02
  6.244539e-01    1.696763e+00   3.138969e-02
  6.266644e-01    1.716679e+00   3.151179e-02
  6.288748e-01    1.721220e+00   3.149201e-02
  6.310853e-01    1.735895e+00   3.156460e-02
  6.332957e-01    1.676094e+00   3.095625e-02
  6.355062e-01    1.655705e+00   3.070760e-02
  6.377167e-01    1.705795e+00   3.110883e-02
  6.399271e-01    1.731506e+00   3.128237e-02
  6.421376e-01    1.689936e+00   3.084558e-02
  6.443480e-01    1.697810e+00   3.085854e-02
  6.465585e-01    1.668550e+00   3.053353e-02
  6.487689e-01    1.675417e+00   3.053851e-02
  6.509794e-01    1.679690e+00   3.051976e-02
  6.531899e-01    1.633337e+00   3.003912e-02
  6.554003e-01    1.586173e+00   2.954658e-02
  6.576108e-01    1.566886e+00   2.931171e-02
  6.598212e-01    1.555354e+00   2.914938e-02
  6.620317e-01    1.581462e+00   2.933853e-02
  6.642421e-01    1.579467e+00   2.926578e-02
  6.664526e-01    1.562764e+00   2.905699e-02
  6.686630e-01    1.601103e+00   2.935688e-02
  6.708735e-01    1.580632e+00   2.911509e-02
  6.730840e-01    1.589505e+00   2.914347e-02
  6.752944e-01    1.595523e+00   2.914549e-02
  6.775049e-01    1.598973e+00   2.912401e-02
  6.797153e-01    1.578877e+00   2.888800e-02
  6.819258e-01    1.580936e+00   2.885470e-02
  6.841362e-01    1.584090e+00   2.883153e-02
  6.863467e-01    1.566321e+00   2.861802e-02
  6.885572e-01    1.578236e+00   2.867517e-02
  6.907676e-01    1.606945e+00   2.888297e-02
  6.929781e-01    1.587750e+00   2.865892e-02
  6.951885e-01    1.591368e+00   2.864075e-02
  6.973990e-01    1.567119e+00   2.837144e-02
  6.996094e-01    1.622409e+00   2.881679e-02
  7.018199e-01    1.616970e+00   2.871798e-02
  7.040303e-01    1.576666e+00   2.830800e-02
  7.062408e-01    1.571766e+00   2.821445e-02
  7.084513e-01    1.583998e+00   2.827477e-02
  7.106617e-01    1.606480e+00   2.842523e-02
  7.128722e-01    1.574137e+00   2.808897e-02
  7.150826e-01    1.559865e+00   2.791314e-02
  7.172931e-01    1.579291e+00   2.803798e-02
  7.195035e-01    1.565692e+00   2.786903e-02
  7.217140e-01    1.522055e+00   2.752654e-02
  7.239245e-01    1.515020e+00   2.768524e-02
  7.261349e-01    1.566459e+00   2.825964e-02
  7.283454e-01    1.560961e+00   2.828210e-02
  7.305558e-01    1.550029e+00   2.823646e-02
  7.327663e-01    1.597867e+00   2.871168e-02
  7.349767e-01    1.566006e+00   2.844032e-02
  7.371872e-01    1.551440e+00   2.829665e-02
  7.393976e-01    1.551486e+00   2.828290e-02
  7.416081e-01    1.549926e+00   2.825264e-02
  7.438186e-01    1.599375e+00   2.855433e-02
  7.460290e-01    1.588473e+00   2.816135e-02
  7.482395e-01    1.531309e+00   2.748118e-02
  7.504499e-01    1.520185e+00   2.724728e-02
  7.526604e-01    1.555015e+00   2.744182e-02
  7.548708e-01    1.561794e+00   2.741252e-02
  7.570813e-01    1.605197e+00   2.773934e-02
  7.592918e-01    1.583919e+00   2.751962e-02
  7.615022e-01    1.559449e+00   2.727258e-02
  7.637127e-01    1.539866e+00   2.706837e-02
  7.659231e-01    1.543852e+00   2.707171e-02
  7.681336e-01    1.516099e+00   2.679624e-02
  7.703440e-01    1.577057e+00   2.729840e-02
  7.725545e-01    1.565021e+00   2.716324e-02
  7.747650e-01    1.589019e+00   2.733236e-02
  7.769754e-01    1.591866e+00   2.730381e-02
  7.791859e-01    1.664233e+00   2.786258e-02
  7.813963e-01    1.671866e+00   2.787231e-02
  7.836068e-01    1.646474e+00   2.760682e-02
  7.858172e-01    1.655353e+00   2.762940e-02
  7.880277e-01    1.612513e+00   2.721769e-02
  7.902381e-01    1.640702e+00   2.740463e-02
  7.924486e-01    1.673620e+00   2.762695e-02
  7.946591e-01    1.640729e+00   2.730523e-02
  7.968695e-01    1.589614e+00   2.682845e-02
  7.990800e-01    1.610924e+00   2.695939e-02
  8.012904e-01    1.600353e+00   2.682432e-02
  8.035009e-01    1.599158e+00   2.676659e-02
  8.057113e-01    1.602036e+00   2.674433e-02
  8.079218e-01    1.603211e+00   2.670797e-02
  8.101323e-01    1.593840e+00   2.658460e-02
  8.123427e-01    1.594042e+00   2.654093e-02
  8.145532e-01    1.649898e+00   2.695573e-02
  8.167636e-01    1.732852e+00   2.757861e-02
  8.189741e-01    1.790280e+00   2.798516e-02
  8.211845e-01    1.716091e+00   2.735326e-02
  8.233950e-01    1.633031e+00   2.663970e-02
  8.256054e-01    1.659001e+00   2.680618e-02
  8.278159e-01    1.649258e+00   2.668324e-02
  8.300264e-01    1.637305e+00   2.654329e-02
  8.322368e-01    1.638828e+00   2.651251e-02
  8.344473e-01    1.630947e+00   2.640541e-02
  8.366577e-01    1.653379e+00   2.654361e-02
  8.388682e-01    1.633739e+00   2.634333e-02
  8.410786e-01    1.603155e+00   2.605397e-02
  8.432891e-01    1.636264e+00   2.627983e-02
  8.454996e-01    1.631919e+00   2.620338e-02
  8.477100e-01    1.631011e+00   2.615451e-02
  8.499205e-01    1.605545e+00   2.590878e-02
  8.521309e-01    1.625134e+00   2.602570e-02
  8.543414e-01    1.612768e+00   2.588606e-02
  8.565518e-01    1.645371e+00   2.610568e-02
  8.587623e-01    1.666629e+00   2.623287e-02
  8.609727e-01    1.623825e+00   2.585369e-02
  8.631832e-01    1.605527e+00   2.566794e-02
  8.653937e-01    1.603718e+00   2.561408e-02
  8.676041e-01    1.572015e+00   2.532137e-02
  8.698146e-01    1.553227e+00   2.513112e-02
  8.720250e-01    1.551273e+00   2.507704e-02
  8.742355e-01    1.579211e+00   2.526331e-02
  8.764459e-01    1.610787e+00   2.547571e-02
  8.786564e-01    1.600049e+00   2.535282e-02
  8.808669e-01    1.562345e+00   2.501434e-02
  8.830773e-01    1.580563e+00   2.512186e-02
  8.852878e-01    1.652660e+00   2.564994e-02
  8.874982e-01    1.571709e+00   2.497757e-02
  8.897087e-01    1.560100e+00   2.484795e-02
  8.919191e-01    1.531032e+00   2.457844e-02
  8.941296e-01    1.518354e+00   2.444016e-02
  8.963401e-01    1.540379e+00   2.458102e-02
  8.985505e-01    1.583722e+00   2.488770e-02
  9.007610e-01    1.536169e+00   2.447521e-02
  9.029714e-01    1.558709e+00   2.461873e-02
  9.051819e-01    1.587595e+00   2.480872e-02
  9.073923e-01    1.582260e+00   2.473064e-02
  9.096028e-01    1.582391e+00   2.469693e-02
  9.118132e-01    1.605320e+00   2.483894e-02
  9.140237e-01    1.580817e+00   2.461226e-02
  9.162342e-01    1.565260e+00   2.445665e-02
  9.184446e-01    1.587960e+00   2.459773e-02
  9.206551e-01    1.583975e+00   2.453145e-02
  9.228655e-01    1.572007e+00   2.440366e-02
  9.250760e-01    1.605437e+00   2.462637e-02
  9.272864e-01    1.613377e+00   2.465283e-02
  9.294969e-01    1.592881e+00   2.446003e-02
  9.317074e-01    1.634829e+00   2.474499e-02
  9.339178e-01    1.625769e+00   2.464265e-02
  9.361283e-01    1.607731e+00   2.446942e-02
  9.383387e-01    1.619383e+00   2.452454e-02
  9.405492e-01    1.636813e+00   2.462172e-02
  9.427596e-01    1.668630e+00   2.482409e-02
  9.449701e-01    1.673816e+00   2.482887e-02
  9.471805e-01    1.644668e+00   2.457686e-02
  9.493910e-01    1.620216e+00   2.436000e-02
  9.516015e-01    1.658470e+00   2.461148e-02
  9.538119e-01    1.682566e+00   2.475567e-02
  9.560224e-01    1.690844e+00   2.478155e-02
  9.582328e-01    1.713376e+00   2.491265e-02
  9.604433e-01    1.750022e+00   2.514203e-02
  9.626537e-01    1.736965e+00   2.501437e-02
  9.648642e-01    1.755319e+00   2.511174e-02
  9.670747e-01    1.777218e+00   2.523305e-02
  9.692851e-01    1.772191e+00   2.516386e-02
  9.714956e-01    1.792595e+00   2.527261e-02
  9.737060e-01    1.792968e+00   2.524205e-02
  9.759165e-01    1.805388e+00   2.529360e-02
  9.781269e-01    1.965142e+00   2.635440e-02
  9.803374e-01    2.071045e+00   2.701784e-02
  9.825478e-01    1.940249e+00   2.611633e-02
  9.847583e-01    1.828627e+00   2.531950e-02
  9.869688e-01    1.814864e+00   2.519028e-02
  9.891792e-01    1.791169e+00   2.499201e-02
  9.913897e-01    1.856112e+00   2.540671e-02
  9.936001e-01    1.893476e+00   2.562758e-02
  9.958106e-01    1.822045e+00   2.510540e-02
  9.980210e-01    1.734488e+00   2.446296e-02
  1.000231e+00    1.695082e+00   2.431594e-02
  1.002442e+00    1.669517e+00   2.426012e-02
  1.004652e+00    1.630129e+00   2.403907e-02
  1.006863e+00    1.652694e+00   2.425511e-02
  1.009073e+00    1.658451e+00   2.433453e-02
  1.011284e+00    1.591326e+00   2.386885e-02
  1.013494e+00    1.599863e+00   2.395651e-02
  1.015705e+00    1.537666e+00   2.350844e-02
  1.017915e+00    1.515585e+00   2.335509e-02
  1.020126e+00    1.560872e+00   2.371748e-02
  1.022336e+00    1.526401e+00   2.346571e-02
  1.024547e+00    1.492687e+00   2.321609e-02
  1.026757e+00    1.492106e+00   2.321980e-02
  1.028967e+00    1.482817e+00   2.315494e-02
  1.031178e+00    1.478418e+00   2.312660e-02
  1.033388e+00    1.490997e+00   2.322978e-02
  1.035599e+00    1.471267e+00   2.307894e-02
  1.037809e+00    1.479849e+00   2.314934e-02
  1.040020e+00    1.482069e+00   2.316798e-02
  1.042230e+00    1.475121e+00   2.311550e-02
  1.044441e+00    1.454250e+00   2.295119e-02
  1.046651e+00    1.451978e+00   2.293340e-02
  1.048862e+00    1.452592e+00   2.293749e-02
  1.051072e+00    1.482897e+00   2.317317e-02
  1.053282e+00    1.497409e+00   2.328532e-02
  1.055493e+00    1.547613e+00   2.366809e-02
  1.057703e+00    1.541715e+00   2.362141e-02
  1.059914e+00    1.453810e+00   2.293392e-02
  1.062124e+00    1.440814e+00   2.282716e-02
  1.064335e+00    1.443682e+00   2.284649e-02
  1.066545e+00    1.472418e+00   2.306676e-02
  1.068756e+00    1.468118e+00   2.302935e-02
  1.070966e+00    1.428414e+00   2.270938e-02
  1.073177e+00    1.427264e+00   2.269427e-02
  1.075387e+00    1.429392e+00   2.270602e-02
  1.077597e+00    1.415650e+00   2.258950e-02
  1.079808e+00    1.417390e+00   2.247276e-02
  1.082018e+00    1.424523e+00   2.234266e-02
  1.084229e+00    1.438665e+00   2.234409e-02
  1.086439e+00    1.403307e+00   2.198193e-02
  1.088650e+00    1.404724e+00   2.191866e-02
  1.090860e+00    1.390638e+00   2.174236e-02
  1.093071e+00    1.408240e+00   2.181826e-02
  1.095281e+00    1.407059e+00   2.175262e-02
  1.097492e+00    1.434936e+00   2.191234e-02
  1.099702e+00    1.397797e+00   2.157630e-02
  1.101912e+00    1.385654e+00   2.143445e-02
  1.104123e+00    1.387984e+00   2.140504e-02
  1.106333e+00    1.398115e+00   2.143914e-02
  1.108544e+00    1.426483e+00   2.161134e-02
  1.110754e+00    1.425387e+00   2.156004e-02
  1.112965e+00    1.419620e+00   2.147588e-02
  1.115175e+00    1.386654e+00   2.118439e-02
  1.117386e+00    1.371382e+00   2.102873e-02
  1.119596e+00    1.394624e+00   2.116854e-02
  1.121807e+00    1.428905e+00   2.138806e-02
  1.124017e+00    1.415513e+00   2.125084e-02
  1.126228e+00    1.375557e+00   2.091340e-02
  1.128438e+00    1.347522e+00   2.066312e-02
  1.130648e+00    1.351506e+00   2.065991e-02
  1.132859e+00    1.363155e+00   2.071480e-02
  1.135069e+00    1.369357e+00   2.072745e-02
  1.137280e+00    1.378362e+00   2.076261e-02
  1.139490e+00    1.405354e+00   2.093165e-02
  1.141701e+00    1.378561e+00   2.069812e-02
  1.143911e+00    1.378147e+00   2.066320e-02
  1.146122e+00    1.372645e+00   2.059001e-02
  1.148332e+00    1.360124e+00   2.046421e-02
  1.150543e+00    1.357347e+00   2.041272e-02
  1.152753e+00    1.349102e+00   2.032007e-02
  1.154963e+00    1.361719e+00   2.038397e-02
  1.157174e+00    1.361032e+00   2.034881e-02
  1.159384e+00    1.350092e+00   2.023724e-02
  1.161595e+00    1.348204e+00   2.019349e-02
  1.163805e+00    1.350964e+00   2.018507e-02
  1.166016e+00    1.353538e+00   2.017501e-02
  1.168226e+00    1.373644e+00   2.029528e-02
  1.170437e+00    1.363817e+00   2.019396e-02
  1.172647e+00    1.324477e+00   1.987212e-02
  1.174858e+00    1.357378e+00   2.008937e-02
  1.177068e+00    1.373374e+00   2.017906e-02
  1.179278e+00    1.355350e+00   2.001769e-02
  1.181489e+00    1.337223e+00   1.985660e-02
  1.183699e+00    1.339384e+00   1.984525e-02
  1.185910e+00    1.339005e+00   1.981486e-02
  1.188120e+00    1.339326e+00   1.979074e-02
  1.190331e+00    1.336267e+00   1.974152e-02
  1.192541e+00    1.351704e+00   1.982790e-02
  1.194752e+00    1.336312e+00   1.968780e-02
  1.196962e+00    1.319951e+00   1.954147e-02
  1.199173e+00    1.325343e+00   1.955508e-02
  1.201383e+00    1.352475e+00   1.972703e-02
  1.203593e+00    1.334866e+00   1.957354e-02
  1.205804e+00    1.344282e+00   1.961656e-02
  1.208014e+00    1.350459e+00   1.963474e-02
  1.210225e+00    1.357440e+00   1.966001e-02
  1.212435e+00    1.320367e+00   1.936520e-02
  1.214646e+00    1.332350e+00   1.942692e-02
  1.216856e+00    1.358265e+00   1.958937e-02
  1.219067e+00    1.367824e+00   1.963359e-02
  1.221277e+00    1.314878e+00   1.922513e-02
  1.223488e+00    1.348743e+00   1.944540e-02
  1.225698e+00    1.354954e+00   1.946317e-02
  1.227909e+00    1.337846e+00   1.930988e-02
  1.230119e+00    1.333630e+00   1.924776e-02
  1.232329e+00    1.345659e+00   1.930369e-02
  1.234540e+00    1.385753e+00   1.955848e-02
  1.236750e+00    1.384104e+00   1.951621e-02
  1.238961e+00    1.350931e+00   1.925393e-02
  1.241171e+00    1.357017e+00   1.927301e-02
  1.243382e+00    1.342123e+00   1.914350e-02
  1.245592e+00    1.337042e+00   1.908326e-02
  1.247803e+00    1.325653e+00   1.897835e-02
  1.250013e+00    1.378378e+00   1.932829e-02
  1.252224e+00    1.391661e+00   1.939760e-02
  1.254434e+00    1.392797e+00   1.938140e-02
  1.256644e+00    1.373383e+00   1.922246e-02
  1.258855e+00    1.376927e+00   1.922372e-02
  1.261065e+00    1.401393e+00   1.936995e-02
  1.263276e+00    1.482617e+00   1.989932e-02
  1.265486e+00    1.500967e+00   1.999799e-02
  1.267697e+00    1.444723e+00   1.959592e-02
  1.269907e+00    1.397139e+00   1.924742e-02
  1.272118e+00    1.438862e+00   1.950939e-02
  1.274328e+00    1.433704e+00   1.945096e-02
  1.276539e+00    1.452737e+00   1.955601e-02
  1.278749e+00    1.428427e+00   1.936877e-02
  1.280959e+00    1.419705e+00   1.928644e-02
  1.283170e+00    1.380992e+00   1.899900e-02
  1.285380e+00    1.363741e+00   1.885737e-02
  1.287591e+00    1.386863e+00   1.899423e-02
  1.289801e+00    1.387000e+00   1.897366e-02
  1.292012e+00    1.405255e+00   1.908067e-02
  1.294222e+00    1.365073e+00   1.878959e-02
  1.296433e+00    1.346447e+00   1.864535e-02
  1.298643e+00    1.379056e+00   1.885315e-02
  1.300854e+00    1.381674e+00   1.885441e-02
  1.303064e+00    1.388193e+00   1.887937e-02
  1.305274e+00    1.385918e+00   1.884216e-02
  1.307485e+00    1.389355e+00   1.884365e-02
  1.309695e+00    1.378118e+00   1.874485e-02
  1.311906e+00    1.328410e+00   1.838214e-02
  1.314116e+00    1.349032e+00   1.850346e-02
  1.316327e+00    1.383217e+00   1.871450e-02
  1.318537e+00    1.352661e+00   1.848473e-02
  1.320748e+00    1.368334e+00   1.856981e-02
  1.322958e+00    1.383123e+00   1.864912e-02
  1.325169e+00    1.396541e+00   1.871798e-02
  1.327379e+00    1.388033e+00   1.863877e-02
  1.329589e+00    1.400077e+00   1.869800e-02
  1.331800e+00    1.424976e+00   1.884226e-02
  1.334010e+00    1.416680e+00   1.876620e-02
  1.336221e+00    1.364330e+00   1.839433e-02
  1.338431e+00    1.348964e+00   1.826959e-02
  1.340642e+00    1.367165e+00   1.845699e-02
  1.342852e+00    1.378211e+00   1.863311e-02
  1.345063e+00    1.376174e+00   1.866933e-02
  1.347273e+00    1.333719e+00   1.841412e-02
  1.349484e+00    1.352867e+00   1.857353e-02
  1.351694e+00    1.370425e+00   1.871655e-02
  1.353905e+00    1.367213e+00   1.871272e-02
  1.356115e+00    1.375612e+00   1.878528e-02
  1.358325e+00    1.397507e+00   1.894775e-02
  1.360536e+00    1.428138e+00   1.916622e-02
  1.362746e+00    1.423921e+00   1.914774e-02
  1.364957e+00    1.427008e+00   1.917637e-02
  1.367167e+00    1.404875e+00   1.903439e-02
  1.369378e+00    1.370970e+00   1.880937e-02
  1.371588e+00    1.351116e+00   1.867783e-02
  1.373799e+00    1.326671e+00   1.851172e-02
  1.376009e+00    1.340385e+00   1.861056e-02
  1.378220e+00    1.353239e+00   1.870212e-02
  1.380430e+00    1.347956e+00   1.866832e-02
  1.382640e+00    1.372309e+00   1.883710e-02
  1.384851e+00    1.393476e+00   1.898275e-02
  1.387061e+00    1.350756e+00   1.868980e-02
  1.389272e+00    1.331576e+00   1.855684e-02
  1.391482e+00    1.322000e+00   1.848932e-02
  1.393693e+00    1.296832e+00   1.831160e-02
  1.395903e+00    1.272510e+00   1.813757e-02
  1.398114e+00    1.296971e+00   1.830967e-02
  1.400324e+00    1.304565e+00   1.836107e-02
  1.402535e+00    1.276945e+00   1.816333e-02
  1.404745e+00    1.271965e+00   1.812553e-02
  1.406955e+00    1.270878e+00   1.811506e-02
  1.409166e+00    1.323003e+00   1.847946e-02
  1.411376e+00    1.320382e+00   1.845799e-02
  1.413587e+00    1.294410e+00   1.827168e-02
  1.415797e+00    1.314000e+00   1.840584e-02
  1.418008e+00    1.287483e+00   1.817703e-02
  1.420218e+00    1.274934e+00   1.793820e-02
  1.422429e+00    1.265349e+00   1.778546e-02
  1.424639e+00    1.308296e+00   1.801913e-02
  1.426850e+00    1.285564e+00   1.780687e-02
  1.429060e+00    1.286005e+00   1.776064e-02
  1.431270e+00    1.260953e+00   1.754264e-02
  1.433481e+00    1.282422e+00   1.765018e-02
  1.435691e+00    1.284551e+00   1.762619e-02
  1.437902e+00    1.289483e+00   1.762324e-02
  1.440112e+00    1.295600e+00   1.762931e-02
  1.442323e+00    1.274848e+00   1.745445e-02
  1.444533e+00    1.266535e+00   1.736492e-02
  1.446744e+00    1.306444e+00   1.760481e-02
  1.448954e+00    1.279956e+00   1.739515e-02
  1.451165e+00    1.282159e+00   1.738019e-02
  1.453375e+00    1.292219e+00   1.741995e-02
  1.455586e+00    1.299581e+00   1.744102e-02
  1.457796e+00    1.254762e+00   1.711030e-02
  1.460006e+00    1.274511e+00   1.721709e-02
  1.462217e+00    1.263406e+00   1.711580e-02
  1.464427e+00    1.240610e+00   1.693535e-02
  1.466638e+00    1.259719e+00   1.704006e-02
  1.468848e+00    1.268784e+00   1.707592e-02
  1.471059e+00    1.243119e+00   1.687752e-02
  1.473269e+00    1.280513e+00   1.710496e-02
  1.475480e+00    1.268675e+00   1.700199e-02
  1.477690e+00    1.259786e+00   1.691854e-02
  1.479901e+00    1.249966e+00   1.682881e-02
  1.482111e+00    1.250622e+00   1.681005e-02
  1.484321e+00    1.256150e+00   1.682415e-02
  1.486532e+00    1.259232e+00   1.682251e-02
  1.488742e+00    1.255667e+00   1.677611e-02
  1.490953e+00    1.261601e+00   1.679313e-02
  1.493163e+00    1.252632e+00   1.671114e-02
  1.495374e+00    1.259130e+00   1.673296e-02
  1.497584e+00    1.255373e+00   1.668640e-02
  1.499795e+00    1.253186e+00   1.665026e-02
  1.502005e+00    1.256450e+00   1.665027e-02
  1.504216e+00    1.253540e+00   1.661001e-02
  1.506426e+00    1.253679e+00   1.659013e-02
  1.508636e+00    1.239976e+00   1.647893e-02
  1.510847e+00    1.240627e+00   1.646157e-02
  1.513057e+00    1.243279e+00   1.645418e-02
  1.515268e+00    1.259018e+00   1.653225e-02
  1.517478e+00    1.255654e+00   1.648498e-02
  1.519689e+00    1.274996e+00   1.658629e-02
  1.521899e+00    1.264504e+00   1.649470e-02
  1.524110e+00    1.289280e+00   1.663488e-02
  1.526320e+00    1.281175e+00   1.656272e-02
  1.528531e+00    1.252853e+00   1.635884e-02
  1.530741e+00    1.238994e+00   1.624904e-02
  1.532951e+00    1.234059e+00   1.619718e-02
  1.535162e+00    1.233720e+00   1.628100e-02
  1.537372e+00    1.245441e+00   1.642497e-02
  1.539583e+00    1.230249e+00   1.635847e-02
  1.541793e+00    1.238651e+00   1.642116e-02
  1.544004e+00    1.234064e+00   1.639098e-02
  1.546214e+00    1.259896e+00   1.656013e-02
  1.548425e+00    1.242577e+00   1.644619e-02
  1.550635e+00    1.232451e+00   1.638865e-02
  1.552846e+00    1.247558e+00   1.649847e-02
  1.555056e+00    1.231161e+00   1.634844e-02
  1.557266e+00    1.207356e+00   1.608080e-02
  1.559477e+00    1.234930e+00   1.620451e-02
  1.561687e+00    1.239748e+00   1.620549e-02
  1.563898e+00    1.202955e+00   1.594633e-02
  1.566108e+00    1.225204e+00   1.607728e-02
  1.568319e+00    1.222076e+00   1.604128e-02
  1.570529e+00    1.231853e+00   1.608030e-02
  1.572740e+00    1.239180e+00   1.610050e-02
  1.574950e+00    1.249423e+00   1.614053e-02
  1.577161e+00    1.248763e+00   1.611076e-02
  1.579371e+00    1.230251e+00   1.596737e-02
  1.581582e+00    1.251986e+00   1.608798e-02
  1.583792e+00    1.221542e+00   1.587331e-02
  1.586002e+00    1.240784e+00   1.598024e-02
  1.588213e+00    1.252842e+00   1.604040e-02
  1.590423e+00    1.254251e+00   1.602928e-02
  1.592634e+00    1.230339e+00   1.585424e-02
  1.594844e+00    1.247080e+00   1.594028e-02
  1.597055e+00    1.281464e+00   1.613774e-02
  1.599265e+00    1.411203e+00   1.691283e-02
  1.601476e+00    1.401099e+00   1.683068e-02
  1.603686e+00    1.280248e+00   1.606837e-02
  1.605897e+00    1.263576e+00   1.594301e-02
  1.608107e+00    1.267491e+00   1.594790e-02
  1.610317e+00    1.285852e+00   1.604330e-02
  1.612528e+00    1.349323e+00   1.641444e-02
  1.614738e+00    1.376345e+00   1.655798e-02
  1.616949e+00    1.313798e+00   1.615774e-02
  1.619159e+00    1.285354e+00   1.596265e-02
  1.621370e+00    1.276966e+00   1.589161e-02
  1.623580e+00    1.239877e+00   1.564059e-02
  1.625791e+00    1.239285e+00   1.561837e-02
  1.628001e+00    1.246468e+00   1.564497e-02
  1.630212e+00    1.207680e+00   1.538178e-02
  1.632422e+00    1.181794e+00   1.519816e-02
  1.634632e+00    1.167267e+00   1.508726e-02
  1.636843e+00    1.168746e+00   1.507933e-02
  1.639053e+00    1.160113e+00   1.500636e-02
  1.641264e+00    1.151484e+00   1.493348e-02
  1.643474e+00    1.161230e+00   1.497915e-02
  1.645685e+00    1.149569e+00   1.488718e-02
  1.647895e+00    1.125042e+00   1.471111e-02
  1.650106e+00    1.128477e+00   1.471672e-02
  1.652316e+00    1.120197e+00   1.464636e-02
  1.654527e+00    1.111950e+00   1.457588e-02
  1.656737e+00    1.108947e+00   1.453985e-02
  1.658947e+00    1.117350e+00   1.457862e-02
  1.661158e+00    1.126727e+00   1.462342e-02
  1.663368e+00    1.146673e+00   1.473609e-02
  1.665579e+00    1.175069e+00   1.490090e-02
  1.667789e+00    1.137348e+00   1.464339e-02
  1.670000e+00    1.157087e+00   1.475414e-02
  1.672210e+00    1.105564e+00   1.440605e-02
  1.674421e+00    1.089800e+00   1.428775e-02
  1.676631e+00    1.099898e+00   1.433792e-02
  1.678842e+00    1.087404e+00   1.424060e-02
  1.681052e+00    1.064443e+00   1.407422e-02
  1.683263e+00    1.087869e+00   1.421315e-02
  1.685473e+00    1.101719e+00   1.428807e-02
  1.687683e+00    1.058614e+00   1.399055e-02
  1.689894e+00    1.053791e+00   1.394302e-02
  1.692104e+00    1.068260e+00   1.402359e-02
  1.694315e+00    1.062575e+00   1.397178e-02
  1.696525e+00    1.063354e+00   1.396179e-02
  1.698736e+00    1.043262e+00   1.381460e-02
  1.700946e+00    1.051284e+00   1.385252e-02
  1.703157e+00    1.058501e+00   1.388534e-02
  1.705367e+00    1.034570e+00   1.371313e-02
  1.707578e+00    1.027349e+00   1.365075e-02
  1.709788e+00    1.018328e+00   1.357675e-02
  1.711998e+00    1.012371e+00   1.352221e-02
  1.714209e+00    1.006460e+00   1.346845e-02
  1.716419e+00    1.041841e+00   1.368881e-02
  1.718630e+00    1.086243e+00   1.396282e-02
  1.720840e+00    1.122442e+00   1.417878e-02
  1.723051e+00    1.050756e+00   1.370453e-02
  1.725261e+00    1.031216e+00   1.356170e-02
  1.727472e+00    1.032019e+00   1.355274e-02
  1.729682e+00    1.001655e+00   1.333849e-02
  1.731893e+00    1.009689e+00   1.337799e-02
  1.734103e+00    1.005408e+00   1.333583e-02
  1.736313e+00    9.865661e-01   1.319642e-02
  1.738524e+00    9.628124e-01   1.302302e-02
  1.740734e+00    9.520608e-01   1.293671e-02
  1.742945e+00    9.694233e-01   1.304088e-02
  1.745155e+00    1.005536e+00   1.326801e-02
  1.747366e+00    1.001202e+00   1.322551e-02
  1.749576e+00    9.913477e-01   1.314655e-02
  1.751787e+00    9.662830e-01   1.296607e-02
  1.753997e+00    9.386349e-01   1.276613e-02
  1.756208e+00    9.217933e-01   1.263823e-02
  1.758418e+00    9.223090e-01   1.262899e-02
  1.760628e+00    9.274993e-01   1.265141e-02
  1.762839e+00    9.490174e-01   1.278421e-02
  1.765049e+00    9.652296e-01   1.287982e-02
  1.767260e+00    9.492366e-01   1.275994e-02
  1.769470e+00    9.492272e-01   1.274691e-02
  1.771681e+00    9.477212e-01   1.272371e-02
  1.773891e+00    9.248000e-01   1.255603e-02
  1.776102e+00    8.942139e-01   1.233414e-02
  1.778312e+00    8.716165e-01   1.216505e-02
  1.780523e+00    8.856502e-01   1.225024e-02
  1.782733e+00    8.963565e-01   1.231168e-02
  1.784944e+00    9.128844e-01   1.241194e-02
  1.787154e+00    9.144846e-01   1.241040e-02
  1.789364e+00    9.168086e-01   1.241377e-02
  1.791575e+00    9.196752e-01   1.242068e-02
  1.793785e+00    9.004240e-01   1.227775e-02
  1.795996e+00    8.744542e-01   1.208719e-02
  1.798206e+00    8.791754e-01   1.210753e-02
  1.800417e+00    9.000452e-01   1.223782e-02
  1.802627e+00    8.956178e-01   1.219587e-02
  1.804838e+00    9.272424e-01   1.239711e-02
  1.807048e+00    9.128729e-01   1.228782e-02
  1.809259e+00    9.204820e-01   1.232522e-02
  1.811469e+00    9.011140e-01   1.217995e-02
  1.813679e+00    8.946410e-01   1.212119e-02
  1.815890e+00    8.837478e-01   1.203254e-02
  1.818100e+00    8.803135e-01   1.199417e-02
  1.820311e+00    8.789821e-01   1.197045e-02
  1.822521e+00    8.654774e-01   1.186350e-02
  1.824732e+00    8.717239e-01   1.189157e-02
  1.826942e+00    8.766574e-01   1.191291e-02
  1.829153e+00    8.920912e-01   1.200558e-02
  1.831363e+00    9.019731e-01   1.205973e-02
  1.833574e+00    8.899316e-01   1.196725e-02
  1.835784e+00    8.720462e-01   1.183499e-02
  1.837994e+00    8.821176e-01   1.189140e-02
  1.840205e+00    8.735644e-01   1.182243e-02
  1.842415e+00    8.733288e-01   1.180906e-02
  1.844626e+00    8.712234e-01   1.178328e-02
  1.846836e+00    8.640797e-01   1.172343e-02
  1.849047e+00    8.681232e-01   1.173924e-02
  1.851257e+00    8.449232e-01   1.157184e-02
  1.853468e+00    8.564388e-01   1.164166e-02
  1.855678e+00    8.368185e-01   1.149877e-02
  1.857889e+00    8.474019e-01   1.156280e-02
  1.860099e+00    8.647797e-01   1.167210e-02
  1.862309e+00    8.486810e-01   1.155448e-02
  1.864520e+00    8.547809e-01   1.158736e-02
  1.866730e+00    8.422553e-01   1.149284e-02
  1.868941e+00    8.415240e-01   1.147696e-02
  1.871151e+00    8.490219e-01   1.151662e-02
  1.873362e+00    8.455650e-01   1.148182e-02
  1.875572e+00    8.409224e-01   1.143939e-02
  1.877783e+00    8.375261e-01   1.140490e-02
  1.879993e+00    8.482326e-01   1.146640e-02
  1.882204e+00    8.159919e-01   1.123568e-02
  1.884414e+00    8.097637e-01   1.118184e-02
  1.886624e+00    8.291922e-01   1.130423e-02
  1.888835e+00    8.345357e-01   1.132967e-02
  1.891045e+00    8.207172e-01   1.122472e-02
  1.893256e+00    8.168362e-01   1.118721e-02
  1.895466e+00    8.257563e-01   1.123702e-02
  1.897677e+00    8.200456e-01   1.118729e-02
  1.899887e+00    8.091323e-01   1.110178e-02
  1.902098e+00    8.211920e-01   1.117343e-02
  1.904308e+00    8.177236e-01   1.113931e-02
  1.906519e+00    8.254651e-01   1.118110e-02
  1.908729e+00    8.433824e-01   1.129110e-02
  1.910940e+00    8.264836e-01   1.116631e-02
  1.913150e+00    8.200109e-01   1.111193e-02
  1.915360e+00    8.404533e-01   1.123885e-02
  1.917571e+00    8.382741e-01   1.121331e-02
  1.919781e+00    8.147046e-01   1.104391e-02
  1.921992e+00    7.979897e-01   1.091955e-02
  1.924202e+00    8.008446e-01   1.092841e-02
  1.926413e+00    8.144675e-01   1.101068e-02
  1.928623e+00    7.959860e-01   1.087461e-02
  1.930834e+00    8.143920e-01   1.098918e-02
  1.933044e+00    8.038087e-01   1.090694e-02
  1.935255e+00    7.982487e-01   1.085889e-02
  1.937465e+00    7.921035e-01   1.080672e-02
  1.939675e+00    7.935779e-01   1.080602e-02
  1.941886e+00    7.951248e-01   1.080633e-02
  1.944096e+00    7.964481e-01   1.080517e-02
  1.946307e+00    7.909695e-01   1.075768e-02
  1.948517e+00    8.074674e-01   1.085879e-02
  1.950728e+00    7.994249e-01   1.079434e-02
  1.952938e+00    7.909166e-01   1.072669e-02
  1.955149e+00    7.900726e-01   1.071078e-02
  1.957359e+00    7.522845e-01   1.044174e-02
  1.959570e+00    7.760990e-01   1.059496e-02
  1.961780e+00    7.792330e-01   1.060652e-02
  1.963990e+00    7.764000e-01   1.057720e-02
  1.966201e+00    7.874725e-01   1.064231e-02
  1.968411e+00    7.846266e-01   1.061295e-02
  1.970622e+00    8.031955e-01   1.072759e-02
  1.972832e+00    8.059491e-01   1.073590e-02
  1.975043e+00    8.021859e-01   1.070065e-02
  1.977253e+00    7.973474e-01   1.065831e-02
  1.979464e+00    8.130533e-01   1.075253e-02
  1.981674e+00    7.828658e-01   1.054079e-02
  1.983885e+00    7.813035e-01   1.052023e-02
  1.986095e+00    7.889101e-01   1.056157e-02
  1.988305e+00    7.797483e-01   1.049017e-02
  1.990516e+00    8.019572e-01   1.062844e-02
  1.992726e+00    7.987421e-01   1.059732e-02
  1.994937e+00    7.770631e-01   1.044240e-02
  1.997147e+00    7.501496e-01   1.025039e-02
  1.999358e+00    7.732549e-01   1.039721e-02
  2.001568e+00    7.771318e-01   1.041240e-02
  2.003779e+00    7.737665e-01   1.037792e-02
  2.005989e+00    7.703174e-01   1.034274e-02
  2.008200e+00    7.671813e-01   1.031018e-02
  2.010410e+00    7.575950e-01   1.023388e-02
  2.012621e+00    7.777359e-01   1.035725e-02
  2.014831e+00    7.693363e-01   1.028970e-02
  2.017041e+00    7.808672e-01   1.035603e-02
  2.019252e+00    7.544112e-01   1.016923e-02
  2.021462e+00    7.453984e-01   1.009888e-02
  2.023673e+00    7.694724e-01   1.025125e-02
  2.025883e+00    7.523568e-01   1.012717e-02
  2.028094e+00    7.514410e-01   1.011141e-02
  2.030304e+00    7.642849e-01   1.018791e-02
  2.032515e+00    7.594469e-01   1.014634e-02
  2.034725e+00    7.454052e-01   1.004275e-02
  2.036936e+00    7.455440e-01   1.003440e-02
  2.039146e+00    7.408077e-01   9.993025e-03
  2.041356e+00    7.519451e-01   1.005823e-02
  2.043567e+00    7.751350e-01   1.020274e-02
  2.045777e+00    7.663514e-01   1.013546e-02
  2.047988e+00    7.449780e-01   9.983810e-03
  2.050198e+00    7.513623e-01   1.001807e-02
  2.052409e+00    7.641832e-01   1.009547e-02
  2.054619e+00    7.524035e-01   1.000999e-02
  2.056830e+00    7.501553e-01   9.987842e-03
  2.059040e+00    7.512391e-01   9.987543e-03
  2.061251e+00    7.412184e-01   9.913513e-03
  2.063461e+00    7.324889e-01   9.847447e-03
  2.065671e+00    7.296832e-01   9.819956e-03
  2.067882e+00    7.255110e-01   9.782984e-03
  2.070092e+00    7.264068e-01   9.779956e-03
  2.072303e+00    7.191462e-01   9.721985e-03
  2.074513e+00    7.309517e-01   9.792223e-03
  2.076724e+00    7.184127e-01   9.698583e-03
  2.078934e+00    7.328431e-01   9.786555e-03
  2.081145e+00    7.352719e-01   9.793727e-03
  2.083355e+00    7.452075e-01   9.850475e-03
  2.085566e+00    7.301963e-01   9.741934e-03
  2.087776e+00    7.259875e-01   9.704380e-03
  2.089986e+00    7.297892e-01   9.721032e-03
  2.092197e+00    7.235882e-01   9.670760e-03
  2.094407e+00    7.367292e-01   9.748956e-03
  2.096618e+00    7.369184e-01   9.741303e-03
  2.098828e+00    7.247319e-01   9.651178e-03
  2.101039e+00    7.153903e-01   9.579898e-03
  2.103249e+00    7.106680e-01   9.539681e-03
  2.105460e+00    7.229740e-01   9.612934e-03
  2.107670e+00    7.270713e-01   9.631435e-03
  2.109881e+00    7.132280e-01   9.530225e-03
  2.112091e+00    7.055847e-01   9.470151e-03
  2.114301e+00    7.184849e-01   9.547590e-03
  2.116512e+00    7.065931e-01   9.459562e-03
  2.118722e+00    6.931868e-01   9.360733e-03
  2.120933e+00    7.139979e-01   9.491391e-03
  2.123143e+00    7.058416e-01   9.428207e-03
  2.125354e+00    6.974056e-01   9.363277e-03
  2.127564e+00    7.035568e-01   9.395842e-03
  2.129775e+00    6.830864e-01   9.249605e-03
  2.131985e+00    6.957214e-01   9.325822e-03
  2.134196e+00    6.872005e-01   9.260106e-03
  2.136406e+00    7.015194e-01   9.347400e-03
  2.138617e+00    7.069496e-01   9.375078e-03
  2.140827e+00    6.911496e-01   9.285590e-03
  2.143037e+00    6.923277e-01   9.338487e-03
  2.145248e+00    6.843662e-01   9.306310e-03
  2.147458e+00    6.787354e-01   9.282801e-03
  2.149669e+00    6.845374e-01   9.334075e-03
  2.151879e+00    7.042740e-01   9.476933e-03
  2.154090e+00    6.815359e-01   9.329904e-03
  2.156300e+00    6.877283e-01   9.378728e-03
  2.158511e+00    6.931909e-01   9.421187e-03
  2.160721e+00    6.793210e-01   9.331224e-03
  2.162932e+00    6.722717e-01   9.286323e-03
  2.165142e+00    6.862760e-01   9.385561e-03
  2.167352e+00    6.860052e-01   9.386599e-03
  2.169563e+00    6.607937e-01   9.214416e-03
  2.171773e+00    6.903185e-01   9.420427e-03
  2.173984e+00    7.031073e-01   9.508736e-03
  2.176194e+00    6.918824e-01   9.433729e-03
  2.178405e+00    6.896705e-01   9.419328e-03
  2.180615e+00    6.857848e-01   9.393435e-03
  2.182826e+00    6.855061e-01   9.392195e-03
  2.185036e+00    6.959780e-01   9.463714e-03
  2.187247e+00    7.408448e-01   9.763930e-03
  2.189457e+00    7.240561e-01   9.652287e-03
  2.191667e+00    6.898286e-01   9.421191e-03
  2.193878e+00    6.714608e-01   9.294359e-03
  2.196088e+00    6.748528e-01   9.317113e-03
  2.198299e+00    6.660986e-01   9.255427e-03
  2.200509e+00    6.720104e-01   9.295344e-03
  2.202720e+00    6.854509e-01   9.386678e-03
  2.204930e+00    7.251423e-01   9.653338e-03
  2.207141e+00    7.328766e-01   9.703560e-03
  2.209351e+00    6.989882e-01   9.474649e-03
  2.211562e+00    6.934214e-01   9.435190e-03
  2.213772e+00    6.944353e-01   9.385892e-03
  2.215982e+00    6.922225e-01   9.326180e-03
  2.218193e+00    6.831331e-01   9.234968e-03
  2.220403e+00    6.637562e-01   9.078660e-03
  2.222614e+00    6.587473e-01   9.023625e-03
  2.224824e+00    6.517536e-01   8.956519e-03
  2.227035e+00    6.850762e-01   9.165024e-03
  2.229245e+00    6.863951e-01   9.156701e-03
  2.231456e+00    6.681777e-01   9.018802e-03
  2.233666e+00    6.536629e-01   8.905397e-03
  2.235877e+00    6.774972e-01   9.051951e-03
  2.238087e+00    6.736358e-01   9.012616e-03
  2.240298e+00    6.593261e-01   8.902712e-03
  2.242508e+00    6.626445e-01   8.910012e-03
  2.244718e+00    6.609258e-01   8.882751e-03
  2.246929e+00    6.593631e-01   8.857911e-03
  2.249139e+00    6.512702e-01   8.791154e-03
  2.251350e+00    6.663834e-01   8.880859e-03
  2.253560e+00    6.580392e-01   8.813612e-03
  2.255771e+00    6.719213e-01   8.894608e-03
  2.257981e+00    6.570165e-01   8.784325e-03
  2.260192e+00    6.548892e-01   8.759033e-03
  2.262402e+00    6.503981e-01   8.718236e-03
  2.264613e+00    6.492993e-01   8.700126e-03
  2.266823e+00    6.706740e-01   8.831712e-03
  2.269033e+00    6.604940e-01   8.754092e-03
  2.271244e+00    6.650708e-01   8.773929e-03
  2.273454e+00    7.002134e-01   8.992196e-03
  2.275665e+00    7.474691e-01   9.279725e-03
  2.277875e+00    7.344517e-01   9.188147e-03
  2.280086e+00    6.896452e-01   8.893204e-03
  2.282296e+00    6.702310e-01   8.757624e-03
  2.284507e+00    6.542934e-01   8.642792e-03
  2.286717e+00    6.376868e-01   8.523079e-03
  2.288928e+00    6.375545e-01   8.512465e-03
  2.291138e+00    6.556726e-01   8.623147e-03
  2.293348e+00    6.546602e-01   8.606988e-03
  2.295559e+00    6.367288e-01   8.479086e-03
  2.297769e+00    6.567074e-01   8.601830e-03
  2.299980e+00    6.617824e-01   8.625608e-03
  2.302190e+00    6.543672e-01   8.568026e-03
  2.304401e+00    6.453781e-01   8.499684e-03
  2.306611e+00    6.568722e-01   8.565822e-03
  2.308822e+00    6.339729e-01   8.406912e-03
  2.311032e+00    6.275038e-01   8.357567e-03
  2.313243e+00    6.318109e-01   8.380025e-03
  2.315453e+00    6.348184e-01   8.392448e-03
  2.317663e+00    6.380352e-01   8.404628e-03
  2.319874e+00    6.302623e-01   8.344664e-03
  2.322084e+00    6.334553e-01   8.356893e-03
  2.324295e+00    6.383282e-01   8.380779e-03
  2.326505e+00    6.554062e-01   8.483036e-03
  2.328716e+00    6.353288e-01   8.343597e-03
  2.330926e+00    6.466521e-01   8.408803e-03
  2.333137e+00    6.252363e-01   8.260136e-03
  2.335347e+00    6.334286e-01   8.305238e-03
  2.337558e+00    6.360536e-01   8.314227e-03
  2.339768e+00    6.421677e-01   8.345526e-03
  2.341979e+00    6.314317e-01   8.267129e-03
  2.344189e+00    6.343030e-01   8.277548e-03
  2.346399e+00    6.228225e-01   8.193892e-03
  2.348610e+00    6.162137e-01   8.141955e-03
  2.350820e+00    6.291497e-01   8.218837e-03
  2.353031e+00    6.329889e-01   8.235603e-03
  2.355241e+00    6.217939e-01   8.154473e-03
  2.357452e+00    6.108115e-01   8.073865e-03
  2.359662e+00    6.273983e-01   8.174548e-03
  2.361873e+00    6.293008e-01   8.178704e-03
  2.364083e+00    6.468269e-01   8.283726e-03
  2.366294e+00    6.234775e-01   8.124748e-03
  2.368504e+00    6.196029e-01   8.091445e-03
  2.370714e+00    6.123145e-01   8.035732e-03
  2.372925e+00    6.081579e-01   8.000471e-03
  2.375135e+00    6.239905e-01   8.095882e-03
  2.377346e+00    6.037281e-01   7.955558e-03
  2.379556e+00    6.029332e-01   7.942520e-03
  2.381767e+00    6.105445e-01   7.984715e-03
  2.383977e+00    6.084036e-01   7.962854e-03
  2.386188e+00    6.088870e-01   7.958157e-03
  2.388398e+00    6.094446e-01   7.953910e-03
  2.390609e+00    6.120815e-01   7.963395e-03
  2.392819e+00    6.178881e-01   7.993308e-03
  2.395029e+00    6.064504e-01   7.911369e-03
  2.397240e+00    6.072889e-01   7.909020e-03
  2.399450e+00    6.022769e-01   7.868572e-03
  2.401661e+00    6.103039e-01   7.913173e-03
  2.403871e+00    6.030303e-01   7.858176e-03
  2.406082e+00    5.921815e-01   7.779829e-03
  2.408292e+00    5.955313e-01   7.794114e-03
  2.410503e+00    6.018011e-01   7.827567e-03
  2.412713e+00    6.024455e-01   7.824010e-03
  2.414924e+00    5.960774e-01   7.775118e-03
  2.417134e+00    6.060708e-01   7.832371e-03
  2.419344e+00    5.998759e-01   7.784858e-03
  2.421555e+00    6.030276e-01   7.797773e-03
  2.423765e+00    6.005341e-01   7.774229e-03
  2.425976e+00    5.918723e-01   7.710192e-03
  2.428186e+00    5.818577e-01   7.637590e-03
  2.430397e+00    5.807432e-01   7.622880e-03
  2.432607e+00    5.824847e-01   7.627098e-03
  2.434818e+00    5.841478e-01   7.630522e-03
  2.437028e+00    5.858572e-01   7.634572e-03
  2.439239e+00    5.829212e-01   7.607837e-03
  2.441449e+00    5.822846e-01   7.596537e-03
  2.443659e+00    5.815879e-01   7.584712e-03
  2.445870e+00    5.690803e-01   7.514740e-03
  2.448080e+00    5.593353e-01   7.484211e-03
  2.450291e+00    5.736960e-01   7.596234e-03
  2.452501e+00    5.485400e-01   7.438721e-03
  2.454712e+00    5.492688e-01   7.451894e-03
  2.456922e+00    5.597225e-01   7.529045e-03
  2.459133e+00    5.687030e-01   7.594625e-03
  2.461343e+00    5.581596e-01   7.528248e-03
  2.463554e+00    5.506696e-01   7.480959e-03
  2.465764e+00    5.571783e-01   7.528179e-03
  2.467975e+00    5.478933e-01   7.467431e-03
  2.470185e+00    5.610871e-01   7.559087e-03
  2.472395e+00    5.440113e-01   7.444385e-03
  2.474606e+00    5.414897e-01   7.428637e-03
  2.476816e+00    5.503793e-01   7.490122e-03
  2.479027e+00    5.398716e-01   7.419112e-03
  2.481237e+00    5.264733e-01   7.326737e-03
  2.483448e+00    5.311504e-01   7.359518e-03
  2.485658e+00    5.294368e-01   7.347478e-03
  2.487869e+00    5.463460e-01   7.463936e-03
  2.490079e+00    5.449068e-01   7.453570e-03
  2.492290e+00    5.459203e-01   7.460081e-03
  2.494500e+00    5.396641e-01   7.416472e-03
  2.496710e+00    5.292062e-01   7.343565e-03
  2.498921e+00    5.403203e-01   7.419276e-03
  2.501131e+00    5.402032e-01   7.417528e-03
  2.503342e+00    5.209651e-01   7.283015e-03
  2.505552e+00    5.097269e-01   7.202896e-03
  2.507763e+00    5.161485e-01   7.246741e-03
  2.509973e+00    5.211610e-01   7.280456e-03
  2.512184e+00    5.187238e-01   7.261817e-03
  2.514394e+00    5.130372e-01   7.212666e-03
  2.516605e+00    5.197598e-01   7.212992e-03
  2.518815e+00    5.193664e-01   7.182133e-03
  2.521025e+00    5.208792e-01   7.171710e-03
  2.523236e+00    5.158659e-01   7.119300e-03
  2.525446e+00    5.203879e-01   7.134895e-03
  2.527657e+00    5.299825e-01   7.185714e-03
  2.529867e+00    5.180597e-01   7.090349e-03
  2.532078e+00    5.141920e-01   7.048927e-03
  2.534288e+00    5.242190e-01   7.103454e-03
  2.536499e+00    5.133307e-01   7.017502e-03
  2.538709e+00    5.069219e-01   6.962735e-03
  2.540920e+00    5.073407e-01   6.955130e-03
  2.543130e+00    5.176737e-01   7.015312e-03
  2.545340e+00    5.174593e-01   7.003837e-03
  2.547551e+00    5.194113e-01   7.007152e-03
  2.549761e+00    5.136385e-01   6.958584e-03
  2.551972e+00    5.112168e-01   6.932921e-03
  2.554182e+00    4.952577e-01   6.814888e-03
  2.556393e+00    5.066249e-01   6.883683e-03
  2.558603e+00    5.196699e-01   6.962671e-03
  2.560814e+00    5.216339e-01   6.967118e-03
  2.563024e+00    5.197091e-01   6.945655e-03
  2.565235e+00    5.138887e-01   6.897198e-03
  2.567445e+00    5.121101e-01   6.875762e-03
  2.569656e+00    5.100350e-01   6.852147e-03
  2.571866e+00    5.057363e-01   6.813958e-03
  2.574076e+00    5.151877e-01   6.868078e-03
  2.576287e+00    5.213564e-01   6.900709e-03
  2.578497e+00    5.094529e-01   6.813699e-03
  2.580708e+00    5.040039e-01   6.769149e-03
  2.582918e+00    5.007318e-01   6.739487e-03
  2.585129e+00    5.122837e-01   6.809048e-03
  2.587339e+00    4.985631e-01   6.709696e-03
  2.589550e+00    5.064827e-01   6.755251e-03
  2.591760e+00    5.084466e-01   6.760650e-03
  2.593971e+00    4.932840e-01   6.651676e-03
  2.596181e+00    5.034344e-01   6.713592e-03
  2.598391e+00    5.095239e-01   6.748888e-03
  2.600602e+00    5.228691e-01   6.830717e-03
  2.602812e+00    5.045826e-01   6.702708e-03
  2.605023e+00    4.973440e-01   6.647362e-03
  2.607233e+00    4.898426e-01   6.590036e-03
  2.609444e+00    4.982906e-01   6.639449e-03
  2.611654e+00    5.076227e-01   6.694002e-03
  2.613865e+00    5.216004e-01   6.778398e-03
  2.616075e+00    5.105451e-01   6.699020e-03
  2.618286e+00    5.016667e-01   6.633551e-03
  2.620496e+00    5.057617e-01   6.653850e-03
  2.622706e+00    5.046341e-01   6.640704e-03
  2.624917e+00    4.979869e-01   6.591002e-03
  2.627127e+00    5.080830e-01   6.651713e-03
  2.629338e+00    4.984405e-01   6.582357e-03
  2.631548e+00    5.079823e-01   6.638854e-03
  2.633759e+00    5.010918e-01   6.586554e-03
  2.635969e+00    4.967071e-01   6.551004e-03
  2.638180e+00    4.929955e-01   6.519557e-03
  2.640390e+00    4.980166e-01   6.546098e-03
  2.642601e+00    4.930173e-01   6.506539e-03
  2.644811e+00    5.010089e-01   6.551990e-03
  2.647021e+00    5.034055e-01   6.561044e-03
  2.649232e+00    5.437223e-01   6.811677e-03
  2.651442e+00    5.608569e-01   6.911334e-03
  2.653653e+00    5.317876e-01   6.722827e-03
  2.655863e+00    5.051516e-01   6.545571e-03
  2.658074e+00    4.972538e-01   6.487582e-03
  2.660284e+00    4.982821e-01   6.487924e-03
  2.662495e+00    4.802682e-01   6.362946e-03
  2.664705e+00    4.962192e-01   6.461158e-03
  2.666916e+00    4.969300e-01   6.459334e-03
  2.669126e+00    5.067192e-01   6.516115e-03
  2.671337e+00    4.890738e-01   6.395125e-03
  2.673547e+00    4.863371e-01   6.370874e-03
  2.675757e+00    4.891453e-01   6.382836e-03
  2.677968e+00    4.776053e-01   6.300680e-03
  2.680178e+00    4.740109e-01   6.270648e-03
  2.682389e+00    4.949727e-01   6.401383e-03
  2.684599e+00    4.943836e-01   6.391399e-03
  2.686810e+00    4.790195e-01   6.284785e-03
  2.689020e+00    4.855080e-01   6.320931e-03
  2.691231e+00    4.844156e-01   6.307593e-03
  2.693441e+00    4.918064e-01   6.349347e-03
  2.695652e+00    4.876085e-01   6.315736e-03
  2.697862e+00    4.669202e-01   6.174084e-03
  2.700072e+00    4.707628e-01   6.193473e-03
  2.702283e+00    4.822035e-01   6.262107e-03
  2.704493e+00    4.861827e-01   6.281623e-03
  2.706704e+00    4.920328e-01   6.312870e-03
  2.708914e+00    4.972785e-01   6.340423e-03
  2.711125e+00    4.880179e-01   6.274854e-03
  2.713335e+00    4.667210e-01   6.130464e-03
  2.715546e+00    4.773618e-01   6.193541e-03
  2.717756e+00    4.747257e-01   6.170603e-03
  2.719967e+00    4.740405e-01   6.160027e-03
  2.722177e+00    4.730685e-01   6.147645e-03
  2.724387e+00    4.824652e-01   6.202319e-03
  2.726598e+00    4.916317e-01   6.254863e-03
  2.728808e+00    4.858317e-01   6.211713e-03
  2.731019e+00    4.792316e-01   6.163293e-03
  2.733229e+00    4.574977e-01   6.016270e-03
  2.735440e+00    4.591525e-01   6.021022e-03
  2.737650e+00    4.752605e-01   6.119760e-03
  2.739861e+00    4.805672e-01   6.147795e-03
  2.742071e+00    4.681292e-01   6.062043e-03
  2.744282e+00    4.763687e-01   6.108975e-03
  2.746492e+00    4.713402e-01   6.070657e-03
  2.748702e+00    4.865553e-01   6.161929e-03
  2.750913e+00    4.785571e-01   6.105330e-03
  2.753123e+00    4.680673e-01   6.031997e-03
  2.755334e+00    4.765617e-01   6.080425e-03
  2.757544e+00    4.765272e-01   6.074505e-03
  2.759755e+00    4.656822e-01   5.999192e-03
  2.761965e+00    4.668864e-01   6.001036e-03
  2.764176e+00    4.765760e-01   6.057021e-03
  2.766386e+00    4.699485e-01   6.009041e-03
  2.768597e+00    4.644781e-01   5.968183e-03
  2.770807e+00    4.726942e-01   6.014899e-03
  2.773017e+00    4.732775e-01   6.012679e-03
  2.775228e+00    4.714274e-01   5.995169e-03
  2.777438e+00    4.723878e-01   5.995529e-03
  2.779649e+00    4.681383e-01   5.962646e-03
  2.781859e+00    4.738471e-01   5.993151e-03
  2.784070e+00    4.699846e-01   5.962867e-03
  2.786280e+00    4.809613e-01   6.026304e-03
  2.788491e+00    4.743515e-01   5.978936e-03
  2.790701e+00    4.791219e-01   6.003260e-03
  2.792912e+00    4.785073e-01   5.993428e-03
  2.795122e+00    4.696568e-01   5.932049e-03
  2.797333e+00    4.706738e-01   5.932941e-03
  2.799543e+00    4.739219e-01   5.947518e-03
  2.801753e+00    4.739796e-01   5.942040e-03
  2.803964e+00    4.726477e-01   5.928032e-03
  2.806174e+00    4.810921e-01   5.974573e-03
  2.808385e+00    4.696056e-01   5.896062e-03
  2.810595e+00    4.593607e-01   5.824640e-03
  2.812806e+00    4.663703e-01   5.862350e-03
  2.815016e+00    4.746465e-01   5.909396e-03
  2.817227e+00    4.614663e-01   5.852358e-03
  2.819437e+00    4.551123e-01   5.822781e-03
  2.821648e+00    4.652324e-01   5.889430e-03
  2.823858e+00    4.609261e-01   5.867392e-03
  2.826068e+00    4.625269e-01   5.882486e-03
  2.828279e+00    4.659929e-01   5.908484e-03
  2.830489e+00    4.678960e-01   5.923878e-03
  2.832700e+00    4.678665e-01   5.926236e-03
  2.834910e+00    4.654858e-01   5.913179e-03
  2.837121e+00    4.718019e-01   5.954880e-03
  2.839331e+00    4.720470e-01   5.957650e-03
  2.841542e+00    4.756352e-01   5.981289e-03
  2.843752e+00    4.722148e-01   5.960510e-03
  2.845963e+00    4.586341e-01   5.874581e-03
  2.848173e+00    4.717360e-01   5.957980e-03
  2.850383e+00    4.646267e-01   5.913215e-03
  2.852594e+00    4.671393e-01   5.929087e-03
  2.854804e+00    4.550655e-01   5.851491e-03
  2.857015e+00    4.600763e-01   5.883168e-03
  2.859225e+00    4.529593e-01   5.837246e-03
  2.861436e+00    4.569077e-01   5.861985e-03
  2.863646e+00    4.545749e-01   5.847030e-03
  2.865857e+00    4.685595e-01   5.936646e-03
  2.868067e+00    4.562171e-01   5.858136e-03
  2.870278e+00    4.636004e-01   5.905013e-03
  2.872488e+00    4.450167e-01   5.784309e-03
  2.874698e+00    4.559876e-01   5.854122e-03
  2.876909e+00    4.749458e-01   5.973252e-03
  2.879119e+00    4.695704e-01   5.937717e-03
  2.881330e+00    4.541887e-01   5.838196e-03
  2.883540e+00    4.614203e-01   5.883106e-03
  2.885751e+00    4.435021e-01   5.766146e-03
  2.887961e+00    4.497154e-01   5.804518e-03
  2.890172e+00    4.499490e-01   5.804454e-03
  2.892382e+00    4.510520e-01   5.809775e-03
  2.894593e+00    4.557053e-01   5.837852e-03
  2.896803e+00    4.643093e-01   5.890729e-03
  2.899014e+00    4.592476e-01   5.856614e-03
  2.901224e+00    4.537021e-01   5.819190e-03
  2.903434e+00    4.470317e-01   5.774313e-03
  2.905645e+00    4.555629e-01   5.826943e-03
  2.907855e+00    4.663181e-01   5.893214e-03
  2.910066e+00    4.581259e-01   5.839142e-03
  2.912276e+00    4.580375e-01   5.836451e-03
  2.914487e+00    4.692535e-01   5.905001e-03
  2.916697e+00    4.556828e-01   5.816785e-03
  2.918908e+00    4.532963e-01   5.799524e-03
  2.921118e+00    4.668354e-01   5.882770e-03
  2.923329e+00    4.588445e-01   5.829907e-03
  2.925539e+00    4.510900e-01   5.778160e-03
  2.927749e+00    4.474274e-01   5.752373e-03
  2.929960e+00    4.494390e-01   5.762527e-03
  2.932170e+00    4.570719e-01   5.808929e-03
  2.934381e+00    4.513974e-01   5.770333e-03
  2.936591e+00    4.499691e-01   5.758636e-03
  2.938802e+00    4.466078e-01   5.734405e-03
  2.941012e+00    4.544500e-01   5.782189e-03
  2.943223e+00    4.596075e-01   5.812208e-03
  2.945433e+00    4.624711e-01   5.826520e-03
  2.947644e+00    4.631265e-01   5.826492e-03
  2.949854e+00    4.507903e-01   5.744116e-03
  2.952064e+00    4.576268e-01   5.783274e-03
  2.954275e+00    4.574699e-01   5.777854e-03
  2.956485e+00    4.516731e-01   5.736959e-03
  2.958696e+00    4.623863e-01   5.800191e-03
  2.960906e+00    4.505926e-01   5.721586e-03
  2.963117e+00    4.373131e-01   5.632249e-03
  2.965327e+00    4.474133e-01   5.693029e-03
  2.967538e+00    4.580034e-01   5.757089e-03
  2.969748e+00    4.532098e-01   5.724092e-03
  2.971959e+00    4.502454e-01   5.702195e-03
  2.974169e+00    4.522013e-01   5.712005e-03
  2.976379e+00    4.448707e-01   5.662617e-03
  2.978590e+00    4.483272e-01   5.681475e-03
  2.980800e+00    4.417255e-01   5.636715e-03
  2.983011e+00    4.542652e-01   5.713363e-03
  2.985221e+00    4.501529e-01   5.684316e-03
  2.987432e+00    4.490434e-01   5.674202e-03
  2.989642e+00    4.427710e-01   5.631843e-03
  2.991853e+00    4.533327e-01   5.695340e-03
  2.994063e+00    4.489118e-01   5.664611e-03
  2.996274e+00    4.385050e-01   5.595445e-03
  2.998484e+00    4.498881e-01   5.664913e-03
  3.000694e+00    4.338304e-01   5.559515e-03
  3.002905e+00    4.524643e-01   5.674714e-03
  3.005115e+00    4.419754e-01   5.605627e-03
  3.007326e+00    4.465077e-01   5.631153e-03
  3.009536e+00    4.449717e-01   5.618239e-03
  3.011747e+00    4.449628e-01   5.615301e-03
  3.013957e+00    4.466316e-01   5.622657e-03
  3.016168e+00    4.446056e-01   5.606671e-03
  3.018378e+00    4.414761e-01   5.583883e-03
  3.020589e+00    4.486451e-01   5.625847e-03
  3.022799e+00    4.531354e-01   5.650765e-03
  3.025010e+00    4.576577e-01   5.675640e-03
  3.027220e+00    4.506792e-01   5.629099e-03
  3.029430e+00    4.502893e-01   5.623424e-03
  3.031641e+00    4.383688e-01   5.545411e-03
  3.033851e+00    4.424326e-01   5.567553e-03
  3.036062e+00    4.454442e-01   5.583722e-03
  3.038272e+00    4.452515e-01   5.578953e-03
  3.040483e+00    4.544746e-01   5.633213e-03
  3.042693e+00    4.454275e-01   5.573624e-03
  3.044904e+00    4.441034e-01   5.561338e-03
  3.047114e+00    4.411072e-01   5.537784e-03
  3.049325e+00    4.436805e-01   5.549568e-03
  3.051535e+00    4.427927e-01   5.539630e-03
  3.053745e+00    4.540249e-01   5.604718e-03
  3.055956e+00    4.535775e-01   5.597350e-03
  3.058166e+00    4.531358e-01   5.590354e-03
  3.060377e+00    4.561385e-01   5.604046e-03
  3.062587e+00    4.472257e-01   5.544418e-03
  3.064798e+00    4.418486e-01   5.506762e-03
  3.067008e+00    4.383742e-01   5.480401e-03
  3.069219e+00    4.416912e-01   5.496621e-03
  3.071429e+00    4.402567e-01   5.484216e-03
  3.073640e+00    4.484928e-01   5.531942e-03
  3.075850e+00    4.476626e-01   5.523247e-03
  3.078060e+00    4.538920e-01   5.558422e-03
  3.080271e+00    4.504158e-01   5.533608e-03
  3.082481e+00    4.518355e-01   5.538872e-03
  3.084692e+00    4.467588e-01   5.504300e-03
  3.086902e+00    4.504531e-01   5.523748e-03
  3.089113e+00    4.439179e-01   5.479992e-03
  3.091323e+00    4.436055e-01   5.474702e-03
  3.093534e+00    4.343781e-01   5.414135e-03
  3.095744e+00    4.467192e-01   5.487126e-03
  3.097955e+00    4.468250e-01   5.484243e-03
  3.100165e+00    4.482979e-01   5.489934e-03
  3.102375e+00    4.483162e-01   5.486628e-03
  3.104586e+00    4.482546e-01   5.482751e-03
  3.106796e+00    4.418091e-01   5.439687e-03
  3.109007e+00    4.386611e-01   5.417086e-03
  3.111217e+00    4.442389e-01   5.447725e-03
  3.113428e+00    4.352588e-01   5.389012e-03
  3.115638e+00    4.487308e-01   5.468525e-03
  3.117849e+00    4.312461e-01   5.357272e-03
  3.120059e+00    4.307364e-01   5.350694e-03
  3.122270e+00    4.353320e-01   5.375927e-03
  3.124480e+00    4.467917e-01   5.442552e-03
  3.126691e+00    4.361273e-01   5.373659e-03
  3.128901e+00    4.586681e-01   5.507615e-03
  3.131111e+00    4.452427e-01   5.422572e-03
  3.133322e+00    4.362281e-01   5.363991e-03
  3.135532e+00    4.290007e-01   5.316012e-03
  3.137743e+00    4.280084e-01   5.306442e-03
  3.139953e+00    4.366027e-01   5.355805e-03
  3.142164e+00    4.181323e-01   5.252969e-03
  3.144374e+00    4.287542e-01   5.347226e-03
  3.146585e+00    4.268870e-01   5.349889e-03
  3.148795e+00    4.325336e-01   5.395791e-03
  3.151006e+00    4.319348e-01   5.400527e-03
  3.153216e+00    4.214688e-01   5.341661e-03
  3.155426e+00    4.224558e-01   5.354069e-03
  3.157637e+00    4.375328e-01   5.454283e-03
  3.159847e+00    4.512300e-01   5.543940e-03
  3.162058e+00    4.475555e-01   5.525792e-03
  3.164268e+00    4.448515e-01   5.513165e-03
  3.166479e+00    4.322569e-01   5.438174e-03
  3.168689e+00    4.427010e-01   5.506850e-03
  3.170900e+00    4.444124e-01   5.520687e-03
  3.173110e+00    4.351893e-01   5.465959e-03
  3.175321e+00    4.390391e-01   5.492572e-03
  3.177531e+00    4.399360e-01   5.500941e-03
  3.179741e+00    4.248780e-01   5.408011e-03
  3.181952e+00    4.275145e-01   5.426843e-03
  3.184162e+00    4.295976e-01   5.442224e-03
  3.186373e+00    4.345280e-01   5.474961e-03
  3.188583e+00    4.289276e-01   5.441332e-03
  3.190794e+00    4.294273e-01   5.446245e-03
  3.193004e+00    4.310967e-01   5.458046e-03
  3.195215e+00    4.335282e-01   5.474930e-03
  3.197425e+00    4.307407e-01   5.458490e-03
  3.199636e+00    4.366986e-01   5.495350e-03
  3.201846e+00    4.261364e-01   5.427887e-03
  3.204056e+00    4.217339e-01   5.400659e-03
  3.206267e+00    4.180501e-01   5.377837e-03
  3.208477e+00    4.281220e-01   5.443156e-03
  3.210688e+00    4.330966e-01   5.475535e-03
  3.212898e+00    4.217550e-01   5.403949e-03
  3.215109e+00    4.071457e-01   5.310236e-03
  3.217319e+00    4.219353e-01   5.406473e-03
  3.219530e+00    4.148670e-01   5.361363e-03
  3.221740e+00    4.231922e-01   5.415453e-03
  3.223951e+00    4.122770e-01   5.345626e-03
  3.226161e+00    4.329902e-01   5.478431e-03
  3.228372e+00    4.335688e-01   5.482643e-03
  3.230582e+00    4.304850e-01   5.463237e-03
  3.232792e+00    4.299471e-01   5.460076e-03
  3.235003e+00    4.120251e-01   5.345271e-03
  3.237213e+00    4.269119e-01   5.441102e-03
  3.239424e+00    4.330501e-01   5.480057e-03
  3.241634e+00    4.276814e-01   5.446128e-03
  3.243845e+00    4.259211e-01   5.434971e-03
  3.246055e+00    4.215540e-01   5.406777e-03
  3.248266e+00    4.167433e-01   5.376020e-03
  3.250476e+00    4.148056e-01   5.363215e-03
  3.252687e+00    4.162740e-01   5.372616e-03
  3.254897e+00    4.171428e-01   5.378103e-03
  3.257107e+00    4.229363e-01   5.415010e-03
  3.259318e+00    4.139948e-01   5.357234e-03
  3.261528e+00    4.247043e-01   5.425948e-03
  3.263739e+00    4.185275e-01   5.385797e-03
  3.265949e+00    4.153183e-01   5.364969e-03
  3.268160e+00    4.247063e-01   5.424864e-03
  3.270370e+00    4.232744e-01   5.415188e-03
  3.272581e+00    4.385572e-01   5.511816e-03
  3.274791e+00    4.126813e-01   5.346228e-03
  3.277002e+00    4.361750e-01   5.495708e-03
  3.279212e+00    4.209590e-01   5.398641e-03
  3.281422e+00    4.228735e-01   5.410304e-03
  3.283633e+00    4.225878e-01   5.407810e-03
  3.285843e+00    4.184393e-01   5.380868e-03
  3.288054e+00    4.222362e-01   5.404287e-03
  3.290264e+00    4.196958e-01   5.387686e-03
  3.292475e+00    4.173081e-01   5.371524e-03
  3.294685e+00    4.232746e-01   5.409146e-03
  3.296896e+00    4.130646e-01   5.342770e-03
  3.299106e+00    4.096338e-01   5.319978e-03
  3.301317e+00    4.160909e-01   5.360723e-03
  3.303527e+00    4.210078e-01   5.391854e-03
  3.305737e+00    4.118249e-01   5.331685e-03
  3.307948e+00    4.284874e-01   5.437798e-03
  3.310158e+00    4.169005e-01   5.362947e-03
  3.312369e+00    4.177984e-01   5.367834e-03
  3.314579e+00    4.103663e-01   5.318972e-03
  3.316790e+00    4.234636e-01   5.402471e-03
  3.319000e+00    4.191025e-01   5.373419e-03
  3.321211e+00    4.195412e-01   5.375605e-03
  3.323421e+00    4.272799e-01   5.423757e-03
  3.325632e+00    4.261352e-01   5.415593e-03
  3.327842e+00    4.160420e-01   5.350176e-03
  3.330052e+00    4.022278e-01   5.259560e-03
  3.332263e+00    4.121897e-01   5.323257e-03
  3.334473e+00    4.219298e-01   5.384902e-03
  3.336684e+00    4.097241e-01   5.305180e-03
  3.338894e+00    4.126260e-01   5.323114e-03
  3.341105e+00    4.154388e-01   5.340013e-03
  3.343315e+00    4.201339e-01   5.368984e-03
  3.345526e+00    4.092802e-01   5.298271e-03
  3.347736e+00    4.137598e-01   5.325805e-03
  3.349947e+00    4.104910e-01   5.303780e-03
  3.352157e+00    4.316621e-01   5.437657e-03
  3.354368e+00    4.436198e-01   5.511126e-03
  3.356578e+00    4.213580e-01   5.370068e-03
  3.358788e+00    4.160514e-01   5.334795e-03
  3.360999e+00    4.191973e-01   5.353676e-03
  3.363209e+00    4.202894e-01   5.359639e-03
  3.365420e+00    4.087193e-01   5.283858e-03
  3.367630e+00    4.100143e-01   5.291198e-03
  3.369841e+00    4.096977e-01   5.287755e-03
  3.372051e+00    4.127045e-01   5.305134e-03
  3.374262e+00    4.172127e-01   5.331591e-03
  3.376472e+00    4.144679e-01   5.311618e-03
  3.378683e+00    4.049949e-01   5.248065e-03
  3.380893e+00    4.196478e-01   5.339822e-03
  3.383103e+00    4.095594e-01   5.272566e-03
  3.385314e+00    4.000550e-01   5.208847e-03
  3.387524e+00    4.056851e-01   5.242648e-03
  3.389735e+00    4.091819e-01   5.262584e-03
  3.391945e+00    4.166405e-01   5.306651e-03
  3.394156e+00    4.110147e-01   5.266485e-03
  3.396366e+00    4.002044e-01   5.193413e-03
  3.398577e+00    3.915202e-01   5.133779e-03
  3.400787e+00    4.106761e-01   5.269776e-03
  3.402998e+00    3.964731e-01   5.215283e-03
  3.405208e+00    3.912490e-01   5.201125e-03
  3.407418e+00    3.806662e-01   5.145642e-03
  3.409629e+00    3.903719e-01   5.224625e-03
  3.411839e+00    3.853202e-01   5.202272e-03
  3.414050e+00    3.819643e-01   5.190333e-03
  3.416260e+00    3.906475e-01   5.258630e-03
  3.418471e+00    3.849541e-01   5.229461e-03
  3.420681e+00    3.845868e-01   5.235360e-03
  3.422892e+00    3.917175e-01   5.291703e-03
  3.425102e+00    3.789635e-01   5.212537e-03
  3.427313e+00    3.901166e-01   5.295893e-03
  3.429523e+00    3.826005e-01   5.251673e-03
  3.431733e+00    3.747834e-01   5.204284e-03
  3.433944e+00    3.861714e-01   5.289264e-03
  3.436154e+00    3.744385e-01   5.214478e-03
  3.438365e+00    3.790956e-01   5.252717e-03
  3.440575e+00    3.757315e-01   5.235211e-03
  3.442786e+00    3.809227e-01   5.276913e-03
  3.444996e+00    3.737608e-01   5.232556e-03
  3.447207e+00    3.488651e-01   5.060356e-03
  3.449417e+00    3.747607e-01   5.285807e-03
  3.451628e+00    3.758281e-01   5.323038e-03
  3.453838e+00    3.710509e-01   5.310382e-03
  3.456049e+00    3.560270e-01   5.225303e-03
  3.458259e+00    3.579023e-01   5.260704e-03
  3.460469e+00    3.686985e-01   5.359324e-03
  3.462680e+00    3.614200e-01   5.325084e-03
  3.464890e+00    3.646895e-01   5.366876e-03
  3.467101e+00    3.689982e-01   5.415987e-03
  3.469311e+00    3.752303e-01   5.478182e-03
  3.471522e+00    3.916079e-01   5.613227e-03
  3.473732e+00    3.929145e-01   5.638815e-03
  3.475943e+00    3.930299e-01   5.655581e-03
  3.478153e+00    4.044676e-01   5.753032e-03
  3.480364e+00    3.905782e-01   5.668500e-03
  3.482574e+00    4.145614e-01   5.855456e-03
  3.484784e+00    4.064619e-01   5.812801e-03
  3.486995e+00    4.361365e-01   6.036664e-03
  3.489205e+00    4.344538e-01   6.039929e-03
  3.491416e+00    4.331838e-01   6.046087e-03
  3.493626e+00    4.410980e-01   6.115751e-03
  3.495837e+00    4.400049e-01   6.122945e-03
  3.498047e+00    4.507118e-01   6.211554e-03
  3.500258e+00    4.640355e-01   6.317481e-03
  3.502468e+00    4.566595e-01   6.281565e-03
  3.504679e+00    4.554231e-01   6.287389e-03
  3.506889e+00    4.723000e-01   6.417428e-03
  3.509099e+00    4.749037e-01   6.449486e-03
  3.511310e+00    4.683455e-01   6.419139e-03
  3.513520e+00    4.730533e-01   6.465633e-03
  3.515731e+00    4.862441e-01   6.569479e-03
  3.517941e+00    4.922431e-01   6.624333e-03
  3.520152e+00    4.942848e-01   6.652328e-03
  3.522362e+00    5.014921e-01   6.715168e-03
  3.524573e+00    5.145931e-01   6.816690e-03
  3.526783e+00    5.138109e-01   6.824940e-03
  3.528994e+00    5.179678e-01   6.864727e-03
  3.531204e+00    5.276205e-01   6.940915e-03
  3.533414e+00    5.351874e-01   7.002710e-03
  3.535625e+00    5.366634e-01   7.024832e-03
  3.537835e+00    5.303187e-01   6.995272e-03
  3.540046e+00    5.430452e-01   7.087714e-03
  3.542256e+00    5.369555e-01   7.055377e-03
  3.544467e+00    5.584475e-01   7.203005e-03
  3.546677e+00    5.254967e-01   6.994769e-03
  3.548888e+00    5.380514e-01   7.085299e-03
  3.551098e+00    5.393702e-01   7.101347e-03
  3.553309e+00    5.095630e-01   6.910293e-03
  3.555519e+00    5.261965e-01   7.033305e-03
  3.557729e+00    5.321770e-01   7.084886e-03
  3.559940e+00    5.240337e-01   7.041906e-03
  3.562150e+00    5.202004e-01   7.027608e-03
  3.564361e+00    5.420083e-01   7.186786e-03
  3.566571e+00    5.325371e-01   7.137533e-03
  3.568782e+00    5.380629e-01   7.188606e-03
  3.570992e+00    5.225091e-01   7.097517e-03
  3.573203e+00    5.441447e-01   7.257208e-03
  3.575413e+00    5.580305e-01   7.363291e-03
  3.577624e+00    5.436072e-01   7.281754e-03
  3.579834e+00    5.412180e-01   7.279660e-03
  3.582045e+00    5.264761e-01   7.193770e-03
  3.584255e+00    5.327320e-01   7.250349e-03
  3.586465e+00    5.455648e-01   7.351242e-03
  3.588676e+00    5.249866e-01   7.225302e-03
  3.590886e+00    5.256870e-01   7.243699e-03
  3.593097e+00    5.427865e-01   7.375149e-03
  3.595307e+00    5.354522e-01   7.339098e-03
  3.597518e+00    5.203831e-01   7.249096e-03
  3.599728e+00    5.353249e-01   7.366525e-03
  3.601939e+00    5.191884e-01   7.268506e-03
  3.604149e+00    5.393793e-01   7.422923e-03
  3.606360e+00    5.481752e-01   7.497544e-03
  3.608570e+00    5.241006e-01   7.345063e-03
  3.610780e+00    5.213500e-01   7.336679e-03
  3.612991e+00    5.353197e-01   7.444314e-03
  3.615201e+00    5.311009e-01   7.424728e-03
  3.617412e+00    5.345955e-01   7.456369e-03
  3.619622e+00    5.117869e-01   7.301402e-03
  3.621833e+00    5.141466e-01   7.324773e-03
  3.624043e+00    5.318327e-01   7.459189e-03
  3.626254e+00    5.262347e-01   7.429479e-03
  3.628464e+00    5.372532e-01   7.517837e-03
  3.630675e+00    5.441785e-01   7.580393e-03
  3.632885e+00    5.426893e-01   7.584566e-03
  3.635095e+00    5.554274e-01   7.687795e-03
  3.637306e+00    5.344459e-01   7.555534e-03
  3.639516e+00    5.280749e-01   7.524855e-03
  3.641727e+00    5.153767e-01   7.448121e-03
  3.643937e+00    5.305900e-01   7.571790e-03
  3.646148e+00    5.289319e-01   7.574500e-03
  3.648358e+00    5.219564e-01   7.539076e-03
  3.650569e+00    5.235147e-01   7.564932e-03
  3.652779e+00    5.141765e-01   7.511679e-03
  3.654990e+00    5.381658e-01   7.699857e-03
  3.657200e+00    5.375222e-01   7.710233e-03
  3.659410e+00    5.246903e-01   7.632514e-03
  3.661621e+00    5.293230e-01   7.681206e-03
  3.663831e+00    5.185714e-01   7.617736e-03
  3.666042e+00    5.376698e-01   7.771946e-03
  3.668252e+00    5.305932e-01   7.735906e-03
  3.670463e+00    5.370769e-01   7.798309e-03
  3.672673e+00    5.259349e-01   7.732389e-03
  3.674884e+00    5.278948e-01   7.762111e-03
  3.677094e+00    5.358104e-01   7.835684e-03
  3.679305e+00    5.333079e-01   7.832952e-03
  3.681515e+00    5.424253e-01   7.915456e-03
  3.683726e+00    5.313134e-01   7.849765e-03
  3.685936e+00    5.302854e-01   7.857871e-03
  3.688146e+00    5.367826e-01   7.921786e-03
  3.690357e+00    5.377595e-01   7.945111e-03
  3.692567e+00    5.294105e-01   7.899334e-03
  3.694778e+00    5.292506e-01   7.914249e-03
  3.696988e+00    5.205951e-01   7.865147e-03
  3.699199e+00    5.090675e-01   7.793577e-03
  3.701409e+00    5.287566e-01   7.959274e-03
  3.703620e+00    5.218759e-01   7.923588e-03
  3.705830e+00    5.293044e-01   7.996271e-03
  3.708041e+00    5.187998e-01   7.933032e-03
  3.710251e+00    5.166938e-01   7.933506e-03
  3.712461e+00    5.127877e-01   7.920062e-03
  3.714672e+00    5.078211e-01   7.898111e-03
  3.716882e+00    5.168456e-01   7.984607e-03
  3.719093e+00    5.134519e-01   7.975389e-03
  3.721303e+00    5.210748e-01   8.051370e-03
  3.723514e+00    5.032414e-01   7.929388e-03
  3.725724e+00    4.978511e-01   7.903617e-03
  3.727935e+00    5.158755e-01   8.062812e-03
  3.730145e+00    5.155022e-01   8.077251e-03
  3.732356e+00    4.933873e-01   7.919192e-03
  3.734566e+00    5.125708e-01   8.089190e-03
  3.736776e+00    5.170159e-01   8.141987e-03
  3.738987e+00    5.240895e-01   8.215386e-03
  3.741197e+00    5.220694e-01   8.217740e-03
  3.743408e+00    5.018815e-01   8.075114e-03
  3.745618e+00    4.924989e-01   8.017223e-03
  3.747829e+00    5.094280e-01   8.171887e-03
  3.750039e+00    5.209324e-01   8.282189e-03
  3.752250e+00    5.083789e-01   8.200255e-03
  3.754460e+00    4.854090e-01   8.030906e-03
  3.756671e+00    4.987534e-01   8.159188e-03
  3.758881e+00    5.167149e-01   8.323497e-03
  3.761091e+00    5.051385e-01   8.248947e-03
  3.763302e+00    4.910703e-01   8.151920e-03
  3.765512e+00    5.200841e-01   8.408803e-03
  3.767723e+00    5.180793e-01   8.412143e-03
  3.769933e+00    5.046311e-01   8.321551e-03
  3.772144e+00    4.793431e-01   8.129421e-03
  3.774354e+00    4.934483e-01   8.267768e-03
  3.776565e+00    4.789528e-01   8.164736e-03
  3.778775e+00    4.985170e-01   8.349653e-03
  3.780986e+00    4.945865e-01   8.336808e-03
  3.783196e+00    5.050726e-01   8.444982e-03
  3.785407e+00    4.964746e-01   8.393126e-03
  3.787617e+00    4.735145e-01   8.216834e-03
  3.789827e+00    5.045044e-01   8.502066e-03
  3.792038e+00    5.294789e-01   8.731355e-03
  3.794248e+00    5.008722e-01   8.513357e-03
  3.796459e+00    4.873087e-01   8.418386e-03
  3.798669e+00    4.922523e-01   8.482160e-03
  3.800880e+00    4.955302e-01   8.531664e-03
  3.803090e+00    4.985617e-01   8.579542e-03
  3.805301e+00    4.909170e-01   8.535387e-03
  3.807511e+00    4.757245e-01   8.423734e-03
  3.809722e+00    4.930432e-01   8.597751e-03
  3.811932e+00    4.968626e-01   8.653194e-03
  3.814142e+00    4.931698e-01   8.643666e-03
  3.816353e+00    5.156385e-01   8.861603e-03
  3.818563e+00    5.198116e-01   8.921028e-03
  3.820774e+00    5.123271e-01   8.880029e-03
  3.822984e+00    5.052930e-01   8.842383e-03
  3.825195e+00    5.133166e-01   8.936421e-03
  3.827405e+00    5.243943e-01   9.056858e-03
  3.829616e+00    5.008955e-01   8.875745e-03
  3.831826e+00    5.049286e-01   8.935740e-03
  3.834037e+00    5.070938e-01   8.979630e-03
  3.836247e+00    4.613291e-01   8.588721e-03
  3.838457e+00    4.896030e-01   8.872745e-03
  3.840668e+00    4.963682e-01   8.959058e-03
  3.842878e+00    5.178142e-01   9.176590e-03
  3.845089e+00    5.029101e-01   9.069417e-03
  3.847299e+00    5.049033e-01   9.113352e-03
  3.849510e+00    4.706045e-01   8.823572e-03
  3.851720e+00    4.934903e-01   9.056931e-03
  3.853931e+00    4.929644e-01   9.071130e-03
  3.856141e+00    4.906687e-01   9.068868e-03
  3.858352e+00    4.702384e-01   8.896841e-03
  3.860562e+00    4.931015e-01   9.129816e-03
  3.862772e+00    4.956789e-01   9.173284e-03
  3.864983e+00    4.756767e-01   9.005651e-03
  3.867193e+00    4.748423e-01   9.017080e-03
  3.869404e+00    5.014006e-01   9.285803e-03
  3.871614e+00    4.669869e-01   8.980946e-03
  3.873825e+00    4.751160e-01   9.078713e-03
  3.876035e+00    4.748127e-01   9.095915e-03
  3.878246e+00    5.137807e-01   9.488207e-03
  3.880456e+00    4.803973e-01   9.203412e-03
  3.882667e+00    5.062864e-01   9.477867e-03
  3.884877e+00    5.281718e-01   9.711416e-03
  3.887087e+00    4.863950e-01   9.349226e-03
  3.889298e+00    4.933912e-01   9.446644e-03
  3.891508e+00    4.900810e-01   9.445397e-03
  3.893719e+00    5.035062e-01   9.605313e-03
  3.895929e+00    4.836149e-01   9.444841e-03
  3.898140e+00    4.810483e-01   9.451145e-03
  3.900350e+00    4.759112e-01   9.432177e-03
  3.902561e+00    5.003740e-01   9.704286e-03
  3.904771e+00    4.871010e-01   9.607423e-03
  3.906982e+00    4.930858e-01   9.699552e-03
  3.909192e+00    4.732469e-01   9.535375e-03
  3.911403e+00    4.812363e-01   9.649212e-03
  3.913613e+00    4.832574e-01   9.703550e-03
  3.915823e+00    4.732549e-01   9.636893e-03
  3.918034e+00    4.782501e-01   9.722470e-03
  3.920244e+00    4.977165e-01   9.954419e-03
  3.922455e+00    5.163074e-01   1.017575e-02
  3.924665e+00    4.861932e-01   9.910992e-03
  3.926876e+00    4.651920e-01   9.730750e-03
  3.929086e+00    4.708593e-01   9.826498e-03
  3.931297e+00    4.710697e-01   9.863023e-03
  3.933507e+00    4.763722e-01   9.946816e-03
  3.935718e+00    4.968874e-01   1.018790e-02
  3.937928e+00    4.692780e-01   9.929714e-03
  3.940138e+00    4.749966e-01   1.001891e-02
  3.942349e+00    4.840563e-01   1.014381e-02
  3.944559e+00    4.899884e-01   1.023588e-02
  3.946770e+00    4.776626e-01   1.013621e-02
  3.948980e+00    4.461972e-01   9.826106e-03
  3.951191e+00    4.915789e-01   1.034458e-02
  3.953401e+00    4.911839e-01   1.037209e-02
  3.955612e+00    4.760382e-01   1.024218e-02
  3.957822e+00    4.556390e-01   1.005100e-02
  3.960033e+00    4.877050e-01   1.043132e-02
  3.962243e+00    4.737108e-01   1.031310e-02
  3.964453e+00    4.721339e-01   1.032839e-02
  3.966664e+00    4.706398e-01   1.034506e-02
  3.968874e+00    4.882073e-01   1.056476e-02
  3.971085e+00    4.856730e-01   1.055934e-02
  3.973295e+00    4.859354e-01   1.058358e-02
  3.975506e+00    4.813449e-01   1.055498e-02
  3.977716e+00    4.965509e-01   1.074270e-02
  3.979927e+00    5.014491e-01   1.081798e-02
  3.982137e+00    5.153167e-01   1.098953e-02
  3.984348e+00    4.994906e-01   1.084238e-02
  3.986558e+00    4.811093e-01   1.066329e-02
  3.988768e+00    4.734155e-01   1.060032e-02
  3.990979e+00    4.970821e-01   1.088511e-02
  3.993189e+00    4.805000e-01   1.072501e-02
  3.995400e+00    4.904646e-01   1.085928e-02
  3.997610e+00    4.797481e-01   1.076963e-02
  3.999821e+00    4.820324e-01   1.083272e-02
  4.002031e+00    4.914258e-01   1.097632e-02
  4.004242e+00    4.687783e-01   1.075834e-02
  4.006452e+00    4.687384e-01   1.079659e-02
  4.008663e+00    4.649644e-01   1.079217e-02
  4.010873e+00    4.859246e-01   1.107276e-02
  4.013084e+00    4.857537e-01   1.111188e-02
  4.015294e+00    4.497586e-01   1.073171e-02
  4.017504e+00    4.567975e-01   1.085601e-02
  4.019715e+00    4.838005e-01   1.121463e-02
  4.021925e+00    5.181508e-01   1.165058e-02
  4.024136e+00    4.647263e-01   1.107637e-02
  4.026346e+00    4.882362e-01   1.139744e-02
  4.028557e+00    4.676518e-01   1.119812e-02
  4.030767e+00    4.822526e-01   1.141707e-02
  4.032978e+00    5.124343e-01   1.181675e-02
  4.035188e+00    4.550367e-01   1.118009e-02
  4.037399e+00    5.050211e-01   1.182663e-02
  4.039609e+00    4.940464e-01   1.174580e-02
  4.041819e+00    4.706863e-01   1.151282e-02
  4.044030e+00    4.463878e-01   1.125970e-02
  4.046240e+00    4.663406e-01   1.155753e-02
  4.048451e+00    4.568324e-01   1.148869e-02
  4.050661e+00    4.745214e-01   1.175987e-02
  4.052872e+00    4.786437e-01   1.186362e-02
  4.055082e+00    4.612692e-01   1.169837e-02
  4.057293e+00    4.693947e-01   1.185404e-02
  4.059503e+00    4.732481e-01   1.195674e-02
  4.061714e+00    4.512506e-01   1.173020e-02
  4.063924e+00    4.776936e-01   1.212543e-02
  4.066134e+00    4.728656e-01   1.212093e-02
  4.068345e+00    4.272043e-01   1.157641e-02
  4.070555e+00    4.303654e-01   1.167504e-02
  4.072766e+00    4.778905e-01   1.236331e-02
  4.074976e+00    4.625864e-01   1.222467e-02
  4.077187e+00    4.808747e-01   1.252575e-02
  4.079397e+00    4.788508e-01   1.256326e-02
  4.081608e+00    4.940289e-01   1.282719e-02
  4.083818e+00    4.711426e-01   1.259168e-02
  4.086029e+00    4.627227e-01   1.254442e-02
  4.088239e+00    4.818027e-01   1.286942e-02
  4.090449e+00    4.852689e-01   1.298558e-02
  4.092660e+00    5.323380e-01   1.367565e-02
  4.094870e+00    4.749248e-01   1.298909e-02
  4.097081e+00    5.114766e-01   1.355335e-02
  4.099291e+00    4.828037e-01   1.322265e-02
  4.101502e+00    4.644980e-01   1.301783e-02
  4.103712e+00    4.958277e-01   1.349972e-02
  4.105923e+00    5.112381e-01   1.376112e-02
  4.108133e+00    4.867891e-01   1.347982e-02
  4.110344e+00    4.796478e-01   1.343155e-02
  4.112554e+00    4.711402e-01   1.336471e-02
  4.114764e+00    4.448570e-01   1.303874e-02
  4.116975e+00    4.691309e-01   1.344239e-02
  4.119185e+00    4.743794e-01   1.357238e-02
  4.121396e+00    4.856900e-01   1.378984e-02
  4.123606e+00    4.922341e-01   1.393950e-02
  4.125817e+00    5.034623e-01   1.415669e-02
  4.128027e+00    4.463880e-01   1.338616e-02
  4.130238e+00    4.603603e-01   1.365240e-02
  4.132448e+00    4.746177e-01   1.392234e-02
  4.134659e+00    5.050601e-01   1.442357e-02
  4.136869e+00    4.555132e-01   1.375913e-02
  4.139080e+00    4.614500e-01   1.391073e-02
  4.141290e+00    4.731521e-01   1.414861e-02
  4.143500e+00    4.524676e-01   1.389964e-02
  4.145711e+00    4.778136e-01   1.435027e-02
  4.147921e+00    4.364469e-01   1.377796e-02
  4.150132e+00    4.589159e-01   1.419560e-02
  4.152342e+00    4.831882e-01   1.463674e-02
  4.154553e+00    4.934410e-01   1.486152e-02
  4.156763e+00    4.873264e-01   1.484228e-02
  4.158974e+00    5.300187e-01   1.555654e-02
  4.161184e+00    4.507893e-01   1.441813e-02
  4.163395e+00    4.752096e-01   1.487880e-02
  4.165605e+00    4.901031e-01   1.518882e-02
  4.167815e+00    4.709605e-01   1.496719e-02
  4.170026e+00    4.344269e-01   1.445039e-02
  4.172236e+00    4.952294e-01   1.551198e-02
  4.174447e+00    4.709407e-01   1.520911e-02
  4.176657e+00    4.780292e-01   1.540698e-02
  4.178868e+00    4.536427e-01   1.509379e-02
  4.181078e+00    4.935527e-01   1.583249e-02
  4.183289e+00    4.731449e-01   1.559026e-02
  4.185499e+00    4.709978e-01   1.564672e-02
  4.187710e+00    4.886591e-01   1.603069e-02
  4.189920e+00    4.827290e-01   1.602926e-02
  4.192130e+00    4.699214e-01   1.591168e-02
  4.194341e+00    4.922458e-01   1.638495e-02
  4.196551e+00    4.871672e-01   1.640383e-02
  4.198762e+00    4.756325e-01   1.631111e-02
  4.200972e+00    4.893882e-01   1.665244e-02
  4.203183e+00    4.841027e-01   1.667131e-02
  4.205393e+00    4.770926e-01   1.666055e-02
  4.207604e+00    4.668716e-01   1.659340e-02
  4.209814e+00    5.248654e-01   1.771450e-02
  4.212025e+00    4.245683e-01   1.604547e-02
  4.214235e+00    5.223601e-01   1.792339e-02
  4.216445e+00    5.198570e-01   1.800993e-02
  4.218656e+00    4.588575e-01   1.704732e-02
  4.220866e+00    4.616351e-01   1.722533e-02
  4.223077e+00    5.038466e-01   1.813400e-02
  4.225287e+00    4.880652e-01   1.798825e-02
  4.227498e+00    4.261026e-01   1.693944e-02
  4.229708e+00    5.089338e-01   1.866315e-02
  4.231919e+00    5.044296e-01   1.873410e-02
  4.234129e+00    4.922682e-01   1.866231e-02
  4.236340e+00    4.962013e-01   1.889713e-02
  4.238550e+00    4.439683e-01   1.803235e-02
  4.240761e+00    5.180103e-01   1.965036e-02
  4.242971e+00    4.468510e-01   1.841779e-02
  4.245181e+00    4.838782e-01   1.934586e-02
  4.247392e+00    4.869416e-01   1.958870e-02
  4.249602e+00    4.279523e-01   1.854592e-02
  4.251813e+00    4.333731e-01   1.884711e-02
  4.254023e+00    4.074593e-01   1.845913e-02
  4.256234e+00    4.683850e-01   2.000237e-02
  4.258444e+00    4.362153e-01   1.950524e-02
  4.260655e+00    4.555030e-01   2.015107e-02
  4.262865e+00    3.904128e-01   1.886772e-02
  4.265076e+00    3.681413e-01   1.852965e-02
  4.267286e+00    4.361750e-01   2.040842e-02
  4.269496e+00    4.581698e-01   2.117211e-02
  4.271707e+00    5.054342e-01   2.251189e-02
  4.273917e+00    4.546347e-01   2.162682e-02
  4.276128e+00    4.793723e-01   2.250258e-02
  4.278338e+00    4.796696e-01   2.280977e-02
  4.280549e+00    4.623376e-01   2.271557e-02
  4.282759e+00    4.703592e-01   2.324005e-02
  4.284970e+00    4.823879e-01   2.388461e-02
  4.287180e+00    4.428340e-01   2.315851e-02
  4.289391e+00    4.855264e-01   2.443082e-02
  4.291601e+00    4.190170e-01   2.287792e-02
  4.293811e+00    3.956376e-01   2.240366e-02
  4.296022e+00    4.680675e-01   2.456409e-02
  4.298232e+00    4.676679e-01   2.475942e-02
  4.300443e+00    5.392248e-01   2.680587e-02
  4.302653e+00    4.285825e-01   2.410462e-02
  4.304864e+00    4.631839e-01   2.527607e-02
  4.307074e+00    4.375659e-01   2.478719e-02
  4.309285e+00    4.576698e-01   2.558123e-02
  4.311495e+00    4.482717e-01   2.555398e-02
  4.313706e+00    4.427411e-01   2.563453e-02
  4.315916e+00    5.128760e-01   2.786154e-02
  4.318126e+00    4.408256e-01   2.608650e-02
  4.320337e+00    4.679172e-01   2.714731e-02
  4.322547e+00    5.113627e-01   2.868102e-02
  4.324758e+00    5.222136e-01   2.928489e-02
  4.326968e+00    4.656588e-01   2.796477e-02
  4.329179e+00    5.753338e-01   3.142769e-02
  4.331389e+00    3.781419e-01   2.577235e-02
  4.333600e+00    3.897909e-01   2.647851e-02
  4.335810e+00    4.556809e-01   2.896868e-02
  4.338021e+00    6.184220e-01   3.418050e-02
  4.340231e+00    4.696340e-01   3.016015e-02
  4.342442e+00    5.257685e-01   3.234063e-02
  4.344652e+00    4.510933e-01   3.036182e-02
  4.346862e+00    4.897428e-01   3.207848e-02
  4.349073e+00    4.458269e-01   3.105354e-02
  4.351283e+00    4.144886e-01   3.038847e-02
  4.353494e+00    4.209605e-01   3.109718e-02
  4.355704e+00    4.475095e-01   3.258019e-02
  4.357915e+00    4.386572e-01   3.279262e-02
  4.360125e+00    4.802766e-01   3.489875e-02
  4.362336e+00    5.352858e-01   3.751470e-02
  4.364546e+00    5.288104e-01   3.796614e-02
  4.366757e+00    5.164146e-01   3.826417e-02
  4.368967e+00    4.734366e-01   3.737082e-02
  4.371177e+00    3.986478e-01   3.501925e-02
  4.373388e+00    4.580025e-01   3.837424e-02
  4.375598e+00    5.381398e-01   4.254639e-02
  4.377809e+00    4.470097e-01   3.975760e-02
  4.380019e+00    4.383488e-01   4.036242e-02
  4.382230e+00    2.514554e-01   3.142054e-02
  4.384440e+00    5.185428e-01   4.642230e-02
  4.386651e+00    4.853362e-01   4.629643e-02
  4.388861e+00    3.984092e-01   4.335199e-02
  4.391072e+00    3.209820e-01   4.027889e-02
  4.393282e+00    4.392022e-01   4.893968e-02
  4.395492e+00    5.913939e-01   5.914753e-02
  4.397703e+00    4.079418e-01   5.137198e-02
  4.399913e+00    2.976364e-01   4.610050e-02
  4.402124e+00    3.388629e-01   5.197677e-02
  4.404334e+00    4.497993e-01   6.365730e-02
  4.406545e+00    3.123388e-01   5.699260e-02
  4.408755e+00    6.144210e-01   8.669550e-02
  4.410966e+00    3.055888e-01   6.766406e-02
  4.413176e+00    1.582662e-01   5.512919e-02
  4.415387e+00   -6.564108e-01            nan
  4.417597e+00   -1.766705e+00            nan
  4.419807e+00    1.372970e-01   1.330704e-01
