# == pyFAI calibration ==
# Distance Sample to Detector: 0.216 m
# PONI: 1.166e-01, 1.308e-01 m
# Rotations: 0.000000 0.000000 0.000000 rad
# 
# == Fit2d calibration ==
# Distance Sample-beamCenter: 216.000 mm
# Center: x=1744.293, y=1555.000 pix
# Tilt: 0.000 deg  TiltPlanRot: 0.000 deg
# 
# Detector Eiger 9M	 PixelSize= 7.500e-05, 7.500e-05 m
#    Detector has a mask: True 
#    Detector has a dark current: False 
#    detector has a flat field: False 
# 
# Wavelength: 9.8e-11 m
# Mask applied: from detector
# Dark current applied: False
# Flat field applied: False
# Polarization factor: None
# Normalization factor: 1.0
# 
# Headers of the input frame:
# {
# "_array_data.header_convention": "SLS_1.0",
# "_array_data.header_contents": "# Detector: Dectris Eiger 9M, S/N E-18-0102\r\n# Pixel_size 75e-6 m x 75e-6 m\r\n# Silicon sensor, thickness 0.000450 m\r\n# Exposure_time 0.024997 s\r\n# Exposure_period 0.025000 s\r\n# Count_cutoff 62318 counts\r\n# Wavelength 0.980106 A\r\n# Detector_distance 0.215992 m\r\n# Beam_xy (1555, 1744) pixels\r\n# Start_angle 0.000000 deg.\r\n# Angle_increment 0.000000 deg.",
# "Content-Type": "application/octet-stream;",
# "conversions": "x-CBF_BYTE_OFFSET",
# "Content-Transfer-Encoding": "BINARY",
# "X-Binary-Size": "10166604",
# "X-Binary-ID": "1",
# "X-Binary-Element-Type": "signed 32-bit integer",
# "X-Binary-Element-Byte-Order": "LITTLE_ENDIAN",
# "Content-MD5": "d1CGuAvnPXKhAMkHHBEaLQ==",
# "X-Binary-Number-of-Elements": "10166590",
# "X-Binary-Size-Fastest-Dimension": "3110",
# "X-Binary-Size-Second-Dimension": "3269",
# "X-Binary-Size-Padding": "4095"
# }
# --> H:/Proxima2a_2019-04-05/RAW_DATA/C5_gel17_position5/C5_mesh_1_data.cbf/C5_mesh_1_data.cbf000171.dat
#        q_A^-1              I           sigma 
  1.105228e-03    1.263870e+00   6.083285e-01
  3.315685e-03    1.414716e+00   3.912731e-01
  5.526141e-03    1.859169e+00   3.468419e-01
  7.736597e-03    1.487571e+00   2.620952e-01
  9.947054e-03    1.566577e+00   2.371114e-01
  1.215751e-02    1.396551e+00   2.024403e-01
  1.436797e-02    1.357883e+00   1.836145e-01
  1.657842e-02    1.232878e+00   1.628563e-01
  1.878888e-02    1.262474e+00   1.548013e-01
  2.099934e-02    1.303992e+00   1.488468e-01
  2.320979e-02    1.247486e+00   1.384684e-01
  2.542025e-02    1.431119e+00   1.417253e-01
  2.763070e-02    1.277524e+00   1.284325e-01
  2.984116e-02    1.279220e+00   1.236656e-01
  3.205162e-02    1.504288e+00   1.294052e-01
  3.426207e-02    1.585045e+00   1.284682e-01
  3.647253e-02    1.437309e+00   1.185673e-01
  3.868299e-02    1.271631e+00   1.082994e-01
  4.089344e-02    1.276225e+00   1.055223e-01
  4.310390e-02    1.219998e+00   1.004855e-01
  4.531436e-02    1.277381e+00   1.002827e-01
  4.752481e-02    1.504428e+00   1.062685e-01
  4.973527e-02    1.496095e+00   1.035932e-01
  5.194572e-02    1.451637e+00   9.984630e-02
  5.415618e-02    1.529518e+00   1.003728e-01
  5.636664e-02    1.508813e+00   9.771988e-02
  5.857709e-02    1.403320e+00   9.244701e-02
  6.078755e-02    1.358284e+00   8.927968e-02
  6.299801e-02    1.459694e+00   9.091326e-02
  6.520846e-02    1.533452e+00   9.158953e-02
  6.741892e-02    1.418308e+00   8.662339e-02
  6.962938e-02    1.571091e+00   8.971537e-02
  7.183983e-02    1.604772e+00   8.926450e-02
  7.405029e-02    1.508105e+00   8.523086e-02
  7.626074e-02    1.665159e+00   8.825071e-02
  7.847120e-02    1.534464e+00   8.351268e-02
  8.068166e-02    1.493474e+00   8.125256e-02
  8.289211e-02    1.490608e+00   8.008450e-02
  8.510257e-02    1.434112e+00   7.752484e-02
  8.731303e-02    1.536744e+00   7.922558e-02
  8.952348e-02    1.516250e+00   7.772004e-02
  9.173394e-02    1.508851e+00   7.658733e-02
  9.394439e-02    1.450360e+00   7.419716e-02
  9.615485e-02    1.542479e+00   7.563090e-02
  9.836531e-02    1.567312e+00   7.537375e-02
  1.005758e-01    1.413806e+00   7.079691e-02
  1.027862e-01    1.505455e+00   7.226395e-02
  1.049967e-01    1.490293e+00   7.113706e-02
  1.072071e-01    1.476307e+00   7.006790e-02
  1.094176e-01    1.416106e+00   6.792668e-02
  1.116280e-01    1.490992e+00   6.900448e-02
  1.138385e-01    1.474544e+00   6.795200e-02
  1.160490e-01    1.526029e+00   6.846573e-02
  1.182594e-01    1.531163e+00   6.793539e-02
  1.204699e-01    1.518073e+00   6.702038e-02
  1.226803e-01    1.567820e+00   6.749049e-02
  1.248908e-01    1.531544e+00   6.611139e-02
  1.271012e-01    1.559706e+00   6.613247e-02
  1.293117e-01    1.602561e+00   6.645857e-02
  1.315222e-01    1.522990e+00   6.423946e-02
  1.337326e-01    1.501578e+00   6.325566e-02
  1.359431e-01    1.616959e+00   6.567943e-02
  1.381535e-01    1.575127e+00   6.569438e-02
  1.403640e-01    1.574907e+00   6.597344e-02
  1.425744e-01    1.572703e+00   6.603257e-02
  1.447849e-01    1.516831e+00   6.486398e-02
  1.469953e-01    1.491270e+00   6.427484e-02
  1.492058e-01    1.495831e+00   6.429825e-02
  1.514163e-01    1.538392e+00   6.509829e-02
  1.536267e-01    1.555701e+00   6.533568e-02
  1.558372e-01    1.563857e+00   6.536210e-02
  1.580476e-01    1.546465e+00   6.483993e-02
  1.602581e-01    1.622383e+00   6.624369e-02
  1.624685e-01    1.521082e+00   6.396667e-02
  1.646790e-01    1.614584e+00   6.571411e-02
  1.668895e-01    1.667828e+00   6.659598e-02
  1.690999e-01    1.785843e+00   6.870493e-02
  1.713104e-01    1.763862e+00   6.806892e-02
  1.735208e-01    1.744595e+00   6.748559e-02
  1.757313e-01    1.741843e+00   6.722101e-02
  1.779417e-01    1.807711e+00   6.825684e-02
  1.801522e-01    1.897845e+00   6.971510e-02
  1.823626e-01    1.833165e+00   6.828873e-02
  1.845731e-01    1.860837e+00   6.857935e-02
  1.867836e-01    1.986808e+00   7.062345e-02
  1.889940e-01    1.954487e+00   6.981778e-02
  1.912045e-01    2.014944e+00   7.065263e-02
  1.934149e-01    1.940219e+00   6.909817e-02
  1.956254e-01    1.912254e+00   6.837208e-02
  1.978358e-01    1.981082e+00   6.935321e-02
  2.000463e-01    1.974681e+00   6.901161e-02
  2.022568e-01    1.955545e+00   6.845100e-02
  2.044672e-01    1.948964e+00   6.810164e-02
  2.066777e-01    2.051183e+00   6.963281e-02
  2.088881e-01    2.073830e+00   6.978709e-02
  2.110986e-01    1.997639e+00   6.825826e-02
  2.133090e-01    1.923678e+00   6.676499e-02
  2.155195e-01    1.887137e+00   6.590846e-02
  2.177300e-01    1.982895e+00   6.702919e-02
  2.199404e-01    2.038202e+00   6.616691e-02
  2.221509e-01    1.900646e+00   6.284595e-02
  2.243613e-01    1.982532e+00   6.337176e-02
  2.265718e-01    2.091421e+00   6.437141e-02
  2.287822e-01    2.064924e+00   6.332926e-02
  2.309927e-01    2.091318e+00   6.315212e-02
  2.332031e-01    2.152350e+00   6.351866e-02
  2.354136e-01    2.129234e+00   6.266459e-02
  2.376241e-01    2.213435e+00   6.339573e-02
  2.398345e-01    2.067014e+00   6.080961e-02
  2.420450e-01    2.073417e+00   6.046845e-02
  2.442554e-01    2.090024e+00   6.029187e-02
  2.464659e-01    2.116068e+00   6.025908e-02
  2.486763e-01    2.113227e+00   5.982277e-02
  2.508868e-01    2.157512e+00   6.006503e-02
  2.530973e-01    2.190623e+00   6.014895e-02
  2.553077e-01    2.104779e+00   5.860103e-02
  2.575182e-01    2.076211e+00   5.785758e-02
  2.597286e-01    2.092566e+00   5.774741e-02
  2.619391e-01    2.098471e+00   5.749587e-02
  2.641495e-01    2.147336e+00   5.783954e-02
  2.663600e-01    2.109704e+00   5.701524e-02
  2.685704e-01    2.028702e+00   5.560690e-02
  2.707809e-01    1.999884e+00   5.491747e-02
  2.729914e-01    2.018563e+00   5.488581e-02
  2.752018e-01    2.092959e+00   5.559719e-02
  2.774123e-01    2.046718e+00   5.469878e-02
  2.796227e-01    1.981678e+00   5.355640e-02
  2.818332e-01    1.975440e+00   5.320531e-02
  2.840436e-01    1.929728e+00   5.233120e-02
  2.862541e-01    1.954457e+00   5.241228e-02
  2.884646e-01    1.923951e+00   5.175484e-02
  2.906750e-01    1.971120e+00   5.213704e-02
  2.928855e-01    1.975285e+00   5.195025e-02
  2.950959e-01    1.949280e+00   5.137011e-02
  2.973064e-01    1.962577e+00   5.131335e-02
  2.995168e-01    1.895518e+00   5.020067e-02
  3.017273e-01    1.903648e+00   5.008641e-02
  3.039377e-01    1.953599e+00   5.051710e-02
  3.061482e-01    1.906345e+00   4.968655e-02
  3.083587e-01    1.936678e+00   4.986349e-02
  3.105691e-01    1.895536e+00   4.912033e-02
  3.127796e-01    1.910527e+00   4.910683e-02
  3.149900e-01    1.885392e+00   4.857949e-02
  3.172005e-01    1.882030e+00   4.833769e-02
  3.194109e-01    1.869679e+00   4.797994e-02
  3.216214e-01    1.865535e+00   4.773115e-02
  3.238319e-01    1.916535e+00   4.818753e-02
  3.260423e-01    1.849501e+00   4.714877e-02
  3.282528e-01    1.856419e+00   4.704881e-02
  3.304632e-01    1.851855e+00   4.680890e-02
  3.326737e-01    1.836196e+00   4.642870e-02
  3.348841e-01    1.853240e+00   4.646283e-02
  3.370946e-01    1.836444e+00   4.607775e-02
  3.393050e-01    1.890321e+00   4.657171e-02
  3.415155e-01    1.833849e+00   4.569831e-02
  3.437260e-01    1.819723e+00   4.535324e-02
  3.459364e-01    1.815102e+00   4.512807e-02
  3.481469e-01    1.779866e+00   4.452477e-02
  3.503573e-01    1.846782e+00   4.518880e-02
  3.525678e-01    1.816772e+00   4.466044e-02
  3.547782e-01    1.781194e+00   4.406114e-02
  3.569887e-01    1.762959e+00   4.367970e-02
  3.591992e-01    1.798719e+00   4.396435e-02
  3.614096e-01    1.788050e+00   4.368181e-02
  3.636201e-01    1.757545e+00   4.315540e-02
  3.658305e-01    1.775868e+00   4.323179e-02
  3.680410e-01    1.781781e+00   4.315477e-02
  3.702514e-01    1.775363e+00   4.293210e-02
  3.724619e-01    1.798737e+00   4.306665e-02
  3.746724e-01    1.777843e+00   4.267292e-02
  3.768828e-01    1.771901e+00   4.245822e-02
  3.790933e-01    1.765839e+00   4.224740e-02
  3.813037e-01    1.757138e+00   4.200530e-02
  3.835142e-01    1.760685e+00   4.190959e-02
  3.857246e-01    1.792500e+00   4.214966e-02
  3.879351e-01    1.798778e+00   4.208678e-02
  3.901455e-01    1.707089e+00   4.086955e-02
  3.923560e-01    1.794436e+00   4.176892e-02
  3.945665e-01    1.818511e+00   4.191485e-02
  3.967769e-01    1.790138e+00   4.145633e-02
  3.989874e-01    1.781926e+00   4.123200e-02
  4.011978e-01    1.730366e+00   4.050615e-02
  4.034083e-01    1.753915e+00   4.065563e-02
  4.056187e-01    1.757768e+00   4.057489e-02
  4.078292e-01    1.834763e+00   4.132856e-02
  4.100397e-01    1.828795e+00   4.113533e-02
  4.122501e-01    1.799669e+00   4.068435e-02
  4.144606e-01    1.783165e+00   4.037731e-02
  4.166710e-01    1.771684e+00   4.012742e-02
  4.188815e-01    1.806135e+00   4.039600e-02
  4.210919e-01    1.811913e+00   4.034200e-02
  4.233024e-01    1.832078e+00   4.044653e-02
  4.255128e-01    1.756443e+00   3.948838e-02
  4.277233e-01    1.782828e+00   3.966954e-02
  4.299338e-01    1.782336e+00   3.954996e-02
  4.321442e-01    1.752310e+00   3.910318e-02
  4.343547e-01    1.807263e+00   3.959930e-02
  4.365651e-01    1.825158e+00   3.968180e-02
  4.387756e-01    1.806908e+00   3.937238e-02
  4.409860e-01    1.704307e+00   3.813226e-02
  4.431965e-01    1.725228e+00   3.825949e-02
  4.454070e-01    1.754059e+00   3.847053e-02
  4.476174e-01    1.758628e+00   3.841482e-02
  4.498279e-01    1.773578e+00   3.847283e-02
  4.520383e-01    1.719710e+00   3.778008e-02
  4.542488e-01    1.755718e+00   3.807062e-02
  4.564592e-01    1.715878e+00   3.753524e-02
  4.586697e-01    1.700236e+00   3.726459e-02
  4.608801e-01    1.713092e+00   3.730500e-02
  4.630906e-01    1.688004e+00   3.693281e-02
  4.653011e-01    1.643529e+00   3.634716e-02
  4.675115e-01    1.702822e+00   3.689954e-02
  4.697220e-01    1.745517e+00   3.726149e-02
  4.719324e-01    1.734361e+00   3.704612e-02
  4.741429e-01    1.768868e+00   3.731646e-02
  4.763533e-01    1.696061e+00   3.644676e-02
  4.785638e-01    1.645017e+00   3.580137e-02
  4.807743e-01    1.730405e+00   3.662540e-02
  4.829847e-01    1.711502e+00   3.633282e-02
  4.851952e-01    1.673526e+00   3.583653e-02
  4.874056e-01    1.663124e+00   3.563492e-02
  4.896161e-01    1.630852e+00   3.519997e-02
  4.918265e-01    1.651639e+00   3.533561e-02
  4.940370e-01    1.696802e+00   3.572705e-02
  4.962475e-01    1.693215e+00   3.560114e-02
  4.984579e-01    1.654278e+00   3.510269e-02
  5.006684e-01    1.631478e+00   3.477496e-02
  5.028788e-01    1.643520e+00   3.481847e-02
  5.050893e-01    1.703002e+00   3.535676e-02
  5.072997e-01    1.661207e+00   3.483586e-02
  5.095102e-01    1.680504e+00   3.495369e-02
  5.117206e-01    1.677997e+00   3.484455e-02
  5.139311e-01    1.664536e+00   3.462239e-02
  5.161416e-01    1.627490e+00   3.415402e-02
  5.183520e-01    1.645968e+00   3.426574e-02
  5.205625e-01    1.628733e+00   3.400602e-02
  5.227729e-01    1.620219e+00   3.383791e-02
  5.249834e-01    1.667089e+00   3.424417e-02
  5.271938e-01    1.704402e+00   3.454449e-02
  5.294043e-01    1.715730e+00   3.457911e-02
  5.316148e-01    1.762709e+00   3.496905e-02
  5.338252e-01    1.790247e+00   3.516061e-02
  5.360357e-01    1.756916e+00   3.475247e-02
  5.382461e-01    1.699123e+00   3.409885e-02
  5.404566e-01    1.673215e+00   3.376088e-02
  5.426670e-01    1.679124e+00   3.374423e-02
  5.448775e-01    1.752140e+00   3.439308e-02
  5.470879e-01    1.742098e+00   3.421793e-02
  5.492984e-01    1.750980e+00   3.422873e-02
  5.515089e-01    1.772003e+00   3.435724e-02
  5.537193e-01    1.805836e+00   3.460728e-02
  5.559298e-01    1.757147e+00   3.406268e-02
  5.581402e-01    1.780840e+00   3.421662e-02
  5.603507e-01    1.762772e+00   3.396852e-02
  5.625611e-01    1.764887e+00   3.391513e-02
  5.647716e-01    1.720601e+00   3.341421e-02
  5.669821e-01    1.732406e+00   3.345635e-02
  5.691925e-01    1.735524e+00   3.341457e-02
  5.714030e-01    1.757312e+00   3.355198e-02
  5.736134e-01    1.749160e+00   3.340286e-02
  5.758239e-01    1.704988e+00   3.290802e-02
  5.780343e-01    1.717386e+00   3.295757e-02
  5.802448e-01    1.692736e+00   3.265171e-02
  5.824552e-01    1.638032e+00   3.205238e-02
  5.846657e-01    1.604939e+00   3.166080e-02
  5.868762e-01    1.645252e+00   3.198923e-02
  5.890866e-01    1.598518e+00   3.146622e-02
  5.912971e-01    1.601651e+00   3.143181e-02
  5.935075e-01    1.637898e+00   3.171981e-02
  5.957180e-01    1.650701e+00   3.177819e-02
  5.979284e-01    1.658007e+00   3.178344e-02
  6.001389e-01    1.648510e+00   3.162775e-02
  6.023494e-01    1.645314e+00   3.153292e-02
  6.045598e-01    1.646233e+00   3.147750e-02
  6.067703e-01    1.676791e+00   3.170442e-02
  6.089807e-01    1.651693e+00   3.140301e-02
  6.111912e-01    1.617447e+00   3.101368e-02
  6.134016e-01    1.670386e+00   3.145426e-02
  6.156121e-01    1.687488e+00   3.155204e-02
  6.178226e-01    1.726766e+00   3.185394e-02
  6.200330e-01    1.708468e+00   3.162223e-02
  6.222435e-01    1.717253e+00   3.164060e-02
  6.244539e-01    1.698875e+00   3.140923e-02
  6.266644e-01    1.698901e+00   3.134821e-02
  6.288748e-01    1.693220e+00   3.123481e-02
  6.310853e-01    1.752065e+00   3.171126e-02
  6.332957e-01    1.723000e+00   3.138643e-02
  6.355062e-01    1.706267e+00   3.117295e-02
  6.377167e-01    1.735528e+00   3.137880e-02
  6.399271e-01    1.703036e+00   3.102413e-02
  6.421376e-01    1.665890e+00   3.062534e-02
  6.443480e-01    1.676264e+00   3.066210e-02
  6.465585e-01    1.682379e+00   3.065980e-02
  6.487689e-01    1.669919e+00   3.048837e-02
  6.509794e-01    1.633031e+00   3.009288e-02
  6.531899e-01    1.637914e+00   3.008118e-02
  6.554003e-01    1.613598e+00   2.980091e-02
  6.576108e-01    1.588731e+00   2.951532e-02
  6.598212e-01    1.602266e+00   2.958571e-02
  6.620317e-01    1.577809e+00   2.930463e-02
  6.642421e-01    1.591025e+00   2.937266e-02
  6.664526e-01    1.598436e+00   2.938676e-02
  6.686630e-01    1.581736e+00   2.917879e-02
  6.708735e-01    1.587017e+00   2.917384e-02
  6.730840e-01    1.595948e+00   2.920248e-02
  6.752944e-01    1.597084e+00   2.915974e-02
  6.775049e-01    1.592277e+00   2.906296e-02
  6.797153e-01    1.581773e+00   2.891448e-02
  6.819258e-01    1.607717e+00   2.909807e-02
  6.841362e-01    1.592675e+00   2.890956e-02
  6.863467e-01    1.588858e+00   2.882317e-02
  6.885572e-01    1.589267e+00   2.877524e-02
  6.907676e-01    1.546608e+00   2.833554e-02
  6.929781e-01    1.590966e+00   2.868792e-02
  6.951885e-01    1.599042e+00   2.870971e-02
  6.973990e-01    1.606734e+00   2.872780e-02
  6.996094e-01    1.606580e+00   2.867589e-02
  7.018199e-01    1.603065e+00   2.859422e-02
  7.040303e-01    1.561969e+00   2.817576e-02
  7.062408e-01    1.575651e+00   2.824929e-02
  7.084513e-01    1.626089e+00   2.864798e-02
  7.106617e-01    1.578532e+00   2.817691e-02
  7.128722e-01    1.573647e+00   2.808458e-02
  7.150826e-01    1.578732e+00   2.808144e-02
  7.172931e-01    1.563996e+00   2.790190e-02
  7.195035e-01    1.541145e+00   2.764969e-02
  7.217140e-01    1.560373e+00   2.787086e-02
  7.239245e-01    1.582400e+00   2.829420e-02
  7.261349e-01    1.586852e+00   2.844300e-02
  7.283454e-01    1.613957e+00   2.875820e-02
  7.305558e-01    1.554349e+00   2.827578e-02
  7.327663e-01    1.560557e+00   2.837449e-02
  7.349767e-01    1.581524e+00   2.858088e-02
  7.371872e-01    1.563096e+00   2.840275e-02
  7.393976e-01    1.518003e+00   2.797605e-02
  7.416081e-01    1.523548e+00   2.801120e-02
  7.438186e-01    1.576405e+00   2.834854e-02
  7.460290e-01    1.582244e+00   2.810607e-02
  7.482395e-01    1.558087e+00   2.772041e-02
  7.504499e-01    1.541871e+00   2.744094e-02
  7.526604e-01    1.571571e+00   2.758752e-02
  7.548708e-01    1.558194e+00   2.738092e-02
  7.570813e-01    1.567752e+00   2.741390e-02
  7.592918e-01    1.559687e+00   2.730830e-02
  7.615022e-01    1.561481e+00   2.729032e-02
  7.637127e-01    1.590619e+00   2.751084e-02
  7.659231e-01    1.575000e+00   2.734342e-02
  7.681336e-01    1.545012e+00   2.705057e-02
  7.703440e-01    1.568348e+00   2.722292e-02
  7.725545e-01    1.564258e+00   2.715662e-02
  7.747650e-01    1.550528e+00   2.699929e-02
  7.769754e-01    1.538195e+00   2.683959e-02
  7.791859e-01    1.583646e+00   2.717963e-02
  7.813963e-01    1.595509e+00   2.722836e-02
  7.836068e-01    1.574945e+00   2.700050e-02
  7.858172e-01    1.583367e+00   2.702197e-02
  7.880277e-01    1.581196e+00   2.695207e-02
  7.902381e-01    1.643392e+00   2.742710e-02
  7.924486e-01    1.640354e+00   2.735100e-02
  7.946591e-01    1.624647e+00   2.717107e-02
  7.968695e-01    1.632950e+00   2.719168e-02
  7.990800e-01    1.619830e+00   2.703381e-02
  8.012904e-01    1.615332e+00   2.694957e-02
  8.035009e-01    1.604653e+00   2.681253e-02
  8.057113e-01    1.684335e+00   2.742266e-02
  8.079218e-01    1.762672e+00   2.800472e-02
  8.101323e-01    1.719027e+00   2.760891e-02
  8.123427e-01    1.637877e+00   2.690340e-02
  8.145532e-01    1.629447e+00   2.678815e-02
  8.167636e-01    1.636668e+00   2.680231e-02
  8.189741e-01    1.615835e+00   2.658678e-02
  8.211845e-01    1.617719e+00   2.655770e-02
  8.233950e-01    1.611888e+00   2.646668e-02
  8.256054e-01    1.622793e+00   2.651204e-02
  8.278159e-01    1.636670e+00   2.658120e-02
  8.300264e-01    1.654259e+00   2.668036e-02
  8.322368e-01    1.672981e+00   2.678733e-02
  8.344473e-01    1.622625e+00   2.633797e-02
  8.366577e-01    1.597797e+00   2.609364e-02
  8.388682e-01    1.611169e+00   2.616072e-02
  8.410786e-01    1.599214e+00   2.602193e-02
  8.432891e-01    1.614187e+00   2.610194e-02
  8.454996e-01    1.640082e+00   2.626883e-02
  8.477100e-01    1.628224e+00   2.613218e-02
  8.499205e-01    1.628070e+00   2.608987e-02
  8.521309e-01    1.639864e+00   2.614339e-02
  8.543414e-01    1.647936e+00   2.616676e-02
  8.565518e-01    1.621918e+00   2.591897e-02
  8.587623e-01    1.621310e+00   2.587376e-02
  8.609727e-01    1.631464e+00   2.591440e-02
  8.631832e-01    1.622429e+00   2.580271e-02
  8.653937e-01    1.606632e+00   2.563733e-02
  8.676041e-01    1.608247e+00   2.561151e-02
  8.698146e-01    1.608056e+00   2.557084e-02
  8.720250e-01    1.590473e+00   2.539189e-02
  8.742355e-01    1.596438e+00   2.540074e-02
  8.764459e-01    1.610977e+00   2.547721e-02
  8.786564e-01    1.608779e+00   2.542188e-02
  8.808669e-01    1.631876e+00   2.556489e-02
  8.830773e-01    1.680323e+00   2.590254e-02
  8.852878e-01    1.668096e+00   2.576946e-02
  8.874982e-01    1.605008e+00   2.524076e-02
  8.897087e-01    1.578726e+00   2.499584e-02
  8.919191e-01    1.560476e+00   2.481366e-02
  8.941296e-01    1.586133e+00   2.497968e-02
  8.963401e-01    1.585782e+00   2.494067e-02
  8.985505e-01    1.596724e+00   2.498964e-02
  9.007610e-01    1.564858e+00   2.470270e-02
  9.029714e-01    1.571711e+00   2.472120e-02
  9.051819e-01    1.548863e+00   2.450423e-02
  9.073923e-01    1.617025e+00   2.500083e-02
  9.096028e-01    1.626420e+00   2.503818e-02
  9.118132e-01    1.567588e+00   2.454531e-02
  9.140237e-01    1.595093e+00   2.472312e-02
  9.162342e-01    1.646588e+00   2.508397e-02
  9.184446e-01    1.624038e+00   2.487561e-02
  9.206551e-01    1.607588e+00   2.471361e-02
  9.228655e-01    1.608701e+00   2.468684e-02
  9.250760e-01    1.592279e+00   2.452525e-02
  9.272864e-01    1.600218e+00   2.455210e-02
  9.294969e-01    1.595346e+00   2.447894e-02
  9.317074e-01    1.613965e+00   2.458660e-02
  9.339178e-01    1.581063e+00   2.430146e-02
  9.361283e-01    1.583225e+00   2.428222e-02
  9.383387e-01    1.607235e+00   2.443236e-02
  9.405492e-01    1.627674e+00   2.455290e-02
  9.427596e-01    1.648874e+00   2.467669e-02
  9.449701e-01    1.659076e+00   2.471930e-02
  9.471805e-01    1.662398e+00   2.470898e-02
  9.493910e-01    1.644033e+00   2.453839e-02
  9.516015e-01    1.651495e+00   2.455968e-02
  9.538119e-01    1.687168e+00   2.478949e-02
  9.560224e-01    1.721254e+00   2.500341e-02
  9.582328e-01    1.748083e+00   2.516373e-02
  9.604433e-01    1.731273e+00   2.500698e-02
  9.626537e-01    1.765535e+00   2.521925e-02
  9.648642e-01    1.762532e+00   2.516330e-02
  9.670747e-01    1.755462e+00   2.507812e-02
  9.692851e-01    1.777287e+00   2.520001e-02
  9.714956e-01    1.797966e+00   2.531044e-02
  9.737060e-01    1.822653e+00   2.545015e-02
  9.759165e-01    1.779350e+00   2.511055e-02
  9.781269e-01    1.813729e+00   2.531879e-02
  9.803374e-01    1.804052e+00   2.521625e-02
  9.825478e-01    1.831318e+00   2.537257e-02
  9.847583e-01    1.796159e+00   2.509372e-02
  9.869688e-01    1.772529e+00   2.489473e-02
  9.891792e-01    1.754944e+00   2.473802e-02
  9.913897e-01    1.724290e+00   2.448791e-02
  9.936001e-01    1.735582e+00   2.453581e-02
  9.958106e-01    1.702332e+00   2.426662e-02
  9.980210e-01    1.654089e+00   2.388925e-02
  1.000231e+00    1.638079e+00   2.390360e-02
  1.002442e+00    1.607015e+00   2.380165e-02
  1.004652e+00    1.599291e+00   2.381062e-02
  1.006863e+00    1.576739e+00   2.369121e-02
  1.009073e+00    1.572205e+00   2.369331e-02
  1.011284e+00    1.581764e+00   2.379703e-02
  1.013494e+00    1.545632e+00   2.354699e-02
  1.015705e+00    1.505689e+00   2.326270e-02
  1.017915e+00    1.520180e+00   2.339047e-02
  1.020126e+00    1.529997e+00   2.348173e-02
  1.022336e+00    1.553667e+00   2.367434e-02
  1.024547e+00    1.541254e+00   2.359076e-02
  1.026757e+00    1.525743e+00   2.348007e-02
  1.028967e+00    1.507173e+00   2.334433e-02
  1.031178e+00    1.522531e+00   2.346910e-02
  1.033388e+00    1.496765e+00   2.327468e-02
  1.035599e+00    1.473582e+00   2.309707e-02
  1.037809e+00    1.503340e+00   2.333236e-02
  1.040020e+00    1.501120e+00   2.331638e-02
  1.042230e+00    1.529032e+00   2.353412e-02
  1.044441e+00    1.508390e+00   2.337450e-02
  1.046651e+00    1.490190e+00   2.323322e-02
  1.048862e+00    1.496988e+00   2.328537e-02
  1.051072e+00    1.488949e+00   2.322041e-02
  1.053282e+00    1.500949e+00   2.331285e-02
  1.055493e+00    1.494950e+00   2.326191e-02
  1.057703e+00    1.494345e+00   2.325569e-02
  1.059914e+00    1.475230e+00   2.310222e-02
  1.062124e+00    1.488657e+00   2.320306e-02
  1.064335e+00    1.459662e+00   2.297258e-02
  1.066545e+00    1.437576e+00   2.279221e-02
  1.068756e+00    1.423384e+00   2.267578e-02
  1.070966e+00    1.418833e+00   2.263308e-02
  1.073177e+00    1.443022e+00   2.281919e-02
  1.075387e+00    1.431926e+00   2.272614e-02
  1.077597e+00    1.430511e+00   2.270775e-02
  1.079808e+00    1.435344e+00   2.261464e-02
  1.082018e+00    1.425111e+00   2.234729e-02
  1.084229e+00    1.412715e+00   2.214164e-02
  1.086439e+00    1.447513e+00   2.232546e-02
  1.088650e+00    1.471581e+00   2.243421e-02
  1.090860e+00    1.461156e+00   2.228682e-02
  1.093071e+00    1.421348e+00   2.191957e-02
  1.095281e+00    1.428374e+00   2.191678e-02
  1.097492e+00    1.420440e+00   2.180138e-02
  1.099702e+00    1.430966e+00   2.183079e-02
  1.101912e+00    1.437976e+00   2.183537e-02
  1.104123e+00    1.438871e+00   2.179389e-02
  1.106333e+00    1.437328e+00   2.173772e-02
  1.108544e+00    1.402019e+00   2.142524e-02
  1.110754e+00    1.382521e+00   2.123337e-02
  1.112965e+00    1.407462e+00   2.138372e-02
  1.115175e+00    1.381111e+00   2.114199e-02
  1.117386e+00    1.406399e+00   2.129551e-02
  1.119596e+00    1.395356e+00   2.117411e-02
  1.121807e+00    1.384588e+00   2.105378e-02
  1.124017e+00    1.406339e+00   2.118184e-02
  1.126228e+00    1.397068e+00   2.107628e-02
  1.128438e+00    1.410521e+00   2.114059e-02
  1.130648e+00    1.568328e+00   2.225545e-02
  1.132859e+00    1.870842e+00   2.426751e-02
  1.135069e+00    1.891494e+00   2.436077e-02
  1.137280e+00    1.624485e+00   2.254032e-02
  1.139490e+00    1.432973e+00   2.113636e-02
  1.141701e+00    1.387225e+00   2.076307e-02
  1.143911e+00    1.356680e+00   2.050163e-02
  1.146122e+00    1.348862e+00   2.041085e-02
  1.148332e+00    1.386680e+00   2.066302e-02
  1.150543e+00    1.377044e+00   2.056030e-02
  1.152753e+00    1.366650e+00   2.045181e-02
  1.154963e+00    1.334357e+00   2.017814e-02
  1.157174e+00    1.362639e+00   2.036081e-02
  1.159384e+00    1.353366e+00   2.026178e-02
  1.161595e+00    1.341758e+00   2.014515e-02
  1.163805e+00    1.377042e+00   2.037896e-02
  1.166016e+00    1.372195e+00   2.031358e-02
  1.168226e+00    1.441533e+00   2.079073e-02
  1.170437e+00    1.497628e+00   2.116143e-02
  1.172647e+00    1.463030e+00   2.088569e-02
  1.174858e+00    1.406957e+00   2.045300e-02
  1.177068e+00    1.363439e+00   2.010594e-02
  1.179278e+00    1.352533e+00   1.999688e-02
  1.181489e+00    1.354431e+00   1.998394e-02
  1.183699e+00    1.368900e+00   2.006273e-02
  1.185910e+00    1.364191e+00   2.000035e-02
  1.188120e+00    1.334823e+00   1.975743e-02
  1.190331e+00    1.356234e+00   1.988848e-02
  1.192541e+00    1.333122e+00   1.969114e-02
  1.194752e+00    1.311198e+00   1.950192e-02
  1.196962e+00    1.335112e+00   1.965336e-02
  1.199173e+00    1.351725e+00   1.974874e-02
  1.201383e+00    1.350315e+00   1.971129e-02
  1.203593e+00    1.347927e+00   1.966904e-02
  1.205804e+00    1.337544e+00   1.956736e-02
  1.208014e+00    1.338135e+00   1.954494e-02
  1.210225e+00    1.298110e+00   1.922560e-02
  1.212435e+00    1.308139e+00   1.927529e-02
  1.214646e+00    1.353266e+00   1.957880e-02
  1.216856e+00    1.343463e+00   1.948238e-02
  1.219067e+00    1.331833e+00   1.937354e-02
  1.221277e+00    1.338390e+00   1.939626e-02
  1.223488e+00    1.323018e+00   1.925905e-02
  1.225698e+00    1.328263e+00   1.927052e-02
  1.227909e+00    1.320287e+00   1.918274e-02
  1.230119e+00    1.308909e+00   1.906854e-02
  1.232329e+00    1.335699e+00   1.923212e-02
  1.234540e+00    1.340429e+00   1.923599e-02
  1.236750e+00    1.319492e+00   1.905524e-02
  1.238961e+00    1.331213e+00   1.911289e-02
  1.241171e+00    1.356406e+00   1.926867e-02
  1.243382e+00    1.350988e+00   1.920662e-02
  1.245592e+00    1.343590e+00   1.912993e-02
  1.247803e+00    1.321679e+00   1.894990e-02
  1.250013e+00    1.324869e+00   1.894942e-02
  1.252224e+00    1.322635e+00   1.891043e-02
  1.254434e+00    1.332932e+00   1.896030e-02
  1.256644e+00    1.328266e+00   1.890407e-02
  1.258855e+00    1.313990e+00   1.877926e-02
  1.261065e+00    1.315221e+00   1.876497e-02
  1.263276e+00    1.332113e+00   1.886230e-02
  1.265486e+00    1.350182e+00   1.896692e-02
  1.267697e+00    1.351980e+00   1.895651e-02
  1.269907e+00    1.335792e+00   1.882012e-02
  1.272118e+00    1.293462e+00   1.849741e-02
  1.274328e+00    1.338205e+00   1.879198e-02
  1.276539e+00    1.324249e+00   1.867118e-02
  1.278749e+00    1.343001e+00   1.878066e-02
  1.280959e+00    1.346236e+00   1.878078e-02
  1.283170e+00    1.335840e+00   1.868582e-02
  1.285380e+00    1.320953e+00   1.855919e-02
  1.287591e+00    1.335254e+00   1.863746e-02
  1.289801e+00    1.353710e+00   1.874458e-02
  1.292012e+00    1.327439e+00   1.854486e-02
  1.294222e+00    1.334733e+00   1.857958e-02
  1.296433e+00    1.353148e+00   1.869170e-02
  1.298643e+00    1.337984e+00   1.857029e-02
  1.300854e+00    1.349157e+00   1.863122e-02
  1.303064e+00    1.387018e+00   1.887137e-02
  1.305274e+00    1.372813e+00   1.875287e-02
  1.307485e+00    1.347870e+00   1.856018e-02
  1.309695e+00    1.383939e+00   1.878438e-02
  1.311906e+00    1.367646e+00   1.865162e-02
  1.314116e+00    1.340121e+00   1.844228e-02
  1.316327e+00    1.336395e+00   1.839501e-02
  1.318537e+00    1.374133e+00   1.863087e-02
  1.320748e+00    1.349548e+00   1.844190e-02
  1.322958e+00    1.329597e+00   1.828472e-02
  1.325169e+00    1.343312e+00   1.835778e-02
  1.327379e+00    1.365027e+00   1.848366e-02
  1.329589e+00    1.359324e+00   1.842387e-02
  1.331800e+00    1.366545e+00   1.845191e-02
  1.334010e+00    1.360355e+00   1.838935e-02
  1.336221e+00    1.362243e+00   1.838024e-02
  1.338431e+00    1.377867e+00   1.846427e-02
  1.340642e+00    1.380158e+00   1.854450e-02
  1.342852e+00    1.354182e+00   1.846998e-02
  1.345063e+00    1.337979e+00   1.840842e-02
  1.347273e+00    1.321387e+00   1.832878e-02
  1.349484e+00    1.349745e+00   1.855207e-02
  1.351694e+00    1.370355e+00   1.871608e-02
  1.353905e+00    1.341334e+00   1.853477e-02
  1.356115e+00    1.346218e+00   1.858351e-02
  1.358325e+00    1.322361e+00   1.843129e-02
  1.360536e+00    1.318029e+00   1.841256e-02
  1.362746e+00    1.304598e+00   1.832791e-02
  1.364957e+00    1.326451e+00   1.848836e-02
  1.367167e+00    1.343744e+00   1.861564e-02
  1.369378e+00    1.314773e+00   1.841983e-02
  1.371588e+00    1.308871e+00   1.838350e-02
  1.373799e+00    1.329038e+00   1.852823e-02
  1.376009e+00    1.312305e+00   1.841462e-02
  1.378220e+00    1.282409e+00   1.820609e-02
  1.380430e+00    1.296907e+00   1.831140e-02
  1.382640e+00    1.304571e+00   1.836632e-02
  1.384851e+00    1.291324e+00   1.827372e-02
  1.387061e+00    1.297154e+00   1.831520e-02
  1.389272e+00    1.286792e+00   1.824213e-02
  1.391482e+00    1.250587e+00   1.798298e-02
  1.393693e+00    1.268526e+00   1.811063e-02
  1.395903e+00    1.274465e+00   1.815150e-02
  1.398114e+00    1.259382e+00   1.804240e-02
  1.400324e+00    1.270891e+00   1.812253e-02
  1.402535e+00    1.282045e+00   1.819956e-02
  1.404745e+00    1.282244e+00   1.819862e-02
  1.406955e+00    1.258736e+00   1.802834e-02
  1.409166e+00    1.245059e+00   1.792685e-02
  1.411376e+00    1.254931e+00   1.799469e-02
  1.413587e+00    1.254334e+00   1.798662e-02
  1.415797e+00    1.253932e+00   1.798021e-02
  1.418008e+00    1.269457e+00   1.804932e-02
  1.420218e+00    1.253625e+00   1.778765e-02
  1.422429e+00    1.235238e+00   1.757260e-02
  1.424639e+00    1.230805e+00   1.747734e-02
  1.426850e+00    1.243342e+00   1.751201e-02
  1.429060e+00    1.263303e+00   1.760316e-02
  1.431270e+00    1.255362e+00   1.750371e-02
  1.433481e+00    1.240130e+00   1.735670e-02
  1.435691e+00    1.276245e+00   1.756909e-02
  1.437902e+00    1.291277e+00   1.763551e-02
  1.440112e+00    1.291585e+00   1.760196e-02
  1.442323e+00    1.280793e+00   1.749508e-02
  1.444533e+00    1.268627e+00   1.737929e-02
  1.446744e+00    1.233491e+00   1.710621e-02
  1.448954e+00    1.292633e+00   1.748105e-02
  1.451165e+00    1.274973e+00   1.733143e-02
  1.453375e+00    1.259537e+00   1.719825e-02
  1.455586e+00    1.271168e+00   1.724931e-02
  1.457796e+00    1.264566e+00   1.717701e-02
  1.460006e+00    1.250891e+00   1.705683e-02
  1.462217e+00    1.251651e+00   1.703597e-02
  1.464427e+00    1.239417e+00   1.692721e-02
  1.466638e+00    1.256381e+00   1.701745e-02
  1.468848e+00    1.285415e+00   1.718747e-02
  1.471059e+00    1.280187e+00   1.712730e-02
  1.473269e+00    1.263135e+00   1.698852e-02
  1.475480e+00    1.272203e+00   1.702559e-02
  1.477690e+00    1.299681e+00   1.718434e-02
  1.479901e+00    1.307827e+00   1.721391e-02
  1.482111e+00    1.275802e+00   1.697844e-02
  1.484321e+00    1.288789e+00   1.704132e-02
  1.486532e+00    1.262600e+00   1.684501e-02
  1.488742e+00    1.254485e+00   1.676819e-02
  1.490953e+00    1.286667e+00   1.695914e-02
  1.493163e+00    1.264890e+00   1.679271e-02
  1.495374e+00    1.238352e+00   1.659433e-02
  1.497584e+00    1.266729e+00   1.676168e-02
  1.499795e+00    1.259026e+00   1.668902e-02
  1.502005e+00    1.254639e+00   1.663828e-02
  1.504216e+00    1.249715e+00   1.658463e-02
  1.506426e+00    1.248076e+00   1.655303e-02
  1.508636e+00    1.238145e+00   1.646675e-02
  1.510847e+00    1.240629e+00   1.646157e-02
  1.513057e+00    1.251708e+00   1.650986e-02
  1.515268e+00    1.269123e+00   1.659846e-02
  1.517478e+00    1.246078e+00   1.642201e-02
  1.519689e+00    1.263575e+00   1.651184e-02
  1.521899e+00    1.252524e+00   1.641637e-02
  1.524110e+00    1.276537e+00   1.655247e-02
  1.526320e+00    1.257315e+00   1.640776e-02
  1.528531e+00    1.278861e+00   1.652775e-02
  1.530741e+00    1.260353e+00   1.638852e-02
  1.532951e+00    1.219147e+00   1.609904e-02
  1.535162e+00    1.230030e+00   1.625662e-02
  1.537372e+00    1.225589e+00   1.629356e-02
  1.539583e+00    1.213040e+00   1.624364e-02
  1.541793e+00    1.221899e+00   1.630975e-02
  1.544004e+00    1.221191e+00   1.630526e-02
  1.546214e+00    1.231092e+00   1.636975e-02
  1.548425e+00    1.225406e+00   1.633213e-02
  1.550635e+00    1.238407e+00   1.642822e-02
  1.552846e+00    1.220408e+00   1.631795e-02
  1.555056e+00    1.221723e+00   1.628564e-02
  1.557266e+00    1.241727e+00   1.630810e-02
  1.559477e+00    1.236823e+00   1.621693e-02
  1.561687e+00    1.259672e+00   1.633518e-02
  1.563898e+00    1.255371e+00   1.629005e-02
  1.566108e+00    1.241260e+00   1.618229e-02
  1.568319e+00    1.230262e+00   1.609490e-02
  1.570529e+00    1.234007e+00   1.609436e-02
  1.572740e+00    1.235361e+00   1.607567e-02
  1.574950e+00    1.256345e+00   1.618516e-02
  1.577161e+00    1.263780e+00   1.620736e-02
  1.579371e+00    1.222287e+00   1.591559e-02
  1.581582e+00    1.242183e+00   1.602487e-02
  1.583792e+00    1.256505e+00   1.609887e-02
  1.586002e+00    1.253132e+00   1.605957e-02
  1.588213e+00    1.254697e+00   1.605227e-02
  1.590423e+00    1.260396e+00   1.606850e-02
  1.592634e+00    1.260045e+00   1.604449e-02
  1.594844e+00    1.244326e+00   1.592270e-02
  1.597055e+00    1.224554e+00   1.577533e-02
  1.599265e+00    1.227843e+00   1.577591e-02
  1.601476e+00    1.230038e+00   1.576976e-02
  1.603686e+00    1.255772e+00   1.591399e-02
  1.605897e+00    1.248299e+00   1.584635e-02
  1.608107e+00    1.226262e+00   1.568637e-02
  1.610317e+00    1.216747e+00   1.560626e-02
  1.612528e+00    1.212042e+00   1.555705e-02
  1.614738e+00    1.201521e+00   1.547068e-02
  1.616949e+00    1.217466e+00   1.555406e-02
  1.619159e+00    1.204684e+00   1.545363e-02
  1.621370e+00    1.176137e+00   1.525131e-02
  1.623580e+00    1.186584e+00   1.530074e-02
  1.625791e+00    1.191845e+00   1.531652e-02
  1.628001e+00    1.196584e+00   1.532871e-02
  1.630212e+00    1.187864e+00   1.525506e-02
  1.632422e+00    1.156368e+00   1.503377e-02
  1.634632e+00    1.160527e+00   1.504364e-02
  1.636843e+00    1.157276e+00   1.500517e-02
  1.639053e+00    1.147948e+00   1.492747e-02
  1.641264e+00    1.148255e+00   1.491252e-02
  1.643474e+00    1.155785e+00   1.494401e-02
  1.645685e+00    1.110372e+00   1.463117e-02
  1.647895e+00    1.094495e+00   1.451001e-02
  1.650106e+00    1.128212e+00   1.471499e-02
  1.652316e+00    1.115544e+00   1.461590e-02
  1.654527e+00    1.112681e+00   1.458068e-02
  1.656737e+00    1.118043e+00   1.459934e-02
  1.658947e+00    1.099975e+00   1.446486e-02
  1.661158e+00    1.097667e+00   1.443361e-02
  1.663368e+00    1.112973e+00   1.451794e-02
  1.665579e+00    1.101294e+00   1.442555e-02
  1.667789e+00    1.089666e+00   1.433316e-02
  1.670000e+00    1.083408e+00   1.427665e-02
  1.672210e+00    1.088645e+00   1.429538e-02
  1.674421e+00    1.090774e+00   1.429413e-02
  1.676631e+00    1.085696e+00   1.424506e-02
  1.678842e+00    1.053169e+00   1.401463e-02
  1.681052e+00    1.062075e+00   1.405857e-02
  1.683263e+00    1.057214e+00   1.401147e-02
  1.685473e+00    1.043264e+00   1.390386e-02
  1.687683e+00    1.041171e+00   1.387478e-02
  1.689894e+00    1.053973e+00   1.394425e-02
  1.692104e+00    1.050604e+00   1.390721e-02
  1.694315e+00    1.048414e+00   1.387837e-02
  1.696525e+00    1.068712e+00   1.399692e-02
  1.698736e+00    1.070876e+00   1.399623e-02
  1.700946e+00    1.039336e+00   1.377358e-02
  1.703157e+00    1.052317e+00   1.384473e-02
  1.705367e+00    1.037935e+00   1.373539e-02
  1.707578e+00    1.042837e+00   1.375326e-02
  1.709788e+00    1.049036e+00   1.377995e-02
  1.711998e+00    1.042844e+00   1.372420e-02
  1.714209e+00    1.022628e+00   1.357621e-02
  1.716419e+00    1.031169e+00   1.361854e-02
  1.718630e+00    1.019620e+00   1.352787e-02
  1.720840e+00    1.033988e+00   1.360862e-02
  1.723051e+00    1.036710e+00   1.361259e-02
  1.725261e+00    1.051377e+00   1.369364e-02
  1.727472e+00    1.042653e+00   1.362237e-02
  1.729682e+00    1.039575e+00   1.358864e-02
  1.731893e+00    1.001867e+00   1.332606e-02
  1.734103e+00    1.013436e+00   1.338896e-02
  1.736313e+00    9.916109e-01   1.323012e-02
  1.738524e+00    9.778712e-01   1.312445e-02
  1.740734e+00    9.867177e-01   1.317008e-02
  1.742945e+00    9.787256e-01   1.310331e-02
  1.745155e+00    9.608886e-01   1.297012e-02
  1.747366e+00    9.569777e-01   1.293011e-02
  1.749576e+00    9.732243e-01   1.302581e-02
  1.751787e+00    9.651409e-01   1.295840e-02
  1.753997e+00    9.684987e-01   1.296761e-02
  1.756208e+00    9.561326e-01   1.287149e-02
  1.758418e+00    9.451959e-01   1.278472e-02
  1.760628e+00    9.648014e-01   1.290332e-02
  1.762839e+00    9.248788e-01   1.262060e-02
  1.765049e+00    9.340159e-01   1.266984e-02
  1.767260e+00    9.339321e-01   1.265666e-02
  1.769470e+00    9.445871e-01   1.271572e-02
  1.771681e+00    9.387758e-01   1.266351e-02
  1.773891e+00    9.341866e-01   1.261958e-02
  1.776102e+00    9.073657e-01   1.242451e-02
  1.778312e+00    9.181319e-01   1.248543e-02
  1.780523e+00    9.234506e-01   1.250895e-02
  1.782733e+00    9.226143e-01   1.249070e-02
  1.784944e+00    9.355063e-01   1.256479e-02
  1.787154e+00    9.222181e-01   1.246277e-02
  1.789364e+00    9.009956e-01   1.230627e-02
  1.791575e+00    9.043646e-01   1.231684e-02
  1.793785e+00    9.428971e-01   1.256397e-02
  1.795996e+00    9.291172e-01   1.245927e-02
  1.798206e+00    9.332487e-01   1.247430e-02
  1.800417e+00    9.072195e-01   1.228652e-02
  1.802627e+00    8.981429e-01   1.221306e-02
  1.804838e+00    8.975886e-01   1.219727e-02
  1.807048e+00    9.087908e-01   1.226031e-02
  1.809259e+00    9.080226e-01   1.224153e-02
  1.811469e+00    8.981519e-01   1.215990e-02
  1.813679e+00    9.005165e-01   1.216092e-02
  1.815890e+00    9.042394e-01   1.217125e-02
  1.818100e+00    8.939060e-01   1.208641e-02
  1.820311e+00    8.931630e-01   1.206663e-02
  1.822521e+00    8.524007e-01   1.177355e-02
  1.824732e+00    8.436911e-01   1.169880e-02
  1.826942e+00    8.565599e-01   1.177557e-02
  1.829153e+00    8.423516e-01   1.166609e-02
  1.831363e+00    8.580922e-01   1.176273e-02
  1.833574e+00    8.713464e-01   1.184161e-02
  1.835784e+00    8.553970e-01   1.172147e-02
  1.837994e+00    8.615550e-01   1.175198e-02
  1.840205e+00    8.599129e-01   1.172969e-02
  1.842415e+00    8.541411e-01   1.167863e-02
  1.844626e+00    8.517192e-01   1.165061e-02
  1.846836e+00    8.490355e-01   1.162095e-02
  1.849047e+00    8.561288e-01   1.165785e-02
  1.851257e+00    8.582933e-01   1.166303e-02
  1.853468e+00    8.641556e-01   1.169398e-02
  1.855678e+00    8.574061e-01   1.163936e-02
  1.857889e+00    8.530895e-01   1.160156e-02
  1.860099e+00    8.310869e-01   1.144247e-02
  1.862309e+00    8.482105e-01   1.155126e-02
  1.864520e+00    8.524015e-01   1.157121e-02
  1.866730e+00    8.590199e-01   1.160666e-02
  1.868941e+00    8.424721e-01   1.148344e-02
  1.871151e+00    8.330432e-01   1.140772e-02
  1.873362e+00    8.219658e-01   1.132048e-02
  1.875572e+00    8.213121e-01   1.130520e-02
  1.877783e+00    8.438424e-01   1.144782e-02
  1.879993e+00    8.442490e-01   1.143946e-02
  1.882204e+00    8.214955e-01   1.127348e-02
  1.884414e+00    8.361344e-01   1.136248e-02
  1.886624e+00    8.289925e-01   1.130286e-02
  1.888835e+00    8.632909e-01   1.152320e-02
  1.891045e+00    8.521973e-01   1.143797e-02
  1.893256e+00    8.272259e-01   1.125813e-02
  1.895466e+00    8.237195e-01   1.122315e-02
  1.897677e+00    8.273084e-01   1.123673e-02
  1.899887e+00    8.232957e-01   1.119852e-02
  1.902098e+00    8.091015e-01   1.109088e-02
  1.904308e+00    8.190945e-01   1.114865e-02
  1.906519e+00    8.317381e-01   1.122350e-02
  1.908729e+00    8.298182e-01   1.119995e-02
  1.910940e+00    8.316801e-01   1.120133e-02
  1.913150e+00    8.337778e-01   1.120483e-02
  1.915360e+00    8.248641e-01   1.113414e-02
  1.917571e+00    8.191571e-01   1.108472e-02
  1.919781e+00    8.287942e-01   1.113898e-02
  1.921992e+00    8.371248e-01   1.118410e-02
  1.924202e+00    8.253792e-01   1.109455e-02
  1.926413e+00    8.199495e-01   1.104768e-02
  1.928623e+00    8.154308e-01   1.100664e-02
  1.930834e+00    8.226115e-01   1.104450e-02
  1.933044e+00    8.170554e-01   1.099644e-02
  1.935255e+00    8.061943e-01   1.091280e-02
  1.937465e+00    8.183274e-01   1.098415e-02
  1.939675e+00    8.126420e-01   1.093505e-02
  1.941886e+00    7.950429e-01   1.080578e-02
  1.944096e+00    7.865377e-01   1.073774e-02
  1.946307e+00    7.885668e-01   1.074132e-02
  1.948517e+00    8.012206e-01   1.081671e-02
  1.950728e+00    8.005818e-01   1.080215e-02
  1.952938e+00    8.002763e-01   1.078997e-02
  1.955149e+00    7.899588e-01   1.071001e-02
  1.957359e+00    7.881216e-01   1.068754e-02
  1.959570e+00    8.085613e-01   1.081428e-02
  1.961780e+00    7.936489e-01   1.070418e-02
  1.963990e+00    8.072955e-01   1.078559e-02
  1.966201e+00    7.942843e-01   1.068826e-02
  1.968411e+00    7.783663e-01   1.057052e-02
  1.970622e+00    7.984005e-01   1.069553e-02
  1.972832e+00    7.929568e-01   1.064901e-02
  1.975043e+00    7.817466e-01   1.056345e-02
  1.977253e+00    7.950562e-01   1.064298e-02
  1.979464e+00    7.877152e-01   1.058367e-02
  1.981674e+00    8.035112e-01   1.067885e-02
  1.983885e+00    8.095178e-01   1.070851e-02
  1.986095e+00    7.830244e-01   1.052212e-02
  1.988305e+00    7.811531e-01   1.049961e-02
  1.990516e+00    7.785072e-01   1.047190e-02
  1.992726e+00    7.948635e-01   1.057154e-02
  1.994937e+00    8.017144e-01   1.060674e-02
  1.997147e+00    8.094472e-01   1.064781e-02
  1.999358e+00    8.056067e-01   1.061250e-02
  2.001568e+00    7.781746e-01   1.041939e-02
  2.003779e+00    7.758908e-01   1.039215e-02
  2.005989e+00    7.774285e-01   1.039038e-02
  2.008200e+00    7.609709e-01   1.026835e-02
  2.010410e+00    7.874419e-01   1.043353e-02
  2.012621e+00    7.738971e-01   1.033168e-02
  2.014831e+00    7.666251e-01   1.027153e-02
  2.017041e+00    7.848837e-01   1.038264e-02
  2.019252e+00    7.723083e-01   1.028914e-02
  2.021462e+00    7.392765e-01   1.005734e-02
  2.023673e+00    7.689349e-01   1.024767e-02
  2.025883e+00    7.692314e-01   1.024010e-02
  2.028094e+00    7.516247e-01   1.011266e-02
  2.030304e+00    7.681921e-01   1.021391e-02
  2.032515e+00    7.638109e-01   1.017545e-02
  2.034725e+00    7.571602e-01   1.012161e-02
  2.036936e+00    7.660815e-01   1.017168e-02
  2.039146e+00    7.639495e-01   1.014791e-02
  2.041356e+00    7.457767e-01   1.001691e-02
  2.043567e+00    7.613162e-01   1.011136e-02
  2.045777e+00    7.857963e-01   1.026324e-02
  2.047988e+00    7.675422e-01   1.013389e-02
  2.050198e+00    7.571809e-01   1.005680e-02
  2.052409e+00    7.433873e-01   9.957165e-03
  2.054619e+00    7.258673e-01   9.831874e-03
  2.056830e+00    7.460885e-01   9.960733e-03
  2.059040e+00    7.464807e-01   9.955863e-03
  2.061251e+00    7.479650e-01   9.958518e-03
  2.063461e+00    7.389586e-01   9.890847e-03
  2.065671e+00    7.332086e-01   9.843647e-03
  2.067882e+00    7.319100e-01   9.826026e-03
  2.070092e+00    7.438203e-01   9.896477e-03
  2.072303e+00    7.286396e-01   9.785959e-03
  2.074513e+00    7.360037e-01   9.825998e-03
  2.076724e+00    7.331687e-01   9.797673e-03
  2.078934e+00    7.354950e-01   9.804260e-03
  2.081145e+00    7.145088e-01   9.654456e-03
  2.083355e+00    7.227879e-01   9.701165e-03
  2.085566e+00    7.471116e-01   9.854109e-03
  2.087776e+00    7.474256e-01   9.846626e-03
  2.089986e+00    7.396192e-01   9.786294e-03
  2.092197e+00    7.244799e-01   9.676712e-03
  2.094407e+00    7.344271e-01   9.733716e-03
  2.096618e+00    7.340218e-01   9.722140e-03
  2.098828e+00    7.289692e-01   9.679345e-03
  2.101039e+00    7.252757e-01   9.645857e-03
  2.103249e+00    7.279056e-01   9.654680e-03
  2.105460e+00    7.302267e-01   9.661047e-03
  2.107670e+00    7.304109e-01   9.653519e-03
  2.109881e+00    7.224020e-01   9.591316e-03
  2.112091e+00    7.090502e-01   9.493398e-03
  2.114301e+00    6.992941e-01   9.419207e-03
  2.116512e+00    7.218637e-01   9.561227e-03
  2.118722e+00    7.063164e-01   9.448984e-03
  2.120933e+00    7.007414e-01   9.402870e-03
  2.123143e+00    6.992550e-01   9.384105e-03
  2.125354e+00    7.065766e-01   9.424647e-03
  2.127564e+00    7.054889e-01   9.408718e-03
  2.129775e+00    7.077779e-01   9.415312e-03
  2.131985e+00    6.876389e-01   9.271491e-03
  2.134196e+00    7.079146e-01   9.398616e-03
  2.136406e+00    7.126115e-01   9.421024e-03
  2.138617e+00    6.987929e-01   9.320838e-03
  2.140827e+00    7.052598e-01   9.379879e-03
  2.143037e+00    7.070373e-01   9.437187e-03
  2.145248e+00    6.936110e-01   9.368941e-03
  2.147458e+00    7.042907e-01   9.455945e-03
  2.149669e+00    6.931184e-01   9.392408e-03
  2.151879e+00    6.869146e-01   9.359408e-03
  2.154090e+00    6.909820e-01   9.394333e-03
  2.156300e+00    6.737390e-01   9.282855e-03
  2.158511e+00    6.923992e-01   9.415802e-03
  2.160721e+00    6.910747e-01   9.411585e-03
  2.162932e+00    6.963305e-01   9.451034e-03
  2.165142e+00    6.994788e-01   9.475410e-03
  2.167352e+00    7.054657e-01   9.518819e-03
  2.169563e+00    6.654862e-01   9.247074e-03
  2.171773e+00    6.721463e-01   9.295621e-03
  2.173984e+00    6.653011e-01   9.249562e-03
  2.176194e+00    6.843361e-01   9.382130e-03
  2.178405e+00    6.772686e-01   9.334259e-03
  2.180615e+00    6.730184e-01   9.305585e-03
  2.182826e+00    6.727263e-01   9.304252e-03
  2.185036e+00    6.652034e-01   9.252121e-03
  2.187247e+00    6.744454e-01   9.316113e-03
  2.189457e+00    6.754257e-01   9.322493e-03
  2.191667e+00    6.788180e-01   9.345694e-03
  2.193878e+00    6.835024e-01   9.377323e-03
  2.196088e+00    6.599373e-01   9.213598e-03
  2.198299e+00    6.659357e-01   9.254263e-03
  2.200509e+00    6.908025e-01   9.424423e-03
  2.202720e+00    6.803626e-01   9.351785e-03
  2.204930e+00    6.758742e-01   9.319652e-03
  2.207141e+00    6.791076e-01   9.340804e-03
  2.209351e+00    6.687864e-01   9.267686e-03
  2.211562e+00    6.770825e-01   9.323364e-03
  2.213772e+00    6.772107e-01   9.268761e-03
  2.215982e+00    6.675761e-01   9.158656e-03
  2.218193e+00    6.578972e-01   9.062774e-03
  2.220403e+00    6.699136e-01   9.120665e-03
  2.222614e+00    6.747212e-01   9.132373e-03
  2.224824e+00    6.622273e-01   9.028208e-03
  2.227035e+00    6.686177e-01   9.054272e-03
  2.229245e+00    6.659226e-01   9.019103e-03
  2.231456e+00    6.785751e-01   9.088682e-03
  2.233666e+00    6.861622e-01   9.124096e-03
  2.235877e+00    6.674984e-01   8.984931e-03
  2.238087e+00    6.488205e-01   8.845055e-03
  2.240298e+00    6.664813e-01   8.950862e-03
  2.242508e+00    6.700685e-01   8.959809e-03
  2.244718e+00    6.612900e-01   8.885184e-03
  2.246929e+00    6.579118e-01   8.848171e-03
  2.249139e+00    6.545820e-01   8.813470e-03
  2.251350e+00    6.585625e-01   8.828613e-03
  2.253560e+00    6.509352e-01   8.765886e-03
  2.255771e+00    6.656585e-01   8.853070e-03
  2.257981e+00    6.832132e-01   8.957709e-03
  2.260192e+00    6.659073e-01   8.832430e-03
  2.262402e+00    6.634988e-01   8.805597e-03
  2.264613e+00    6.603242e-01   8.773675e-03
  2.266823e+00    6.672378e-01   8.809068e-03
  2.269033e+00    6.750481e-01   8.849994e-03
  2.271244e+00    6.804478e-01   8.874798e-03
  2.273454e+00    6.692665e-01   8.791265e-03
  2.275665e+00    6.798453e-01   8.850016e-03
  2.277875e+00    6.722180e-01   8.790242e-03
  2.280086e+00    6.692054e-01   8.760402e-03
  2.282296e+00    6.433370e-01   8.580131e-03
  2.284507e+00    6.552961e-01   8.649395e-03
  2.286717e+00    6.481347e-01   8.592618e-03
  2.288928e+00    6.475459e-01   8.578896e-03
  2.291138e+00    6.664111e-01   8.693499e-03
  2.293348e+00    6.459832e-01   8.549746e-03
  2.295559e+00    6.626199e-01   8.649763e-03
  2.297769e+00    6.397418e-01   8.490012e-03
  2.299980e+00    6.362667e-01   8.457686e-03
  2.302190e+00    6.296061e-01   8.404355e-03
  2.304401e+00    6.506159e-01   8.534090e-03
  2.306611e+00    6.646637e-01   8.616472e-03
  2.308822e+00    6.508763e-01   8.518253e-03
  2.311032e+00    6.435358e-01   8.463667e-03
  2.313243e+00    6.396597e-01   8.431906e-03
  2.315453e+00    6.428396e-01   8.445306e-03
  2.317663e+00    6.374730e-01   8.400934e-03
  2.319874e+00    6.334704e-01   8.365859e-03
  2.322084e+00    6.431564e-01   8.420647e-03
  2.324295e+00    6.350553e-01   8.359279e-03
  2.326505e+00    6.489766e-01   8.441317e-03
  2.328716e+00    6.405396e-01   8.377741e-03
  2.330926e+00    6.326626e-01   8.317357e-03
  2.333137e+00    6.296681e-01   8.289345e-03
  2.335347e+00    6.312832e-01   8.291166e-03
  2.337558e+00    6.253342e-01   8.243872e-03
  2.339768e+00    6.334048e-01   8.288382e-03
  2.341979e+00    6.296136e-01   8.255228e-03
  2.344189e+00    6.318837e-01   8.261734e-03
  2.346399e+00    6.404401e-01   8.308966e-03
  2.348610e+00    6.313018e-01   8.241047e-03
  2.350820e+00    6.413920e-01   8.298413e-03
  2.353031e+00    6.275988e-01   8.200474e-03
  2.355241e+00    6.255370e-01   8.178965e-03
  2.357452e+00    6.459910e-01   8.303116e-03
  2.359662e+00    6.144199e-01   8.089572e-03
  2.361873e+00    6.102720e-01   8.054102e-03
  2.364083e+00    6.280521e-01   8.162619e-03
  2.366294e+00    6.183634e-01   8.091357e-03
  2.368504e+00    6.185102e-01   8.084309e-03
  2.370714e+00    6.049513e-01   7.987262e-03
  2.372925e+00    6.228762e-01   8.096712e-03
  2.375135e+00    6.229646e-01   8.089218e-03
  2.377346e+00    6.195710e-01   8.059260e-03
  2.379556e+00    6.061034e-01   7.963391e-03
  2.381767e+00    5.977468e-01   7.900581e-03
  2.383977e+00    6.065750e-01   7.950862e-03
  2.386188e+00    6.111602e-01   7.973015e-03
  2.388398e+00    6.090337e-01   7.951220e-03
  2.390609e+00    5.994877e-01   7.881058e-03
  2.392819e+00    6.016055e-01   7.887267e-03
  2.395029e+00    6.179280e-01   7.985884e-03
  2.397240e+00    6.090841e-01   7.920706e-03
  2.399450e+00    6.110749e-01   7.925836e-03
  2.401661e+00    6.210321e-01   7.982415e-03
  2.403871e+00    6.037721e-01   7.863009e-03
  2.406082e+00    5.940914e-01   7.792369e-03
  2.408292e+00    6.040230e-01   7.849474e-03
  2.410503e+00    5.944415e-01   7.779570e-03
  2.412713e+00    5.933591e-01   7.764777e-03
  2.414924e+00    5.881059e-01   7.722965e-03
  2.417134e+00    5.846604e-01   7.692776e-03
  2.419344e+00    5.956259e-01   7.757234e-03
  2.421555e+00    5.993270e-01   7.773807e-03
  2.423765e+00    5.944337e-01   7.734635e-03
  2.425976e+00    5.939288e-01   7.723586e-03
  2.428186e+00    5.920348e-01   7.704087e-03
  2.430397e+00    5.912913e-01   7.691786e-03
  2.432607e+00    5.991367e-01   7.735368e-03
  2.434818e+00    5.897381e-01   7.666934e-03
  2.437028e+00    5.984203e-01   7.715997e-03
  2.439239e+00    5.997176e-01   7.716658e-03
  2.441449e+00    5.914074e-01   7.655839e-03
  2.443659e+00    5.620551e-01   7.456249e-03
  2.445870e+00    5.734820e-01   7.543738e-03
  2.448080e+00    5.699939e-01   7.555188e-03
  2.450291e+00    5.738108e-01   7.596989e-03
  2.452501e+00    5.544370e-01   7.478603e-03
  2.454712e+00    5.432643e-01   7.411063e-03
  2.456922e+00    5.512615e-01   7.471906e-03
  2.459133e+00    5.621965e-01   7.551064e-03
  2.461343e+00    5.688359e-01   7.599879e-03
  2.463554e+00    5.577743e-01   7.529088e-03
  2.465764e+00    5.433726e-01   7.434325e-03
  2.467975e+00    5.560322e-01   7.522688e-03
  2.470185e+00    5.646546e-01   7.583084e-03
  2.472395e+00    5.351777e-01   7.383701e-03
  2.474606e+00    5.342864e-01   7.379064e-03
  2.476816e+00    5.364662e-01   7.394836e-03
  2.479027e+00    5.449169e-01   7.453691e-03
  2.481237e+00    5.420203e-01   7.434137e-03
  2.483448e+00    5.441650e-01   7.449123e-03
  2.485658e+00    5.522106e-01   7.503847e-03
  2.487869e+00    5.509884e-01   7.495590e-03
  2.490079e+00    5.324737e-01   7.368055e-03
  2.492290e+00    5.436240e-01   7.444363e-03
  2.494500e+00    5.385002e-01   7.408472e-03
  2.496710e+00    5.424134e-01   7.434629e-03
  2.498921e+00    5.463958e-01   7.460880e-03
  2.501131e+00    5.408493e-01   7.421969e-03
  2.503342e+00    5.302142e-01   7.347361e-03
  2.505552e+00    5.387472e-01   7.405102e-03
  2.507763e+00    5.388570e-01   7.404445e-03
  2.509973e+00    5.247045e-01   7.305174e-03
  2.512184e+00    5.218763e-01   7.283834e-03
  2.514394e+00    5.255093e-01   7.299811e-03
  2.516605e+00    5.238827e-01   7.241552e-03
  2.518815e+00    5.268294e-01   7.233548e-03
  2.521025e+00    5.228073e-01   7.184973e-03
  2.523236e+00    5.193949e-01   7.143612e-03
  2.525446e+00    5.185080e-01   7.121997e-03
  2.527657e+00    5.212025e-01   7.125949e-03
  2.529867e+00    5.181427e-01   7.090894e-03
  2.532078e+00    5.407021e-01   7.228363e-03
  2.534288e+00    5.277899e-01   7.127616e-03
  2.536499e+00    5.189403e-01   7.055731e-03
  2.538709e+00    5.310358e-01   7.126411e-03
  2.540920e+00    5.218775e-01   7.054081e-03
  2.543130e+00    5.198659e-01   7.030149e-03
  2.545340e+00    5.095049e-01   6.949816e-03
  2.547551e+00    5.076627e-01   6.927441e-03
  2.549761e+00    5.051849e-01   6.901084e-03
  2.551972e+00    5.078004e-01   6.909707e-03
  2.554182e+00    4.939817e-01   6.806104e-03
  2.556393e+00    5.154051e-01   6.943077e-03
  2.558603e+00    5.036520e-01   6.854537e-03
  2.560814e+00    5.137867e-01   6.914503e-03
  2.563024e+00    5.105628e-01   6.884264e-03
  2.565235e+00    5.220442e-01   6.951700e-03
  2.567445e+00    5.297797e-01   6.993374e-03
  2.569656e+00    5.215547e-01   6.929094e-03
  2.571866e+00    5.241570e-01   6.936949e-03
  2.574076e+00    5.297136e-01   6.964230e-03
  2.576287e+00    5.361784e-01   6.998107e-03
  2.578497e+00    5.321772e-01   6.964001e-03
  2.580708e+00    5.294484e-01   6.937927e-03
  2.582918e+00    5.090559e-01   6.795276e-03
  2.585129e+00    5.013545e-01   6.736036e-03
  2.587339e+00    5.083233e-01   6.775031e-03
  2.589550e+00    5.103597e-01   6.781077e-03
  2.591760e+00    5.055486e-01   6.741339e-03
  2.593971e+00    5.107822e-01   6.768632e-03
  2.596181e+00    5.019447e-01   6.703658e-03
  2.598391e+00    4.939058e-01   6.644658e-03
  2.600602e+00    4.974121e-01   6.662343e-03
  2.602812e+00    5.068640e-01   6.717839e-03
  2.605023e+00    5.086454e-01   6.722466e-03
  2.607233e+00    5.051798e-01   6.692408e-03
  2.609444e+00    5.149608e-01   6.749600e-03
  2.611654e+00    4.997061e-01   6.641610e-03
  2.613865e+00    5.120014e-01   6.715733e-03
  2.616075e+00    5.002452e-01   6.631106e-03
  2.618286e+00    4.995832e-01   6.619745e-03
  2.620496e+00    4.974850e-01   6.599200e-03
  2.622706e+00    4.974692e-01   6.593378e-03
  2.624917e+00    4.998983e-01   6.603644e-03
  2.627127e+00    4.989698e-01   6.591798e-03
  2.629338e+00    4.861533e-01   6.500719e-03
  2.631548e+00    4.890663e-01   6.514072e-03
  2.633759e+00    4.989180e-01   6.572241e-03
  2.635969e+00    4.864851e-01   6.483254e-03
  2.638180e+00    4.797482e-01   6.431372e-03
  2.640390e+00    4.860295e-01   6.466816e-03
  2.642601e+00    5.031548e-01   6.573105e-03
  2.644811e+00    4.888282e-01   6.471847e-03
  2.647021e+00    4.928811e-01   6.492102e-03
  2.649232e+00    4.828013e-01   6.418773e-03
  2.651442e+00    4.975676e-01   6.509692e-03
  2.653653e+00    5.045701e-01   6.548510e-03
  2.655863e+00    5.042814e-01   6.539924e-03
  2.658074e+00    4.901356e-01   6.440992e-03
  2.660284e+00    4.845330e-01   6.397779e-03
  2.662495e+00    5.018132e-01   6.504089e-03
  2.664705e+00    4.827686e-01   6.373008e-03
  2.666916e+00    4.978985e-01   6.465613e-03
  2.669126e+00    4.961382e-01   6.447733e-03
  2.671337e+00    4.844821e-01   6.365028e-03
  2.673547e+00    4.928145e-01   6.413155e-03
  2.675757e+00    4.966326e-01   6.431499e-03
  2.677968e+00    4.930953e-01   6.402039e-03
  2.680178e+00    4.842570e-01   6.338062e-03
  2.682389e+00    4.922379e-01   6.383679e-03
  2.684599e+00    4.979872e-01   6.414643e-03
  2.686810e+00    4.928675e-01   6.374974e-03
  2.689020e+00    4.872373e-01   6.332199e-03
  2.691231e+00    4.743700e-01   6.241840e-03
  2.693441e+00    4.850863e-01   6.305824e-03
  2.695652e+00    4.991943e-01   6.390306e-03
  2.697862e+00    4.934358e-01   6.346974e-03
  2.700072e+00    4.791436e-01   6.248365e-03
  2.702283e+00    4.908007e-01   6.317682e-03
  2.704493e+00    4.846317e-01   6.271606e-03
  2.706704e+00    4.803753e-01   6.237644e-03
  2.708914e+00    4.756027e-01   6.200702e-03
  2.711125e+00    4.775440e-01   6.207138e-03
  2.713335e+00    4.989266e-01   6.338436e-03
  2.715546e+00    4.833138e-01   6.232045e-03
  2.717756e+00    4.771409e-01   6.186283e-03
  2.719967e+00    4.826936e-01   6.215986e-03
  2.722177e+00    4.800565e-01   6.192890e-03
  2.724387e+00    4.768243e-01   6.165962e-03
  2.726598e+00    4.732789e-01   6.137012e-03
  2.728808e+00    4.781641e-01   6.162488e-03
  2.731019e+00    4.763049e-01   6.144443e-03
  2.733229e+00    4.683636e-01   6.087278e-03
  2.735440e+00    4.822654e-01   6.170714e-03
  2.737650e+00    4.770871e-01   6.131511e-03
  2.739861e+00    4.857570e-01   6.180894e-03
  2.742071e+00    4.842177e-01   6.165345e-03
  2.744282e+00    4.754925e-01   6.103340e-03
  2.746492e+00    4.854005e-01   6.160553e-03
  2.748702e+00    4.722053e-01   6.070392e-03
  2.750913e+00    4.726467e-01   6.067491e-03
  2.753123e+00    4.770685e-01   6.089719e-03
  2.755334e+00    4.703000e-01   6.040359e-03
  2.757544e+00    4.708170e-01   6.037995e-03
  2.759755e+00    4.696962e-01   6.024985e-03
  2.761965e+00    4.740745e-01   6.047066e-03
  2.764176e+00    4.573073e-01   5.933315e-03
  2.766386e+00    4.659129e-01   5.983168e-03
  2.768597e+00    4.695872e-01   6.000918e-03
  2.770807e+00    4.782034e-01   6.049852e-03
  2.773017e+00    4.768007e-01   6.035023e-03
  2.775228e+00    4.730057e-01   6.005201e-03
  2.777438e+00    4.690218e-01   5.974110e-03
  2.779649e+00    4.685411e-01   5.965221e-03
  2.781859e+00    4.714288e-01   5.977844e-03
  2.784070e+00    4.702438e-01   5.964503e-03
  2.786280e+00    4.696653e-01   5.955115e-03
  2.788491e+00    4.839038e-01   6.038829e-03
  2.790701e+00    4.660377e-01   5.920732e-03
  2.792912e+00    4.775239e-01   5.987260e-03
  2.795122e+00    4.684329e-01   5.924323e-03
  2.797333e+00    4.635572e-01   5.887916e-03
  2.799543e+00    4.619073e-01   5.871646e-03
  2.801753e+00    4.798858e-01   5.978939e-03
  2.803964e+00    4.722705e-01   5.925671e-03
  2.806174e+00    4.754648e-01   5.939530e-03
  2.808385e+00    4.613851e-01   5.844233e-03
  2.810595e+00    4.673515e-01   5.875071e-03
  2.812806e+00    4.673082e-01   5.868246e-03
  2.815016e+00    4.612648e-01   5.825503e-03
  2.817227e+00    4.624604e-01   5.858649e-03
  2.819437e+00    4.745227e-01   5.945649e-03
  2.821648e+00    4.729493e-01   5.938082e-03
  2.823858e+00    4.693226e-01   5.920586e-03
  2.826068e+00    4.667454e-01   5.909251e-03
  2.828279e+00    4.660390e-01   5.908792e-03
  2.830489e+00    4.783453e-01   5.989644e-03
  2.832700e+00    4.691426e-01   5.934315e-03
  2.834910e+00    4.698397e-01   5.940773e-03
  2.837121e+00    4.816889e-01   6.016949e-03
  2.839331e+00    4.807174e-01   6.012123e-03
  2.841542e+00    4.712380e-01   5.953582e-03
  2.843752e+00    4.691365e-01   5.941043e-03
  2.845963e+00    4.670596e-01   5.928301e-03
  2.848173e+00    4.700616e-01   5.947392e-03
  2.850383e+00    4.749567e-01   5.978586e-03
  2.852594e+00    4.637375e-01   5.907468e-03
  2.854804e+00    4.678769e-01   5.933265e-03
  2.857015e+00    4.681273e-01   5.934428e-03
  2.859225e+00    4.699949e-01   5.946002e-03
  2.861436e+00    4.635366e-01   5.904351e-03
  2.863646e+00    4.689539e-01   5.938794e-03
  2.865857e+00    4.668311e-01   5.925678e-03
  2.868067e+00    4.598311e-01   5.881302e-03
  2.870278e+00    4.647745e-01   5.912482e-03
  2.872488e+00    4.635805e-01   5.903706e-03
  2.874698e+00    4.750248e-01   5.975101e-03
  2.876909e+00    4.559918e-01   5.852844e-03
  2.879119e+00    4.656369e-01   5.912795e-03
  2.881330e+00    4.648162e-01   5.906108e-03
  2.883540e+00    4.466221e-01   5.788005e-03
  2.885751e+00    4.498845e-01   5.807467e-03
  2.887961e+00    4.631423e-01   5.890541e-03
  2.890172e+00    4.592177e-01   5.863920e-03
  2.892382e+00    4.646908e-01   5.896965e-03
  2.894593e+00    4.542677e-01   5.828654e-03
  2.896803e+00    4.626617e-01   5.880260e-03
  2.899014e+00    4.515029e-01   5.807030e-03
  2.901224e+00    4.553081e-01   5.829461e-03
  2.903434e+00    4.639669e-01   5.882686e-03
  2.905645e+00    4.549057e-01   5.822736e-03
  2.907855e+00    4.591354e-01   5.847653e-03
  2.910066e+00    4.605054e-01   5.854280e-03
  2.912276e+00    4.684987e-01   5.902727e-03
  2.914487e+00    4.529535e-01   5.801561e-03
  2.916697e+00    4.483964e-01   5.770070e-03
  2.918908e+00    4.515688e-01   5.788467e-03
  2.921118e+00    4.545186e-01   5.804655e-03
  2.923329e+00    4.438056e-01   5.733571e-03
  2.925539e+00    4.545639e-01   5.800355e-03
  2.927749e+00    4.705305e-01   5.899005e-03
  2.929960e+00    4.575510e-01   5.814311e-03
  2.932170e+00    4.509941e-01   5.770181e-03
  2.934381e+00    4.481229e-01   5.749367e-03
  2.936591e+00    4.604104e-01   5.825050e-03
  2.938802e+00    4.584700e-01   5.810069e-03
  2.941012e+00    4.446485e-01   5.719512e-03
  2.943223e+00    4.525406e-01   5.767348e-03
  2.945433e+00    4.328501e-01   5.636864e-03
  2.947644e+00    4.334826e-01   5.636913e-03
  2.949854e+00    4.581540e-01   5.790826e-03
  2.952064e+00    4.521313e-01   5.748454e-03
  2.954275e+00    4.453064e-01   5.700521e-03
  2.956485e+00    4.480548e-01   5.713935e-03
  2.958696e+00    4.605457e-01   5.788630e-03
  2.960906e+00    4.602349e-01   5.782472e-03
  2.963117e+00    4.609377e-01   5.782372e-03
  2.965327e+00    4.514583e-01   5.718726e-03
  2.967538e+00    4.420065e-01   5.655668e-03
  2.969748e+00    4.393726e-01   5.636011e-03
  2.971959e+00    4.571362e-01   5.745664e-03
  2.974169e+00    4.529323e-01   5.716626e-03
  2.976379e+00    4.539248e-01   5.719955e-03
  2.978590e+00    4.566683e-01   5.734073e-03
  2.980800e+00    4.443282e-01   5.653298e-03
  2.983011e+00    4.600022e-01   5.749332e-03
  2.985221e+00    4.509553e-01   5.689383e-03
  2.987432e+00    4.360470e-01   5.591494e-03
  2.989642e+00    4.330030e-01   5.569381e-03
  2.991853e+00    4.436343e-01   5.634081e-03
  2.994063e+00    4.421906e-01   5.622053e-03
  2.996274e+00    4.446397e-01   5.634428e-03
  2.998484e+00    4.500226e-01   5.665761e-03
  3.000694e+00    4.619857e-01   5.737075e-03
  3.002905e+00    4.567259e-01   5.701388e-03
  3.005115e+00    4.459246e-01   5.630622e-03
  3.007326e+00    4.551617e-01   5.685450e-03
  3.009536e+00    4.466250e-01   5.628688e-03
  3.011747e+00    4.355673e-01   5.555687e-03
  3.013957e+00    4.573981e-01   5.690018e-03
  3.016168e+00    4.416992e-01   5.588309e-03
  3.018378e+00    4.526235e-01   5.653953e-03
  3.020589e+00    4.586242e-01   5.688068e-03
  3.022799e+00    4.535246e-01   5.653206e-03
  3.025010e+00    4.493361e-01   5.623800e-03
  3.027220e+00    4.521985e-01   5.638574e-03
  3.029430e+00    4.626793e-01   5.700263e-03
  3.031641e+00    4.649886e-01   5.711276e-03
  3.033851e+00    4.618654e-01   5.688533e-03
  3.036062e+00    4.641947e-01   5.700022e-03
  3.038272e+00    4.598806e-01   5.669885e-03
  3.040483e+00    4.432046e-01   5.562916e-03
  3.042693e+00    4.402536e-01   5.541162e-03
  3.044904e+00    4.568558e-01   5.640608e-03
  3.047114e+00    4.579563e-01   5.642570e-03
  3.049325e+00    4.506523e-01   5.592989e-03
  3.051535e+00    4.488720e-01   5.577552e-03
  3.053745e+00    4.661403e-01   5.678986e-03
  3.055956e+00    4.676210e-01   5.683351e-03
  3.058166e+00    4.588104e-01   5.625252e-03
  3.060377e+00    4.520978e-01   5.579176e-03
  3.062587e+00    4.416855e-01   5.509961e-03
  3.064798e+00    4.538991e-01   5.581343e-03
  3.067008e+00    4.503157e-01   5.554542e-03
  3.069219e+00    4.383064e-01   5.475534e-03
  3.071429e+00    4.346385e-01   5.449104e-03
  3.073640e+00    4.432676e-01   5.499621e-03
  3.075850e+00    4.557156e-01   5.572702e-03
  3.078060e+00    4.423600e-01   5.487368e-03
  3.080271e+00    4.370196e-01   5.450703e-03
  3.082481e+00    4.430993e-01   5.485062e-03
  3.084692e+00    4.397708e-01   5.461078e-03
  3.086902e+00    4.358765e-01   5.433646e-03
  3.089113e+00    4.535312e-01   5.538994e-03
  3.091323e+00    4.470470e-01   5.495897e-03
  3.093534e+00    4.383444e-01   5.438812e-03
  3.095744e+00    4.329015e-01   5.401591e-03
  3.097955e+00    4.295240e-01   5.377035e-03
  3.100165e+00    4.305032e-01   5.379871e-03
  3.102375e+00    4.373818e-01   5.419298e-03
  3.104586e+00    4.406066e-01   5.435767e-03
  3.106796e+00    4.442740e-01   5.454842e-03
  3.109007e+00    4.497818e-01   5.485321e-03
  3.111217e+00    4.411542e-01   5.428778e-03
  3.113428e+00    4.418454e-01   5.429638e-03
  3.115638e+00    4.401923e-01   5.416243e-03
  3.117849e+00    4.506299e-01   5.476343e-03
  3.120059e+00    4.346399e-01   5.374890e-03
  3.122270e+00    4.443065e-01   5.431062e-03
  3.124480e+00    4.505545e-01   5.465404e-03
  3.126691e+00    4.337939e-01   5.359288e-03
  3.128901e+00    4.348457e-01   5.362677e-03
  3.131111e+00    4.426058e-01   5.406481e-03
  3.133322e+00    4.490562e-01   5.442275e-03
  3.135532e+00    4.476073e-01   5.430067e-03
  3.137743e+00    4.428419e-01   5.397634e-03
  3.139953e+00    4.408282e-01   5.381640e-03
  3.142164e+00    4.401173e-01   5.389309e-03
  3.144374e+00    4.352250e-01   5.387424e-03
  3.146585e+00    4.407747e-01   5.436210e-03
  3.148795e+00    4.335526e-01   5.402152e-03
  3.151006e+00    4.335971e-01   5.410898e-03
  3.153216e+00    4.398517e-01   5.456897e-03
  3.155426e+00    4.536504e-01   5.548245e-03
  3.157637e+00    4.354609e-01   5.441370e-03
  3.159847e+00    4.192089e-01   5.343622e-03
  3.162058e+00    4.325708e-01   5.432484e-03
  3.164268e+00    4.260807e-01   5.395590e-03
  3.166479e+00    4.413886e-01   5.495308e-03
  3.168689e+00    4.342221e-01   5.453870e-03
  3.170900e+00    4.454626e-01   5.527197e-03
  3.173110e+00    4.449466e-01   5.526903e-03
  3.175321e+00    4.313431e-01   5.444215e-03
  3.177531e+00    4.543897e-01   5.590556e-03
  3.179741e+00    4.361515e-01   5.479285e-03
  3.181952e+00    4.422313e-01   5.519476e-03
  3.184162e+00    4.368411e-01   5.487914e-03
  3.186373e+00    4.314914e-01   5.455798e-03
  3.188583e+00    4.307978e-01   5.453181e-03
  3.190794e+00    4.316727e-01   5.460471e-03
  3.193004e+00    4.210846e-01   5.394304e-03
  3.195215e+00    4.319146e-01   5.464706e-03
  3.197425e+00    4.430041e-01   5.535676e-03
  3.199636e+00    4.293171e-01   5.448702e-03
  3.201846e+00    4.259597e-01   5.426751e-03
  3.204056e+00    4.349371e-01   5.484550e-03
  3.206267e+00    4.361548e-01   5.493051e-03
  3.208477e+00    4.367329e-01   5.497631e-03
  3.210688e+00    4.449264e-01   5.549813e-03
  3.212898e+00    4.254079e-01   5.427293e-03
  3.215109e+00    4.270239e-01   5.438329e-03
  3.217319e+00    4.257997e-01   5.431161e-03
  3.219530e+00    4.363499e-01   5.498438e-03
  3.221740e+00    4.232481e-01   5.415800e-03
  3.223951e+00    4.476847e-01   5.570433e-03
  3.226161e+00    4.330646e-01   5.478936e-03
  3.228372e+00    4.208375e-01   5.401540e-03
  3.230582e+00    4.282157e-01   5.448822e-03
  3.232792e+00    4.200426e-01   5.396798e-03
  3.235003e+00    4.276727e-01   5.445838e-03
  3.237213e+00    4.283900e-01   5.450505e-03
  3.239424e+00    4.198738e-01   5.396061e-03
  3.241634e+00    4.178826e-01   5.383381e-03
  3.243845e+00    4.244293e-01   5.425431e-03
  3.246055e+00    4.164869e-01   5.374182e-03
  3.248266e+00    4.160691e-01   5.371668e-03
  3.250476e+00    4.278777e-01   5.447060e-03
  3.252687e+00    4.287977e-01   5.452847e-03
  3.254897e+00    4.223689e-01   5.411685e-03
  3.257107e+00    4.191567e-01   5.390768e-03
  3.259318e+00    4.164754e-01   5.373253e-03
  3.261528e+00    4.163137e-01   5.372077e-03
  3.263739e+00    4.275714e-01   5.443659e-03
  3.265949e+00    4.272688e-01   5.441641e-03
  3.268160e+00    4.095795e-01   5.327371e-03
  3.270370e+00    4.161948e-01   5.369722e-03
  3.272581e+00    4.209825e-01   5.400239e-03
  3.274791e+00    4.252799e-01   5.427216e-03
  3.277002e+00    4.188122e-01   5.385219e-03
  3.279212e+00    4.160352e-01   5.366967e-03
  3.281422e+00    4.239591e-01   5.417240e-03
  3.283633e+00    4.255678e-01   5.426852e-03
  3.285843e+00    4.138679e-01   5.351404e-03
  3.288054e+00    4.217986e-01   5.401479e-03
  3.290264e+00    4.188880e-01   5.382517e-03
  3.292475e+00    4.145193e-01   5.353537e-03
  3.294685e+00    4.210766e-01   5.395072e-03
  3.296896e+00    4.265403e-01   5.429219e-03
  3.299106e+00    4.266379e-01   5.429280e-03
  3.301317e+00    4.260119e-01   5.424263e-03
  3.303527e+00    4.245745e-01   5.414642e-03
  3.305737e+00    4.239285e-01   5.409467e-03
  3.307948e+00    4.220615e-01   5.396889e-03
  3.310158e+00    4.120513e-01   5.331660e-03
  3.312369e+00    4.020633e-01   5.265771e-03
  3.314579e+00    4.142633e-01   5.344172e-03
  3.316790e+00    4.224610e-01   5.396074e-03
  3.319000e+00    4.167351e-01   5.358217e-03
  3.321211e+00    4.100608e-01   5.314537e-03
  3.323421e+00    4.143000e-01   5.340727e-03
  3.325632e+00    4.166585e-01   5.355044e-03
  3.327842e+00    4.090462e-01   5.305000e-03
  3.330052e+00    4.149565e-01   5.342099e-03
  3.332263e+00    4.403462e-01   5.502104e-03
  3.334473e+00    4.066733e-01   5.286650e-03
  3.336684e+00    4.251867e-01   5.404348e-03
  3.338894e+00    4.064059e-01   5.282851e-03
  3.341105e+00    4.073373e-01   5.287692e-03
  3.343315e+00    4.006889e-01   5.243270e-03
  3.345526e+00    4.125162e-01   5.319157e-03
  3.347736e+00    4.142966e-01   5.329255e-03
  3.349947e+00    4.069496e-01   5.280867e-03
  3.352157e+00    4.180544e-01   5.351258e-03
  3.354368e+00    4.339063e-01   5.450459e-03
  3.356578e+00    4.276920e-01   5.410263e-03
  3.358788e+00    4.158237e-01   5.333339e-03
  3.360999e+00    4.127045e-01   5.312057e-03
  3.363209e+00    4.120402e-01   5.306774e-03
  3.365420e+00    4.026491e-01   5.244473e-03
  3.367630e+00    4.083624e-01   5.280513e-03
  3.369841e+00    4.238089e-01   5.378052e-03
  3.372051e+00    4.083534e-01   5.277121e-03
  3.374262e+00    4.184589e-01   5.339541e-03
  3.376472e+00    4.189491e-01   5.340249e-03
  3.378683e+00    4.077257e-01   5.265728e-03
  3.380893e+00    4.174541e-01   5.325845e-03
  3.383103e+00    4.075512e-01   5.259620e-03
  3.385314e+00    4.208362e-01   5.342408e-03
  3.387524e+00    4.114458e-01   5.279765e-03
  3.389735e+00    4.054081e-01   5.238270e-03
  3.391945e+00    4.071790e-01   5.246032e-03
  3.394156e+00    4.122791e-01   5.274584e-03
  3.396366e+00    4.197323e-01   5.318600e-03
  3.398577e+00    4.188901e-01   5.310202e-03
  3.400787e+00    4.073759e-01   5.248568e-03
  3.402998e+00    3.939733e-01   5.198824e-03
  3.405208e+00    3.846996e-01   5.157391e-03
  3.407418e+00    4.047947e-01   5.306214e-03
  3.409629e+00    3.959150e-01   5.261598e-03
  3.411839e+00    3.870183e-01   5.213725e-03
  3.414050e+00    3.945322e-01   5.275030e-03
  3.416260e+00    4.029894e-01   5.341022e-03
  3.418471e+00    3.989974e-01   5.324013e-03
  3.420681e+00    3.841898e-01   5.232686e-03
  3.422892e+00    3.780037e-01   5.198236e-03
  3.425102e+00    3.806009e-01   5.223788e-03
  3.427313e+00    3.801396e-01   5.227739e-03
  3.429523e+00    3.798993e-01   5.233089e-03
  3.431733e+00    3.760891e-01   5.213336e-03
  3.433944e+00    3.832937e-01   5.269540e-03
  3.436154e+00    3.791732e-01   5.247313e-03
  3.438365e+00    3.864665e-01   5.303534e-03
  3.440575e+00    3.701182e-01   5.195988e-03
  3.442786e+00    3.821386e-01   5.285315e-03
  3.444996e+00    3.633374e-01   5.159080e-03
  3.447207e+00    3.375013e-01   4.977270e-03
  3.449417e+00    3.503108e-01   5.110447e-03
  3.451628e+00    3.626658e-01   5.229021e-03
  3.453838e+00    3.575329e-01   5.212742e-03
  3.456049e+00    3.594944e-01   5.250673e-03
  3.458259e+00    3.591589e-01   5.269935e-03
  3.460469e+00    3.681259e-01   5.355152e-03
  3.462680e+00    3.707795e-01   5.393588e-03
  3.464890e+00    3.688480e-01   5.397405e-03
  3.467101e+00    3.606696e-01   5.354528e-03
  3.469311e+00    3.714946e-01   5.450832e-03
  3.471522e+00    3.729162e-01   5.477638e-03
  3.473732e+00    3.859614e-01   5.588683e-03
  3.475943e+00    4.053101e-01   5.743247e-03
  3.478153e+00    3.979537e-01   5.706540e-03
  3.480364e+00    4.098988e-01   5.806972e-03
  3.482574e+00    4.214000e-01   5.903570e-03
  3.484784e+00    4.256250e-01   5.948242e-03
  3.486995e+00    4.321040e-01   6.008719e-03
  3.489205e+00    4.341328e-01   6.037673e-03
  3.491416e+00    4.400139e-01   6.093557e-03
  3.493626e+00    4.548103e-01   6.210105e-03
  3.495837e+00    4.362443e-01   6.096718e-03
  3.498047e+00    4.491843e-01   6.201033e-03
  3.500258e+00    4.545404e-01   6.252516e-03
  3.502468e+00    4.599380e-01   6.304039e-03
  3.504679e+00    4.666486e-01   6.364439e-03
  3.506889e+00    4.777817e-01   6.454540e-03
  3.509099e+00    4.861756e-01   6.525576e-03
  3.511310e+00    4.762580e-01   6.473156e-03
  3.513520e+00    4.822727e-01   6.528292e-03
  3.515731e+00    4.932777e-01   6.616863e-03
  3.517941e+00    4.901541e-01   6.610252e-03
  3.520152e+00    4.905681e-01   6.627277e-03
  3.522362e+00    5.082884e-01   6.760510e-03
  3.524573e+00    5.004939e-01   6.722679e-03
  3.526783e+00    5.008442e-01   6.738248e-03
  3.528994e+00    5.163374e-01   6.853900e-03
  3.531204e+00    5.314680e-01   6.966179e-03
  3.533414e+00    5.260525e-01   6.942722e-03
  3.535625e+00    5.270115e-01   6.961355e-03
  3.537835e+00    5.249934e-01   6.960073e-03
  3.540046e+00    5.385275e-01   7.058145e-03
  3.542256e+00    5.309145e-01   7.015612e-03
  3.544467e+00    5.349287e-01   7.049676e-03
  3.546677e+00    5.332559e-01   7.046204e-03
  3.548888e+00    5.350518e-01   7.065554e-03
  3.551098e+00    5.355185e-01   7.075931e-03
  3.553309e+00    5.306490e-01   7.051793e-03
  3.555519e+00    5.297709e-01   7.057190e-03
  3.557729e+00    5.344737e-01   7.100132e-03
  3.559940e+00    5.441318e-01   7.175671e-03
  3.562150e+00    5.349753e-01   7.126711e-03
  3.564361e+00    5.391222e-01   7.167658e-03
  3.566571e+00    5.273055e-01   7.102384e-03
  3.568782e+00    5.233130e-01   7.089399e-03
  3.570992e+00    5.177575e-01   7.065159e-03
  3.573203e+00    5.216137e-01   7.105386e-03
  3.575413e+00    5.318815e-01   7.188704e-03
  3.577624e+00    5.231453e-01   7.143384e-03
  3.579834e+00    5.238118e-01   7.161632e-03
  3.582045e+00    5.217329e-01   7.161281e-03
  3.584255e+00    5.298173e-01   7.230501e-03
  3.586465e+00    5.421463e-01   7.328158e-03
  3.588676e+00    5.307633e-01   7.264960e-03
  3.590886e+00    5.234364e-01   7.228191e-03
  3.593097e+00    5.138613e-01   7.175949e-03
  3.595307e+00    5.174907e-01   7.214947e-03
  3.597518e+00    5.258620e-01   7.287153e-03
  3.599728e+00    5.385711e-01   7.388806e-03
  3.601939e+00    5.336305e-01   7.368925e-03
  3.604149e+00    5.295871e-01   7.355228e-03
  3.606360e+00    5.465510e-01   7.486444e-03
  3.608570e+00    5.188783e-01   7.308359e-03
  3.610780e+00    5.396494e-01   7.464311e-03
  3.612991e+00    5.348263e-01   7.440915e-03
  3.615201e+00    5.324704e-01   7.434291e-03
  3.617412e+00    5.237793e-01   7.380532e-03
  3.619622e+00    5.398295e-01   7.498757e-03
  3.621833e+00    5.262356e-01   7.410425e-03
  3.624043e+00    5.314385e-01   7.456414e-03
  3.626254e+00    5.196149e-01   7.382597e-03
  3.628464e+00    5.395324e-01   7.533754e-03
  3.630675e+00    5.400883e-01   7.551847e-03
  3.632885e+00    5.280334e-01   7.481487e-03
  3.635095e+00    5.271162e-01   7.489266e-03
  3.637306e+00    5.421767e-01   7.610006e-03
  3.639516e+00    5.272093e-01   7.518674e-03
  3.641727e+00    5.408028e-01   7.629642e-03
  3.643937e+00    5.212154e-01   7.504615e-03
  3.646148e+00    5.190258e-01   7.503230e-03
  3.648358e+00    5.337611e-01   7.623859e-03
  3.650569e+00    5.265458e-01   7.586791e-03
  3.652779e+00    5.287582e-01   7.617439e-03
  3.654990e+00    5.345487e-01   7.673948e-03
  3.657200e+00    5.225356e-01   7.601989e-03
  3.659410e+00    5.319309e-01   7.684980e-03
  3.661621e+00    5.209422e-01   7.620187e-03
  3.663831e+00    5.199908e-01   7.628087e-03
  3.666042e+00    5.474628e-01   7.842463e-03
  3.668252e+00    5.240579e-01   7.688084e-03
  3.670463e+00    5.374776e-01   7.801263e-03
  3.672673e+00    5.142651e-01   7.646098e-03
  3.674884e+00    5.092190e-01   7.623581e-03
  3.677094e+00    5.169914e-01   7.696840e-03
  3.679305e+00    5.334030e-01   7.833660e-03
  3.681515e+00    5.295421e-01   7.820871e-03
  3.683726e+00    5.344384e-01   7.872812e-03
  3.685936e+00    5.338699e-01   7.884390e-03
  3.688146e+00    5.238955e-01   7.826143e-03
  3.690357e+00    5.154940e-01   7.778872e-03
  3.692567e+00    5.320179e-01   7.918766e-03
  3.694778e+00    5.387926e-01   7.985243e-03
  3.696988e+00    5.327464e-01   7.956428e-03
  3.699199e+00    5.138758e-01   7.830285e-03
  3.701409e+00    5.276689e-01   7.951077e-03
  3.703620e+00    5.228328e-01   7.930895e-03
  3.705830e+00    5.040054e-01   7.802805e-03
  3.708041e+00    5.181805e-01   7.928291e-03
  3.710251e+00    5.333847e-01   8.060622e-03
  3.712461e+00    5.105471e-01   7.902757e-03
  3.714672e+00    4.957338e-01   7.803533e-03
  3.716882e+00    5.190930e-01   8.001964e-03
  3.719093e+00    5.239423e-01   8.056434e-03
  3.721303e+00    5.155575e-01   8.008604e-03
  3.723514e+00    5.121110e-01   7.998982e-03
  3.725724e+00    5.195802e-01   8.074246e-03
  3.727935e+00    5.024180e-01   7.956980e-03
  3.730145e+00    5.019204e-01   7.970109e-03
  3.732356e+00    5.203450e-01   8.132664e-03
  3.734566e+00    5.242964e-01   8.181230e-03
  3.736776e+00    4.951399e-01   7.967842e-03
  3.738987e+00    5.138037e-01   8.134387e-03
  3.741197e+00    5.235487e-01   8.229346e-03
  3.743408e+00    5.068100e-01   8.114677e-03
  3.745618e+00    4.987963e-01   8.068323e-03
  3.747829e+00    4.745789e-01   7.887449e-03
  3.750039e+00    4.853593e-01   7.994427e-03
  3.752250e+00    4.898678e-01   8.049508e-03
  3.754460e+00    5.118454e-01   8.246738e-03
  3.756671e+00    5.002573e-01   8.171446e-03
  3.758881e+00    5.005726e-01   8.192496e-03
  3.761091e+00    5.042866e-01   8.241934e-03
  3.763302e+00    5.000235e-01   8.225938e-03
  3.765512e+00    4.970949e-01   8.220853e-03
  3.767723e+00    5.229616e-01   8.451662e-03
  3.769933e+00    5.102870e-01   8.368050e-03
  3.772144e+00    5.088584e-01   8.375976e-03
  3.774354e+00    5.018632e-01   8.337953e-03
  3.776565e+00    4.965539e-01   8.313417e-03
  3.778775e+00    5.020090e-01   8.378844e-03
  3.780986e+00    5.156403e-01   8.512422e-03
  3.783196e+00    4.866413e-01   8.289479e-03
  3.785407e+00    5.088263e-01   8.496820e-03
  3.787617e+00    5.166737e-01   8.583160e-03
  3.789827e+00    5.269465e-01   8.689105e-03
  3.792038e+00    4.994327e-01   8.480038e-03
  3.794248e+00    5.031397e-01   8.532627e-03
  3.796459e+00    4.742333e-01   8.304659e-03
  3.798669e+00    4.837422e-01   8.408514e-03
  3.800880e+00    4.896515e-01   8.480907e-03
  3.803090e+00    5.128053e-01   8.701184e-03
  3.805301e+00    4.971416e-01   8.589384e-03
  3.807511e+00    5.054216e-01   8.682614e-03
  3.809722e+00    4.861221e-01   8.537251e-03
  3.811932e+00    5.018744e-01   8.696690e-03
  3.814142e+00    5.080436e-01   8.773071e-03
  3.816353e+00    5.108140e-01   8.820083e-03
  3.818563e+00    5.037088e-01   8.781702e-03
  3.820774e+00    5.006469e-01   8.778209e-03
  3.822984e+00    5.065933e-01   8.853787e-03
  3.825195e+00    4.944299e-01   8.770501e-03
  3.827405e+00    4.794465e-01   8.659989e-03
  3.829616e+00    4.873694e-01   8.755099e-03
  3.831826e+00    4.815250e-01   8.726186e-03
  3.834037e+00    4.953143e-01   8.874744e-03
  3.836247e+00    4.760873e-01   8.724947e-03
  3.838457e+00    4.867153e-01   8.846576e-03
  3.840668e+00    4.953572e-01   8.949930e-03
  3.842878e+00    4.942384e-01   8.965302e-03
  3.845089e+00    4.842872e-01   8.899833e-03
  3.847299e+00    4.960878e-01   9.033478e-03
  3.849510e+00    4.882853e-01   8.987793e-03
  3.851720e+00    4.818381e-01   8.949398e-03
  3.853931e+00    5.060878e-01   9.191020e-03
  3.856141e+00    5.004805e-01   9.159119e-03
  3.858352e+00    4.872599e-01   9.056414e-03
  3.860562e+00    4.922253e-01   9.121737e-03
  3.862772e+00    4.888094e-01   9.109518e-03
  3.864983e+00    4.886123e-01   9.127213e-03
  3.867193e+00    5.091788e-01   9.337429e-03
  3.869404e+00    4.786727e-01   9.072909e-03
  3.871614e+00    5.070524e-01   9.358266e-03
  3.873825e+00    4.696997e-01   9.026803e-03
  3.876035e+00    4.796368e-01   9.142059e-03
  3.878246e+00    5.047643e-01   9.404561e-03
  3.880456e+00    4.949732e-01   9.342010e-03
  3.882667e+00    4.728487e-01   9.159575e-03
  3.884877e+00    4.860945e-01   9.316524e-03
  3.887087e+00    4.913506e-01   9.396743e-03
  3.889298e+00    4.838469e-01   9.354812e-03
  3.891508e+00    5.003023e-01   9.543322e-03
  3.893719e+00    4.933851e-01   9.508324e-03
  3.895929e+00    5.057435e-01   9.658482e-03
  3.898140e+00    4.960173e-01   9.597108e-03
  3.900350e+00    4.921267e-01   9.591531e-03
  3.902561e+00    4.838734e-01   9.542932e-03
  3.904771e+00    4.786792e-01   9.523995e-03
  3.906982e+00    4.745309e-01   9.515295e-03
  3.909192e+00    5.078526e-01   9.877799e-03
  3.911403e+00    4.866980e-01   9.703869e-03
  3.913613e+00    4.932546e-01   9.803415e-03
  3.915823e+00    4.872996e-01   9.778826e-03
  3.918034e+00    4.622334e-01   9.558325e-03
  3.920244e+00    4.639848e-01   9.611190e-03
  3.922455e+00    5.079910e-01   1.009346e-02
  3.924665e+00    4.989278e-01   1.003985e-02
  3.926876e+00    4.858609e-01   9.944606e-03
  3.929086e+00    4.953594e-01   1.007896e-02
  3.931297e+00    4.705009e-01   9.856956e-03
  3.933507e+00    4.944571e-01   1.013395e-02
  3.935718e+00    5.046638e-01   1.026725e-02
  3.937928e+00    4.913074e-01   1.016012e-02
  3.940138e+00    4.995953e-01   1.027502e-02
  3.942349e+00    4.846624e-01   1.015020e-02
  3.944559e+00    4.751450e-01   1.007969e-02
  3.946770e+00    4.862491e-01   1.022687e-02
  3.948980e+00    4.758735e-01   1.014755e-02
  3.951191e+00    4.761107e-01   1.018065e-02
  3.953401e+00    4.982353e-01   1.044616e-02
  3.955612e+00    4.890452e-01   1.038122e-02
  3.957822e+00    4.777889e-01   1.029236e-02
  3.960033e+00    4.796856e-01   1.034530e-02
  3.962243e+00    4.853753e-01   1.043919e-02
  3.964453e+00    4.881397e-01   1.050207e-02
  3.966664e+00    5.069042e-01   1.073620e-02
  3.968874e+00    4.817369e-01   1.049454e-02
  3.971085e+00    5.045130e-01   1.076215e-02
  3.973295e+00    4.692272e-01   1.040007e-02
  3.975506e+00    4.937202e-01   1.068978e-02
  3.977716e+00    4.765496e-01   1.052415e-02
  3.979927e+00    4.736138e-01   1.051343e-02
  3.982137e+00    4.853321e-01   1.066508e-02
  3.984348e+00    4.863260e-01   1.069852e-02
  3.986558e+00    4.675001e-01   1.051136e-02
  3.988768e+00    4.875768e-01   1.075767e-02
  3.990979e+00    4.684786e-01   1.056731e-02
  3.993189e+00    4.684876e-01   1.059009e-02
  3.995400e+00    4.676245e-01   1.060338e-02
  3.997610e+00    4.953458e-01   1.094333e-02
  3.999821e+00    4.677078e-01   1.067051e-02
  4.002031e+00    5.012838e-01   1.108587e-02
  4.004242e+00    4.763232e-01   1.084456e-02
  4.006452e+00    4.815646e-01   1.094325e-02
  4.008663e+00    5.033076e-01   1.122836e-02
  4.010873e+00    4.841267e-01   1.105231e-02
  4.013084e+00    5.004401e-01   1.127853e-02
  4.015294e+00    4.731176e-01   1.100686e-02
  4.017504e+00    4.772987e-01   1.109698e-02
  4.019715e+00    4.674358e-01   1.102347e-02
  4.021925e+00    4.589559e-01   1.096480e-02
  4.024136e+00    5.024239e-01   1.151687e-02
  4.026346e+00    4.683053e-01   1.116238e-02
  4.028557e+00    4.640874e-01   1.115540e-02
  4.030767e+00    4.673356e-01   1.123919e-02
  4.032978e+00    4.792180e-01   1.142721e-02
  4.035188e+00    4.936549e-01   1.164481e-02
  4.037399e+00    5.006310e-01   1.177522e-02
  4.039609e+00    4.582495e-01   1.131222e-02
  4.041819e+00    4.627172e-01   1.141494e-02
  4.044030e+00    4.768900e-01   1.163791e-02
  4.046240e+00    5.040993e-01   1.201636e-02
  4.048451e+00    4.883948e-01   1.187892e-02
  4.050661e+00    4.567378e-01   1.153757e-02
  4.052872e+00    4.943159e-01   1.205605e-02
  4.055082e+00    4.952120e-01   1.212128e-02
  4.057293e+00    4.793876e-01   1.197953e-02
  4.059503e+00    5.040867e-01   1.234007e-02
  4.061714e+00    4.944904e-01   1.227944e-02
  4.063924e+00    4.503669e-01   1.177369e-02
  4.066134e+00    4.382370e-01   1.166853e-02
  4.068345e+00    4.768779e-01   1.223083e-02
  4.070555e+00    4.754219e-01   1.227102e-02
  4.072766e+00    5.023534e-01   1.267590e-02
  4.074976e+00    4.903376e-01   1.258602e-02
  4.077187e+00    4.424706e-01   1.201519e-02
  4.079397e+00    4.730438e-01   1.248673e-02
  4.081608e+00    5.078518e-01   1.300548e-02
  4.083818e+00    4.554392e-01   1.237998e-02
  4.086029e+00    4.979823e-01   1.301366e-02
  4.088239e+00    4.967871e-01   1.306796e-02
  4.090449e+00    4.694645e-01   1.277243e-02
  4.092660e+00    4.654006e-01   1.278707e-02
  4.094870e+00    4.500712e-01   1.264457e-02
  4.097081e+00    4.141581e-01   1.219604e-02
  4.099291e+00    4.402395e-01   1.262622e-02
  4.101502e+00    4.482873e-01   1.278864e-02
  4.103712e+00    4.741909e-01   1.320192e-02
  4.105923e+00    4.705341e-01   1.320195e-02
  4.108133e+00    4.644463e-01   1.316658e-02
  4.110344e+00    5.261314e-01   1.406754e-02
  4.112554e+00    4.726613e-01   1.338620e-02
  4.114764e+00    5.127296e-01   1.399803e-02
  4.116975e+00    4.812165e-01   1.361461e-02
  4.119185e+00    4.897251e-01   1.378990e-02
  4.121396e+00    4.832481e-01   1.375545e-02
  4.123606e+00    4.604633e-01   1.348190e-02
  4.125817e+00    4.868386e-01   1.392097e-02
  4.128027e+00    4.881819e-01   1.399878e-02
  4.130238e+00    5.025069e-01   1.426377e-02
  4.132448e+00    4.800451e-01   1.400164e-02
  4.134659e+00    4.911169e-01   1.422324e-02
  4.136869e+00    5.030955e-01   1.445982e-02
  4.139080e+00    4.873956e-01   1.429653e-02
  4.141290e+00    5.074427e-01   1.465213e-02
  4.143500e+00    4.556124e-01   1.394800e-02
  4.145711e+00    4.929814e-01   1.457604e-02
  4.147921e+00    4.810473e-01   1.446503e-02
  4.150132e+00    4.714207e-01   1.438777e-02
  4.152342e+00    4.724185e-01   1.447275e-02
  4.154553e+00    4.818968e-01   1.468656e-02
  4.156763e+00    4.562070e-01   1.436072e-02
  4.158974e+00    4.599233e-01   1.449134e-02
  4.161184e+00    4.929742e-01   1.507752e-02
  4.163395e+00    4.876304e-01   1.507202e-02
  4.165605e+00    4.773831e-01   1.499064e-02
  4.167815e+00    4.705674e-01   1.496068e-02
  4.170026e+00    4.698903e-01   1.502868e-02
  4.172236e+00    5.056121e-01   1.567378e-02
  4.174447e+00    4.815918e-01   1.538004e-02
  4.176657e+00    4.645338e-01   1.518802e-02
  4.178868e+00    4.749529e-01   1.544415e-02
  4.181078e+00    4.445629e-01   1.502632e-02
  4.183289e+00    4.369605e-01   1.498227e-02
  4.185499e+00    4.518293e-01   1.532500e-02
  4.187710e+00    4.745488e-01   1.579766e-02
  4.189920e+00    4.878172e-01   1.611334e-02
  4.192130e+00    4.713051e-01   1.593503e-02
  4.194341e+00    4.649315e-01   1.592413e-02
  4.196551e+00    4.942269e-01   1.652187e-02
  4.198762e+00    4.655274e-01   1.613708e-02
  4.200972e+00    4.845439e-01   1.657001e-02
  4.203183e+00    4.083222e-01   1.531094e-02
  4.205393e+00    4.603263e-01   1.636505e-02
  4.207604e+00    4.872978e-01   1.695240e-02
  4.209814e+00    5.221112e-01   1.766811e-02
  4.212025e+00    4.385425e-01   1.630737e-02
  4.214235e+00    4.305520e-01   1.627224e-02
  4.216445e+00    5.005518e-01   1.767241e-02
  4.218656e+00    4.785448e-01   1.740887e-02
  4.220866e+00    5.072830e-01   1.805682e-02
  4.223077e+00    5.317985e-01   1.863038e-02
  4.225287e+00    4.540139e-01   1.734936e-02
  4.227498e+00    4.432962e-01   1.727779e-02
  4.229708e+00    4.483271e-01   1.751666e-02
  4.231919e+00    4.893635e-01   1.845237e-02
  4.234129e+00    4.684776e-01   1.820567e-02
  4.236340e+00    4.559404e-01   1.811433e-02
  4.238550e+00    4.193362e-01   1.752493e-02
  4.240761e+00    5.017847e-01   1.933998e-02
  4.242971e+00    5.061138e-01   1.960124e-02
  4.245181e+00    4.725702e-01   1.911843e-02
  4.247392e+00    4.649747e-01   1.914182e-02
  4.249602e+00    4.351563e-01   1.870137e-02
  4.251813e+00    4.334858e-01   1.884945e-02
  4.254023e+00    4.206222e-01   1.875500e-02
  4.256234e+00    4.320377e-01   1.921043e-02
  4.258444e+00    4.444526e-01   1.968862e-02
  4.260655e+00    4.343464e-01   1.967769e-02
  4.262865e+00    4.620355e-01   2.052550e-02
  4.265076e+00    4.350422e-01   2.014295e-02
  4.267286e+00    4.608621e-01   2.097801e-02
  4.269496e+00    4.679963e-01   2.139791e-02
  4.271707e+00    5.018888e-01   2.243283e-02
  4.273917e+00    5.438436e-01   2.365354e-02
  4.276128e+00    4.411440e-01   2.158653e-02
  4.278338e+00    4.271977e-01   2.152629e-02
  4.280549e+00    4.599292e-01   2.265581e-02
  4.282759e+00    4.949512e-01   2.384065e-02
  4.284970e+00    4.692467e-01   2.355638e-02
  4.287180e+00    4.726518e-01   2.392581e-02
  4.289391e+00    5.215970e-01   2.532218e-02
  4.291601e+00    4.644758e-01   2.408654e-02
  4.293811e+00    4.436562e-01   2.372429e-02
  4.296022e+00    5.478855e-01   2.657574e-02
  4.298232e+00    4.684852e-01   2.478165e-02
  4.300443e+00    4.938239e-01   2.565199e-02
  4.302653e+00    4.706364e-01   2.525983e-02
  4.304864e+00    3.824010e-01   2.296617e-02
  4.307074e+00    4.300060e-01   2.457237e-02
  4.309285e+00    4.577572e-01   2.558352e-02
  4.311495e+00    4.566846e-01   2.579285e-02
  4.313706e+00    4.336704e-01   2.536982e-02
  4.315916e+00    4.515136e-01   2.614145e-02
  4.318126e+00    4.597909e-01   2.664187e-02
  4.320337e+00    4.063298e-01   2.529826e-02
  4.322547e+00    4.603318e-01   2.721224e-02
  4.324758e+00    5.325181e-01   2.957210e-02
  4.326968e+00    5.200680e-01   2.955417e-02
  4.329179e+00    4.707815e-01   2.842892e-02
  4.331389e+00    3.554407e-01   2.498661e-02
  4.333600e+00    4.696836e-01   2.906490e-02
  4.335810e+00    3.954283e-01   2.698744e-02
  4.338021e+00    3.707014e-01   2.646328e-02
  4.340231e+00    4.126923e-01   2.827260e-02
  4.342442e+00    4.667769e-01   3.047186e-02
  4.344652e+00    4.172931e-01   2.920159e-02
  4.346862e+00    4.562971e-01   3.096430e-02
  4.349073e+00    4.576736e-01   3.146286e-02
  4.351283e+00    3.956940e-01   2.969093e-02
  4.353494e+00    5.248680e-01   3.472526e-02
  4.355704e+00    4.145263e-01   3.135616e-02
  4.357915e+00    4.399112e-01   3.284016e-02
  4.360125e+00    3.958987e-01   3.168475e-02
  4.362336e+00    4.914728e-01   3.594719e-02
  4.364546e+00    4.553333e-01   3.523039e-02
  4.366757e+00    3.524952e-01   3.161410e-02
  4.368967e+00    4.568687e-01   3.670885e-02
  4.371177e+00    4.914421e-01   3.888213e-02
  4.373388e+00    3.869559e-01   3.527313e-02
  4.375598e+00    4.431338e-01   3.860815e-02
  4.377809e+00    4.666924e-01   4.062454e-02
  4.380019e+00    3.304938e-01   3.504616e-02
  4.382230e+00    2.815165e-01   3.324832e-02
  4.384440e+00    2.944861e-01   3.498241e-02
  4.386651e+00    5.319148e-01   4.846539e-02
  4.388861e+00    4.333199e-01   4.521200e-02
  4.391072e+00    4.032570e-01   4.514910e-02
  4.393282e+00    4.517311e-01   4.963310e-02
  4.395492e+00    4.583104e-01   5.206870e-02
  4.397703e+00    4.659434e-01   5.490385e-02
  4.399913e+00    2.122449e-01   3.892849e-02
  4.402124e+00    3.412245e-01   5.216031e-02
  4.404334e+00    2.387104e-01   4.637180e-02
  4.406545e+00    2.156385e-01   4.735905e-02
  4.408755e+00    3.182294e-01   6.238549e-02
  4.410966e+00    2.769929e-01   6.442183e-02
  4.413176e+00    3.406378e-01   8.087032e-02
  4.415387e+00   -2.901786e-01            nan
  4.417597e+00   -2.011696e+00            nan
  4.419807e+00   -3.766224e-01            nan
