# == pyFAI calibration ==
# Distance Sample to Detector: 0.216 m
# PONI: 1.166e-01, 1.308e-01 m
# Rotations: 0.000000 0.000000 0.000000 rad
# 
# == Fit2d calibration ==
# Distance Sample-beamCenter: 216.000 mm
# Center: x=1744.293, y=1555.000 pix
# Tilt: 0.000 deg  TiltPlanRot: 0.000 deg
# 
# Detector Eiger 9M	 PixelSize= 7.500e-05, 7.500e-05 m
#    Detector has a mask: True 
#    Detector has a dark current: False 
#    detector has a flat field: False 
# 
# Wavelength: 9.8e-11 m
# Mask applied: from detector
# Dark current applied: False
# Flat field applied: False
# Polarization factor: None
# Normalization factor: 1.0
# 
# Headers of the input frame:
# {
# "_array_data.header_convention": "SLS_1.0",
# "_array_data.header_contents": "# Detector: Dectris Eiger 9M, S/N E-18-0102\r\n# Pixel_size 75e-6 m x 75e-6 m\r\n# Silicon sensor, thickness 0.000450 m\r\n# Exposure_time 0.024997 s\r\n# Exposure_period 0.025000 s\r\n# Count_cutoff 62318 counts\r\n# Wavelength 0.980106 A\r\n# Detector_distance 0.215992 m\r\n# Beam_xy (1555, 1744) pixels\r\n# Start_angle 0.000000 deg.\r\n# Angle_increment 0.000000 deg.",
# "Content-Type": "application/octet-stream;",
# "conversions": "x-CBF_BYTE_OFFSET",
# "Content-Transfer-Encoding": "BINARY",
# "X-Binary-Size": "10166598",
# "X-Binary-ID": "1",
# "X-Binary-Element-Type": "signed 32-bit integer",
# "X-Binary-Element-Byte-Order": "LITTLE_ENDIAN",
# "Content-MD5": "9C8KPp3wll2bKoSdDNDxpg==",
# "X-Binary-Number-of-Elements": "10166590",
# "X-Binary-Size-Fastest-Dimension": "3110",
# "X-Binary-Size-Second-Dimension": "3269",
# "X-Binary-Size-Padding": "4095"
# }
# --> H:/Proxima2a_2019-04-05/RAW_DATA/C5_gel17_position5/C5_mesh_1_data.cbf/C5_mesh_1_data.cbf000114.dat
#        q_A^-1              I           sigma 
  1.105228e-03    1.107680e+00   5.695006e-01
  3.315685e-03    1.240567e+00   3.664000e-01
  5.526141e-03    1.482727e+00   3.097439e-01
  7.736597e-03    1.172267e+00   2.326662e-01
  9.947054e-03    1.273649e+00   2.137969e-01
  1.215751e-02    1.270694e+00   1.931030e-01
  1.436797e-02    1.451569e+00   1.898430e-01
  1.657842e-02    1.414342e+00   1.744302e-01
  1.878888e-02    1.357823e+00   1.605407e-01
  2.099934e-02    1.277475e+00   1.473256e-01
  2.320979e-02    1.373097e+00   1.452725e-01
  2.542025e-02    1.255556e+00   1.327479e-01
  2.763070e-02    1.307717e+00   1.299413e-01
  2.984116e-02    1.482786e+00   1.331422e-01
  3.205162e-02    1.507292e+00   1.295343e-01
  3.426207e-02    1.436400e+00   1.222961e-01
  3.647253e-02    1.294111e+00   1.125060e-01
  3.868299e-02    1.442076e+00   1.153293e-01
  4.089344e-02    1.532639e+00   1.156380e-01
  4.310390e-02    1.597308e+00   1.149789e-01
  4.531436e-02    1.324604e+00   1.021195e-01
  4.752481e-02    1.439538e+00   1.039514e-01
  4.973527e-02    1.464924e+00   1.025084e-01
  5.194572e-02    1.379471e+00   9.733278e-02
  5.415618e-02    1.405838e+00   9.622911e-02
  5.636664e-02    1.372576e+00   9.320377e-02
  5.857709e-02    1.361310e+00   9.105276e-02
  6.078755e-02    1.456035e+00   9.243644e-02
  6.299801e-02    1.403015e+00   8.913075e-02
  6.520846e-02    1.366562e+00   8.646204e-02
  6.741892e-02    1.433268e+00   8.707903e-02
  6.962938e-02    1.444608e+00   8.602831e-02
  7.183983e-02    1.500983e+00   8.632963e-02
  7.405029e-02    1.384269e+00   8.165664e-02
  7.626074e-02    1.398992e+00   8.089057e-02
  7.847120e-02    1.411205e+00   8.008831e-02
  8.068166e-02    1.438683e+00   7.974818e-02
  8.289211e-02    1.461540e+00   7.929978e-02
  8.510257e-02    1.513913e+00   7.965259e-02
  8.731303e-02    1.493411e+00   7.810061e-02
  8.952348e-02    1.433009e+00   7.555652e-02
  9.173394e-02    1.491525e+00   7.614636e-02
  9.394439e-02    1.434401e+00   7.378782e-02
  9.615485e-02    1.513816e+00   7.492492e-02
  9.836531e-02    1.521520e+00   7.426450e-02
  1.005758e-01    1.490410e+00   7.268960e-02
  1.027862e-01    1.548033e+00   7.327873e-02
  1.049967e-01    1.532834e+00   7.214522e-02
  1.072071e-01    1.489372e+00   7.037727e-02
  1.094176e-01    1.500805e+00   6.992856e-02
  1.116280e-01    1.509943e+00   6.944163e-02
  1.138385e-01    1.571837e+00   7.015797e-02
  1.160490e-01    1.559504e+00   6.921263e-02
  1.182594e-01    1.556591e+00   6.849715e-02
  1.204699e-01    1.635424e+00   6.956261e-02
  1.226803e-01    1.612084e+00   6.843659e-02
  1.248908e-01    1.493389e+00   6.528269e-02
  1.271012e-01    1.559612e+00   6.613047e-02
  1.293117e-01    1.576334e+00   6.591250e-02
  1.315222e-01    1.616440e+00   6.618096e-02
  1.337326e-01    1.556375e+00   6.439953e-02
  1.359431e-01    1.570815e+00   6.473549e-02
  1.381535e-01    1.543128e+00   6.502368e-02
  1.403640e-01    1.593428e+00   6.636024e-02
  1.425744e-01    1.537467e+00   6.528866e-02
  1.447849e-01    1.590842e+00   6.642758e-02
  1.469953e-01    1.589065e+00   6.634889e-02
  1.492058e-01    1.632602e+00   6.717351e-02
  1.514163e-01    1.590071e+00   6.618268e-02
  1.536267e-01    1.594659e+00   6.614871e-02
  1.558372e-01    1.529989e+00   6.465046e-02
  1.580476e-01    1.570685e+00   6.534569e-02
  1.602581e-01    1.575397e+00   6.527743e-02
  1.624685e-01    1.587489e+00   6.534804e-02
  1.646790e-01    1.623480e+00   6.589492e-02
  1.668895e-01    1.638024e+00   6.599827e-02
  1.690999e-01    1.691652e+00   6.686851e-02
  1.713104e-01    1.860723e+00   6.991289e-02
  1.735208e-01    1.872878e+00   6.992276e-02
  1.757313e-01    1.841687e+00   6.912076e-02
  1.779417e-01    1.841027e+00   6.888299e-02
  1.801522e-01    1.821949e+00   6.830690e-02
  1.823626e-01    1.843078e+00   6.847312e-02
  1.845731e-01    1.852317e+00   6.842218e-02
  1.867836e-01    1.931808e+00   6.963907e-02
  1.889940e-01    1.923298e+00   6.925847e-02
  1.912045e-01    1.917370e+00   6.892073e-02
  1.934149e-01    1.900909e+00   6.839456e-02
  1.956254e-01    1.958044e+00   6.918586e-02
  1.978358e-01    1.980302e+00   6.933954e-02
  2.000463e-01    2.024187e+00   6.987134e-02
  2.022568e-01    2.033988e+00   6.981039e-02
  2.044672e-01    2.044141e+00   6.974466e-02
  2.066777e-01    1.959249e+00   6.805446e-02
  2.088881e-01    1.905835e+00   6.690078e-02
  2.110986e-01    1.921269e+00   6.694077e-02
  2.133090e-01    1.977122e+00   6.768605e-02
  2.155195e-01    1.994339e+00   6.775464e-02
  2.177300e-01    1.887473e+00   6.539653e-02
  2.199404e-01    1.926320e+00   6.432522e-02
  2.221509e-01    1.994916e+00   6.438563e-02
  2.243613e-01    2.007166e+00   6.376428e-02
  2.265718e-01    2.015545e+00   6.319295e-02
  2.287822e-01    2.109826e+00   6.401410e-02
  2.309927e-01    2.083686e+00   6.303679e-02
  2.332031e-01    2.077229e+00   6.240035e-02
  2.354136e-01    2.122365e+00   6.256344e-02
  2.376241e-01    2.139954e+00   6.233454e-02
  2.398345e-01    2.129782e+00   6.172599e-02
  2.420450e-01    2.156805e+00   6.167242e-02
  2.442554e-01    2.148906e+00   6.113529e-02
  2.464659e-01    2.144454e+00   6.066191e-02
  2.486763e-01    2.051790e+00   5.894676e-02
  2.508868e-01    2.114738e+00   5.946663e-02
  2.530973e-01    2.203220e+00   6.032164e-02
  2.553077e-01    2.050335e+00   5.783816e-02
  2.575182e-01    1.998914e+00   5.677037e-02
  2.597286e-01    2.120724e+00   5.813462e-02
  2.619391e-01    2.083495e+00   5.729037e-02
  2.641495e-01    2.072895e+00   5.682814e-02
  2.663600e-01    2.078465e+00   5.659153e-02
  2.685704e-01    2.016759e+00   5.544297e-02
  2.707809e-01    2.010704e+00   5.506583e-02
  2.729914e-01    2.040386e+00   5.518169e-02
  2.752018e-01    2.060729e+00   5.516748e-02
  2.774123e-01    2.017351e+00   5.430491e-02
  2.796227e-01    2.058816e+00   5.458881e-02
  2.818332e-01    2.094177e+00   5.478096e-02
  2.840436e-01    1.936020e+00   5.241648e-02
  2.862541e-01    1.916819e+00   5.190514e-02
  2.884646e-01    1.945115e+00   5.203872e-02
  2.906750e-01    1.917331e+00   5.142075e-02
  2.928855e-01    1.928717e+00   5.133424e-02
  2.950959e-01    1.887532e+00   5.054992e-02
  2.973064e-01    1.903725e+00   5.053812e-02
  2.995168e-01    1.836759e+00   4.941647e-02
  3.017273e-01    1.868541e+00   4.962241e-02
  3.039377e-01    1.835283e+00   4.896349e-02
  3.061482e-01    1.871441e+00   4.922957e-02
  3.083587e-01    1.854291e+00   4.879137e-02
  3.105691e-01    1.905930e+00   4.925478e-02
  3.127796e-01    1.932643e+00   4.939026e-02
  3.149900e-01    1.846455e+00   4.807525e-02
  3.172005e-01    1.843091e+00   4.783503e-02
  3.194109e-01    1.848143e+00   4.770279e-02
  3.216214e-01    1.924573e+00   4.848054e-02
  3.238319e-01    1.880469e+00   4.773199e-02
  3.260423e-01    1.868863e+00   4.739491e-02
  3.282528e-01    1.898195e+00   4.757525e-02
  3.304632e-01    1.807121e+00   4.624009e-02
  3.326737e-01    1.787875e+00   4.581373e-02
  3.348841e-01    1.812474e+00   4.594895e-02
  3.370946e-01    1.851018e+00   4.626025e-02
  3.393050e-01    1.873100e+00   4.635908e-02
  3.415155e-01    1.897370e+00   4.648303e-02
  3.437260e-01    1.866212e+00   4.592892e-02
  3.459364e-01    1.868574e+00   4.578796e-02
  3.481469e-01    1.782497e+00   4.455768e-02
  3.503573e-01    1.826542e+00   4.494050e-02
  3.525678e-01    1.847435e+00   4.503572e-02
  3.547782e-01    1.854709e+00   4.496121e-02
  3.569887e-01    1.835480e+00   4.456906e-02
  3.591992e-01    1.856051e+00   4.465951e-02
  3.614096e-01    1.852027e+00   4.445641e-02
  3.636201e-01    1.833950e+00   4.408346e-02
  3.658305e-01    1.706132e+00   4.237448e-02
  3.680410e-01    1.783046e+00   4.317006e-02
  3.702514e-01    1.838032e+00   4.368327e-02
  3.724619e-01    1.763406e+00   4.264160e-02
  3.746724e-01    1.746012e+00   4.228920e-02
  3.768828e-01    1.740812e+00   4.208408e-02
  3.790933e-01    1.697122e+00   4.141722e-02
  3.813037e-01    1.712903e+00   4.147319e-02
  3.835142e-01    1.747163e+00   4.174834e-02
  3.857246e-01    1.718129e+00   4.126600e-02
  3.879351e-01    1.735283e+00   4.133729e-02
  3.901455e-01    1.715482e+00   4.096990e-02
  3.923560e-01    1.784881e+00   4.165757e-02
  3.945665e-01    1.804759e+00   4.175606e-02
  3.967769e-01    1.811790e+00   4.170630e-02
  3.989874e-01    1.771148e+00   4.110713e-02
  4.011978e-01    1.772189e+00   4.099274e-02
  4.034083e-01    1.745182e+00   4.055431e-02
  4.056187e-01    1.767013e+00   4.068145e-02
  4.078292e-01    1.806751e+00   4.101188e-02
  4.100397e-01    1.798782e+00   4.079636e-02
  4.122501e-01    1.815567e+00   4.086367e-02
  4.144606e-01    1.813438e+00   4.071859e-02
  4.166710e-01    1.746630e+00   3.984268e-02
  4.188815e-01    1.789466e+00   4.020916e-02
  4.210919e-01    1.843346e+00   4.069041e-02
  4.233024e-01    1.783725e+00   3.990924e-02
  4.255128e-01    1.801438e+00   3.999096e-02
  4.277233e-01    1.809952e+00   3.997019e-02
  4.299338e-01    1.759637e+00   3.929729e-02
  4.321442e-01    1.799223e+00   3.962317e-02
  4.343547e-01    1.724993e+00   3.868748e-02
  4.365651e-01    1.749540e+00   3.885107e-02
  4.387756e-01    1.771421e+00   3.898381e-02
  4.409860e-01    1.734896e+00   3.847293e-02
  4.431965e-01    1.708214e+00   3.807039e-02
  4.454070e-01    1.702907e+00   3.790544e-02
  4.476174e-01    1.715274e+00   3.793838e-02
  4.498279e-01    1.736314e+00   3.806648e-02
  4.520383e-01    1.738272e+00   3.798343e-02
  4.542488e-01    1.719780e+00   3.767898e-02
  4.564592e-01    1.694583e+00   3.730160e-02
  4.586697e-01    1.693555e+00   3.719131e-02
  4.608801e-01    1.661268e+00   3.673642e-02
  4.630906e-01    1.683694e+00   3.688560e-02
  4.653011e-01    1.742458e+00   3.742509e-02
  4.675115e-01    1.724621e+00   3.713500e-02
  4.697220e-01    1.706043e+00   3.683774e-02
  4.719324e-01    1.734238e+00   3.704482e-02
  4.741429e-01    1.674108e+00   3.630318e-02
  4.763533e-01    1.698225e+00   3.646998e-02
  4.785638e-01    1.689561e+00   3.628286e-02
  4.807743e-01    1.683122e+00   3.612155e-02
  4.829847e-01    1.789422e+00   3.715064e-02
  4.851952e-01    1.793966e+00   3.710368e-02
  4.874056e-01    1.784093e+00   3.690814e-02
  4.896161e-01    1.757217e+00   3.653825e-02
  4.918265e-01    1.782643e+00   3.671024e-02
  4.940370e-01    1.775110e+00   3.654218e-02
  4.962475e-01    1.719343e+00   3.587477e-02
  4.984579e-01    1.691611e+00   3.549657e-02
  5.006684e-01    1.727087e+00   3.577940e-02
  5.028788e-01    1.681784e+00   3.522149e-02
  5.050893e-01    1.665174e+00   3.496186e-02
  5.072997e-01    1.670066e+00   3.492862e-02
  5.095102e-01    1.657726e+00   3.471599e-02
  5.117206e-01    1.661513e+00   3.467297e-02
  5.139311e-01    1.675340e+00   3.473455e-02
  5.161416e-01    1.679147e+00   3.469182e-02
  5.183520e-01    1.675058e+00   3.456721e-02
  5.205625e-01    1.651084e+00   3.423857e-02
  5.227729e-01    1.654983e+00   3.419901e-02
  5.249834e-01    1.677396e+00   3.434988e-02
  5.271938e-01    1.709509e+00   3.459619e-02
  5.294043e-01    1.729095e+00   3.471354e-02
  5.316148e-01    1.766443e+00   3.500607e-02
  5.338252e-01    1.790549e+00   3.516358e-02
  5.360357e-01    1.754744e+00   3.473098e-02
  5.382461e-01    1.740196e+00   3.450851e-02
  5.404566e-01    1.769940e+00   3.472300e-02
  5.426670e-01    1.708287e+00   3.403600e-02
  5.448775e-01    1.718208e+00   3.405844e-02
  5.470879e-01    1.737458e+00   3.417231e-02
  5.492984e-01    1.733365e+00   3.405613e-02
  5.515089e-01    1.755407e+00   3.419599e-02
  5.537193e-01    1.727679e+00   3.385008e-02
  5.559298e-01    1.754621e+00   3.403817e-02
  5.581402e-01    1.785614e+00   3.426244e-02
  5.603507e-01    1.785252e+00   3.418443e-02
  5.625611e-01    1.798407e+00   3.423568e-02
  5.647716e-01    1.771821e+00   3.390791e-02
  5.669821e-01    1.790000e+00   3.400794e-02
  5.691925e-01    1.775267e+00   3.379500e-02
  5.714030e-01    1.729588e+00   3.328626e-02
  5.736134e-01    1.719587e+00   3.311929e-02
  5.758239e-01    1.687049e+00   3.273443e-02
  5.780343e-01    1.737124e+00   3.314641e-02
  5.802448e-01    1.715982e+00   3.287515e-02
  5.824552e-01    1.662754e+00   3.229336e-02
  5.846657e-01    1.630166e+00   3.190866e-02
  5.868762e-01    1.620039e+00   3.174318e-02
  5.890866e-01    1.670962e+00   3.217132e-02
  5.912971e-01    1.649884e+00   3.190160e-02
  5.935075e-01    1.636557e+00   3.170681e-02
  5.957180e-01    1.625993e+00   3.153948e-02
  5.979284e-01    1.627122e+00   3.148601e-02
  6.001389e-01    1.664246e+00   3.177833e-02
  6.023494e-01    1.646441e+00   3.154372e-02
  6.045598e-01    1.621151e+00   3.123678e-02
  6.067703e-01    1.687901e+00   3.180926e-02
  6.089807e-01    1.700114e+00   3.185998e-02
  6.111912e-01    1.681504e+00   3.162184e-02
  6.134016e-01    1.663430e+00   3.138872e-02
  6.156121e-01    1.654067e+00   3.123801e-02
  6.178226e-01    1.694130e+00   3.155150e-02
  6.200330e-01    1.662022e+00   3.118940e-02
  6.222435e-01    1.716685e+00   3.163537e-02
  6.244539e-01    1.714293e+00   3.155144e-02
  6.266644e-01    1.687095e+00   3.123909e-02
  6.288748e-01    1.689182e+00   3.119757e-02
  6.310853e-01    1.680611e+00   3.105789e-02
  6.332957e-01    1.700633e+00   3.118202e-02
  6.355062e-01    1.728290e+00   3.137350e-02
  6.377167e-01    1.703717e+00   3.108989e-02
  6.399271e-01    1.673830e+00   3.075695e-02
  6.421376e-01    1.701839e+00   3.095401e-02
  6.443480e-01    1.730236e+00   3.115183e-02
  6.465585e-01    1.676884e+00   3.060969e-02
  6.487689e-01    1.688889e+00   3.066105e-02
  6.509794e-01    1.634256e+00   3.010418e-02
  6.531899e-01    1.636089e+00   3.006440e-02
  6.554003e-01    1.586413e+00   2.954881e-02
  6.576108e-01    1.607826e+00   2.969217e-02
  6.598212e-01    1.621293e+00   2.976087e-02
  6.620317e-01    1.630270e+00   2.978783e-02
  6.642421e-01    1.619742e+00   2.963655e-02
  6.664526e-01    1.589495e+00   2.930446e-02
  6.686630e-01    1.579678e+00   2.915978e-02
  6.708735e-01    1.605869e+00   2.934661e-02
  6.730840e-01    1.638853e+00   2.959240e-02
  6.752944e-01    1.616556e+00   2.933697e-02
  6.775049e-01    1.603571e+00   2.916585e-02
  6.797153e-01    1.617792e+00   2.924183e-02
  6.819258e-01    1.597747e+00   2.900772e-02
  6.841362e-01    1.602429e+00   2.899793e-02
  6.863467e-01    1.579890e+00   2.874172e-02
  6.885572e-01    1.578524e+00   2.867780e-02
  6.907676e-01    1.575181e+00   2.859610e-02
  6.929781e-01    1.560113e+00   2.840841e-02
  6.951885e-01    1.548885e+00   2.825586e-02
  6.973990e-01    1.579717e+00   2.848525e-02
  6.996094e-01    1.572378e+00   2.836901e-02
  7.018199e-01    1.561388e+00   2.822007e-02
  7.040303e-01    1.593188e+00   2.845592e-02
  7.062408e-01    1.611171e+00   2.856593e-02
  7.084513e-01    1.626106e+00   2.864814e-02
  7.106617e-01    1.569377e+00   2.809508e-02
  7.128722e-01    1.573011e+00   2.807891e-02
  7.150826e-01    1.575032e+00   2.804852e-02
  7.172931e-01    1.577205e+00   2.801946e-02
  7.195035e-01    1.553405e+00   2.775947e-02
  7.217140e-01    1.549866e+00   2.777687e-02
  7.239245e-01    1.558930e+00   2.808358e-02
  7.261349e-01    1.568467e+00   2.827775e-02
  7.283454e-01    1.583029e+00   2.848132e-02
  7.305558e-01    1.558411e+00   2.831271e-02
  7.327663e-01    1.572512e+00   2.848296e-02
  7.349767e-01    1.544875e+00   2.824781e-02
  7.371872e-01    1.545291e+00   2.824050e-02
  7.393976e-01    1.555243e+00   2.831713e-02
  7.416081e-01    1.533327e+00   2.810096e-02
  7.438186e-01    1.531710e+00   2.794378e-02
  7.460290e-01    1.572049e+00   2.801535e-02
  7.482395e-01    1.584321e+00   2.795281e-02
  7.504499e-01    1.545914e+00   2.747689e-02
  7.526604e-01    1.563829e+00   2.751949e-02
  7.548708e-01    1.531909e+00   2.714899e-02
  7.570813e-01    1.544044e+00   2.720583e-02
  7.592918e-01    1.529427e+00   2.704209e-02
  7.615022e-01    1.567543e+00   2.734324e-02
  7.637127e-01    1.567604e+00   2.731108e-02
  7.659231e-01    1.524664e+00   2.690294e-02
  7.681336e-01    1.548384e+00   2.708005e-02
  7.703440e-01    1.577084e+00   2.729864e-02
  7.725545e-01    1.557157e+00   2.709491e-02
  7.747650e-01    1.598276e+00   2.741183e-02
  7.769754e-01    1.594829e+00   2.732925e-02
  7.791859e-01    1.554790e+00   2.693086e-02
  7.813963e-01    1.565831e+00   2.697395e-02
  7.836068e-01    1.550923e+00   2.679378e-02
  7.858172e-01    1.591994e+00   2.709547e-02
  7.880277e-01    1.611681e+00   2.721065e-02
  7.902381e-01    1.624854e+00   2.727199e-02
  7.924486e-01    1.570108e+00   2.675896e-02
  7.946591e-01    1.588903e+00   2.687049e-02
  7.968695e-01    1.596518e+00   2.688665e-02
  7.990800e-01    1.587598e+00   2.676349e-02
  8.012904e-01    1.622840e+00   2.701211e-02
  8.035009e-01    1.616789e+00   2.691374e-02
  8.057113e-01    1.629012e+00   2.696855e-02
  8.079218e-01    1.646992e+00   2.707020e-02
  8.101323e-01    1.578081e+00   2.645285e-02
  8.123427e-01    1.599053e+00   2.658261e-02
  8.145532e-01    1.644193e+00   2.690910e-02
  8.167636e-01    1.637729e+00   2.681100e-02
  8.189741e-01    1.616235e+00   2.659007e-02
  8.211845e-01    1.617111e+00   2.655270e-02
  8.233950e-01    1.637953e+00   2.667980e-02
  8.256054e-01    1.610040e+00   2.640769e-02
  8.278159e-01    1.584495e+00   2.615407e-02
  8.300264e-01    1.670380e+00   2.681004e-02
  8.322368e-01    1.643177e+00   2.654767e-02
  8.344473e-01    1.656173e+00   2.660883e-02
  8.366577e-01    1.624033e+00   2.630701e-02
  8.388682e-01    1.605687e+00   2.611616e-02
  8.410786e-01    1.613510e+00   2.613799e-02
  8.432891e-01    1.597318e+00   2.596520e-02
  8.454996e-01    1.617909e+00   2.609065e-02
  8.477100e-01    1.621978e+00   2.608199e-02
  8.499205e-01    1.619775e+00   2.602335e-02
  8.521309e-01    1.630170e+00   2.606600e-02
  8.543414e-01    1.578191e+00   2.560707e-02
  8.565518e-01    1.586675e+00   2.563581e-02
  8.587623e-01    1.614310e+00   2.581785e-02
  8.609727e-01    1.605284e+00   2.570564e-02
  8.631832e-01    1.590909e+00   2.555083e-02
  8.653937e-01    1.620889e+00   2.575081e-02
  8.676041e-01    1.598226e+00   2.553161e-02
  8.698146e-01    1.596979e+00   2.548260e-02
  8.720250e-01    1.587968e+00   2.537190e-02
  8.742355e-01    1.582014e+00   2.528573e-02
  8.764459e-01    1.582771e+00   2.525320e-02
  8.786564e-01    1.596899e+00   2.532783e-02
  8.808669e-01    1.590848e+00   2.524149e-02
  8.830773e-01    1.596150e+00   2.524544e-02
  8.852878e-01    1.588602e+00   2.514792e-02
  8.874982e-01    1.569745e+00   2.496195e-02
  8.897087e-01    1.597192e+00   2.514159e-02
  8.919191e-01    1.564928e+00   2.484904e-02
  8.941296e-01    1.555931e+00   2.474072e-02
  8.963401e-01    1.570606e+00   2.482104e-02
  8.985505e-01    1.558685e+00   2.469018e-02
  9.007610e-01    1.580843e+00   2.482854e-02
  9.029714e-01    1.586433e+00   2.483670e-02
  9.051819e-01    1.581131e+00   2.475818e-02
  9.073923e-01    1.579668e+00   2.471037e-02
  9.096028e-01    1.570098e+00   2.460083e-02
  9.118132e-01    1.564899e+00   2.452423e-02
  9.140237e-01    1.601543e+00   2.477307e-02
  9.162342e-01    1.595141e+00   2.468900e-02
  9.184446e-01    1.616407e+00   2.481708e-02
  9.206551e-01    1.628814e+00   2.487625e-02
  9.228655e-01    1.593333e+00   2.456863e-02
  9.250760e-01    1.624397e+00   2.477136e-02
  9.272864e-01    1.618422e+00   2.469135e-02
  9.294969e-01    1.625138e+00   2.470645e-02
  9.317074e-01    1.631624e+00   2.472074e-02
  9.339178e-01    1.617421e+00   2.457929e-02
  9.361283e-01    1.635162e+00   2.467728e-02
  9.383387e-01    1.626420e+00   2.457776e-02
  9.405492e-01    1.632046e+00   2.458585e-02
  9.427596e-01    1.625124e+00   2.449835e-02
  9.449701e-01    1.648349e+00   2.463924e-02
  9.471805e-01    1.686310e+00   2.488605e-02
  9.493910e-01    1.659645e+00   2.465464e-02
  9.516015e-01    1.668264e+00   2.468405e-02
  9.538119e-01    1.684786e+00   2.477200e-02
  9.560224e-01    1.709661e+00   2.491907e-02
  9.582328e-01    1.715231e+00   2.492615e-02
  9.604433e-01    1.734513e+00   2.503036e-02
  9.626537e-01    1.737921e+00   2.502126e-02
  9.648642e-01    1.763609e+00   2.517096e-02
  9.670747e-01    1.759883e+00   2.510971e-02
  9.692851e-01    1.763971e+00   2.510543e-02
  9.714956e-01    1.799334e+00   2.532006e-02
  9.737060e-01    1.844943e+00   2.560529e-02
  9.759165e-01    1.801227e+00   2.526445e-02
  9.781269e-01    1.801103e+00   2.523051e-02
  9.803374e-01    1.775228e+00   2.501399e-02
  9.825478e-01    1.760720e+00   2.487871e-02
  9.847583e-01    1.744588e+00   2.473083e-02
  9.869688e-01    1.768928e+00   2.486942e-02
  9.891792e-01    1.757372e+00   2.475512e-02
  9.913897e-01    1.740790e+00   2.460480e-02
  9.936001e-01    1.721205e+00   2.443396e-02
  9.958106e-01    1.696809e+00   2.422724e-02
  9.980210e-01    1.657004e+00   2.391029e-02
  1.000231e+00    1.643264e+00   2.394140e-02
  1.002442e+00    1.606946e+00   2.380113e-02
  1.004652e+00    1.601319e+00   2.382572e-02
  1.006863e+00    1.576770e+00   2.369144e-02
  1.009073e+00    1.582447e+00   2.377036e-02
  1.011284e+00    1.576364e+00   2.375638e-02
  1.013494e+00    1.545727e+00   2.354771e-02
  1.015705e+00    1.508433e+00   2.328389e-02
  1.017915e+00    1.496143e+00   2.320481e-02
  1.020126e+00    1.507677e+00   2.330983e-02
  1.022336e+00    1.519930e+00   2.341589e-02
  1.024547e+00    1.527157e+00   2.348263e-02
  1.026757e+00    1.515408e+00   2.340040e-02
  1.028967e+00    1.519308e+00   2.343812e-02
  1.031178e+00    1.491783e+00   2.323091e-02
  1.033388e+00    1.480090e+00   2.314466e-02
  1.035599e+00    1.489910e+00   2.322467e-02
  1.037809e+00    1.525226e+00   2.350159e-02
  1.040020e+00    1.477766e+00   2.313432e-02
  1.042230e+00    1.473484e+00   2.310267e-02
  1.044441e+00    1.484285e+00   2.318698e-02
  1.046651e+00    1.454412e+00   2.295263e-02
  1.048862e+00    1.458986e+00   2.298790e-02
  1.051072e+00    1.451228e+00   2.292440e-02
  1.053282e+00    1.445551e+00   2.287857e-02
  1.055493e+00    1.458848e+00   2.297930e-02
  1.057703e+00    1.474065e+00   2.309735e-02
  1.059914e+00    1.449389e+00   2.289899e-02
  1.062124e+00    1.453924e+00   2.293079e-02
  1.064335e+00    1.438932e+00   2.280887e-02
  1.066545e+00    1.433739e+00   2.276178e-02
  1.068756e+00    1.414082e+00   2.260155e-02
  1.070966e+00    1.432517e+00   2.274196e-02
  1.073177e+00    1.410259e+00   2.255867e-02
  1.075387e+00    1.408866e+00   2.254241e-02
  1.077597e+00    1.426307e+00   2.267435e-02
  1.079808e+00    1.410448e+00   2.241768e-02
  1.082018e+00    1.411666e+00   2.224159e-02
  1.084229e+00    1.429817e+00   2.227528e-02
  1.086439e+00    1.392312e+00   2.189565e-02
  1.088650e+00    1.379056e+00   2.171748e-02
  1.090860e+00    1.398307e+00   2.180222e-02
  1.093071e+00    1.407922e+00   2.181578e-02
  1.095281e+00    1.421313e+00   2.186254e-02
  1.097492e+00    1.426124e+00   2.184496e-02
  1.099702e+00    1.400529e+00   2.159737e-02
  1.101912e+00    1.411662e+00   2.163467e-02
  1.104123e+00    1.417648e+00   2.163256e-02
  1.106333e+00    1.415511e+00   2.157211e-02
  1.108544e+00    1.387080e+00   2.131079e-02
  1.110754e+00    1.378430e+00   2.120192e-02
  1.112965e+00    1.402982e+00   2.134966e-02
  1.115175e+00    1.378102e+00   2.111896e-02
  1.117386e+00    1.393732e+00   2.119939e-02
  1.119596e+00    1.392406e+00   2.115170e-02
  1.121807e+00    1.384610e+00   2.105395e-02
  1.124017e+00    1.377914e+00   2.096670e-02
  1.126228e+00    1.390843e+00   2.102925e-02
  1.128438e+00    1.408572e+00   2.112601e-02
  1.130648e+00    1.389533e+00   2.094854e-02
  1.132859e+00    1.415536e+00   2.110902e-02
  1.135069e+00    1.456781e+00   2.137886e-02
  1.137280e+00    1.398359e+00   2.091270e-02
  1.139490e+00    1.405439e+00   2.093227e-02
  1.141701e+00    1.399761e+00   2.085666e-02
  1.143911e+00    1.436347e+00   2.109499e-02
  1.146122e+00    1.401716e+00   2.080692e-02
  1.148332e+00    1.396230e+00   2.073406e-02
  1.150543e+00    1.412771e+00   2.082530e-02
  1.152753e+00    1.392585e+00   2.064496e-02
  1.154963e+00    1.394140e+00   2.062521e-02
  1.157174e+00    1.363292e+00   2.036570e-02
  1.159384e+00    1.380909e+00   2.046691e-02
  1.161595e+00    1.385931e+00   2.047407e-02
  1.163805e+00    1.393511e+00   2.050047e-02
  1.166016e+00    1.343023e+00   2.009651e-02
  1.168226e+00    1.378381e+00   2.033024e-02
  1.170437e+00    1.457417e+00   2.087536e-02
  1.172647e+00    1.612886e+00   2.192921e-02
  1.174858e+00    1.602969e+00   2.183130e-02
  1.177068e+00    1.494579e+00   2.105070e-02
  1.179278e+00    1.404291e+00   2.037592e-02
  1.181489e+00    1.355043e+00   1.998848e-02
  1.183699e+00    1.338726e+00   1.984036e-02
  1.185910e+00    1.371191e+00   2.005160e-02
  1.188120e+00    1.337910e+00   1.978028e-02
  1.190331e+00    1.321985e+00   1.963575e-02
  1.192541e+00    1.342454e+00   1.975992e-02
  1.194752e+00    1.385810e+00   2.004910e-02
  1.196962e+00    1.373248e+00   1.993208e-02
  1.199173e+00    1.354839e+00   1.977149e-02
  1.201383e+00    1.329338e+00   1.955758e-02
  1.203593e+00    1.357940e+00   1.974197e-02
  1.205804e+00    1.359595e+00   1.972798e-02
  1.208014e+00    1.360113e+00   1.970480e-02
  1.210225e+00    1.339108e+00   1.952682e-02
  1.212435e+00    1.315767e+00   1.933142e-02
  1.214646e+00    1.328753e+00   1.940068e-02
  1.216856e+00    1.318452e+00   1.930015e-02
  1.219067e+00    1.358882e+00   1.956929e-02
  1.221277e+00    1.346365e+00   1.945397e-02
  1.223488e+00    1.333272e+00   1.933356e-02
  1.225698e+00    1.336183e+00   1.932788e-02
  1.227909e+00    1.322401e+00   1.919810e-02
  1.230119e+00    1.319530e+00   1.914573e-02
  1.232329e+00    1.341588e+00   1.927450e-02
  1.234540e+00    1.296499e+00   1.891813e-02
  1.236750e+00    1.325884e+00   1.910133e-02
  1.238961e+00    1.319229e+00   1.902667e-02
  1.241171e+00    1.317597e+00   1.899101e-02
  1.243382e+00    1.322674e+00   1.900429e-02
  1.245592e+00    1.332236e+00   1.904893e-02
  1.247803e+00    1.328063e+00   1.899560e-02
  1.250013e+00    1.312698e+00   1.886220e-02
  1.252224e+00    1.319843e+00   1.889046e-02
  1.254434e+00    1.320061e+00   1.886853e-02
  1.256644e+00    1.338824e+00   1.897907e-02
  1.258855e+00    1.281122e+00   1.854290e-02
  1.261065e+00    1.316417e+00   1.877351e-02
  1.263276e+00    1.318747e+00   1.876742e-02
  1.265486e+00    1.326352e+00   1.879881e-02
  1.267697e+00    1.313255e+00   1.868306e-02
  1.269907e+00    1.318638e+00   1.869887e-02
  1.272118e+00    1.328534e+00   1.874651e-02
  1.274328e+00    1.331272e+00   1.874324e-02
  1.276539e+00    1.347664e+00   1.883552e-02
  1.278749e+00    1.330051e+00   1.868992e-02
  1.280959e+00    1.325792e+00   1.863763e-02
  1.283170e+00    1.313878e+00   1.853158e-02
  1.285380e+00    1.315847e+00   1.852328e-02
  1.287591e+00    1.320795e+00   1.853630e-02
  1.289801e+00    1.321785e+00   1.852223e-02
  1.292012e+00    1.307904e+00   1.840790e-02
  1.294222e+00    1.312151e+00   1.842173e-02
  1.296433e+00    1.368184e+00   1.879526e-02
  1.298643e+00    1.351838e+00   1.866618e-02
  1.300854e+00    1.342184e+00   1.858301e-02
  1.303064e+00    1.357673e+00   1.867069e-02
  1.305274e+00    1.329545e+00   1.845498e-02
  1.307485e+00    1.332867e+00   1.845659e-02
  1.309695e+00    1.360562e+00   1.862505e-02
  1.311906e+00    1.365797e+00   1.863901e-02
  1.314116e+00    1.347008e+00   1.848961e-02
  1.316327e+00    1.342618e+00   1.843780e-02
  1.318537e+00    1.352981e+00   1.848692e-02
  1.320748e+00    1.346454e+00   1.842076e-02
  1.322958e+00    1.337456e+00   1.833865e-02
  1.325169e+00    1.373789e+00   1.856489e-02
  1.327379e+00    1.362445e+00   1.846617e-02
  1.329589e+00    1.366303e+00   1.847110e-02
  1.331800e+00    1.349761e+00   1.833826e-02
  1.334010e+00    1.339551e+00   1.824817e-02
  1.336221e+00    1.355739e+00   1.833632e-02
  1.338431e+00    1.341008e+00   1.821563e-02
  1.340642e+00    1.333959e+00   1.823148e-02
  1.342852e+00    1.340611e+00   1.837719e-02
  1.345063e+00    1.361342e+00   1.856842e-02
  1.347273e+00    1.353381e+00   1.854936e-02
  1.349484e+00    1.366865e+00   1.866937e-02
  1.351694e+00    1.334140e+00   1.846712e-02
  1.353905e+00    1.300318e+00   1.824919e-02
  1.356115e+00    1.332713e+00   1.849004e-02
  1.358325e+00    1.335016e+00   1.851929e-02
  1.360536e+00    1.321371e+00   1.843588e-02
  1.362746e+00    1.305298e+00   1.833284e-02
  1.364957e+00    1.300308e+00   1.830527e-02
  1.367167e+00    1.311141e+00   1.838842e-02
  1.369378e+00    1.320126e+00   1.845727e-02
  1.371588e+00    1.310221e+00   1.839300e-02
  1.373799e+00    1.299698e+00   1.832257e-02
  1.376009e+00    1.326637e+00   1.851488e-02
  1.378220e+00    1.322069e+00   1.848548e-02
  1.380430e+00    1.341099e+00   1.862077e-02
  1.382640e+00    1.327259e+00   1.852535e-02
  1.384851e+00    1.295344e+00   1.830215e-02
  1.387061e+00    1.266189e+00   1.809527e-02
  1.389272e+00    1.284075e+00   1.822285e-02
  1.391482e+00    1.272977e+00   1.814326e-02
  1.393693e+00    1.269936e+00   1.812070e-02
  1.395903e+00    1.296059e+00   1.830462e-02
  1.398114e+00    1.287858e+00   1.824524e-02
  1.400324e+00    1.284618e+00   1.822015e-02
  1.402535e+00    1.255717e+00   1.801174e-02
  1.404745e+00    1.266448e+00   1.808615e-02
  1.406955e+00    1.286278e+00   1.822451e-02
  1.409166e+00    1.269472e+00   1.810176e-02
  1.411376e+00    1.249178e+00   1.795339e-02
  1.413587e+00    1.237051e+00   1.786227e-02
  1.415797e+00    1.244937e+00   1.791561e-02
  1.418008e+00    1.251820e+00   1.792349e-02
  1.420218e+00    1.251519e+00   1.777272e-02
  1.422429e+00    1.258141e+00   1.773473e-02
  1.424639e+00    1.274535e+00   1.778513e-02
  1.426850e+00    1.268075e+00   1.768534e-02
  1.429060e+00    1.237933e+00   1.742552e-02
  1.431270e+00    1.256968e+00   1.751487e-02
  1.433481e+00    1.273888e+00   1.759136e-02
  1.435691e+00    1.286838e+00   1.764186e-02
  1.437902e+00    1.265623e+00   1.745945e-02
  1.440112e+00    1.280097e+00   1.752351e-02
  1.442323e+00    1.247691e+00   1.726753e-02
  1.444533e+00    1.259814e+00   1.731877e-02
  1.446744e+00    1.258895e+00   1.728150e-02
  1.448954e+00    1.235182e+00   1.708816e-02
  1.451165e+00    1.269256e+00   1.729252e-02
  1.453375e+00    1.277510e+00   1.732052e-02
  1.455586e+00    1.255443e+00   1.714230e-02
  1.457796e+00    1.233310e+00   1.696339e-02
  1.460006e+00    1.259621e+00   1.711623e-02
  1.462217e+00    1.256425e+00   1.706844e-02
  1.464427e+00    1.265695e+00   1.710571e-02
  1.466638e+00    1.271433e+00   1.711910e-02
  1.468848e+00    1.279228e+00   1.714607e-02
  1.471059e+00    1.262301e+00   1.700722e-02
  1.473269e+00    1.248173e+00   1.688762e-02
  1.475480e+00    1.240061e+00   1.680914e-02
  1.477690e+00    1.267052e+00   1.696726e-02
  1.479901e+00    1.270515e+00   1.696658e-02
  1.482111e+00    1.261423e+00   1.688249e-02
  1.484321e+00    1.260423e+00   1.685273e-02
  1.486532e+00    1.273202e+00   1.691557e-02
  1.488742e+00    1.259626e+00   1.680254e-02
  1.490953e+00    1.262324e+00   1.679794e-02
  1.493163e+00    1.253346e+00   1.671591e-02
  1.495374e+00    1.243162e+00   1.662653e-02
  1.497584e+00    1.229423e+00   1.651302e-02
  1.499795e+00    1.241985e+00   1.657570e-02
  1.502005e+00    1.222660e+00   1.642486e-02
  1.504216e+00    1.247751e+00   1.657160e-02
  1.506426e+00    1.225786e+00   1.640455e-02
  1.508636e+00    1.233029e+00   1.643268e-02
  1.510847e+00    1.238469e+00   1.644724e-02
  1.513057e+00    1.237509e+00   1.641596e-02
  1.515268e+00    1.235621e+00   1.637792e-02
  1.517478e+00    1.256626e+00   1.649136e-02
  1.519689e+00    1.230927e+00   1.629714e-02
  1.521899e+00    1.230504e+00   1.627143e-02
  1.524110e+00    1.244287e+00   1.634206e-02
  1.526320e+00    1.226697e+00   1.620674e-02
  1.528531e+00    1.209525e+00   1.607347e-02
  1.530741e+00    1.242125e+00   1.626955e-02
  1.532951e+00    1.221984e+00   1.611775e-02
  1.535162e+00    1.241151e+00   1.632995e-02
  1.537372e+00    1.255784e+00   1.649303e-02
  1.539583e+00    1.251105e+00   1.649657e-02
  1.541793e+00    1.215304e+00   1.626565e-02
  1.544004e+00    1.242936e+00   1.644979e-02
  1.546214e+00    1.239939e+00   1.642844e-02
  1.548425e+00    1.233487e+00   1.638592e-02
  1.550635e+00    1.214096e+00   1.626616e-02
  1.552846e+00    1.213272e+00   1.627017e-02
  1.555056e+00    1.225218e+00   1.630892e-02
  1.557266e+00    1.222673e+00   1.618249e-02
  1.559477e+00    1.218623e+00   1.609717e-02
  1.561687e+00    1.226458e+00   1.611839e-02
  1.563898e+00    1.222200e+00   1.607338e-02
  1.566108e+00    1.230011e+00   1.610880e-02
  1.568319e+00    1.208679e+00   1.595311e-02
  1.570529e+00    1.201773e+00   1.588276e-02
  1.572740e+00    1.241331e+00   1.611444e-02
  1.574950e+00    1.261914e+00   1.622103e-02
  1.577161e+00    1.237343e+00   1.603693e-02
  1.579371e+00    1.225617e+00   1.593727e-02
  1.581582e+00    1.248779e+00   1.606735e-02
  1.583792e+00    1.234022e+00   1.595419e-02
  1.586002e+00    1.232373e+00   1.592600e-02
  1.588213e+00    1.225508e+00   1.586445e-02
  1.590423e+00    1.232377e+00   1.588890e-02
  1.592634e+00    1.191967e+00   1.560505e-02
  1.594844e+00    1.198878e+00   1.562919e-02
  1.597055e+00    1.202955e+00   1.563559e-02
  1.599265e+00    1.225028e+00   1.575781e-02
  1.601476e+00    1.219491e+00   1.570202e-02
  1.603686e+00    1.222897e+00   1.570432e-02
  1.605897e+00    1.199640e+00   1.553442e-02
  1.608107e+00    1.218099e+00   1.563407e-02
  1.610317e+00    1.209761e+00   1.556139e-02
  1.612528e+00    1.220153e+00   1.560902e-02
  1.614738e+00    1.201518e+00   1.547066e-02
  1.616949e+00    1.203315e+00   1.546341e-02
  1.619159e+00    1.197323e+00   1.540635e-02
  1.621370e+00    1.187843e+00   1.532700e-02
  1.623580e+00    1.189211e+00   1.531769e-02
  1.625791e+00    1.172665e+00   1.519278e-02
  1.628001e+00    1.145919e+00   1.500069e-02
  1.630212e+00    1.151822e+00   1.502181e-02
  1.632422e+00    1.167662e+00   1.510703e-02
  1.634632e+00    1.140985e+00   1.491644e-02
  1.636843e+00    1.137119e+00   1.487391e-02
  1.639053e+00    1.144746e+00   1.490663e-02
  1.641264e+00    1.138664e+00   1.485013e-02
  1.643474e+00    1.139723e+00   1.483979e-02
  1.645685e+00    1.126451e+00   1.473672e-02
  1.647895e+00    1.132514e+00   1.475987e-02
  1.650106e+00    1.118949e+00   1.465448e-02
  1.652316e+00    1.110757e+00   1.458449e-02
  1.654527e+00    1.111719e+00   1.457439e-02
  1.656737e+00    1.091261e+00   1.442342e-02
  1.658947e+00    1.101753e+00   1.447653e-02
  1.661158e+00    1.084747e+00   1.434843e-02
  1.663368e+00    1.077688e+00   1.428595e-02
  1.665579e+00    1.078326e+00   1.427433e-02
  1.667789e+00    1.088089e+00   1.432278e-02
  1.670000e+00    1.080531e+00   1.425769e-02
  1.672210e+00    1.074143e+00   1.419984e-02
  1.674421e+00    1.086378e+00   1.426530e-02
  1.676631e+00    1.071904e+00   1.415429e-02
  1.678842e+00    1.052028e+00   1.400702e-02
  1.681052e+00    1.043364e+00   1.393419e-02
  1.683263e+00    1.044071e+00   1.392409e-02
  1.685473e+00    1.061326e+00   1.402371e-02
  1.687683e+00    1.056554e+00   1.397689e-02
  1.689894e+00    1.049170e+00   1.391245e-02
  1.692104e+00    1.026592e+00   1.374736e-02
  1.694315e+00    1.061160e+00   1.396247e-02
  1.696525e+00    1.038342e+00   1.379662e-02
  1.698736e+00    1.035010e+00   1.375985e-02
  1.700946e+00    1.013362e+00   1.360038e-02
  1.703157e+00    1.024175e+00   1.365835e-02
  1.705367e+00    1.015395e+00   1.358543e-02
  1.707578e+00    1.030292e+00   1.367028e-02
  1.709788e+00    1.045228e+00   1.375491e-02
  1.711998e+00    1.014939e+00   1.353935e-02
  1.714209e+00    9.996422e-01   1.342276e-02
  1.716419e+00    1.011274e+00   1.348651e-02
  1.718630e+00    1.006414e+00   1.343998e-02
  1.720840e+00    1.005018e+00   1.341664e-02
  1.723051e+00    9.865120e-01   1.327893e-02
  1.725261e+00    9.845009e-01   1.325098e-02
  1.727472e+00    9.978207e-01   1.332627e-02
  1.729682e+00    1.008637e+00   1.338492e-02
  1.731893e+00    9.807892e-01   1.318513e-02
  1.734103e+00    9.880851e-01   1.322044e-02
  1.736313e+00    9.974440e-01   1.326896e-02
  1.738524e+00    9.937748e-01   1.323075e-02
  1.740734e+00    1.002117e+00   1.327246e-02
  1.742945e+00    9.846855e-01   1.314313e-02
  1.745155e+00    9.916241e-01   1.317592e-02
  1.747366e+00    9.829267e-01   1.310425e-02
  1.749576e+00    9.781985e-01   1.305906e-02
  1.751787e+00    9.749214e-01   1.302389e-02
  1.753997e+00    9.701357e-01   1.297857e-02
  1.756208e+00    9.613739e-01   1.290672e-02
  1.758418e+00    9.464146e-01   1.279296e-02
  1.760628e+00    9.587419e-01   1.286273e-02
  1.762839e+00    9.490712e-01   1.278459e-02
  1.765049e+00    9.434329e-01   1.273356e-02
  1.767260e+00    9.646023e-01   1.286279e-02
  1.769470e+00    9.607335e-01   1.282396e-02
  1.771681e+00    9.419007e-01   1.268458e-02
  1.773891e+00    9.094938e-01   1.245168e-02
  1.776102e+00    9.141354e-01   1.247077e-02
  1.778312e+00    9.112750e-01   1.243873e-02
  1.780523e+00    9.018973e-01   1.236210e-02
  1.782733e+00    9.087264e-01   1.239634e-02
  1.784944e+00    8.932794e-01   1.227794e-02
  1.787154e+00    9.059443e-01   1.235231e-02
  1.789364e+00    9.136872e-01   1.239262e-02
  1.791575e+00    8.868716e-01   1.219717e-02
  1.793785e+00    8.751836e-01   1.210443e-02
  1.795996e+00    8.792025e-01   1.211996e-02
  1.798206e+00    8.719984e-01   1.205802e-02
  1.800417e+00    8.913309e-01   1.217842e-02
  1.802627e+00    8.833717e-01   1.211222e-02
  1.804838e+00    8.855144e-01   1.211496e-02
  1.807048e+00    8.751087e-01   1.203097e-02
  1.809259e+00    8.774644e-01   1.203377e-02
  1.811469e+00    8.838925e-01   1.206299e-02
  1.813679e+00    8.764859e-01   1.199757e-02
  1.815890e+00    8.720629e-01   1.195273e-02
  1.818100e+00    8.721449e-01   1.193839e-02
  1.820311e+00    8.647103e-01   1.187288e-02
  1.822521e+00    8.569105e-01   1.180464e-02
  1.824732e+00    8.635998e-01   1.183602e-02
  1.826942e+00    8.618814e-01   1.181210e-02
  1.829153e+00    8.643856e-01   1.181769e-02
  1.831363e+00    8.716355e-01   1.185519e-02
  1.833574e+00    8.536996e-01   1.172110e-02
  1.835784e+00    8.473535e-01   1.166623e-02
  1.837994e+00    8.679255e-01   1.179533e-02
  1.840205e+00    8.600072e-01   1.173036e-02
  1.842415e+00    8.404099e-01   1.158436e-02
  1.844626e+00    8.412763e-01   1.157898e-02
  1.846836e+00    8.428054e-01   1.157823e-02
  1.849047e+00    8.514144e-01   1.162570e-02
  1.851257e+00    8.477145e-01   1.159094e-02
  1.853468e+00    8.381609e-01   1.151676e-02
  1.855678e+00    8.359135e-01   1.149256e-02
  1.857889e+00    8.313510e-01   1.145280e-02
  1.860099e+00    8.111610e-01   1.130446e-02
  1.862309e+00    8.231240e-01   1.137917e-02
  1.864520e+00    8.407019e-01   1.149153e-02
  1.866730e+00    8.303234e-01   1.141115e-02
  1.868941e+00    8.227256e-01   1.134805e-02
  1.871151e+00    8.256530e-01   1.135701e-02
  1.873362e+00    8.104603e-01   1.124096e-02
  1.875572e+00    8.256042e-01   1.133471e-02
  1.877783e+00    8.478290e-01   1.147484e-02
  1.879993e+00    8.201982e-01   1.127533e-02
  1.882204e+00    8.242976e-01   1.129270e-02
  1.884414e+00    8.184800e-01   1.124187e-02
  1.886624e+00    8.210059e-01   1.124830e-02
  1.888835e+00    8.139489e-01   1.118905e-02
  1.891045e+00    8.293650e-01   1.128370e-02
  1.893256e+00    8.245569e-01   1.123996e-02
  1.895466e+00    8.433981e-01   1.135641e-02
  1.897677e+00    8.439970e-01   1.134950e-02
  1.899887e+00    8.204479e-01   1.117914e-02
  1.902098e+00    8.305907e-01   1.123718e-02
  1.904308e+00    8.628029e-01   1.144222e-02
  1.906519e+00    8.847068e-01   1.157538e-02
  1.908729e+00    8.450525e-01   1.130230e-02
  1.910940e+00    8.284405e-01   1.117950e-02
  1.913150e+00    8.206971e-01   1.111658e-02
  1.915360e+00    8.331133e-01   1.118967e-02
  1.917571e+00    8.235003e-01   1.111408e-02
  1.919781e+00    7.940452e-01   1.090297e-02
  1.921992e+00    7.977788e-01   1.091811e-02
  1.924202e+00    7.863776e-01   1.082925e-02
  1.926413e+00    8.012760e-01   1.092113e-02
  1.928623e+00    8.259655e-01   1.107751e-02
  1.930834e+00    8.058777e-01   1.093161e-02
  1.933044e+00    7.930314e-01   1.083357e-02
  1.935255e+00    7.866666e-01   1.077984e-02
  1.937465e+00    7.743214e-01   1.068473e-02
  1.939675e+00    7.824156e-01   1.072974e-02
  1.941886e+00    8.044471e-01   1.086949e-02
  1.944096e+00    7.801162e-01   1.069382e-02
  1.946307e+00    7.915358e-01   1.076153e-02
  1.948517e+00    7.860539e-01   1.071385e-02
  1.950728e+00    7.848797e-01   1.069569e-02
  1.952938e+00    7.916110e-01   1.073140e-02
  1.955149e+00    7.845556e-01   1.067332e-02
  1.957359e+00    7.879033e-01   1.068606e-02
  1.959570e+00    7.995344e-01   1.075376e-02
  1.961780e+00    7.899625e-01   1.067930e-02
  1.963990e+00    7.865904e-01   1.064639e-02
  1.966201e+00    7.793464e-01   1.058727e-02
  1.968411e+00    7.710851e-01   1.052097e-02
  1.970622e+00    7.466185e-01   1.034290e-02
  1.972832e+00    7.522599e-01   1.037212e-02
  1.975043e+00    7.733888e-01   1.050682e-02
  1.977253e+00    7.805046e-01   1.054514e-02
  1.979464e+00    7.721794e-01   1.047878e-02
  1.981674e+00    7.727553e-01   1.047248e-02
  1.983885e+00    7.769992e-01   1.049123e-02
  1.986095e+00    7.746066e-01   1.046538e-02
  1.988305e+00    7.835649e-01   1.051581e-02
  1.990516e+00    7.643366e-01   1.037617e-02
  1.992726e+00    7.552036e-01   1.030444e-02
  1.994937e+00    7.753257e-01   1.043070e-02
  1.997147e+00    7.796838e-01   1.045023e-02
  1.999358e+00    7.642253e-01   1.033634e-02
  2.001568e+00    7.490956e-01   1.022286e-02
  2.003779e+00    7.549549e-01   1.025097e-02
  2.005989e+00    7.625260e-01   1.029031e-02
  2.008200e+00    7.567534e-01   1.023986e-02
  2.010410e+00    7.500745e-01   1.018297e-02
  2.012621e+00    7.614858e-01   1.024848e-02
  2.014831e+00    7.582372e-01   1.021520e-02
  2.017041e+00    7.377474e-01   1.006606e-02
  2.019252e+00    7.355307e-01   1.004114e-02
  2.021462e+00    7.363711e-01   1.003757e-02
  2.023673e+00    7.421492e-01   1.006760e-02
  2.025883e+00    7.493197e-01   1.010670e-02
  2.028094e+00    7.464395e-01   1.007771e-02
  2.030304e+00    7.570875e-01   1.013983e-02
  2.032515e+00    7.663397e-01   1.019227e-02
  2.034725e+00    7.542414e-01   1.010209e-02
  2.036936e+00    7.453736e-01   1.003325e-02
  2.039146e+00    7.726722e-01   1.020567e-02
  2.041356e+00    7.556926e-01   1.008329e-02
  2.043567e+00    7.421603e-01   9.983365e-03
  2.045777e+00    7.459857e-01   9.999864e-03
  2.047988e+00    7.509436e-01   1.002371e-02
  2.050198e+00    7.503211e-01   1.001112e-02
  2.052409e+00    7.523210e-01   1.001682e-02
  2.054619e+00    7.435957e-01   9.951224e-03
  2.056830e+00    7.511751e-01   9.994631e-03
  2.059040e+00    7.454223e-01   9.948810e-03
  2.061251e+00    7.423164e-01   9.920834e-03
  2.063461e+00    7.367150e-01   9.875829e-03
  2.065671e+00    7.139077e-01   9.713228e-03
  2.067882e+00    7.237696e-01   9.771225e-03
  2.070092e+00    7.235410e-01   9.760653e-03
  2.072303e+00    7.203042e-01   9.729804e-03
  2.074513e+00    7.093794e-01   9.646649e-03
  2.076724e+00    7.262731e-01   9.751492e-03
  2.078934e+00    7.180647e-01   9.687378e-03
  2.081145e+00    7.282361e-01   9.746767e-03
  2.083355e+00    7.179160e-01   9.668414e-03
  2.085566e+00    7.364427e-01   9.783504e-03
  2.087776e+00    7.198405e-01   9.663220e-03
  2.089986e+00    6.994758e-01   9.517007e-03
  2.092197e+00    7.037264e-01   9.537115e-03
  2.094407e+00    7.043623e-01   9.532394e-03
  2.096618e+00    7.069025e-01   9.540855e-03
  2.098828e+00    7.073484e-01   9.534714e-03
  2.101039e+00    7.250747e-01   9.644520e-03
  2.103249e+00    7.213237e-01   9.610933e-03
  2.105460e+00    7.067605e-01   9.504551e-03
  2.107670e+00    7.120322e-01   9.531287e-03
  2.109881e+00    7.079734e-01   9.495054e-03
  2.112091e+00    7.080899e-01   9.486950e-03
  2.114301e+00    7.028783e-01   9.443324e-03
  2.116512e+00    7.117845e-01   9.494239e-03
  2.118722e+00    7.120642e-01   9.487350e-03
  2.120933e+00    6.919991e-01   9.344039e-03
  2.123143e+00    6.932718e-01   9.343865e-03
  2.125354e+00    6.989713e-01   9.373793e-03
  2.127564e+00    6.858127e-01   9.276588e-03
  2.129775e+00    6.932075e-01   9.317875e-03
  2.131985e+00    7.232643e-01   9.508620e-03
  2.134196e+00    7.094013e-01   9.408506e-03
  2.136406e+00    6.870574e-01   9.250568e-03
  2.138617e+00    6.791728e-01   9.189048e-03
  2.140827e+00    6.939832e-01   9.304595e-03
  2.143037e+00    6.977962e-01   9.375288e-03
  2.145248e+00    7.030179e-01   9.432273e-03
  2.147458e+00    6.923457e-01   9.375418e-03
  2.149669e+00    6.911018e-01   9.378735e-03
  2.151879e+00    6.817963e-01   9.324464e-03
  2.154090e+00    7.011110e-01   9.462932e-03
  2.156300e+00    6.951110e-01   9.428953e-03
  2.158511e+00    6.705771e-01   9.266241e-03
  2.160721e+00    6.750331e-01   9.301700e-03
  2.162932e+00    6.977842e-01   9.460898e-03
  2.165142e+00    6.913591e-01   9.420251e-03
  2.167352e+00    6.930637e-01   9.434775e-03
  2.169563e+00    6.927151e-01   9.434337e-03
  2.171773e+00    6.881898e-01   9.405921e-03
  2.173984e+00    6.781299e-01   9.338316e-03
  2.176194e+00    6.735128e-01   9.307648e-03
  2.178405e+00    6.917996e-01   9.433850e-03
  2.180615e+00    6.729347e-01   9.305014e-03
  2.182826e+00    7.021432e-01   9.505483e-03
  2.185036e+00    6.831843e-01   9.376344e-03
  2.187247e+00    6.775735e-01   9.337699e-03
  2.189457e+00    6.685433e-01   9.274873e-03
  2.191667e+00    6.799750e-01   9.353648e-03
  2.193878e+00    6.845563e-01   9.384555e-03
  2.196088e+00    6.643999e-01   9.244683e-03
  2.198299e+00    6.642508e-01   9.242565e-03
  2.200509e+00    6.650685e-01   9.247227e-03
  2.202720e+00    6.811488e-01   9.357172e-03
  2.204930e+00    6.633735e-01   9.233079e-03
  2.207141e+00    6.630294e-01   9.229560e-03
  2.209351e+00    6.660068e-01   9.248406e-03
  2.211562e+00    6.683428e-01   9.262997e-03
  2.213772e+00    6.626511e-01   9.168587e-03
  2.215982e+00    6.629515e-01   9.126863e-03
  2.218193e+00    6.812493e-01   9.222219e-03
  2.220403e+00    6.594933e-01   9.049458e-03
  2.222614e+00    6.639716e-01   9.059339e-03
  2.224824e+00    6.554734e-01   8.982043e-03
  2.227035e+00    6.719133e-01   9.076554e-03
  2.229245e+00    6.691891e-01   9.041202e-03
  2.231456e+00    6.701868e-01   9.032345e-03
  2.233666e+00    6.717779e-01   9.027939e-03
  2.235877e+00    6.737518e-01   9.026910e-03
  2.238087e+00    6.682729e-01   8.976666e-03
  2.240298e+00    6.643507e-01   8.936564e-03
  2.242508e+00    6.690607e-01   8.953054e-03
  2.244718e+00    6.501771e-01   8.810233e-03
  2.246929e+00    6.341695e-01   8.687039e-03
  2.249139e+00    6.440609e-01   8.742349e-03
  2.251350e+00    6.795358e-01   8.968070e-03
  2.253560e+00    6.935312e-01   9.048170e-03
  2.255771e+00    6.823370e-01   8.963294e-03
  2.257981e+00    6.785108e-01   8.926837e-03
  2.260192e+00    6.808602e-01   8.931044e-03
  2.262402e+00    6.641511e-01   8.809918e-03
  2.264613e+00    6.618721e-01   8.783963e-03
  2.266823e+00    6.719393e-01   8.840047e-03
  2.269033e+00    6.761875e-01   8.857463e-03
  2.271244e+00    6.652806e-01   8.775342e-03
  2.273454e+00    6.486400e-01   8.654724e-03
  2.275665e+00    6.571694e-01   8.701182e-03
  2.277875e+00    6.551266e-01   8.677769e-03
  2.280086e+00    6.451400e-01   8.601445e-03
  2.282296e+00    6.433352e-01   8.580102e-03
  2.284507e+00    6.534961e-01   8.637517e-03
  2.286717e+00    6.443068e-01   8.567195e-03
  2.288928e+00    6.371815e-01   8.509990e-03
  2.291138e+00    6.348394e-01   8.485062e-03
  2.293348e+00    6.289555e-01   8.436301e-03
  2.295559e+00    6.366591e-01   8.478630e-03
  2.297769e+00    6.385680e-01   8.482201e-03
  2.299980e+00    6.367987e-01   8.461219e-03
  2.302190e+00    6.582237e-01   8.593231e-03
  2.304401e+00    6.391410e-01   8.458522e-03
  2.306611e+00    6.462848e-01   8.496493e-03
  2.308822e+00    6.527438e-01   8.530471e-03
  2.311032e+00    6.529822e-01   8.525542e-03
  2.313243e+00    6.394999e-01   8.430870e-03
  2.315453e+00    6.351768e-01   8.394813e-03
  2.317663e+00    6.362864e-01   8.393117e-03
  2.319874e+00    6.309746e-01   8.349364e-03
  2.322084e+00    6.285704e-01   8.324616e-03
  2.324295e+00    6.328115e-01   8.344495e-03
  2.326505e+00    6.410605e-01   8.389675e-03
  2.328716e+00    6.326765e-01   8.326177e-03
  2.330926e+00    6.284086e-01   8.289326e-03
  2.333137e+00    6.275982e-01   8.275717e-03
  2.335347e+00    6.214352e-01   8.226238e-03
  2.337558e+00    6.351501e-01   8.308328e-03
  2.339768e+00    6.357272e-01   8.303552e-03
  2.341979e+00    6.260839e-01   8.232065e-03
  2.344189e+00    6.268564e-01   8.228805e-03
  2.346399e+00    6.136280e-01   8.133184e-03
  2.348610e+00    6.284205e-01   8.222202e-03
  2.350820e+00    6.339906e-01   8.250403e-03
  2.353031e+00    6.225271e-01   8.167277e-03
  2.355241e+00    6.095498e-01   8.073778e-03
  2.357452e+00    6.164559e-01   8.111076e-03
  2.359662e+00    6.284124e-01   8.181144e-03
  2.361873e+00    6.461309e-01   8.287361e-03
  2.364083e+00    6.154938e-01   8.080608e-03
  2.366294e+00    6.067214e-01   8.014826e-03
  2.368504e+00    6.186736e-01   8.085361e-03
  2.370714e+00    6.119612e-01   8.033424e-03
  2.372925e+00    6.014189e-01   7.956029e-03
  2.375135e+00    6.085943e-01   7.995369e-03
  2.377346e+00    6.163697e-01   8.038412e-03
  2.379556e+00    6.158682e-01   8.027265e-03
  2.381767e+00    6.240927e-01   8.072832e-03
  2.383977e+00    5.957067e-01   7.879335e-03
  2.386188e+00    5.890092e-01   7.827171e-03
  2.388398e+00    6.017324e-01   7.903421e-03
  2.390609e+00    6.011511e-01   7.891983e-03
  2.392819e+00    6.071091e-01   7.923268e-03
  2.395029e+00    6.028214e-01   7.887666e-03
  2.397240e+00    6.004543e-01   7.864390e-03
  2.399450e+00    5.984889e-01   7.843791e-03
  2.401661e+00    6.021382e-01   7.860056e-03
  2.403871e+00    5.959790e-01   7.812088e-03
  2.406082e+00    6.013973e-01   7.840137e-03
  2.408292e+00    5.996575e-01   7.821064e-03
  2.410503e+00    5.806098e-01   7.688531e-03
  2.412713e+00    5.836514e-01   7.700991e-03
  2.414924e+00    5.862041e-01   7.710455e-03
  2.417134e+00    5.859066e-01   7.700983e-03
  2.419344e+00    5.894889e-01   7.717167e-03
  2.421555e+00    5.847836e-01   7.678903e-03
  2.423765e+00    5.812269e-01   7.648239e-03
  2.425976e+00    5.821929e-01   7.646874e-03
  2.428186e+00    6.020420e-01   7.768934e-03
  2.430397e+00    5.898078e-01   7.682139e-03
  2.432607e+00    5.842692e-01   7.638784e-03
  2.434818e+00    5.769579e-01   7.583416e-03
  2.437028e+00    5.796604e-01   7.594081e-03
  2.439239e+00    5.917150e-01   7.664999e-03
  2.441449e+00    5.859324e-01   7.620314e-03
  2.443659e+00    5.683073e-01   7.497603e-03
  2.445870e+00    5.749785e-01   7.553587e-03
  2.448080e+00    5.700132e-01   7.555294e-03
  2.450291e+00    5.959278e-01   7.742013e-03
  2.452501e+00    5.757121e-01   7.620745e-03
  2.454712e+00    5.524932e-01   7.473748e-03
  2.456922e+00    5.502098e-01   7.464792e-03
  2.459133e+00    5.362787e-01   7.374961e-03
  2.461343e+00    5.590001e-01   7.533873e-03
  2.463554e+00    5.600066e-01   7.544134e-03
  2.465764e+00    5.497159e-01   7.477594e-03
  2.467975e+00    5.511627e-01   7.489688e-03
  2.470185e+00    5.501075e-01   7.484763e-03
  2.472395e+00    5.471153e-01   7.465575e-03
  2.474606e+00    5.350781e-01   7.384548e-03
  2.476816e+00    5.464815e-01   7.463528e-03
  2.479027e+00    5.500274e-01   7.488570e-03
  2.481237e+00    5.317789e-01   7.363567e-03
  2.483448e+00    5.313858e-01   7.361148e-03
  2.485658e+00    5.302954e-01   7.353437e-03
  2.487869e+00    5.289353e-01   7.344053e-03
  2.490079e+00    5.308885e-01   7.357067e-03
  2.492290e+00    5.399752e-01   7.419345e-03
  2.494500e+00    5.339451e-01   7.377074e-03
  2.496710e+00    5.304300e-01   7.352041e-03
  2.498921e+00    5.408478e-01   7.422904e-03
  2.501131e+00    5.279201e-01   7.332721e-03
  2.503342e+00    5.176578e-01   7.259832e-03
  2.505552e+00    5.252135e-01   7.311513e-03
  2.507763e+00    5.253294e-01   7.310904e-03
  2.509973e+00    5.251707e-01   7.308403e-03
  2.512184e+00    5.233399e-01   7.294066e-03
  2.514394e+00    5.198833e-01   7.260622e-03
  2.516605e+00    5.108483e-01   7.150907e-03
  2.518815e+00    5.059566e-01   7.088801e-03
  2.521025e+00    5.284120e-01   7.223370e-03
  2.523236e+00    5.228197e-01   7.167124e-03
  2.525446e+00    5.284466e-01   7.189938e-03
  2.527657e+00    5.215328e-01   7.128200e-03
  2.529867e+00    5.172038e-01   7.084477e-03
  2.532078e+00    5.272338e-01   7.137764e-03
  2.534288e+00    5.231988e-01   7.096546e-03
  2.536499e+00    5.205634e-01   7.066755e-03
  2.538709e+00    5.314870e-01   7.129431e-03
  2.540920e+00    5.200282e-01   7.041596e-03
  2.543130e+00    4.998860e-01   6.893720e-03
  2.545340e+00    5.041765e-01   6.913372e-03
  2.547551e+00    5.167308e-01   6.989034e-03
  2.549761e+00    5.094761e-01   6.930334e-03
  2.551972e+00    5.216565e-01   7.003339e-03
  2.554182e+00    5.203586e-01   6.985455e-03
  2.556393e+00    5.212407e-01   6.982281e-03
  2.558603e+00    5.183718e-01   6.953975e-03
  2.560814e+00    5.045134e-01   6.851824e-03
  2.563024e+00    5.120308e-01   6.894158e-03
  2.565235e+00    5.158171e-01   6.910118e-03
  2.567445e+00    5.114152e-01   6.871103e-03
  2.569656e+00    5.071205e-01   6.832539e-03
  2.571866e+00    5.176722e-01   6.893895e-03
  2.574076e+00    5.181766e-01   6.887983e-03
  2.576287e+00    4.962496e-01   6.732512e-03
  2.578497e+00    5.056671e-01   6.788311e-03
  2.580708e+00    5.178213e-01   6.861304e-03
  2.582918e+00    5.605243e-01   7.130498e-03
  2.585129e+00    5.697739e-01   7.180977e-03
  2.587339e+00    5.434748e-01   7.005398e-03
  2.589550e+00    5.089595e-01   6.771780e-03
  2.591760e+00    5.189955e-01   6.830396e-03
  2.593971e+00    5.212529e-01   6.837654e-03
  2.596181e+00    5.078896e-01   6.743253e-03
  2.598391e+00    4.891311e-01   6.612446e-03
  2.600602e+00    5.127314e-01   6.764160e-03
  2.602812e+00    5.168901e-01   6.783966e-03
  2.605023e+00    5.145478e-01   6.761348e-03
  2.607233e+00    5.111344e-01   6.731744e-03
  2.609444e+00    5.090617e-01   6.710821e-03
  2.611654e+00    4.967070e-01   6.621648e-03
  2.613865e+00    5.063348e-01   6.678478e-03
  2.616075e+00    5.006952e-01   6.634077e-03
  2.618286e+00    5.054885e-01   6.658759e-03
  2.620496e+00    5.118951e-01   6.694082e-03
  2.622706e+00    5.080606e-01   6.663212e-03
  2.624917e+00    5.022790e-01   6.619340e-03
  2.627127e+00    4.894782e-01   6.528811e-03
  2.629338e+00    4.866582e-01   6.504082e-03
  2.631548e+00    4.971407e-01   6.567629e-03
  2.633759e+00    4.924850e-01   6.529728e-03
  2.635969e+00    4.991350e-01   6.566992e-03
  2.638180e+00    4.953619e-01   6.535196e-03
  2.640390e+00    4.927206e-01   6.511196e-03
  2.642601e+00    4.935413e-01   6.509996e-03
  2.644811e+00    4.889008e-01   6.472338e-03
  2.647021e+00    4.897933e-01   6.471724e-03
  2.649232e+00    5.019882e-01   6.545080e-03
  2.651442e+00    4.907417e-01   6.464893e-03
  2.653653e+00    4.919826e-01   6.466316e-03
  2.655863e+00    5.009884e-01   6.518521e-03
  2.658074e+00    4.983051e-01   6.494445e-03
  2.660284e+00    5.055936e-01   6.535342e-03
  2.662495e+00    4.979234e-01   6.478835e-03
  2.664705e+00    5.037379e-01   6.509933e-03
  2.666916e+00    4.961189e-01   6.454074e-03
  2.669126e+00    4.868849e-01   6.387311e-03
  2.671337e+00    4.961855e-01   6.441438e-03
  2.673547e+00    4.927629e-01   6.412828e-03
  2.675757e+00    4.971587e-01   6.434905e-03
  2.677968e+00    4.923001e-01   6.396874e-03
  2.680178e+00    4.866378e-01   6.353626e-03
  2.682389e+00    4.846542e-01   6.334320e-03
  2.684599e+00    4.959850e-01   6.401733e-03
  2.686810e+00    4.785814e-01   6.281905e-03
  2.689020e+00    4.734221e-01   6.241774e-03
  2.691231e+00    4.780707e-01   6.266146e-03
  2.693441e+00    4.683723e-01   6.196244e-03
  2.695652e+00    4.822109e-01   6.280649e-03
  2.697862e+00    4.870166e-01   6.305560e-03
  2.700072e+00    4.822299e-01   6.268451e-03
  2.702283e+00    4.761690e-01   6.222804e-03
  2.704493e+00    4.807008e-01   6.246114e-03
  2.706704e+00    4.716600e-01   6.180812e-03
  2.708914e+00    4.683310e-01   6.153102e-03
  2.711125e+00    4.913132e-01   6.295992e-03
  2.713335e+00    4.820364e-01   6.230239e-03
  2.715546e+00    4.762108e-01   6.186068e-03
  2.717756e+00    4.815514e-01   6.214806e-03
  2.719967e+00    4.958493e-01   6.300125e-03
  2.722177e+00    4.841778e-01   6.219418e-03
  2.724387e+00    4.844369e-01   6.214984e-03
  2.726598e+00    4.941974e-01   6.271162e-03
  2.728808e+00    4.793623e-01   6.170225e-03
  2.731019e+00    4.686160e-01   6.094639e-03
  2.733229e+00    4.684493e-01   6.087846e-03
  2.735440e+00    4.779389e-01   6.142959e-03
  2.737650e+00    4.796047e-01   6.147676e-03
  2.739861e+00    4.764908e-01   6.121657e-03
  2.742071e+00    4.807604e-01   6.143292e-03
  2.744282e+00    4.709471e-01   6.074105e-03
  2.746492e+00    4.726194e-01   6.078891e-03
  2.748702e+00    4.781475e-01   6.108481e-03
  2.750913e+00    4.691798e-01   6.045186e-03
  2.753123e+00    4.855328e-01   6.143505e-03
  2.755334e+00    4.760410e-01   6.077117e-03
  2.757544e+00    4.767205e-01   6.075724e-03
  2.759755e+00    4.862949e-01   6.130527e-03
  2.761965e+00    4.771140e-01   6.066414e-03
  2.764176e+00    4.627437e-01   5.968485e-03
  2.766386e+00    4.763232e-01   6.049642e-03
  2.768597e+00    4.683207e-01   5.992836e-03
  2.770807e+00    4.641840e-01   5.960499e-03
  2.773017e+00    4.786050e-01   6.046424e-03
  2.775228e+00    4.818537e-01   6.061105e-03
  2.777438e+00    4.745354e-01   6.009128e-03
  2.779649e+00    4.717416e-01   5.985563e-03
  2.781859e+00    4.698995e-01   5.968131e-03
  2.784070e+00    4.777061e-01   6.011646e-03
  2.786280e+00    4.764026e-01   5.997682e-03
  2.788491e+00    4.776778e-01   5.999855e-03
  2.790701e+00    4.745144e-01   5.974328e-03
  2.792912e+00    4.718489e-01   5.951583e-03
  2.795122e+00    4.748324e-01   5.964647e-03
  2.797333e+00    4.674540e-01   5.912618e-03
  2.799543e+00    4.666110e-01   5.901455e-03
  2.801753e+00    4.737431e-01   5.940566e-03
  2.803964e+00    4.707164e-01   5.915890e-03
  2.806174e+00    4.797148e-01   5.966029e-03
  2.808385e+00    4.730967e-01   5.917935e-03
  2.810595e+00    4.655464e-01   5.863727e-03
  2.812806e+00    4.647645e-01   5.852252e-03
  2.815016e+00    4.741828e-01   5.906505e-03
  2.817227e+00    4.810522e-01   5.975251e-03
  2.819437e+00    5.102617e-01   6.165487e-03
  2.821648e+00    4.843927e-01   6.009505e-03
  2.823858e+00    4.769600e-01   5.968563e-03
  2.826068e+00    4.638844e-01   5.891114e-03
  2.828279e+00    4.662307e-01   5.910004e-03
  2.830489e+00    4.645502e-01   5.902655e-03
  2.832700e+00    4.632048e-01   5.896626e-03
  2.834910e+00    4.731995e-01   5.961983e-03
  2.837121e+00    4.547881e-01   5.846529e-03
  2.839331e+00    4.638430e-01   5.905657e-03
  2.841542e+00    4.594451e-01   5.878606e-03
  2.843752e+00    4.597445e-01   5.881284e-03
  2.845963e+00    4.656729e-01   5.919487e-03
  2.848173e+00    4.542862e-01   5.846748e-03
  2.850383e+00    4.504548e-01   5.822335e-03
  2.852594e+00    4.533962e-01   5.841221e-03
  2.854804e+00    4.571208e-01   5.864678e-03
  2.857015e+00    4.556682e-01   5.854915e-03
  2.859225e+00    4.582730e-01   5.871383e-03
  2.861436e+00    4.585676e-01   5.872628e-03
  2.863646e+00    4.643488e-01   5.909551e-03
  2.865857e+00    4.599049e-01   5.881562e-03
  2.868067e+00    4.609462e-01   5.888429e-03
  2.870278e+00    4.584303e-01   5.871977e-03
  2.872488e+00    4.613401e-01   5.889446e-03
  2.874698e+00    4.455821e-01   5.786963e-03
  2.876909e+00    4.528541e-01   5.832655e-03
  2.879119e+00    4.654498e-01   5.911611e-03
  2.881330e+00    4.537062e-01   5.835105e-03
  2.883540e+00    4.460049e-01   5.783991e-03
  2.885751e+00    4.452475e-01   5.777485e-03
  2.887961e+00    4.438887e-01   5.766780e-03
  2.890172e+00    4.636094e-01   5.891908e-03
  2.892382e+00    4.480669e-01   5.790516e-03
  2.894593e+00    4.594245e-01   5.861635e-03
  2.896803e+00    4.564934e-01   5.840936e-03
  2.899014e+00    4.524266e-01   5.812957e-03
  2.901224e+00    4.538837e-01   5.820342e-03
  2.903434e+00    4.509443e-01   5.799548e-03
  2.905645e+00    4.348356e-01   5.692841e-03
  2.907855e+00    4.366492e-01   5.702659e-03
  2.910066e+00    4.475914e-01   5.771607e-03
  2.912276e+00    4.446661e-01   5.750646e-03
  2.914487e+00    4.429072e-01   5.736838e-03
  2.916697e+00    4.496270e-01   5.777982e-03
  2.918908e+00    4.456792e-01   5.750601e-03
  2.921118e+00    4.597109e-01   5.837715e-03
  2.923329e+00    4.374037e-01   5.692075e-03
  2.925539e+00    4.422091e-01   5.720987e-03
  2.927749e+00    4.544825e-01   5.797535e-03
  2.929960e+00    4.512805e-01   5.774333e-03
  2.932170e+00    4.447289e-01   5.729957e-03
  2.934381e+00    4.437580e-01   5.721290e-03
  2.936591e+00    4.547138e-01   5.788914e-03
  2.938802e+00    4.549963e-01   5.788008e-03
  2.941012e+00    4.439223e-01   5.714839e-03
  2.943223e+00    4.411268e-01   5.694146e-03
  2.945433e+00    4.435373e-01   5.706028e-03
  2.947644e+00    4.466417e-01   5.721833e-03
  2.949854e+00    4.489998e-01   5.732701e-03
  2.952064e+00    4.335284e-01   5.628944e-03
  2.954275e+00    4.434684e-01   5.688742e-03
  2.956485e+00    4.582109e-01   5.778326e-03
  2.958696e+00    4.472440e-01   5.704430e-03
  2.960906e+00    4.543478e-01   5.745370e-03
  2.963117e+00    4.518172e-01   5.724885e-03
  2.965327e+00    4.502036e-01   5.710767e-03
  2.967538e+00    4.409180e-01   5.648696e-03
  2.969748e+00    4.395415e-01   5.637100e-03
  2.971959e+00    4.464104e-01   5.677866e-03
  2.974169e+00    4.503872e-01   5.700526e-03
  2.976379e+00    4.502188e-01   5.696565e-03
  2.978590e+00    4.418541e-01   5.640296e-03
  2.980800e+00    4.458939e-01   5.663247e-03
  2.983011e+00    4.533890e-01   5.707852e-03
  2.985221e+00    4.479764e-01   5.670560e-03
  2.987432e+00    4.453395e-01   5.650742e-03
  2.989642e+00    4.579061e-01   5.727297e-03
  2.991853e+00    4.561385e-01   5.712937e-03
  2.994063e+00    4.404931e-01   5.611248e-03
  2.996274e+00    4.415002e-01   5.614524e-03
  2.998484e+00    4.529484e-01   5.684130e-03
  3.000694e+00    4.490166e-01   5.655993e-03
  3.002905e+00    4.461162e-01   5.634772e-03
  3.005115e+00    4.470477e-01   5.637705e-03
  3.007326e+00    4.354789e-01   5.561173e-03
  3.009536e+00    4.411523e-01   5.594073e-03
  3.011747e+00    4.426625e-01   5.600767e-03
  3.013957e+00    4.443527e-01   5.608281e-03
  3.016168e+00    4.519252e-01   5.652631e-03
  3.018378e+00    4.473367e-01   5.620843e-03
  3.020589e+00    4.425862e-01   5.587730e-03
  3.022799e+00    4.414104e-01   5.577184e-03
  3.025010e+00    4.458851e-01   5.602161e-03
  3.027220e+00    4.378515e-01   5.548414e-03
  3.029430e+00    4.346400e-01   5.524836e-03
  3.031641e+00    4.458191e-01   5.592318e-03
  3.033851e+00    4.408754e-01   5.557762e-03
  3.036062e+00    4.417567e-01   5.560561e-03
  3.038272e+00    4.471078e-01   5.590577e-03
  3.040483e+00    4.408827e-01   5.548335e-03
  3.042693e+00    4.292802e-01   5.471672e-03
  3.044904e+00    4.404656e-01   5.538500e-03
  3.047114e+00    4.419644e-01   5.543173e-03
  3.049325e+00    4.506557e-01   5.593004e-03
  3.051535e+00    4.533043e-01   5.605027e-03
  3.053745e+00    4.517614e-01   5.590709e-03
  3.055956e+00    4.428087e-01   5.530520e-03
  3.058166e+00    4.359246e-01   5.483161e-03
  3.060377e+00    4.378496e-01   5.490551e-03
  3.062587e+00    4.416493e-01   5.509729e-03
  3.064798e+00    4.386287e-01   5.486671e-03
  3.067008e+00    4.435993e-01   5.512956e-03
  3.069219e+00    4.359058e-01   5.460510e-03
  3.071429e+00    4.458380e-01   5.518861e-03
  3.073640e+00    4.462105e-01   5.517856e-03
  3.075850e+00    4.495122e-01   5.534637e-03
  3.078060e+00    4.475020e-01   5.519163e-03
  3.080271e+00    4.477257e-01   5.517066e-03
  3.082481e+00    4.389491e-01   5.459322e-03
  3.084692e+00    4.397888e-01   5.461181e-03
  3.086902e+00    4.472037e-01   5.503797e-03
  3.089113e+00    4.443105e-01   5.482398e-03
  3.091323e+00    4.508735e-01   5.519366e-03
  3.093534e+00    4.437048e-01   5.471963e-03
  3.095744e+00    4.438241e-01   5.469323e-03
  3.097955e+00    4.476618e-01   5.489367e-03
  3.100165e+00    4.479274e-01   5.487676e-03
  3.102375e+00    4.346219e-01   5.402186e-03
  3.104586e+00    4.334410e-01   5.391377e-03
  3.106796e+00    4.392887e-01   5.424161e-03
  3.109007e+00    4.256094e-01   5.335880e-03
  3.111217e+00    4.379495e-01   5.409021e-03
  3.113428e+00    4.329833e-01   5.374908e-03
  3.115638e+00    4.466219e-01   5.455658e-03
  3.117849e+00    4.436422e-01   5.433719e-03
  3.120059e+00    4.427631e-01   5.424879e-03
  3.122270e+00    4.481174e-01   5.454308e-03
  3.124480e+00    4.435259e-01   5.422623e-03
  3.126691e+00    4.442722e-01   5.423606e-03
  3.128901e+00    4.411061e-01   5.401150e-03
  3.131111e+00    4.396009e-01   5.388097e-03
  3.133322e+00    4.372963e-01   5.370552e-03
  3.135532e+00    4.272070e-01   5.304890e-03
  3.137743e+00    4.346103e-01   5.347205e-03
  3.139953e+00    4.461646e-01   5.414130e-03
  3.142164e+00    4.444712e-01   5.415883e-03
  3.144374e+00    4.485870e-01   5.469506e-03
  3.146585e+00    4.465113e-01   5.471476e-03
  3.148795e+00    4.258002e-01   5.353654e-03
  3.151006e+00    4.310210e-01   5.394790e-03
  3.153216e+00    4.292387e-01   5.390666e-03
  3.155426e+00    4.491478e-01   5.520627e-03
  3.157637e+00    4.437208e-01   5.492738e-03
  3.159847e+00    4.349686e-01   5.443124e-03
  3.162058e+00    4.440123e-01   5.503871e-03
  3.164268e+00    4.306315e-01   5.424340e-03
  3.166479e+00    4.280293e-01   5.411501e-03
  3.168689e+00    4.428103e-01   5.507541e-03
  3.170900e+00    4.405665e-01   5.496754e-03
  3.173110e+00    4.177094e-01   5.355054e-03
  3.175321e+00    4.395716e-01   5.495898e-03
  3.177531e+00    4.341570e-01   5.464683e-03
  3.179741e+00    4.258468e-01   5.414166e-03
  3.181952e+00    4.380049e-01   5.493027e-03
  3.184162e+00    4.328831e-01   5.462992e-03
  3.186373e+00    4.372230e-01   5.491905e-03
  3.188583e+00    4.393362e-01   5.506968e-03
  3.190794e+00    4.360461e-01   5.488059e-03
  3.193004e+00    4.173890e-01   5.370583e-03
  3.195215e+00    4.370803e-01   5.497300e-03
  3.197425e+00    4.313228e-01   5.462187e-03
  3.199636e+00    4.341565e-01   5.479334e-03
  3.201846e+00    4.324447e-01   5.467916e-03
  3.204056e+00    4.262443e-01   5.429467e-03
  3.206267e+00    4.134185e-01   5.347961e-03
  3.208477e+00    4.184950e-01   5.381616e-03
  3.210688e+00    4.248708e-01   5.423283e-03
  3.212898e+00    4.278228e-01   5.442677e-03
  3.215109e+00    4.293171e-01   5.452901e-03
  3.217319e+00    4.345749e-01   5.486859e-03
  3.219530e+00    4.281161e-01   5.446304e-03
  3.221740e+00    4.222431e-01   5.409376e-03
  3.223951e+00    4.189321e-01   5.388596e-03
  3.226161e+00    4.199037e-01   5.395017e-03
  3.228372e+00    4.211236e-01   5.403393e-03
  3.230582e+00    4.105422e-01   5.335199e-03
  3.232792e+00    4.151843e-01   5.365485e-03
  3.235003e+00    4.273876e-01   5.444013e-03
  3.237213e+00    4.297383e-01   5.459089e-03
  3.239424e+00    4.184321e-01   5.386773e-03
  3.241634e+00    4.239298e-01   5.422197e-03
  3.243845e+00    4.279939e-01   5.448168e-03
  3.246055e+00    4.201881e-01   5.398005e-03
  3.248266e+00    4.252087e-01   5.430348e-03
  3.250476e+00    4.249490e-01   5.428394e-03
  3.252687e+00    4.215445e-01   5.406532e-03
  3.254897e+00    4.171721e-01   5.378291e-03
  3.257107e+00    4.196236e-01   5.393751e-03
  3.259318e+00    4.186927e-01   5.387558e-03
  3.261528e+00    4.353406e-01   5.493449e-03
  3.263739e+00    4.384144e-01   5.512278e-03
  3.265949e+00    4.236028e-01   5.418222e-03
  3.268160e+00    4.252380e-01   5.428263e-03
  3.270370e+00    4.099478e-01   5.329276e-03
  3.272581e+00    4.167658e-01   5.373125e-03
  3.274791e+00    4.077975e-01   5.314489e-03
  3.277002e+00    4.104374e-01   5.331111e-03
  3.279212e+00    4.241236e-01   5.418880e-03
  3.281422e+00    4.276665e-01   5.440884e-03
  3.283633e+00    4.202145e-01   5.392603e-03
  3.285843e+00    4.372022e-01   5.500174e-03
  3.288054e+00    4.285938e-01   5.444827e-03
  3.290264e+00    4.183815e-01   5.379254e-03
  3.292475e+00    4.147884e-01   5.355280e-03
  3.294685e+00    4.179404e-01   5.374944e-03
  3.296896e+00    4.247839e-01   5.418033e-03
  3.299106e+00    4.289251e-01   5.443802e-03
  3.301317e+00    4.249734e-01   5.417657e-03
  3.303527e+00    4.285713e-01   5.440067e-03
  3.305737e+00    4.139646e-01   5.345526e-03
  3.307948e+00    4.148200e-01   5.350364e-03
  3.310158e+00    4.252450e-01   5.416339e-03
  3.312369e+00    4.147557e-01   5.348256e-03
  3.314579e+00    4.303868e-01   5.447169e-03
  3.316790e+00    4.210929e-01   5.387347e-03
  3.319000e+00    4.178131e-01   5.365143e-03
  3.321211e+00    4.192697e-01   5.373862e-03
  3.323421e+00    4.338229e-01   5.465130e-03
  3.325632e+00    4.184266e-01   5.366384e-03
  3.327842e+00    4.252919e-01   5.409310e-03
  3.330052e+00    4.257427e-01   5.411104e-03
  3.332263e+00    4.263875e-01   5.414192e-03
  3.334473e+00    4.155726e-01   5.344183e-03
  3.336684e+00    4.135824e-01   5.330107e-03
  3.338894e+00    4.206305e-01   5.374485e-03
  3.341105e+00    4.199175e-01   5.368729e-03
  3.343315e+00    4.001364e-01   5.239646e-03
  3.345526e+00    4.060661e-01   5.277427e-03
  3.347736e+00    4.261518e-01   5.404957e-03
  3.349947e+00    4.166840e-01   5.343659e-03
  3.352157e+00    4.141997e-01   5.326533e-03
  3.354368e+00    4.150925e-01   5.330981e-03
  3.356578e+00    4.142453e-01   5.324535e-03
  3.358788e+00    4.100696e-01   5.296309e-03
  3.360999e+00    4.113227e-01   5.303164e-03
  3.363209e+00    4.059063e-01   5.267128e-03
  3.365420e+00    4.027845e-01   5.245340e-03
  3.367630e+00    4.104516e-01   5.294024e-03
  3.369841e+00    4.153307e-01   5.323976e-03
  3.372051e+00    4.204591e-01   5.354746e-03
  3.374262e+00    4.219053e-01   5.361516e-03
  3.376472e+00    4.212464e-01   5.354858e-03
  3.378683e+00    4.173681e-01   5.327638e-03
  3.380893e+00    4.102347e-01   5.279595e-03
  3.383103e+00    4.158442e-01   5.312851e-03
  3.385314e+00    4.155932e-01   5.309046e-03
  3.387524e+00    4.002002e-01   5.207092e-03
  3.389735e+00    4.119925e-01   5.280634e-03
  3.391945e+00    4.136678e-01   5.287681e-03
  3.394156e+00    4.016489e-01   5.206142e-03
  3.396366e+00    3.978023e-01   5.177807e-03
  3.398577e+00    4.015214e-01   5.198925e-03
  3.400787e+00    4.136436e-01   5.288785e-03
  3.402998e+00    4.044662e-01   5.267604e-03
  3.405208e+00    3.968170e-01   5.237979e-03
  3.407418e+00    4.094456e-01   5.336618e-03
  3.409629e+00    4.056939e-01   5.326172e-03
  3.411839e+00    3.859785e-01   5.206723e-03
  3.414050e+00    3.934986e-01   5.268119e-03
  3.416260e+00    4.004761e-01   5.324351e-03
  3.418471e+00    3.791996e-01   5.190244e-03
  3.420681e+00    3.709348e-01   5.141610e-03
  3.422892e+00    3.724826e-01   5.160136e-03
  3.425102e+00    3.829383e-01   5.239794e-03
  3.427313e+00    3.781536e-01   5.214094e-03
  3.429523e+00    3.701054e-01   5.165169e-03
  3.431733e+00    3.739804e-01   5.198711e-03
  3.433944e+00    3.878270e-01   5.300590e-03
  3.436154e+00    3.792187e-01   5.247668e-03
  3.438365e+00    3.822336e-01   5.274388e-03
  3.440575e+00    3.623282e-01   5.141015e-03
  3.442786e+00    3.846993e-01   5.302982e-03
  3.444996e+00    3.578149e-01   5.119734e-03
  3.447207e+00    3.591979e-01   5.134748e-03
  3.449417e+00    3.650568e-01   5.216918e-03
  3.451628e+00    3.571490e-01   5.189104e-03
  3.453838e+00    3.461547e-01   5.129118e-03
  3.456049e+00    3.571185e-01   5.233290e-03
  3.458259e+00    3.654777e-01   5.316081e-03
  3.460469e+00    3.648325e-01   5.331164e-03
  3.462680e+00    3.691323e-01   5.381583e-03
  3.464890e+00    3.684481e-01   5.394468e-03
  3.467101e+00    3.613427e-01   5.359532e-03
  3.469311e+00    3.646532e-01   5.400402e-03
  3.471522e+00    3.781886e-01   5.516223e-03
  3.473732e+00    3.900294e-01   5.618068e-03
  3.475943e+00    3.918115e-01   5.646790e-03
  3.478153e+00    4.039961e-01   5.749695e-03
  3.480364e+00    4.054089e-01   5.775096e-03
  3.482574e+00    4.124588e-01   5.840606e-03
  3.484784e+00    4.151973e-01   5.874917e-03
  3.486995e+00    4.261754e-01   5.967357e-03
  3.489205e+00    4.316227e-01   6.020198e-03
  3.491416e+00    4.308099e-01   6.029507e-03
  3.493626e+00    4.360581e-01   6.080711e-03
  3.495837e+00    4.392844e-01   6.117927e-03
  3.498047e+00    4.456230e-01   6.176391e-03
  3.500258e+00    4.518917e-01   6.234266e-03
  3.502468e+00    4.699114e-01   6.372029e-03
  3.504679e+00    4.636346e-01   6.343848e-03
  3.506889e+00    4.820645e-01   6.483416e-03
  3.509099e+00    4.545963e-01   6.310087e-03
  3.511310e+00    4.808356e-01   6.504178e-03
  3.513520e+00    4.927135e-01   6.598596e-03
  3.515731e+00    4.779299e-01   6.513114e-03
  3.517941e+00    4.769641e-01   6.520689e-03
  3.520152e+00    4.917871e-01   6.635511e-03
  3.522362e+00    5.052455e-01   6.740237e-03
  3.524573e+00    5.131400e-01   6.807064e-03
  3.526783e+00    5.113701e-01   6.808719e-03
  3.528994e+00    5.038654e-01   6.770617e-03
  3.531204e+00    5.120935e-01   6.838039e-03
  3.533414e+00    5.298671e-01   6.967800e-03
  3.535625e+00    5.324239e-01   6.997046e-03
  3.537835e+00    5.223145e-01   6.942276e-03
  3.540046e+00    5.420817e-01   7.081414e-03
  3.542256e+00    5.300536e-01   7.009911e-03
  3.544467e+00    5.230159e-01   6.970740e-03
  3.546677e+00    5.298945e-01   7.023968e-03
  3.548888e+00    5.367305e-01   7.076617e-03
  3.551098e+00    5.428856e-01   7.124425e-03
  3.553309e+00    5.378523e-01   7.099506e-03
  3.555519e+00    5.278106e-01   7.044124e-03
  3.557729e+00    5.307142e-01   7.075138e-03
  3.559940e+00    5.163252e-01   6.989907e-03
  3.562150e+00    5.219067e-01   7.039129e-03
  3.564361e+00    5.374217e-01   7.156332e-03
  3.566571e+00    5.448102e-01   7.219291e-03
  3.568782e+00    5.429254e-01   7.221004e-03
  3.570992e+00    5.299829e-01   7.148128e-03
  3.573203e+00    5.115995e-01   7.036856e-03
  3.575413e+00    5.295869e-01   7.173166e-03
  3.577624e+00    5.154184e-01   7.090435e-03
  3.579834e+00    5.309771e-01   7.210449e-03
  3.582045e+00    5.274389e-01   7.200321e-03
  3.584255e+00    5.606306e-01   7.437767e-03
  3.586465e+00    5.368499e-01   7.292303e-03
  3.588676e+00    5.505300e-01   7.398990e-03
  3.590886e+00    5.397434e-01   7.339909e-03
  3.593097e+00    5.325533e-01   7.305321e-03
  3.595307e+00    5.255604e-01   7.270999e-03
  3.597518e+00    5.206689e-01   7.251059e-03
  3.599728e+00    5.433445e-01   7.421489e-03
  3.601939e+00    5.198153e-01   7.272926e-03
  3.604149e+00    5.328894e-01   7.378116e-03
  3.606360e+00    5.324450e-01   7.389187e-03
  3.608570e+00    5.299554e-01   7.385961e-03
  3.610780e+00    5.279239e-01   7.382804e-03
  3.612991e+00    5.340791e-01   7.435702e-03
  3.615201e+00    5.102264e-01   7.277335e-03
  3.617412e+00    5.304562e-01   7.427454e-03
  3.619622e+00    5.421878e-01   7.515095e-03
  3.621833e+00    5.475139e-01   7.558742e-03
  3.624043e+00    5.365767e-01   7.492395e-03
  3.626254e+00    5.369626e-01   7.504817e-03
  3.628464e+00    5.091341e-01   7.318481e-03
  3.630675e+00    5.249248e-01   7.445073e-03
  3.632885e+00    5.156054e-01   7.392894e-03
  3.635095e+00    5.349036e-01   7.544388e-03
  3.637306e+00    5.409324e-01   7.601274e-03
  3.639516e+00    5.198076e-01   7.465712e-03
  3.641727e+00    5.250610e-01   7.517776e-03
  3.643937e+00    5.343857e-01   7.598818e-03
  3.646148e+00    5.261323e-01   7.554422e-03
  3.648358e+00    5.234932e-01   7.550173e-03
  3.650569e+00    5.288454e-01   7.603347e-03
  3.652779e+00    5.280812e-01   7.612566e-03
  3.654990e+00    5.241488e-01   7.598956e-03
  3.657200e+00    5.174202e-01   7.564655e-03
  3.659410e+00    5.429007e-01   7.763842e-03
  3.661621e+00    5.330892e-01   7.708471e-03
  3.663831e+00    5.320544e-01   7.716122e-03
  3.666042e+00    5.514981e-01   7.871263e-03
  3.668252e+00    5.212367e-01   7.667425e-03
  3.670463e+00    5.053055e-01   7.564141e-03
  3.672673e+00    5.321127e-01   7.777631e-03
  3.674884e+00    5.157993e-01   7.672691e-03
  3.677094e+00    5.418991e-01   7.880071e-03
  3.679305e+00    5.297910e-01   7.807099e-03
  3.681515e+00    5.507253e-01   7.975754e-03
  3.683726e+00    5.567515e-01   8.035476e-03
  3.685936e+00    5.391161e-01   7.923077e-03
  3.688146e+00    5.172594e-01   7.776411e-03
  3.690357e+00    5.114713e-01   7.748472e-03
  3.692567e+00    5.159951e-01   7.798575e-03
  3.694778e+00    5.395533e-01   7.990899e-03
  3.696988e+00    5.252128e-01   7.899973e-03
  3.699199e+00    5.105261e-01   7.804706e-03
  3.701409e+00    5.078653e-01   7.800493e-03
  3.703620e+00    5.031134e-01   7.779839e-03
  3.705830e+00    5.073422e-01   7.828603e-03
  3.708041e+00    5.014343e-01   7.799157e-03
  3.710251e+00    4.977537e-01   7.786732e-03
  3.712461e+00    5.268790e-01   8.028122e-03
  3.714672e+00    5.321847e-01   8.085358e-03
  3.716882e+00    5.049042e-01   7.891834e-03
  3.719093e+00    5.212678e-01   8.035877e-03
  3.721303e+00    4.999256e-01   7.886248e-03
  3.723514e+00    5.263803e-01   8.109641e-03
  3.725724e+00    5.088350e-01   7.990347e-03
  3.727935e+00    4.880990e-01   7.842757e-03
  3.730145e+00    5.181255e-01   8.097719e-03
  3.732356e+00    5.263457e-01   8.179454e-03
  3.734566e+00    5.227088e-01   8.168765e-03
  3.736776e+00    5.120383e-01   8.102732e-03
  3.738987e+00    5.089561e-01   8.095920e-03
  3.741197e+00    5.005692e-01   8.046743e-03
  3.743408e+00    4.987630e-01   8.049953e-03
  3.745618e+00    5.155408e-01   8.202635e-03
  3.747829e+00    5.252746e-01   8.297990e-03
  3.750039e+00    5.240403e-01   8.306915e-03
  3.752250e+00    5.028933e-01   8.155880e-03
  3.754460e+00    4.787540e-01   7.975678e-03
  3.756671e+00    5.026989e-01   8.191367e-03
  3.758881e+00    5.078897e-01   8.252167e-03
  3.761091e+00    4.976342e-01   8.187360e-03
  3.763302e+00    4.957337e-01   8.190594e-03
  3.765512e+00    5.057110e-01   8.291806e-03
  3.767723e+00    5.086211e-01   8.334990e-03
  3.769933e+00    4.886083e-01   8.188383e-03
  3.772144e+00    4.867899e-01   8.192305e-03
  3.774354e+00    4.994331e-01   8.317743e-03
  3.776565e+00    4.935885e-01   8.288538e-03
  3.778775e+00    5.270140e-01   8.584987e-03
  3.780986e+00    5.271368e-01   8.606786e-03
  3.783196e+00    4.949921e-01   8.360315e-03
  3.785407e+00    4.922074e-01   8.356947e-03
  3.787617e+00    5.053333e-01   8.488425e-03
  3.789827e+00    5.165129e-01   8.602672e-03
  3.792038e+00    4.772657e-01   8.289680e-03
  3.794248e+00    5.113887e-01   8.602250e-03
  3.796459e+00    4.933201e-01   8.470158e-03
  3.798669e+00    4.936912e-01   8.494521e-03
  3.800880e+00    4.878532e-01   8.465389e-03
  3.803090e+00    4.937264e-01   8.537748e-03
  3.805301e+00    4.951938e-01   8.572495e-03
  3.807511e+00    5.043192e-01   8.673199e-03
  3.809722e+00    5.014560e-01   8.670811e-03
  3.811932e+00    5.066898e-01   8.738291e-03
  3.814142e+00    5.097897e-01   8.788175e-03
  3.816353e+00    5.081892e-01   8.797361e-03
  3.818563e+00    4.956609e-01   8.711291e-03
  3.820774e+00    4.839762e-01   8.630842e-03
  3.822984e+00    4.764542e-01   8.586367e-03
  3.825195e+00    4.655106e-01   8.510089e-03
  3.827405e+00    4.933195e-01   8.784435e-03
  3.829616e+00    4.903473e-01   8.781764e-03
  3.831826e+00    5.025242e-01   8.914413e-03
  3.834037e+00    5.105459e-01   9.010220e-03
  3.836247e+00    4.728196e-01   8.694974e-03
  3.838457e+00    4.765432e-01   8.753648e-03
  3.840668e+00    4.851495e-01   8.857188e-03
  3.842878e+00    4.970501e-01   8.990799e-03
  3.845089e+00    4.815513e-01   8.874660e-03
  3.847299e+00    4.764507e-01   8.852889e-03
  3.849510e+00    4.810601e-01   8.921010e-03
  3.851720e+00    4.944157e-01   9.065454e-03
  3.853931e+00    4.960853e-01   9.099769e-03
  3.856141e+00    4.839507e-01   9.006581e-03
  3.858352e+00    4.788055e-01   8.977495e-03
  3.860562e+00    4.859197e-01   9.063154e-03
  3.862772e+00    4.808422e-01   9.034947e-03
  3.864983e+00    4.763220e-01   9.011705e-03
  3.867193e+00    4.829755e-01   9.094001e-03
  3.869404e+00    4.850348e-01   9.132969e-03
  3.871614e+00    5.094627e-01   9.380497e-03
  3.873825e+00    4.800138e-01   9.125362e-03
  3.876035e+00    4.648166e-01   8.999721e-03
  3.878246e+00    4.556667e-01   8.935531e-03
  3.880456e+00    4.651851e-01   9.056506e-03
  3.882667e+00    4.686590e-01   9.118880e-03
  3.884877e+00    4.756480e-01   9.215860e-03
  3.887087e+00    5.067979e-01   9.543305e-03
  3.889298e+00    4.717842e-01   9.237492e-03
  3.891508e+00    4.686081e-01   9.236141e-03
  3.893719e+00    4.798264e-01   9.376694e-03
  3.895929e+00    4.978963e-01   9.583261e-03
  3.898140e+00    5.074492e-01   9.707038e-03
  3.900350e+00    5.194937e-01   9.854665e-03
  3.902561e+00    4.754594e-01   9.459608e-03
  3.904771e+00    4.861671e-01   9.598193e-03
  3.906982e+00    4.945729e-01   9.714128e-03
  3.909192e+00    4.831319e-01   9.634421e-03
  3.911403e+00    4.799241e-01   9.636097e-03
  3.913613e+00    4.778338e-01   9.648919e-03
  3.915823e+00    4.858941e-01   9.764760e-03
  3.918034e+00    4.882834e-01   9.823867e-03
  3.920244e+00    5.248544e-01   1.022225e-02
  3.922455e+00    4.858952e-01   9.871623e-03
  3.924665e+00    4.452294e-01   9.484154e-03
  3.926876e+00    4.853464e-01   9.939276e-03
  3.929086e+00    4.908511e-01   1.003300e-02
  3.931297e+00    4.885617e-01   1.004440e-02
  3.933507e+00    4.813061e-01   9.998221e-03
  3.935718e+00    5.038015e-01   1.025849e-02
  3.937928e+00    5.090756e-01   1.034220e-02
  3.940138e+00    4.826660e-01   1.009947e-02
  3.942349e+00    4.680269e-01   9.974502e-03
  3.944559e+00    4.652678e-01   9.974261e-03
  3.946770e+00    5.092278e-01   1.046576e-02
  3.948980e+00    4.834704e-01   1.022828e-02
  3.951191e+00    4.849488e-01   1.027462e-02
  3.953401e+00    4.878051e-01   1.033636e-02
  3.955612e+00    4.899317e-01   1.039053e-02
  3.957822e+00    4.620769e-01   1.012183e-02
  3.960033e+00    4.684948e-01   1.022383e-02
  3.962243e+00    4.554506e-01   1.011235e-02
  3.964453e+00    4.705280e-01   1.031086e-02
  3.966664e+00    4.891887e-01   1.054693e-02
  3.968874e+00    4.851526e-01   1.053168e-02
  3.971085e+00    5.194909e-01   1.092069e-02
  3.973295e+00    4.896570e-01   1.062407e-02
  3.975506e+00    5.072388e-01   1.083512e-02
  3.977716e+00    5.449798e-01   1.125440e-02
  3.979927e+00    4.865411e-01   1.065605e-02
  3.982137e+00    5.015637e-01   1.084188e-02
  3.984348e+00    4.817481e-01   1.064814e-02
  3.986558e+00    4.772345e-01   1.062018e-02
  3.988768e+00    4.654894e-01   1.051122e-02
  3.990979e+00    4.995454e-01   1.091205e-02
  3.993189e+00    4.625008e-01   1.052223e-02
  3.995400e+00    4.707137e-01   1.063839e-02
  3.997610e+00    4.496214e-01   1.042603e-02
  3.999821e+00    4.656855e-01   1.064733e-02
  4.002031e+00    4.813647e-01   1.086344e-02
  4.004242e+00    4.757468e-01   1.083801e-02
  4.006452e+00    4.548601e-01   1.063553e-02
  4.008663e+00    4.583990e-01   1.071568e-02
  4.010873e+00    4.616505e-01   1.079271e-02
  4.013084e+00    4.543535e-01   1.074670e-02
  4.015294e+00    4.613071e-01   1.086854e-02
  4.017504e+00    4.889820e-01   1.123198e-02
  4.019715e+00    4.728828e-01   1.108744e-02
  4.021925e+00    4.955659e-01   1.139379e-02
  4.024136e+00    4.842516e-01   1.130669e-02
  4.026346e+00    4.772459e-01   1.126840e-02
  4.028557e+00    4.457590e-01   1.093293e-02
  4.030767e+00    4.542423e-01   1.108057e-02
  4.032978e+00    4.510669e-01   1.108654e-02
  4.035188e+00    4.691146e-01   1.135168e-02
  4.037399e+00    4.627985e-01   1.132152e-02
  4.039609e+00    5.007554e-01   1.182524e-02
  4.041819e+00    4.663652e-01   1.145982e-02
  4.044030e+00    5.037093e-01   1.196074e-02
  4.046240e+00    4.838724e-01   1.177290e-02
  4.048451e+00    4.530321e-01   1.144074e-02
  4.050661e+00    4.952421e-01   1.201388e-02
  4.052872e+00    4.831772e-01   1.191961e-02
  4.055082e+00    4.520748e-01   1.158130e-02
  4.057293e+00    4.530650e-01   1.164601e-02
  4.059503e+00    5.022990e-01   1.231819e-02
  4.061714e+00    4.568708e-01   1.180320e-02
  4.063924e+00    4.980040e-01   1.238037e-02
  4.066134e+00    4.971767e-01   1.242872e-02
  4.068345e+00    4.419977e-01   1.177505e-02
  4.070555e+00    4.662322e-01   1.215185e-02
  4.072766e+00    4.830453e-01   1.242986e-02
  4.074976e+00    4.795774e-01   1.244706e-02
  4.077187e+00    4.687460e-01   1.236684e-02
  4.079397e+00    4.800393e-01   1.257886e-02
  4.081608e+00    4.658876e-01   1.245649e-02
  4.083818e+00    4.963318e-01   1.292381e-02
  4.086029e+00    5.015699e-01   1.306048e-02
  4.088239e+00    4.555456e-01   1.251387e-02
  4.090449e+00    4.661187e-01   1.272669e-02
  4.092660e+00    4.552627e-01   1.264702e-02
  4.094870e+00    4.905449e-01   1.320092e-02
  4.097081e+00    4.747034e-01   1.305703e-02
  4.099291e+00    5.014876e-01   1.347597e-02
  4.101502e+00    4.892564e-01   1.336032e-02
  4.103712e+00    4.994176e-01   1.354856e-02
  4.105923e+00    4.935573e-01   1.352106e-02
  4.108133e+00    4.893398e-01   1.351493e-02
  4.110344e+00    5.053546e-01   1.378692e-02
  4.112554e+00    4.789070e-01   1.347433e-02
  4.114764e+00    4.922997e-01   1.371637e-02
  4.116975e+00    4.856984e-01   1.367780e-02
  4.119185e+00    4.799156e-01   1.365123e-02
  4.121396e+00    4.622731e-01   1.345350e-02
  4.123606e+00    4.814029e-01   1.378519e-02
  4.125817e+00    4.444025e-01   1.330041e-02
  4.128027e+00    4.609926e-01   1.360345e-02
  4.130238e+00    5.117880e-01   1.439476e-02
  4.132448e+00    5.294189e-01   1.470408e-02
  4.134659e+00    4.943497e-01   1.427003e-02
  4.136869e+00    4.712189e-01   1.399425e-02
  4.139080e+00    5.181391e-01   1.474035e-02
  4.141290e+00    4.766847e-01   1.420137e-02
  4.143500e+00    4.644324e-01   1.408214e-02
  4.145711e+00    5.184271e-01   1.494775e-02
  4.147921e+00    4.802239e-01   1.445248e-02
  4.150132e+00    4.824013e-01   1.455429e-02
  4.152342e+00    4.578078e-01   1.424721e-02
  4.154553e+00    4.820383e-01   1.468887e-02
  4.156763e+00    4.670147e-01   1.452982e-02
  4.158974e+00    4.180452e-01   1.381572e-02
  4.161184e+00    5.005172e-01   1.519239e-02
  4.163395e+00    4.986131e-01   1.524093e-02
  4.165605e+00    5.075690e-01   1.545710e-02
  4.167815e+00    5.038925e-01   1.548147e-02
  4.170026e+00    5.243657e-01   1.587598e-02
  4.172236e+00    4.845141e-01   1.534335e-02
  4.174447e+00    4.777732e-01   1.531911e-02
  4.176657e+00    4.448361e-01   1.486234e-02
  4.178868e+00    4.735159e-01   1.542092e-02
  4.181078e+00    4.700392e-01   1.545065e-02
  4.183289e+00    4.784393e-01   1.567735e-02
  4.185499e+00    5.064887e-01   1.622545e-02
  4.187710e+00    4.952050e-01   1.613787e-02
  4.189920e+00    4.503309e-01   1.548190e-02
  4.192130e+00    5.063344e-01   1.651668e-02
  4.194341e+00    5.028787e-01   1.656109e-02
  4.196551e+00    4.306590e-01   1.542302e-02
  4.198762e+00    4.821993e-01   1.642324e-02
  4.200972e+00    4.659120e-01   1.624828e-02
  4.203183e+00    4.662044e-01   1.636015e-02
  4.205393e+00    4.401625e-01   1.600284e-02
  4.207604e+00    4.029903e-01   1.541657e-02
  4.209814e+00    4.413283e-01   1.624363e-02
  4.212025e+00    5.021697e-01   1.745006e-02
  4.214235e+00    5.085653e-01   1.768548e-02
  4.216445e+00    5.023673e-01   1.770424e-02
  4.218656e+00    5.047468e-01   1.787924e-02
  4.220866e+00    4.828244e-01   1.761616e-02
  4.223077e+00    4.987864e-01   1.804289e-02
  4.225287e+00    5.068365e-01   1.833059e-02
  4.227498e+00    5.120082e-01   1.856864e-02
  4.229708e+00    4.636143e-01   1.781307e-02
  4.231919e+00    4.780731e-01   1.823816e-02
  4.234129e+00    5.222918e-01   1.922294e-02
  4.236340e+00    4.551757e-01   1.809907e-02
  4.238550e+00    5.003971e-01   1.914404e-02
  4.240761e+00    5.217582e-01   1.972141e-02
  4.242971e+00    4.306853e-01   1.808180e-02
  4.245181e+00    4.533933e-01   1.872661e-02
  4.247392e+00    5.180981e-01   2.020512e-02
  4.249602e+00    5.439968e-01   2.090991e-02
  4.251813e+00    4.975214e-01   2.019431e-02
  4.254023e+00    4.403831e-01   1.918966e-02
  4.256234e+00    5.647898e-01   2.196484e-02
  4.258444e+00    5.483186e-01   2.186870e-02
  4.260655e+00    4.603131e-01   2.025736e-02
  4.262865e+00    5.142518e-01   2.165383e-02
  4.265076e+00    4.489193e-01   2.046220e-02
  4.267286e+00    5.381632e-01   2.266880e-02
  4.269496e+00    5.105139e-01   2.234924e-02
  4.271707e+00    4.802893e-01   2.194502e-02
  4.273917e+00    4.734219e-01   2.206889e-02
  4.276128e+00    4.659894e-01   2.218638e-02
  4.278338e+00    4.656703e-01   2.247443e-02
  4.280549e+00    4.547043e-01   2.252686e-02
  4.282759e+00    4.430856e-01   2.255737e-02
  4.284970e+00    4.624659e-01   2.338594e-02
  4.287180e+00    4.698949e-01   2.385493e-02
  4.289391e+00    5.761063e-01   2.661257e-02
  4.291601e+00    4.532285e-01   2.379324e-02
  4.293811e+00    4.568951e-01   2.407572e-02
  4.296022e+00    4.990829e-01   2.536480e-02
  4.298232e+00    4.756354e-01   2.496976e-02
  4.300443e+00    4.941125e-01   2.565979e-02
  4.302653e+00    4.143394e-01   2.370107e-02
  4.304864e+00    4.411811e-01   2.466802e-02
  4.307074e+00    3.617260e-01   2.253769e-02
  4.309285e+00    4.593389e-01   2.562736e-02
  4.311495e+00    4.447738e-01   2.545431e-02
  4.313706e+00    4.651093e-01   2.627395e-02
  4.315916e+00    4.045147e-01   2.474400e-02
  4.318126e+00    4.731221e-01   2.702448e-02
  4.320337e+00    4.694316e-01   2.719175e-02
  4.322547e+00    4.699657e-01   2.749553e-02
  4.324758e+00    3.896296e-01   2.529597e-02
  4.326968e+00    4.300162e-01   2.687348e-02
  4.329179e+00    5.935460e-01   3.192087e-02
  4.331389e+00    5.061881e-01   2.981698e-02
  4.333600e+00    4.667672e-01   2.897608e-02
  4.335810e+00    4.603051e-01   2.911661e-02
  4.338021e+00    3.496336e-01   2.569969e-02
  4.340231e+00    5.295938e-01   3.202783e-02
  4.342442e+00    4.720380e-01   3.064346e-02
  4.344652e+00    4.037661e-01   2.872512e-02
  4.346862e+00    4.743436e-01   3.157084e-02
  4.349073e+00    4.571922e-01   3.144600e-02
  4.351283e+00    4.148551e-01   3.040165e-02
  4.353494e+00    5.660658e-01   3.606193e-02
  4.355704e+00    3.689488e-01   2.958259e-02
  4.357915e+00    4.072419e-01   3.159612e-02
  4.360125e+00    4.902532e-01   3.525975e-02
  4.362336e+00    4.216996e-01   3.329812e-02
  4.364546e+00    4.319978e-01   3.431442e-02
  4.366757e+00    3.771781e-01   3.270209e-02
  4.368967e+00    3.110516e-01   3.029083e-02
  4.371177e+00    3.400842e-01   3.234352e-02
  4.373388e+00    5.933464e-01   4.367901e-02
  4.375598e+00    4.547700e-01   3.911319e-02
  4.377809e+00    3.027278e-01   3.271690e-02
  4.380019e+00    4.825886e-01   4.234878e-02
  4.382230e+00    3.954709e-01   3.940733e-02
  4.384440e+00    2.724411e-01   3.364751e-02
  4.386651e+00    4.292337e-01   4.353745e-02
  4.388861e+00    4.123832e-01   4.410683e-02
  4.391072e+00    4.559131e-01   4.800424e-02
  4.393282e+00    3.830000e-01   4.570201e-02
  4.395492e+00    4.680339e-01   5.261869e-02
  4.397703e+00    4.138382e-01   5.174045e-02
  4.399913e+00    5.545810e-01   6.292886e-02
  4.402124e+00    3.133757e-01   4.998718e-02
  4.404334e+00    2.027293e-01   4.273377e-02
  4.406545e+00    5.393643e-01   7.489292e-02
  4.408755e+00    2.814991e-01   5.868041e-02
  4.410966e+00    4.779024e-01   8.462173e-02
  4.413176e+00    1.718048e-01   5.743767e-02
  4.415387e+00   -6.467860e-01            nan
  4.417597e+00   -1.775232e+00            nan
  4.419807e+00   -3.766224e-01            nan
