# == pyFAI calibration ==
# Distance Sample to Detector: 0.216 m
# PONI: 1.166e-01, 1.308e-01 m
# Rotations: 0.000000 0.000000 0.000000 rad
# 
# == Fit2d calibration ==
# Distance Sample-beamCenter: 216.000 mm
# Center: x=1744.293, y=1555.000 pix
# Tilt: 0.000 deg  TiltPlanRot: 0.000 deg
# 
# Detector Eiger 9M	 PixelSize= 7.500e-05, 7.500e-05 m
#    Detector has a mask: True 
#    Detector has a dark current: False 
#    detector has a flat field: False 
# 
# Wavelength: 9.8e-11 m
# Mask applied: from detector
# Dark current applied: False
# Flat field applied: False
# Polarization factor: None
# Normalization factor: 1.0
# 
# Headers of the input frame:
# {
# "_array_data.header_convention": "SLS_1.0",
# "_array_data.header_contents": "# Detector: Dectris Eiger 9M, S/N E-18-0102\r\n# Pixel_size 75e-6 m x 75e-6 m\r\n# Silicon sensor, thickness 0.000450 m\r\n# Exposure_time 0.024997 s\r\n# Exposure_period 0.025000 s\r\n# Count_cutoff 62318 counts\r\n# Wavelength 0.980106 A\r\n# Detector_distance 0.215992 m\r\n# Beam_xy (1555, 1744) pixels\r\n# Start_angle 0.000000 deg.\r\n# Angle_increment 0.000000 deg.",
# "Content-Type": "application/octet-stream;",
# "conversions": "x-CBF_BYTE_OFFSET",
# "Content-Transfer-Encoding": "BINARY",
# "X-Binary-Size": "10166620",
# "X-Binary-ID": "1",
# "X-Binary-Element-Type": "signed 32-bit integer",
# "X-Binary-Element-Byte-Order": "LITTLE_ENDIAN",
# "Content-MD5": "ytmkURxpTMuoOSbE8w2Z6w==",
# "X-Binary-Number-of-Elements": "10166590",
# "X-Binary-Size-Fastest-Dimension": "3110",
# "X-Binary-Size-Second-Dimension": "3269",
# "X-Binary-Size-Padding": "4095"
# }
# --> H:/Proxima2a_2019-04-05/RAW_DATA/C5_gel17_position5/C5_mesh_1_data.cbf/C5_mesh_1_data.cbf000196.dat
#        q_A^-1              I           sigma 
  1.105228e-03    5.343472e-01   3.955475e-01
  3.315685e-03    1.225172e+00   3.641195e-01
  5.526141e-03    1.252545e+00   2.846878e-01
  7.736597e-03    1.511651e+00   2.642080e-01
  9.947054e-03    1.379003e+00   2.224637e-01
  1.215751e-02    1.388592e+00   2.018627e-01
  1.436797e-02    1.435989e+00   1.888214e-01
  1.657842e-02    1.362708e+00   1.712165e-01
  1.878888e-02    1.435668e+00   1.650785e-01
  2.099934e-02    1.308548e+00   1.491066e-01
  2.320979e-02    1.352233e+00   1.441646e-01
  2.542025e-02    1.454620e+00   1.428842e-01
  2.763070e-02    1.423319e+00   1.355631e-01
  2.984116e-02    1.510501e+00   1.343807e-01
  3.205162e-02    1.399194e+00   1.248031e-01
  3.426207e-02    1.387287e+00   1.201871e-01
  3.647253e-02    1.446606e+00   1.189501e-01
  3.868299e-02    1.414153e+00   1.142073e-01
  4.089344e-02    1.417686e+00   1.112169e-01
  4.310390e-02    1.459695e+00   1.099145e-01
  4.531436e-02    1.457692e+00   1.071270e-01
  4.752481e-02    1.522456e+00   1.069033e-01
  4.973527e-02    1.521634e+00   1.044737e-01
  5.194572e-02    1.453140e+00   9.989796e-02
  5.415618e-02    1.294312e+00   9.233326e-02
  5.636664e-02    1.438752e+00   9.542412e-02
  5.857709e-02    1.414552e+00   9.281625e-02
  6.078755e-02    1.508884e+00   9.409903e-02
  6.299801e-02    1.486652e+00   9.174896e-02
  6.520846e-02    1.575460e+00   9.283556e-02
  6.741892e-02    1.512960e+00   8.946716e-02
  6.962938e-02    1.342961e+00   8.294650e-02
  7.183983e-02    1.372063e+00   8.253896e-02
  7.405029e-02    1.418761e+00   8.266772e-02
  7.626074e-02    1.379736e+00   8.033195e-02
  7.847120e-02    1.428946e+00   8.059014e-02
  8.068166e-02    1.410897e+00   7.897431e-02
  8.289211e-02    1.504614e+00   8.045985e-02
  8.510257e-02    1.534536e+00   8.019326e-02
  8.731303e-02    1.475340e+00   7.762665e-02
  8.952348e-02    1.443898e+00   7.584307e-02
  9.173394e-02    1.453031e+00   7.515732e-02
  9.394439e-02    1.511375e+00   7.574177e-02
  9.615485e-02    1.481271e+00   7.411515e-02
  9.836531e-02    1.422640e+00   7.181084e-02
  1.005758e-01    1.439850e+00   7.144602e-02
  1.027862e-01    1.429984e+00   7.042930e-02
  1.049967e-01    1.540979e+00   7.233663e-02
  1.072071e-01    1.584257e+00   7.258444e-02
  1.094176e-01    1.489864e+00   6.967320e-02
  1.116280e-01    1.473194e+00   6.859139e-02
  1.138385e-01    1.589087e+00   7.054191e-02
  1.160490e-01    1.567031e+00   6.937943e-02
  1.182594e-01    1.610682e+00   6.967711e-02
  1.204699e-01    1.581356e+00   6.840305e-02
  1.226803e-01    1.577654e+00   6.770181e-02
  1.248908e-01    1.516821e+00   6.579284e-02
  1.271012e-01    1.584850e+00   6.666338e-02
  1.293117e-01    1.630336e+00   6.703205e-02
  1.315222e-01    1.518646e+00   6.414777e-02
  1.337326e-01    1.561861e+00   6.451294e-02
  1.359431e-01    1.560282e+00   6.451807e-02
  1.381535e-01    1.616072e+00   6.654276e-02
  1.403640e-01    1.590026e+00   6.628935e-02
  1.425744e-01    1.556781e+00   6.569748e-02
  1.447849e-01    1.505051e+00   6.461161e-02
  1.469953e-01    1.506627e+00   6.460495e-02
  1.492058e-01    1.514392e+00   6.469593e-02
  1.514163e-01    1.502836e+00   6.434160e-02
  1.536267e-01    1.638867e+00   6.705930e-02
  1.558372e-01    1.690299e+00   6.795312e-02
  1.580476e-01    1.654163e+00   6.705969e-02
  1.602581e-01    1.680523e+00   6.742023e-02
  1.624685e-01    1.635638e+00   6.633168e-02
  1.646790e-01    1.704067e+00   6.751055e-02
  1.668895e-01    1.591997e+00   6.506443e-02
  1.690999e-01    1.688429e+00   6.680477e-02
  1.713104e-01    1.740815e+00   6.762274e-02
  1.735208e-01    1.807559e+00   6.869260e-02
  1.757313e-01    1.846130e+00   6.920408e-02
  1.779417e-01    1.907204e+00   7.011006e-02
  1.801522e-01    1.915242e+00   7.003392e-02
  1.823626e-01    1.886025e+00   6.926629e-02
  1.845731e-01    1.971755e+00   7.059364e-02
  1.867836e-01    2.059962e+00   7.191186e-02
  1.889940e-01    1.974034e+00   7.016605e-02
  1.912045e-01    1.980315e+00   7.004287e-02
  1.934149e-01    1.964465e+00   6.952852e-02
  1.956254e-01    1.993932e+00   6.981702e-02
  1.978358e-01    2.064576e+00   7.079959e-02
  2.000463e-01    2.026415e+00   6.990978e-02
  2.022568e-01    2.019013e+00   6.955294e-02
  2.044672e-01    1.973321e+00   6.852587e-02
  2.066777e-01    2.019247e+00   6.908858e-02
  2.088881e-01    2.012748e+00   6.875169e-02
  2.110986e-01    1.902995e+00   6.662167e-02
  2.133090e-01    1.975159e+00   6.765245e-02
  2.155195e-01    1.894517e+00   6.603723e-02
  2.177300e-01    1.966348e+00   6.674893e-02
  2.199404e-01    1.926842e+00   6.433398e-02
  2.221509e-01    1.874262e+00   6.240823e-02
  2.243613e-01    1.888481e+00   6.185032e-02
  2.265718e-01    2.005470e+00   6.303481e-02
  2.287822e-01    2.060817e+00   6.326624e-02
  2.309927e-01    2.061472e+00   6.269988e-02
  2.332031e-01    2.046798e+00   6.194159e-02
  2.354136e-01    2.186608e+00   6.350324e-02
  2.376241e-01    2.281821e+00   6.436762e-02
  2.398345e-01    2.147686e+00   6.198491e-02
  2.420450e-01    2.158254e+00   6.169312e-02
  2.442554e-01    2.219201e+00   6.212718e-02
  2.464659e-01    2.238643e+00   6.197979e-02
  2.486763e-01    2.174596e+00   6.068521e-02
  2.508868e-01    2.101398e+00   5.927879e-02
  2.530973e-01    2.042439e+00   5.807896e-02
  2.553077e-01    2.089840e+00   5.839267e-02
  2.575182e-01    2.147813e+00   5.884682e-02
  2.597286e-01    2.061868e+00   5.732226e-02
  2.619391e-01    2.047388e+00   5.679177e-02
  2.641495e-01    2.074854e+00   5.685500e-02
  2.663600e-01    2.067937e+00   5.644801e-02
  2.685704e-01    2.022521e+00   5.552210e-02
  2.707809e-01    2.105854e+00   5.635366e-02
  2.729914e-01    2.108278e+00   5.609226e-02
  2.752018e-01    2.013635e+00   5.453344e-02
  2.774123e-01    2.071893e+00   5.503414e-02
  2.796227e-01    2.016556e+00   5.402566e-02
  2.818332e-01    1.991229e+00   5.341750e-02
  2.840436e-01    1.962059e+00   5.276777e-02
  2.862541e-01    1.987558e+00   5.285425e-02
  2.884646e-01    1.983674e+00   5.255198e-02
  2.906750e-01    2.004063e+00   5.257090e-02
  2.928855e-01    1.973578e+00   5.192784e-02
  2.950959e-01    1.859213e+00   5.016927e-02
  2.973064e-01    1.963053e+00   5.131958e-02
  2.995168e-01    1.959023e+00   5.103467e-02
  3.017273e-01    1.941371e+00   5.058025e-02
  3.039377e-01    1.881034e+00   4.957003e-02
  3.061482e-01    1.858014e+00   4.905264e-02
  3.083587e-01    1.862411e+00   4.889808e-02
  3.105691e-01    1.972154e+00   5.010320e-02
  3.127796e-01    1.873032e+00   4.862259e-02
  3.149900e-01    1.967219e+00   4.962247e-02
  3.172005e-01    1.919692e+00   4.881894e-02
  3.194109e-01    1.972070e+00   4.927620e-02
  3.216214e-01    1.850940e+00   4.754410e-02
  3.238319e-01    1.849583e+00   4.733836e-02
  3.260423e-01    1.869282e+00   4.740022e-02
  3.282528e-01    1.877748e+00   4.731832e-02
  3.304632e-01    1.824291e+00   4.645924e-02
  3.326737e-01    1.814300e+00   4.615105e-02
  3.348841e-01    1.880520e+00   4.680353e-02
  3.370946e-01    1.907650e+00   4.696258e-02
  3.393050e-01    1.879453e+00   4.643765e-02
  3.415155e-01    1.802524e+00   4.530633e-02
  3.437260e-01    1.777161e+00   4.481973e-02
  3.459364e-01    1.818125e+00   4.516561e-02
  3.481469e-01    1.797529e+00   4.474516e-02
  3.503573e-01    1.807235e+00   4.470235e-02
  3.525678e-01    1.831757e+00   4.484423e-02
  3.547782e-01    1.854233e+00   4.495544e-02
  3.569887e-01    1.826594e+00   4.446104e-02
  3.591992e-01    1.810016e+00   4.410222e-02
  3.614096e-01    1.780354e+00   4.358770e-02
  3.636201e-01    1.805270e+00   4.373739e-02
  3.658305e-01    1.788546e+00   4.338586e-02
  3.680410e-01    1.775296e+00   4.307615e-02
  3.702514e-01    1.848798e+00   4.381102e-02
  3.724619e-01    1.769992e+00   4.272116e-02
  3.746724e-01    1.797404e+00   4.290704e-02
  3.768828e-01    1.809596e+00   4.290746e-02
  3.790933e-01    1.788828e+00   4.252150e-02
  3.813037e-01    1.809285e+00   4.262405e-02
  3.835142e-01    1.762062e+00   4.192597e-02
  3.857246e-01    1.757505e+00   4.173620e-02
  3.879351e-01    1.785721e+00   4.193373e-02
  3.901455e-01    1.782108e+00   4.175792e-02
  3.923560e-01    1.803588e+00   4.187530e-02
  3.945665e-01    1.872339e+00   4.253066e-02
  3.967769e-01    1.825562e+00   4.186452e-02
  3.989874e-01    1.762774e+00   4.100982e-02
  4.011978e-01    1.840921e+00   4.178009e-02
  4.034083e-01    1.819787e+00   4.141207e-02
  4.056187e-01    1.791788e+00   4.096565e-02
  4.078292e-01    1.808768e+00   4.103477e-02
  4.100397e-01    1.778128e+00   4.056147e-02
  4.122501e-01    1.766005e+00   4.030207e-02
  4.144606e-01    1.779712e+00   4.033815e-02
  4.166710e-01    1.812198e+00   4.058364e-02
  4.188815e-01    1.848756e+00   4.086986e-02
  4.210919e-01    1.819433e+00   4.042563e-02
  4.233024e-01    1.794336e+00   4.002776e-02
  4.255128e-01    1.755552e+00   3.947837e-02
  4.277233e-01    1.776467e+00   3.959871e-02
  4.299338e-01    1.793261e+00   3.967099e-02
  4.321442e-01    1.738620e+00   3.895013e-02
  4.343547e-01    1.789374e+00   3.940282e-02
  4.365651e-01    1.846928e+00   3.991777e-02
  4.387756e-01    1.759242e+00   3.884957e-02
  4.409860e-01    1.791724e+00   3.909796e-02
  4.431965e-01    1.790410e+00   3.897554e-02
  4.454070e-01    1.819346e+00   3.917994e-02
  4.476174e-01    1.755648e+00   3.838227e-02
  4.498279e-01    1.777219e+00   3.851229e-02
  4.520383e-01    1.747415e+00   3.808317e-02
  4.542488e-01    1.707203e+00   3.754096e-02
  4.564592e-01    1.749334e+00   3.789939e-02
  4.586697e-01    1.726233e+00   3.754840e-02
  4.608801e-01    1.705675e+00   3.722417e-02
  4.630906e-01    1.742366e+00   3.752278e-02
  4.653011e-01    1.760352e+00   3.761679e-02
  4.675115e-01    1.731073e+00   3.720439e-02
  4.697220e-01    1.747436e+00   3.728196e-02
  4.719324e-01    1.704600e+00   3.672692e-02
  4.741429e-01    1.707978e+00   3.666856e-02
  4.763533e-01    1.719600e+00   3.669877e-02
  4.785638e-01    1.723815e+00   3.664880e-02
  4.807743e-01    1.693875e+00   3.623677e-02
  4.829847e-01    1.709124e+00   3.630754e-02
  4.851952e-01    1.706956e+00   3.619271e-02
  4.874056e-01    1.684361e+00   3.586171e-02
  4.896161e-01    1.702190e+00   3.596159e-02
  4.918265e-01    1.694693e+00   3.579323e-02
  4.940370e-01    1.688835e+00   3.564307e-02
  4.962475e-01    1.641036e+00   3.504830e-02
  4.984579e-01    1.670009e+00   3.526920e-02
  5.006684e-01    1.675112e+00   3.523689e-02
  5.028788e-01    1.691342e+00   3.532142e-02
  5.050893e-01    1.642999e+00   3.472830e-02
  5.072997e-01    1.651813e+00   3.473722e-02
  5.095102e-01    1.684366e+00   3.499381e-02
  5.117206e-01    1.700195e+00   3.507427e-02
  5.139311e-01    1.657682e+00   3.455102e-02
  5.161416e-01    1.636314e+00   3.424650e-02
  5.183520e-01    1.677557e+00   3.459298e-02
  5.205625e-01    1.678137e+00   3.451792e-02
  5.227729e-01    1.684526e+00   3.450289e-02
  5.249834e-01    1.697288e+00   3.455295e-02
  5.271938e-01    1.687698e+00   3.437480e-02
  5.294043e-01    1.699207e+00   3.441220e-02
  5.316148e-01    1.782582e+00   3.516560e-02
  5.338252e-01    1.815138e+00   3.540421e-02
  5.360357e-01    1.756546e+00   3.474882e-02
  5.382461e-01    1.715099e+00   3.425877e-02
  5.404566e-01    1.751675e+00   3.454335e-02
  5.426670e-01    1.764122e+00   3.458777e-02
  5.448775e-01    1.732067e+00   3.419553e-02
  5.470879e-01    1.752236e+00   3.431733e-02
  5.492984e-01    1.806601e+00   3.476813e-02
  5.515089e-01    1.819038e+00   3.481026e-02
  5.537193e-01    1.742405e+00   3.399405e-02
  5.559298e-01    1.779261e+00   3.427633e-02
  5.581402e-01    1.759237e+00   3.400847e-02
  5.603507e-01    1.769127e+00   3.402967e-02
  5.625611e-01    1.817824e+00   3.442000e-02
  5.647716e-01    1.811902e+00   3.428929e-02
  5.669821e-01    1.783645e+00   3.394751e-02
  5.691925e-01    1.762670e+00   3.367489e-02
  5.714030e-01    1.758201e+00   3.356046e-02
  5.736134e-01    1.729628e+00   3.321585e-02
  5.758239e-01    1.741490e+00   3.325840e-02
  5.780343e-01    1.722282e+00   3.300453e-02
  5.802448e-01    1.733286e+00   3.304047e-02
  5.824552e-01    1.712319e+00   3.277114e-02
  5.846657e-01    1.651170e+00   3.211357e-02
  5.868762e-01    1.650133e+00   3.203666e-02
  5.890866e-01    1.659252e+00   3.205840e-02
  5.912971e-01    1.636653e+00   3.177342e-02
  5.935075e-01    1.669786e+00   3.202709e-02
  5.957180e-01    1.636781e+00   3.164394e-02
  5.979284e-01    1.652325e+00   3.172892e-02
  6.001389e-01    1.694001e+00   3.206115e-02
  6.023494e-01    1.667694e+00   3.174666e-02
  6.045598e-01    1.632221e+00   3.134326e-02
  6.067703e-01    1.630631e+00   3.126498e-02
  6.089807e-01    1.661814e+00   3.149905e-02
  6.111912e-01    1.705725e+00   3.184878e-02
  6.134016e-01    1.689021e+00   3.162923e-02
  6.156121e-01    1.689452e+00   3.157040e-02
  6.178226e-01    1.673645e+00   3.136014e-02
  6.200330e-01    1.698967e+00   3.153416e-02
  6.222435e-01    1.724411e+00   3.170648e-02
  6.244539e-01    1.679594e+00   3.123049e-02
  6.266644e-01    1.672711e+00   3.110564e-02
  6.288748e-01    1.657850e+00   3.090687e-02
  6.310853e-01    1.714139e+00   3.136614e-02
  6.332957e-01    1.751198e+00   3.164220e-02
  6.355062e-01    1.715710e+00   3.125911e-02
  6.377167e-01    1.700812e+00   3.106336e-02
  6.399271e-01    1.731699e+00   3.128410e-02
  6.421376e-01    1.719289e+00   3.111231e-02
  6.443480e-01    1.705148e+00   3.092516e-02
  6.465585e-01    1.701118e+00   3.083007e-02
  6.487689e-01    1.662752e+00   3.042288e-02
  6.509794e-01    1.681235e+00   3.053378e-02
  6.531899e-01    1.675232e+00   3.042194e-02
  6.554003e-01    1.612768e+00   2.979324e-02
  6.576108e-01    1.631030e+00   2.990566e-02
  6.598212e-01    1.611224e+00   2.966831e-02
  6.620317e-01    1.576230e+00   2.928996e-02
  6.642421e-01    1.607862e+00   2.952765e-02
  6.664526e-01    1.645608e+00   2.981723e-02
  6.686630e-01    1.578674e+00   2.915053e-02
  6.708735e-01    1.595781e+00   2.925428e-02
  6.730840e-01    1.621658e+00   2.943675e-02
  6.752944e-01    1.602589e+00   2.920995e-02
  6.775049e-01    1.616251e+00   2.928093e-02
  6.797153e-01    1.624300e+00   2.930060e-02
  6.819258e-01    1.614022e+00   2.915507e-02
  6.841362e-01    1.615569e+00   2.911659e-02
  6.863467e-01    1.587984e+00   2.881525e-02
  6.885572e-01    1.583247e+00   2.872067e-02
  6.907676e-01    1.598362e+00   2.880573e-02
  6.929781e-01    1.594259e+00   2.871762e-02
  6.951885e-01    1.587527e+00   2.860615e-02
  6.973990e-01    1.600910e+00   2.867569e-02
  6.996094e-01    1.567518e+00   2.832514e-02
  7.018199e-01    1.593625e+00   2.850990e-02
  7.040303e-01    1.582521e+00   2.836051e-02
  7.062408e-01    1.640421e+00   2.882406e-02
  7.084513e-01    1.599729e+00   2.841484e-02
  7.106617e-01    1.597272e+00   2.834365e-02
  7.128722e-01    1.592637e+00   2.825354e-02
  7.150826e-01    1.584894e+00   2.813619e-02
  7.172931e-01    1.611417e+00   2.832174e-02
  7.195035e-01    1.569627e+00   2.790403e-02
  7.217140e-01    1.562011e+00   2.788550e-02
  7.239245e-01    1.542365e+00   2.793398e-02
  7.261349e-01    1.575007e+00   2.833663e-02
  7.283454e-01    1.594014e+00   2.857997e-02
  7.305558e-01    1.559555e+00   2.832309e-02
  7.327663e-01    1.594756e+00   2.868371e-02
  7.349767e-01    1.606595e+00   2.880653e-02
  7.371872e-01    1.578094e+00   2.853869e-02
  7.393976e-01    1.552844e+00   2.829528e-02
  7.416081e-01    1.558271e+00   2.832860e-02
  7.438186e-01    1.597461e+00   2.853723e-02
  7.460290e-01    1.606838e+00   2.832366e-02
  7.482395e-01    1.575418e+00   2.787417e-02
  7.504499e-01    1.545305e+00   2.747149e-02
  7.526604e-01    1.545422e+00   2.735703e-02
  7.548708e-01    1.577934e+00   2.755381e-02
  7.570813e-01    1.575303e+00   2.747985e-02
  7.592918e-01    1.551441e+00   2.723600e-02
  7.615022e-01    1.600509e+00   2.762926e-02
  7.637127e-01    1.599043e+00   2.758360e-02
  7.659231e-01    1.566878e+00   2.727283e-02
  7.681336e-01    1.572315e+00   2.728852e-02
  7.703440e-01    1.589957e+00   2.740983e-02
  7.725545e-01    1.560295e+00   2.712221e-02
  7.747650e-01    1.596820e+00   2.739934e-02
  7.769754e-01    1.585669e+00   2.725064e-02
  7.791859e-01    1.579055e+00   2.714021e-02
  7.813963e-01    1.599508e+00   2.726246e-02
  7.836068e-01    1.578231e+00   2.702866e-02
  7.858172e-01    1.591763e+00   2.709351e-02
  7.880277e-01    1.614543e+00   2.723480e-02
  7.902381e-01    1.637042e+00   2.737406e-02
  7.924486e-01    1.636010e+00   2.731478e-02
  7.946591e-01    1.624201e+00   2.716732e-02
  7.968695e-01    1.649474e+00   2.732891e-02
  7.990800e-01    1.616065e+00   2.700239e-02
  8.012904e-01    1.627450e+00   2.705044e-02
  8.035009e-01    1.640328e+00   2.710895e-02
  8.057113e-01    1.632137e+00   2.699442e-02
  8.079218e-01    1.644272e+00   2.704784e-02
  8.101323e-01    1.609782e+00   2.671720e-02
  8.123427e-01    1.639055e+00   2.691307e-02
  8.145532e-01    1.650993e+00   2.696468e-02
  8.167636e-01    1.677786e+00   2.713690e-02
  8.189741e-01    1.652310e+00   2.688519e-02
  8.211845e-01    1.672672e+00   2.700500e-02
  8.233950e-01    1.626609e+00   2.658728e-02
  8.256054e-01    1.632810e+00   2.659373e-02
  8.278159e-01    1.632695e+00   2.654891e-02
  8.300264e-01    1.641891e+00   2.658043e-02
  8.322368e-01    1.651919e+00   2.661818e-02
  8.344473e-01    1.659139e+00   2.663265e-02
  8.366577e-01    1.625375e+00   2.631787e-02
  8.388682e-01    1.643133e+00   2.641893e-02
  8.410786e-01    1.646646e+00   2.640502e-02
  8.432891e-01    1.667580e+00   2.653011e-02
  8.454996e-01    1.659015e+00   2.642002e-02
  8.477100e-01    1.673039e+00   2.648933e-02
  8.499205e-01    1.774994e+00   2.724166e-02
  8.521309e-01    1.803526e+00   2.741696e-02
  8.543414e-01    1.715005e+00   2.669396e-02
  8.565518e-01    1.644793e+00   2.610111e-02
  8.587623e-01    1.632171e+00   2.596026e-02
  8.609727e-01    1.640785e+00   2.598834e-02
  8.631832e-01    1.588975e+00   2.553530e-02
  8.653937e-01    1.591290e+00   2.551462e-02
  8.676041e-01    1.619974e+00   2.570470e-02
  8.698146e-01    1.635781e+00   2.579034e-02
  8.720250e-01    1.611613e+00   2.556010e-02
  8.742355e-01    1.558523e+00   2.509730e-02
  8.764459e-01    1.592405e+00   2.532994e-02
  8.786564e-01    1.572403e+00   2.513283e-02
  8.808669e-01    1.562981e+00   2.501943e-02
  8.830773e-01    1.589887e+00   2.519586e-02
  8.852878e-01    1.575675e+00   2.504540e-02
  8.874982e-01    1.550751e+00   2.481047e-02
  8.897087e-01    1.530285e+00   2.460936e-02
  8.919191e-01    1.559610e+00   2.480676e-02
  8.941296e-01    1.576313e+00   2.490225e-02
  8.963401e-01    1.592424e+00   2.499284e-02
  8.985505e-01    1.578597e+00   2.484739e-02
  9.007610e-01    1.588225e+00   2.488644e-02
  9.029714e-01    1.575215e+00   2.474874e-02
  9.051819e-01    1.572775e+00   2.469268e-02
  9.073923e-01    1.620159e+00   2.502504e-02
  9.096028e-01    1.627732e+00   2.504829e-02
  9.118132e-01    1.592769e+00   2.474165e-02
  9.140237e-01    1.608893e+00   2.482985e-02
  9.162342e-01    1.561980e+00   2.443103e-02
  9.184446e-01    1.565092e+00   2.441997e-02
  9.206551e-01    1.583583e+00   2.452840e-02
  9.228655e-01    1.607040e+00   2.467408e-02
  9.250760e-01    1.600301e+00   2.458696e-02
  9.272864e-01    1.618693e+00   2.469341e-02
  9.294969e-01    1.641771e+00   2.483256e-02
  9.317074e-01    1.674804e+00   2.504571e-02
  9.339178e-01    1.646537e+00   2.479955e-02
  9.361283e-01    1.588794e+00   2.432489e-02
  9.383387e-01    1.604760e+00   2.441355e-02
  9.405492e-01    1.628333e+00   2.455787e-02
  9.427596e-01    1.638526e+00   2.459915e-02
  9.449701e-01    1.634960e+00   2.453899e-02
  9.471805e-01    1.643807e+00   2.457042e-02
  9.493910e-01    1.667542e+00   2.471322e-02
  9.516015e-01    1.712086e+00   2.500614e-02
  9.538119e-01    1.738810e+00   2.516603e-02
  9.560224e-01    1.689375e+00   2.477080e-02
  9.582328e-01    1.717532e+00   2.494285e-02
  9.604433e-01    1.753906e+00   2.516989e-02
  9.626537e-01    1.775496e+00   2.529030e-02
  9.648642e-01    1.755023e+00   2.510963e-02
  9.670747e-01    1.762993e+00   2.513186e-02
  9.692851e-01    1.827051e+00   2.555037e-02
  9.714956e-01    1.846171e+00   2.564751e-02
  9.737060e-01    1.848876e+00   2.563258e-02
  9.759165e-01    1.832992e+00   2.548623e-02
  9.781269e-01    1.845116e+00   2.553693e-02
  9.803374e-01    1.855519e+00   2.557341e-02
  9.825478e-01    1.797681e+00   2.513848e-02
  9.847583e-01    1.760302e+00   2.484197e-02
  9.869688e-01    1.798969e+00   2.507971e-02
  9.891792e-01    1.744766e+00   2.466619e-02
  9.913897e-01    1.741573e+00   2.461033e-02
  9.936001e-01    1.727488e+00   2.447854e-02
  9.958106e-01    1.702023e+00   2.426441e-02
  9.980210e-01    1.681150e+00   2.408389e-02
  1.000231e+00    1.644849e+00   2.395293e-02
  1.002442e+00    1.637556e+00   2.402676e-02
  1.004652e+00    1.657331e+00   2.423882e-02
  1.006863e+00    1.630445e+00   2.409132e-02
  1.009073e+00    1.617682e+00   2.403354e-02
  1.011284e+00    1.602866e+00   2.395522e-02
  1.013494e+00    1.623893e+00   2.413576e-02
  1.015705e+00    1.598196e+00   2.396666e-02
  1.017915e+00    1.598561e+00   2.398590e-02
  1.020126e+00    1.556052e+00   2.368086e-02
  1.022336e+00    1.544632e+00   2.360540e-02
  1.024547e+00    1.529804e+00   2.350298e-02
  1.026757e+00    1.520920e+00   2.344293e-02
  1.028967e+00    1.515118e+00   2.340577e-02
  1.031178e+00    1.526405e+00   2.349893e-02
  1.033388e+00    1.524678e+00   2.349070e-02
  1.035599e+00    1.542060e+00   2.362763e-02
  1.037809e+00    1.535898e+00   2.358369e-02
  1.040020e+00    1.477901e+00   2.313536e-02
  1.042230e+00    1.506030e+00   2.335640e-02
  1.044441e+00    1.593616e+00   2.402575e-02
  1.046651e+00    1.653999e+00   2.447686e-02
  1.048862e+00    1.847192e+00   2.586600e-02
  1.051072e+00    1.839557e+00   2.580996e-02
  1.053282e+00    1.650499e+00   2.444673e-02
  1.055493e+00    1.548829e+00   2.367739e-02
  1.057703e+00    1.535760e+00   2.357575e-02
  1.059914e+00    1.489687e+00   2.321517e-02
  1.062124e+00    1.485441e+00   2.317798e-02
  1.064335e+00    1.495307e+00   2.325138e-02
  1.066545e+00    1.502306e+00   2.329969e-02
  1.068756e+00    1.474424e+00   2.307877e-02
  1.070966e+00    1.468827e+00   2.302837e-02
  1.073177e+00    1.451646e+00   2.288729e-02
  1.075387e+00    1.453976e+00   2.290044e-02
  1.077597e+00    1.481560e+00   2.310938e-02
  1.079808e+00    1.445779e+00   2.269671e-02
  1.082018e+00    1.421264e+00   2.231710e-02
  1.084229e+00    1.411356e+00   2.213099e-02
  1.086439e+00    1.446918e+00   2.232087e-02
  1.088650e+00    1.449614e+00   2.226613e-02
  1.090860e+00    1.449130e+00   2.219491e-02
  1.093071e+00    1.408154e+00   2.181760e-02
  1.095281e+00    1.417248e+00   2.183125e-02
  1.097492e+00    1.431946e+00   2.188950e-02
  1.099702e+00    1.424097e+00   2.177834e-02
  1.101912e+00    1.413291e+00   2.164712e-02
  1.104123e+00    1.438590e+00   2.179176e-02
  1.106333e+00    1.411287e+00   2.153990e-02
  1.108544e+00    1.420491e+00   2.156590e-02
  1.110754e+00    1.430953e+00   2.160210e-02
  1.112965e+00    1.405123e+00   2.136595e-02
  1.115175e+00    1.412989e+00   2.138458e-02
  1.117386e+00    1.375312e+00   2.105886e-02
  1.119596e+00    1.385620e+00   2.110010e-02
  1.121807e+00    1.395004e+00   2.113281e-02
  1.124017e+00    1.408763e+00   2.120011e-02
  1.126228e+00    1.390196e+00   2.102436e-02
  1.128438e+00    1.425960e+00   2.125600e-02
  1.130648e+00    1.379601e+00   2.087355e-02
  1.132859e+00    1.376955e+00   2.081938e-02
  1.135069e+00    1.392523e+00   2.090204e-02
  1.137280e+00    1.378066e+00   2.076039e-02
  1.139490e+00    1.387285e+00   2.079665e-02
  1.141701e+00    1.396524e+00   2.083253e-02
  1.143911e+00    1.381946e+00   2.069166e-02
  1.146122e+00    1.388688e+00   2.070997e-02
  1.148332e+00    1.367067e+00   2.051640e-02
  1.150543e+00    1.338372e+00   2.026952e-02
  1.152753e+00    1.371080e+00   2.048494e-02
  1.154963e+00    1.349419e+00   2.029169e-02
  1.157174e+00    1.379020e+00   2.048283e-02
  1.159384e+00    1.352118e+00   2.025244e-02
  1.161595e+00    1.338475e+00   2.012049e-02
  1.163805e+00    1.355932e+00   2.022215e-02
  1.166016e+00    1.375413e+00   2.033740e-02
  1.168226e+00    1.370665e+00   2.027327e-02
  1.170437e+00    1.356135e+00   2.013699e-02
  1.172647e+00    1.348563e+00   2.005200e-02
  1.174858e+00    1.345905e+00   2.000431e-02
  1.177068e+00    1.343138e+00   1.995570e-02
  1.179278e+00    1.340917e+00   1.991081e-02
  1.181489e+00    1.367957e+00   2.008348e-02
  1.183699e+00    1.351235e+00   1.993286e-02
  1.185910e+00    1.343906e+00   1.985109e-02
  1.188120e+00    1.358966e+00   1.993532e-02
  1.190331e+00    1.313789e+00   1.957479e-02
  1.192541e+00    1.342728e+00   1.976193e-02
  1.194752e+00    1.370015e+00   1.993453e-02
  1.196962e+00    1.325500e+00   1.958250e-02
  1.199173e+00    1.341184e+00   1.967159e-02
  1.201383e+00    1.369027e+00   1.984739e-02
  1.203593e+00    1.355888e+00   1.972705e-02
  1.205804e+00    1.349890e+00   1.965746e-02
  1.208014e+00    1.343522e+00   1.958423e-02
  1.210225e+00    1.351855e+00   1.961954e-02
  1.212435e+00    1.348388e+00   1.956958e-02
  1.214646e+00    1.347712e+00   1.953860e-02
  1.216856e+00    1.324922e+00   1.934746e-02
  1.219067e+00    1.309731e+00   1.921212e-02
  1.221277e+00    1.353956e+00   1.950872e-02
  1.223488e+00    1.346566e+00   1.942971e-02
  1.225698e+00    1.317523e+00   1.919246e-02
  1.227909e+00    1.308995e+00   1.910053e-02
  1.230119e+00    1.320809e+00   1.915501e-02
  1.232329e+00    1.342021e+00   1.927760e-02
  1.234540e+00    1.339034e+00   1.922596e-02
  1.236750e+00    1.330888e+00   1.913735e-02
  1.238961e+00    1.336825e+00   1.915314e-02
  1.241171e+00    1.338380e+00   1.914021e-02
  1.243382e+00    1.340630e+00   1.913285e-02
  1.245592e+00    1.350709e+00   1.918053e-02
  1.247803e+00    1.336926e+00   1.905889e-02
  1.250013e+00    1.325673e+00   1.895518e-02
  1.252224e+00    1.299813e+00   1.874657e-02
  1.254434e+00    1.327544e+00   1.892194e-02
  1.256644e+00    1.343257e+00   1.901044e-02
  1.258855e+00    1.357293e+00   1.908618e-02
  1.261065e+00    1.325983e+00   1.884159e-02
  1.263276e+00    1.355602e+00   1.902787e-02
  1.265486e+00    1.357257e+00   1.901655e-02
  1.267697e+00    1.347973e+00   1.892841e-02
  1.269907e+00    1.355851e+00   1.896088e-02
  1.272118e+00    1.351704e+00   1.890928e-02
  1.274328e+00    1.359117e+00   1.893825e-02
  1.276539e+00    1.337146e+00   1.876188e-02
  1.278749e+00    1.329769e+00   1.868793e-02
  1.280959e+00    1.349508e+00   1.880358e-02
  1.283170e+00    1.369399e+00   1.891908e-02
  1.285380e+00    1.351750e+00   1.877428e-02
  1.287591e+00    1.338861e+00   1.866265e-02
  1.289801e+00    1.340375e+00   1.865202e-02
  1.292012e+00    1.347786e+00   1.868645e-02
  1.294222e+00    1.320451e+00   1.847992e-02
  1.296433e+00    1.316372e+00   1.843595e-02
  1.298643e+00    1.325548e+00   1.848377e-02
  1.300854e+00    1.332777e+00   1.851779e-02
  1.303064e+00    1.352458e+00   1.863477e-02
  1.305274e+00    1.351988e+00   1.861010e-02
  1.307485e+00    1.351170e+00   1.858289e-02
  1.309695e+00    1.351960e+00   1.856608e-02
  1.311906e+00    1.351661e+00   1.854230e-02
  1.314116e+00    1.359613e+00   1.857588e-02
  1.316327e+00    1.394542e+00   1.879095e-02
  1.318537e+00    1.375701e+00   1.864150e-02
  1.320748e+00    1.360111e+00   1.851392e-02
  1.322958e+00    1.365775e+00   1.853181e-02
  1.325169e+00    1.340792e+00   1.834058e-02
  1.327379e+00    1.349120e+00   1.837563e-02
  1.329589e+00    1.369337e+00   1.849159e-02
  1.331800e+00    1.371041e+00   1.848225e-02
  1.334010e+00    1.328394e+00   1.817204e-02
  1.336221e+00    1.365451e+00   1.840186e-02
  1.338431e+00    1.378360e+00   1.846759e-02
  1.340642e+00    1.372266e+00   1.849138e-02
  1.342852e+00    1.364690e+00   1.854151e-02
  1.345063e+00    1.332883e+00   1.837333e-02
  1.347273e+00    1.331541e+00   1.839905e-02
  1.349484e+00    1.377051e+00   1.873880e-02
  1.351694e+00    1.418135e+00   1.903955e-02
  1.353905e+00    1.421191e+00   1.907854e-02
  1.356115e+00    1.411270e+00   1.902720e-02
  1.358325e+00    1.378261e+00   1.881684e-02
  1.360536e+00    1.352188e+00   1.864963e-02
  1.362746e+00    1.369887e+00   1.878092e-02
  1.364957e+00    1.350239e+00   1.865342e-02
  1.367167e+00    1.361542e+00   1.873851e-02
  1.369378e+00    1.352620e+00   1.868306e-02
  1.371588e+00    1.333155e+00   1.855326e-02
  1.373799e+00    1.325046e+00   1.850040e-02
  1.376009e+00    1.308836e+00   1.839023e-02
  1.378220e+00    1.338322e+00   1.859876e-02
  1.380430e+00    1.352169e+00   1.869746e-02
  1.382640e+00    1.339834e+00   1.861291e-02
  1.384851e+00    1.334345e+00   1.857561e-02
  1.387061e+00    1.338672e+00   1.860601e-02
  1.389272e+00    1.320886e+00   1.848219e-02
  1.391482e+00    1.319950e+00   1.847498e-02
  1.393693e+00    1.309193e+00   1.839865e-02
  1.395903e+00    1.320581e+00   1.847698e-02
  1.398114e+00    1.298430e+00   1.831998e-02
  1.400324e+00    1.266351e+00   1.809015e-02
  1.402535e+00    1.262542e+00   1.806059e-02
  1.404745e+00    1.281980e+00   1.819674e-02
  1.406955e+00    1.290159e+00   1.825196e-02
  1.409166e+00    1.278434e+00   1.816557e-02
  1.411376e+00    1.236274e+00   1.786041e-02
  1.413587e+00    1.272236e+00   1.811450e-02
  1.415797e+00    1.276212e+00   1.813926e-02
  1.418008e+00    1.261770e+00   1.799459e-02
  1.420218e+00    1.241476e+00   1.770126e-02
  1.422429e+00    1.262877e+00   1.776809e-02
  1.424639e+00    1.279086e+00   1.781684e-02
  1.426850e+00    1.267018e+00   1.767796e-02
  1.429060e+00    1.278034e+00   1.770549e-02
  1.431270e+00    1.288581e+00   1.773378e-02
  1.433481e+00    1.273344e+00   1.758760e-02
  1.435691e+00    1.272225e+00   1.754142e-02
  1.437902e+00    1.250791e+00   1.735685e-02
  1.440112e+00    1.256325e+00   1.736002e-02
  1.442323e+00    1.262173e+00   1.736746e-02
  1.444533e+00    1.237391e+00   1.716397e-02
  1.446744e+00    1.256253e+00   1.726334e-02
  1.448954e+00    1.266119e+00   1.730085e-02
  1.451165e+00    1.273338e+00   1.732031e-02
  1.453375e+00    1.258065e+00   1.718821e-02
  1.455586e+00    1.259415e+00   1.716936e-02
  1.457796e+00    1.299624e+00   1.741347e-02
  1.460006e+00    1.284512e+00   1.728454e-02
  1.462217e+00    1.264948e+00   1.712622e-02
  1.464427e+00    1.266728e+00   1.711270e-02
  1.466638e+00    1.271649e+00   1.712055e-02
  1.468848e+00    1.250262e+00   1.695085e-02
  1.471059e+00    1.243187e+00   1.687795e-02
  1.473269e+00    1.269055e+00   1.702829e-02
  1.475480e+00    1.246108e+00   1.685009e-02
  1.477690e+00    1.238257e+00   1.677336e-02
  1.479901e+00    1.256637e+00   1.687365e-02
  1.482111e+00    1.287968e+00   1.705918e-02
  1.484321e+00    1.352589e+00   1.745800e-02
  1.486532e+00    1.487879e+00   1.828608e-02
  1.488742e+00    1.548662e+00   1.863084e-02
  1.490953e+00    1.493380e+00   1.827074e-02
  1.493163e+00    1.420631e+00   1.779654e-02
  1.495374e+00    1.336153e+00   1.723719e-02
  1.497584e+00    1.277481e+00   1.683270e-02
  1.499795e+00    1.264389e+00   1.672452e-02
  1.502005e+00    1.254902e+00   1.664002e-02
  1.504216e+00    1.262561e+00   1.666966e-02
  1.506426e+00    1.258436e+00   1.662157e-02
  1.508636e+00    1.295532e+00   1.684404e-02
  1.510847e+00    1.282719e+00   1.673849e-02
  1.513057e+00    1.256057e+00   1.653855e-02
  1.515268e+00    1.253089e+00   1.649326e-02
  1.517478e+00    1.241474e+00   1.639165e-02
  1.519689e+00    1.224134e+00   1.625209e-02
  1.521899e+00    1.253084e+00   1.642004e-02
  1.524110e+00    1.269307e+00   1.650553e-02
  1.526320e+00    1.278365e+00   1.654453e-02
  1.528531e+00    1.309250e+00   1.672297e-02
  1.530741e+00    1.270390e+00   1.645365e-02
  1.532951e+00    1.240190e+00   1.623737e-02
  1.535162e+00    1.244355e+00   1.635103e-02
  1.537372e+00    1.233797e+00   1.634802e-02
  1.539583e+00    1.256319e+00   1.653088e-02
  1.541793e+00    1.267958e+00   1.661429e-02
  1.544004e+00    1.269110e+00   1.662210e-02
  1.546214e+00    1.247454e+00   1.647816e-02
  1.548425e+00    1.250643e+00   1.649947e-02
  1.550635e+00    1.208296e+00   1.622727e-02
  1.552846e+00    1.245641e+00   1.648577e-02
  1.555056e+00    1.244721e+00   1.643822e-02
  1.557266e+00    1.248236e+00   1.635078e-02
  1.559477e+00    1.253328e+00   1.632478e-02
  1.561687e+00    1.239225e+00   1.620208e-02
  1.563898e+00    1.234714e+00   1.615545e-02
  1.566108e+00    1.238396e+00   1.616360e-02
  1.568319e+00    1.247915e+00   1.620997e-02
  1.570529e+00    1.249430e+00   1.619462e-02
  1.572740e+00    1.244964e+00   1.613804e-02
  1.574950e+00    1.220705e+00   1.595396e-02
  1.577161e+00    1.258441e+00   1.617306e-02
  1.579371e+00    1.257356e+00   1.614230e-02
  1.581582e+00    1.252641e+00   1.609219e-02
  1.583792e+00    1.243159e+00   1.601315e-02
  1.586002e+00    1.232738e+00   1.592836e-02
  1.588213e+00    1.214002e+00   1.578980e-02
  1.590423e+00    1.261878e+00   1.607793e-02
  1.592634e+00    1.240221e+00   1.591779e-02
  1.594844e+00    1.242218e+00   1.590919e-02
  1.597055e+00    1.247649e+00   1.592341e-02
  1.599265e+00    1.236597e+00   1.583204e-02
  1.601476e+00    1.223650e+00   1.572878e-02
  1.603686e+00    1.210388e+00   1.562377e-02
  1.605897e+00    1.238222e+00   1.578224e-02
  1.608107e+00    1.232371e+00   1.572540e-02
  1.610317e+00    1.211213e+00   1.557073e-02
  1.612528e+00    1.220189e+00   1.560924e-02
  1.614738e+00    1.222788e+00   1.560698e-02
  1.616949e+00    1.226188e+00   1.560969e-02
  1.619159e+00    1.195196e+00   1.539267e-02
  1.621370e+00    1.165775e+00   1.518396e-02
  1.623580e+00    1.203962e+00   1.541238e-02
  1.625791e+00    1.211329e+00   1.544121e-02
  1.628001e+00    1.180986e+00   1.522849e-02
  1.630212e+00    1.165149e+00   1.510847e-02
  1.632422e+00    1.189256e+00   1.524606e-02
  1.634632e+00    1.416143e+00   1.661788e-02
  1.636843e+00    1.866602e+00   1.905676e-02
  1.639053e+00    1.351789e+00   1.619872e-02
  1.641264e+00    1.196531e+00   1.522280e-02
  1.643474e+00    1.171489e+00   1.504518e-02
  1.645685e+00    1.152701e+00   1.490744e-02
  1.647895e+00    1.146804e+00   1.485270e-02
  1.650106e+00    1.163911e+00   1.494598e-02
  1.652316e+00    1.151124e+00   1.484716e-02
  1.654527e+00    1.133026e+00   1.471338e-02
  1.656737e+00    1.169898e+00   1.493403e-02
  1.658947e+00    1.218843e+00   1.522638e-02
  1.661158e+00    1.163111e+00   1.485767e-02
  1.663368e+00    1.134345e+00   1.465668e-02
  1.665579e+00    1.110042e+00   1.448273e-02
  1.667789e+00    1.123579e+00   1.455448e-02
  1.670000e+00    1.113464e+00   1.447334e-02
  1.672210e+00    1.106786e+00   1.441399e-02
  1.674421e+00    1.110811e+00   1.442482e-02
  1.676631e+00    1.092680e+00   1.429082e-02
  1.678842e+00    1.064807e+00   1.409184e-02
  1.681052e+00    1.057773e+00   1.403006e-02
  1.683263e+00    1.068551e+00   1.408639e-02
  1.685473e+00    1.046464e+00   1.392517e-02
  1.687683e+00    1.063885e+00   1.402531e-02
  1.689894e+00    1.045988e+00   1.389132e-02
  1.692104e+00    1.066733e+00   1.401355e-02
  1.694315e+00    1.046423e+00   1.386519e-02
  1.696525e+00    1.028019e+00   1.372786e-02
  1.698736e+00    1.039291e+00   1.378827e-02
  1.700946e+00    1.040734e+00   1.378284e-02
  1.703157e+00    1.049661e+00   1.382724e-02
  1.705367e+00    1.030573e+00   1.368661e-02
  1.707578e+00    1.016401e+00   1.357782e-02
  1.709788e+00    1.019920e+00   1.358737e-02
  1.711998e+00    1.012586e+00   1.352364e-02
  1.714209e+00    1.018547e+00   1.354907e-02
  1.716419e+00    1.023562e+00   1.356822e-02
  1.718630e+00    9.958557e-01   1.336930e-02
  1.720840e+00    9.939264e-01   1.334238e-02
  1.723051e+00    1.024614e+00   1.353293e-02
  1.725261e+00    1.016927e+00   1.346744e-02
  1.727472e+00    1.018626e+00   1.346450e-02
  1.729682e+00    1.006073e+00   1.336789e-02
  1.731893e+00    9.725941e-01   1.312995e-02
  1.734103e+00    9.666082e-01   1.307598e-02
  1.736313e+00    9.715114e-01   1.309533e-02
  1.738524e+00    9.560648e-01   1.297731e-02
  1.740734e+00    9.850909e-01   1.315920e-02
  1.742945e+00    9.870651e-01   1.315901e-02
  1.745155e+00    9.854524e-01   1.313486e-02
  1.747366e+00    9.562469e-01   1.292519e-02
  1.749576e+00    9.483628e-01   1.285836e-02
  1.751787e+00    9.549246e-01   1.288962e-02
  1.753997e+00    9.464750e-01   1.281932e-02
  1.756208e+00    9.595155e-01   1.289424e-02
  1.758418e+00    9.469042e-01   1.279627e-02
  1.760628e+00    9.375728e-01   1.271993e-02
  1.762839e+00    9.258457e-01   1.262720e-02
  1.765049e+00    9.300466e-01   1.264289e-02
  1.767260e+00    9.466904e-01   1.274280e-02
  1.769470e+00    9.427133e-01   1.270313e-02
  1.771681e+00    9.163780e-01   1.251153e-02
  1.773891e+00    9.176172e-01   1.250715e-02
  1.776102e+00    9.242985e-01   1.253989e-02
  1.778312e+00    9.446040e-01   1.266415e-02
  1.780523e+00    9.343856e-01   1.258280e-02
  1.782733e+00    9.031240e-01   1.235808e-02
  1.784944e+00    9.284572e-01   1.251734e-02
  1.787154e+00    9.126627e-01   1.239805e-02
  1.789364e+00    9.069228e-01   1.234665e-02
  1.791575e+00    9.021027e-01   1.230146e-02
  1.793785e+00    8.871953e-01   1.218720e-02
  1.795996e+00    9.423435e-01   1.254760e-02
  1.798206e+00    9.345506e-01   1.248303e-02
  1.800417e+00    9.187024e-01   1.236401e-02
  1.802627e+00    9.163784e-01   1.233642e-02
  1.804838e+00    9.108861e-01   1.228729e-02
  1.807048e+00    9.146692e-01   1.229989e-02
  1.809259e+00    8.961169e-01   1.216102e-02
  1.811469e+00    9.158880e-01   1.227936e-02
  1.813679e+00    9.009503e-01   1.216386e-02
  1.815890e+00    9.138249e-01   1.223558e-02
  1.818100e+00    8.894932e-01   1.205655e-02
  1.820311e+00    8.705449e-01   1.191287e-02
  1.822521e+00    8.619444e-01   1.183926e-02
  1.824732e+00    8.812430e-01   1.195632e-02
  1.826942e+00    8.704410e-01   1.187060e-02
  1.829153e+00    8.873679e-01   1.197377e-02
  1.831363e+00    8.494738e-01   1.170352e-02
  1.833574e+00    8.627827e-01   1.178327e-02
  1.835784e+00    8.649659e-01   1.178684e-02
  1.837994e+00    9.064026e-01   1.205395e-02
  1.840205e+00    8.945851e-01   1.196385e-02
  1.842415e+00    8.625022e-01   1.173565e-02
  1.844626e+00    8.539497e-01   1.166587e-02
  1.846836e+00    8.551769e-01   1.166290e-02
  1.849047e+00    8.591490e-01   1.167840e-02
  1.851257e+00    8.532717e-01   1.162886e-02
  1.853468e+00    8.552772e-01   1.163377e-02
  1.855678e+00    8.495522e-01   1.158592e-02
  1.857889e+00    8.590313e-01   1.164189e-02
  1.860099e+00    8.336976e-01   1.146043e-02
  1.862309e+00    8.671616e-01   1.167958e-02
  1.864520e+00    8.926404e-01   1.184120e-02
  1.866730e+00    8.561956e-01   1.158756e-02
  1.868941e+00    8.651556e-01   1.163700e-02
  1.871151e+00    8.473821e-01   1.150549e-02
  1.873362e+00    8.620738e-01   1.159335e-02
  1.875572e+00    8.476475e-01   1.148506e-02
  1.877783e+00    8.322221e-01   1.136872e-02
  1.879993e+00    8.527511e-01   1.149690e-02
  1.882204e+00    8.622698e-01   1.154987e-02
  1.884414e+00    8.520327e-01   1.147000e-02
  1.886624e+00    8.466188e-01   1.142240e-02
  1.888835e+00    8.428926e-01   1.138625e-02
  1.891045e+00    8.294551e-01   1.128433e-02
  1.893256e+00    8.023141e-01   1.108731e-02
  1.895466e+00    8.326863e-01   1.128407e-02
  1.897677e+00    8.294553e-01   1.125128e-02
  1.899887e+00    8.227248e-01   1.119465e-02
  1.902098e+00    8.229511e-01   1.118539e-02
  1.904308e+00    8.220670e-01   1.116886e-02
  1.906519e+00    8.199715e-01   1.114383e-02
  1.908729e+00    8.214954e-01   1.114364e-02
  1.910940e+00    8.193609e-01   1.111806e-02
  1.913150e+00    8.357545e-01   1.121810e-02
  1.915360e+00    8.158501e-01   1.107315e-02
  1.917571e+00    8.015320e-01   1.096482e-02
  1.919781e+00    8.070546e-01   1.099192e-02
  1.921992e+00    8.195417e-01   1.106603e-02
  1.924202e+00    8.000128e-01   1.092274e-02
  1.926413e+00    7.969652e-01   1.089173e-02
  1.928623e+00    7.975245e-01   1.088512e-02
  1.930834e+00    8.030803e-01   1.091260e-02
  1.933044e+00    7.881073e-01   1.079988e-02
  1.935255e+00    7.960232e-01   1.084373e-02
  1.937465e+00    8.002507e-01   1.086216e-02
  1.939675e+00    8.057105e-01   1.088831e-02
  1.941886e+00    7.964527e-01   1.081534e-02
  1.944096e+00    7.990085e-01   1.082253e-02
  1.946307e+00    7.885106e-01   1.074095e-02
  1.948517e+00    8.008255e-01   1.081404e-02
  1.950728e+00    7.979483e-01   1.078436e-02
  1.952938e+00    7.950295e-01   1.075456e-02
  1.955149e+00    7.907454e-01   1.071533e-02
  1.957359e+00    7.918372e-01   1.071270e-02
  1.959570e+00    7.896158e-01   1.068685e-02
  1.961780e+00    7.904432e-01   1.068253e-02
  1.963990e+00    7.836169e-01   1.062625e-02
  1.966201e+00    7.767063e-01   1.056932e-02
  1.968411e+00    7.902079e-01   1.065063e-02
  1.970622e+00    7.792069e-01   1.056618e-02
  1.972832e+00    7.962534e-01   1.067112e-02
  1.975043e+00    7.837995e-01   1.057731e-02
  1.977253e+00    7.855774e-01   1.057934e-02
  1.979464e+00    7.886071e-01   1.058965e-02
  1.981674e+00    7.935254e-01   1.061231e-02
  1.983885e+00    7.675554e-01   1.042728e-02
  1.986095e+00    7.643975e-01   1.039618e-02
  1.988305e+00    7.663587e-01   1.039972e-02
  1.990516e+00    7.757725e-01   1.045348e-02
  1.992726e+00    7.740151e-01   1.043200e-02
  1.994937e+00    7.745304e-01   1.042535e-02
  1.997147e+00    7.629025e-01   1.033716e-02
  1.999358e+00    7.570736e-01   1.028785e-02
  2.001568e+00    7.725834e-01   1.038188e-02
  2.003779e+00    7.774840e-01   1.040281e-02
  2.005989e+00    7.788845e-01   1.040010e-02
  2.008200e+00    7.880869e-01   1.044970e-02
  2.010410e+00    8.033950e-01   1.053869e-02
  2.012621e+00    7.933452e-01   1.046068e-02
  2.014831e+00    7.771649e-01   1.034192e-02
  2.017041e+00    7.690679e-01   1.027750e-02
  2.019252e+00    7.927796e-01   1.042458e-02
  2.021462e+00    7.854435e-01   1.036664e-02
  2.023673e+00    7.750078e-01   1.028807e-02
  2.025883e+00    7.620794e-01   1.019239e-02
  2.028094e+00    7.523466e-01   1.011750e-02
  2.030304e+00    7.709890e-01   1.023252e-02
  2.032515e+00    7.381637e-01   1.000314e-02
  2.034725e+00    7.479789e-01   1.006006e-02
  2.036936e+00    7.607068e-01   1.013593e-02
  2.039146e+00    7.740658e-01   1.021488e-02
  2.041356e+00    7.571045e-01   1.009270e-02
  2.043567e+00    7.500049e-01   1.003598e-02
  2.045777e+00    7.556858e-01   1.006467e-02
  2.047988e+00    7.719339e-01   1.016281e-02
  2.050198e+00    7.687598e-01   1.013340e-02
  2.052409e+00    7.651571e-01   1.010191e-02
  2.054619e+00    7.673177e-01   1.010871e-02
  2.056830e+00    7.600220e-01   1.005332e-02
  2.059040e+00    7.465538e-01   9.956351e-03
  2.061251e+00    7.428907e-01   9.924683e-03
  2.063461e+00    7.502967e-01   9.966427e-03
  2.065671e+00    7.452513e-01   9.924164e-03
  2.067882e+00    7.498440e-01   9.945679e-03
  2.070092e+00    7.348595e-01   9.836697e-03
  2.072303e+00    7.539194e-01   9.954243e-03
  2.074513e+00    7.628438e-01   1.000356e-02
  2.076724e+00    7.455355e-01   9.879973e-03
  2.078934e+00    7.503923e-01   9.903041e-03
  2.081145e+00    7.473101e-01   9.873583e-03
  2.083355e+00    7.439473e-01   9.842148e-03
  2.085566e+00    7.346851e-01   9.771829e-03
  2.087776e+00    7.092076e-01   9.591586e-03
  2.089986e+00    7.365102e-01   9.765680e-03
  2.092197e+00    7.285633e-01   9.703960e-03
  2.094407e+00    7.217160e-01   9.649110e-03
  2.096618e+00    7.210169e-01   9.635636e-03
  2.098828e+00    7.192368e-01   9.614506e-03
  2.101039e+00    7.216011e-01   9.621401e-03
  2.103249e+00    7.099023e-01   9.534533e-03
  2.105460e+00    7.173956e-01   9.575799e-03
  2.107670e+00    7.173688e-01   9.566942e-03
  2.109881e+00    7.212549e-01   9.583688e-03
  2.112091e+00    7.207310e-01   9.571270e-03
  2.114301e+00    7.212076e-01   9.565656e-03
  2.116512e+00    7.248870e-01   9.581233e-03
  2.118722e+00    7.085596e-01   9.463960e-03
  2.120933e+00    7.168808e-01   9.510546e-03
  2.123143e+00    7.044221e-01   9.418715e-03
  2.125354e+00    6.975147e-01   9.364010e-03
  2.127564e+00    7.073475e-01   9.421109e-03
  2.129775e+00    7.074313e-01   9.412985e-03
  2.131985e+00    7.219877e-01   9.500230e-03
  2.134196e+00    7.203780e-01   9.481008e-03
  2.136406e+00    7.139526e-01   9.429878e-03
  2.138617e+00    7.170455e-01   9.441782e-03
  2.140827e+00    7.148869e-01   9.443698e-03
  2.143037e+00    7.052444e-01   9.425198e-03
  2.145248e+00    7.001563e-01   9.413058e-03
  2.147458e+00    7.065153e-01   9.470860e-03
  2.149669e+00    7.078809e-01   9.491903e-03
  2.151879e+00    7.009543e-01   9.454570e-03
  2.154090e+00    7.034849e-01   9.478944e-03
  2.156300e+00    6.933820e-01   9.417211e-03
  2.158511e+00    6.935601e-01   9.423685e-03
  2.160721e+00    6.899239e-01   9.403761e-03
  2.162932e+00    6.918193e-01   9.420371e-03
  2.165142e+00    6.912748e-01   9.419671e-03
  2.167352e+00    6.975038e-01   9.464942e-03
  2.169563e+00    6.770236e-01   9.326889e-03
  2.171773e+00    6.902052e-01   9.419655e-03
  2.173984e+00    6.969283e-01   9.466867e-03
  2.176194e+00    6.880009e-01   9.407230e-03
  2.178405e+00    6.984175e-01   9.478870e-03
  2.180615e+00    6.937968e-01   9.448142e-03
  2.182826e+00    6.834338e-01   9.378010e-03
  2.185036e+00    6.804253e-01   9.357379e-03
  2.187247e+00    6.826487e-01   9.372601e-03
  2.189457e+00    6.908405e-01   9.428263e-03
  2.191667e+00    7.047761e-01   9.522698e-03
  2.193878e+00    7.034916e-01   9.513466e-03
  2.196088e+00    6.900997e-01   9.421784e-03
  2.198299e+00    6.849996e-01   9.385810e-03
  2.200509e+00    6.775329e-01   9.333485e-03
  2.202720e+00    6.788573e-01   9.341413e-03
  2.204930e+00    6.892562e-01   9.411468e-03
  2.207141e+00    6.765286e-01   9.323053e-03
  2.209351e+00    6.793343e-01   9.340486e-03
  2.211562e+00    6.854886e-01   9.381057e-03
  2.213772e+00    6.812749e-01   9.296532e-03
  2.215982e+00    6.835519e-01   9.267587e-03
  2.218193e+00    6.855271e-01   9.251132e-03
  2.220403e+00    6.672675e-01   9.102636e-03
  2.222614e+00    6.848962e-01   9.200972e-03
  2.224824e+00    6.780595e-01   9.135489e-03
  2.227035e+00    6.711819e-01   9.071625e-03
  2.229245e+00    6.799314e-01   9.113474e-03
  2.231456e+00    6.825310e-01   9.115147e-03
  2.233666e+00    6.706892e-01   9.020635e-03
  2.235877e+00    6.744874e-01   9.031830e-03
  2.238087e+00    6.645004e-01   8.951289e-03
  2.240298e+00    6.821622e-01   9.055560e-03
  2.242508e+00    6.787037e-01   9.017352e-03
  2.244718e+00    6.702541e-01   8.945207e-03
  2.246929e+00    6.680229e-01   8.915903e-03
  2.249139e+00    6.556807e-01   8.820874e-03
  2.251350e+00    6.483598e-01   8.759941e-03
  2.253560e+00    6.523631e-01   8.775507e-03
  2.255771e+00    6.666548e-01   8.859701e-03
  2.257981e+00    6.444345e-01   8.699786e-03
  2.260192e+00    6.479923e-01   8.712799e-03
  2.262402e+00    6.447206e-01   8.680084e-03
  2.264613e+00    6.688958e-01   8.830446e-03
  2.266823e+00    6.564203e-01   8.737371e-03
  2.269033e+00    6.630412e-01   8.770935e-03
  2.271244e+00    6.719026e-01   8.818894e-03
  2.273454e+00    6.654770e-01   8.766335e-03
  2.275665e+00    6.578995e-01   8.706021e-03
  2.277875e+00    6.541250e-01   8.671122e-03
  2.280086e+00    6.621141e-01   8.713857e-03
  2.282296e+00    6.619911e-01   8.703629e-03
  2.284507e+00    6.573263e-01   8.662798e-03
  2.286717e+00    6.371717e-01   8.519626e-03
  2.288928e+00    6.515614e-01   8.605464e-03
  2.291138e+00    6.507984e-01   8.591049e-03
  2.293348e+00    6.552253e-01   8.610683e-03
  2.295559e+00    6.620290e-01   8.645912e-03
  2.297769e+00    6.656639e-01   8.660291e-03
  2.299980e+00    6.565087e-01   8.591176e-03
  2.302190e+00    6.465294e-01   8.516553e-03
  2.304401e+00    6.547014e-01   8.560865e-03
  2.306611e+00    6.551986e-01   8.554891e-03
  2.308822e+00    6.413028e-01   8.455378e-03
  2.311032e+00    6.392698e-01   8.435561e-03
  2.313243e+00    6.396420e-01   8.431799e-03
  2.315453e+00    6.318441e-01   8.372769e-03
  2.317663e+00    6.448787e-01   8.449568e-03
  2.319874e+00    6.593806e-01   8.535246e-03
  2.322084e+00    6.509960e-01   8.471808e-03
  2.324295e+00    6.433183e-01   8.413492e-03
  2.326505e+00    6.508393e-01   8.453422e-03
  2.328716e+00    6.297901e-01   8.307165e-03
  2.330926e+00    6.219164e-01   8.246399e-03
  2.333137e+00    6.365029e-01   8.334199e-03
  2.335347e+00    6.422776e-01   8.363070e-03
  2.337558e+00    6.317506e-01   8.286059e-03
  2.339768e+00    6.333477e-01   8.287999e-03
  2.341979e+00    6.397048e-01   8.321120e-03
  2.344189e+00    6.435626e-01   8.337739e-03
  2.346399e+00    6.271344e-01   8.222207e-03
  2.348610e+00    6.315143e-01   8.242432e-03
  2.350820e+00    6.244857e-01   8.188311e-03
  2.353031e+00    6.429483e-01   8.300146e-03
  2.355241e+00    6.242829e-01   8.170768e-03
  2.357452e+00    6.314945e-01   8.209422e-03
  2.359662e+00    6.268540e-01   8.171009e-03
  2.361873e+00    6.298846e-01   8.182496e-03
  2.364083e+00    6.377383e-01   8.225322e-03
  2.366294e+00    6.329433e-01   8.186198e-03
  2.368504e+00    6.297431e-01   8.157377e-03
  2.370714e+00    6.184386e-01   8.075820e-03
  2.372925e+00    6.139138e-01   8.038254e-03
  2.375135e+00    6.123613e-01   8.020082e-03
  2.377346e+00    6.178971e-01   8.048353e-03
  2.379556e+00    6.161252e-01   8.028962e-03
  2.381767e+00    6.164652e-01   8.023320e-03
  2.383977e+00    6.365731e-01   8.145109e-03
  2.386188e+00    6.283206e-01   8.084163e-03
  2.388398e+00    6.332657e-01   8.107867e-03
  2.390609e+00    6.272050e-01   8.061173e-03
  2.392819e+00    6.397075e-01   8.133212e-03
  2.395029e+00    6.318184e-01   8.075146e-03
  2.397240e+00    6.178916e-01   7.977768e-03
  2.399450e+00    6.259227e-01   8.021544e-03
  2.401661e+00    6.171575e-01   7.957495e-03
  2.403871e+00    6.048059e-01   7.869724e-03
  2.406082e+00    6.166345e-01   7.938830e-03
  2.408292e+00    6.105173e-01   7.891566e-03
  2.410503e+00    6.186981e-01   7.936705e-03
  2.412713e+00    6.089489e-01   7.866120e-03
  2.414924e+00    6.051196e-01   7.833869e-03
  2.417134e+00    6.074998e-01   7.841609e-03
  2.419344e+00    5.913857e-01   7.729570e-03
  2.421555e+00    6.094266e-01   7.839032e-03
  2.423765e+00    6.028067e-01   7.788913e-03
  2.425976e+00    6.124482e-01   7.843072e-03
  2.428186e+00    6.109018e-01   7.825877e-03
  2.430397e+00    6.055615e-01   7.784065e-03
  2.432607e+00    6.004035e-01   7.743536e-03
  2.434818e+00    5.966082e-01   7.711472e-03
  2.437028e+00    5.936561e-01   7.685222e-03
  2.439239e+00    5.883592e-01   7.643238e-03
  2.441449e+00    5.985611e-01   7.701982e-03
  2.443659e+00    5.821104e-01   7.588114e-03
  2.445870e+00    5.788770e-01   7.579153e-03
  2.448080e+00    5.853578e-01   7.656316e-03
  2.450291e+00    5.863366e-01   7.679468e-03
  2.452501e+00    5.752813e-01   7.617875e-03
  2.454712e+00    5.773802e-01   7.640219e-03
  2.456922e+00    5.784951e-01   7.654255e-03
  2.459133e+00    5.733575e-01   7.625661e-03
  2.461343e+00    5.661694e-01   7.582051e-03
  2.463554e+00    5.582013e-01   7.531962e-03
  2.465764e+00    5.564746e-01   7.523415e-03
  2.467975e+00    5.584610e-01   7.539113e-03
  2.470185e+00    5.569583e-01   7.531223e-03
  2.472395e+00    5.355418e-01   7.386201e-03
  2.474606e+00    5.524316e-01   7.503331e-03
  2.476816e+00    5.372161e-01   7.400008e-03
  2.479027e+00    5.307377e-01   7.356069e-03
  2.481237e+00    5.393689e-01   7.415938e-03
  2.483448e+00    5.268189e-01   7.329443e-03
  2.485658e+00    5.328191e-01   7.370913e-03
  2.487869e+00    5.400883e-01   7.421074e-03
  2.490079e+00    5.353718e-01   7.388068e-03
  2.492290e+00    5.355104e-01   7.388612e-03
  2.494500e+00    5.310768e-01   7.357224e-03
  2.496710e+00    5.400693e-01   7.418556e-03
  2.498921e+00    5.269755e-01   7.327095e-03
  2.501131e+00    5.307555e-01   7.352370e-03
  2.503342e+00    5.195068e-01   7.272804e-03
  2.505552e+00    5.267914e-01   7.322470e-03
  2.507763e+00    5.264571e-01   7.318761e-03
  2.509973e+00    5.282636e-01   7.329884e-03
  2.512184e+00    5.349773e-01   7.374718e-03
  2.514394e+00    5.170802e-01   7.241023e-03
  2.516605e+00    5.352041e-01   7.319369e-03
  2.518815e+00    5.231367e-01   7.208164e-03
  2.521025e+00    5.172003e-01   7.146337e-03
  2.523236e+00    5.169320e-01   7.126650e-03
  2.525446e+00    5.313926e-01   7.209943e-03
  2.527657e+00    5.290531e-01   7.179414e-03
  2.529867e+00    5.110733e-01   7.042373e-03
  2.532078e+00    5.244721e-01   7.119033e-03
  2.534288e+00    5.249844e-01   7.108651e-03
  2.536499e+00    5.132716e-01   7.017097e-03
  2.538709e+00    5.154661e-01   7.021158e-03
  2.540920e+00    5.107656e-01   6.978583e-03
  2.543130e+00    5.109383e-01   6.969518e-03
  2.545340e+00    5.136290e-01   6.977873e-03
  2.547551e+00    5.300833e-01   7.078756e-03
  2.549761e+00    5.203647e-01   7.004013e-03
  2.551972e+00    5.145568e-01   6.955512e-03
  2.554182e+00    5.151001e-01   6.950079e-03
  2.556393e+00    5.099543e-01   6.906259e-03
  2.558603e+00    5.195147e-01   6.961640e-03
  2.560814e+00    5.226098e-01   6.973626e-03
  2.563024e+00    5.165023e-01   6.924190e-03
  2.565235e+00    5.100476e-01   6.871385e-03
  2.567445e+00    5.101616e-01   6.862651e-03
  2.569656e+00    5.097132e-01   6.849997e-03
  2.571866e+00    5.040010e-01   6.802253e-03
  2.574076e+00    5.112449e-01   6.841756e-03
  2.576287e+00    5.098471e-01   6.824111e-03
  2.578497e+00    5.155495e-01   6.854327e-03
  2.580708e+00    5.049350e-01   6.775420e-03
  2.582918e+00    4.952680e-01   6.702611e-03
  2.585129e+00    5.099075e-01   6.793241e-03
  2.587339e+00    5.187381e-01   6.844093e-03
  2.589550e+00    5.080475e-01   6.765700e-03
  2.591760e+00    4.938085e-01   6.662609e-03
  2.593971e+00    4.995151e-01   6.693566e-03
  2.596181e+00    4.898002e-01   6.622054e-03
  2.598391e+00    5.037036e-01   6.710229e-03
  2.600602e+00    5.152310e-01   6.780634e-03
  2.602812e+00    5.076283e-01   6.722915e-03
  2.605023e+00    5.002011e-01   6.666415e-03
  2.607233e+00    5.197106e-01   6.787974e-03
  2.609444e+00    4.998188e-01   6.649646e-03
  2.611654e+00    4.920260e-01   6.590349e-03
  2.613865e+00    5.091825e-01   6.697237e-03
  2.616075e+00    4.961922e-01   6.604175e-03
  2.618286e+00    5.180610e-01   6.741056e-03
  2.620496e+00    5.214631e-01   6.756359e-03
  2.622706e+00    5.025291e-01   6.626835e-03
  2.624917e+00    5.045998e-01   6.634621e-03
  2.627127e+00    4.958055e-01   6.570866e-03
  2.629338e+00    5.016418e-01   6.603446e-03
  2.631548e+00    5.074742e-01   6.635542e-03
  2.633759e+00    4.970771e-01   6.560108e-03
  2.635969e+00    4.852755e-01   6.475179e-03
  2.638180e+00    5.031617e-01   6.586438e-03
  2.640390e+00    5.015785e-01   6.569464e-03
  2.642601e+00    4.907640e-01   6.491649e-03
  2.644811e+00    5.066252e-01   6.588606e-03
  2.647021e+00    4.973503e-01   6.521482e-03
  2.649232e+00    4.893700e-01   6.462290e-03
  2.651442e+00    4.867691e-01   6.438671e-03
  2.653653e+00    5.037832e-01   6.543394e-03
  2.655863e+00    4.994322e-01   6.508410e-03
  2.658074e+00    4.913949e-01   6.449234e-03
  2.660284e+00    5.056075e-01   6.535444e-03
  2.662495e+00    5.074151e-01   6.540293e-03
  2.664705e+00    4.980412e-01   6.473026e-03
  2.666916e+00    5.012254e-01   6.487184e-03
  2.669126e+00    4.924015e-01   6.423407e-03
  2.671337e+00    4.907344e-01   6.405960e-03
  2.673547e+00    4.934579e-01   6.417349e-03
  2.675757e+00    4.923273e-01   6.403562e-03
  2.677968e+00    5.028785e-01   6.465221e-03
  2.680178e+00    5.017874e-01   6.451759e-03
  2.682389e+00    5.047654e-01   6.464421e-03
  2.684599e+00    4.861098e-01   6.337688e-03
  2.686810e+00    4.886610e-01   6.347707e-03
  2.689020e+00    4.789578e-01   6.278169e-03
  2.691231e+00    4.814401e-01   6.288173e-03
  2.693441e+00    4.903804e-01   6.340161e-03
  2.695652e+00    4.851792e-01   6.299951e-03
  2.697862e+00    4.873809e-01   6.307920e-03
  2.700072e+00    4.862431e-01   6.294472e-03
  2.702283e+00    4.840576e-01   6.274147e-03
  2.704493e+00    4.795188e-01   6.238421e-03
  2.706704e+00    4.950814e-01   6.332403e-03
  2.708914e+00    4.865424e-01   6.271612e-03
  2.711125e+00    4.805158e-01   6.226430e-03
  2.713335e+00    4.896876e-01   6.279477e-03
  2.715546e+00    4.845041e-01   6.239706e-03
  2.717756e+00    4.844415e-01   6.233432e-03
  2.719967e+00    4.902574e-01   6.264502e-03
  2.722177e+00    4.743554e-01   6.156014e-03
  2.724387e+00    4.659919e-01   6.095513e-03
  2.726598e+00    4.747689e-01   6.146652e-03
  2.728808e+00    4.927303e-01   6.255652e-03
  2.731019e+00    4.859000e-01   6.206030e-03
  2.733229e+00    4.748603e-01   6.129350e-03
  2.735440e+00    4.829660e-01   6.175204e-03
  2.737650e+00    4.650928e-01   6.053946e-03
  2.739861e+00    4.758205e-01   6.117349e-03
  2.742071e+00    4.795972e-01   6.135852e-03
  2.744282e+00    4.859462e-01   6.170066e-03
  2.746492e+00    4.737796e-01   6.086364e-03
  2.748702e+00    4.654692e-01   6.026938e-03
  2.750913e+00    4.820567e-01   6.127591e-03
  2.753123e+00    4.734438e-01   6.066535e-03
  2.755334e+00    4.850325e-01   6.134234e-03
  2.757544e+00    4.842597e-01   6.123592e-03
  2.759755e+00    4.915568e-01   6.163592e-03
  2.761965e+00    4.870084e-01   6.128994e-03
  2.764176e+00    4.790028e-01   6.072436e-03
  2.766386e+00    4.715493e-01   6.019256e-03
  2.768597e+00    4.682417e-01   5.992318e-03
  2.770807e+00    4.780933e-01   6.049148e-03
  2.773017e+00    4.776539e-01   6.040423e-03
  2.775228e+00    4.869519e-01   6.093075e-03
  2.777438e+00    4.829173e-01   6.061977e-03
  2.779649e+00    4.729909e-01   5.993477e-03
  2.781859e+00    4.754784e-01   6.003450e-03
  2.784070e+00    4.765283e-01   6.004240e-03
  2.786280e+00    4.791183e-01   6.014747e-03
  2.788491e+00    4.705769e-01   5.955099e-03
  2.790701e+00    4.846725e-01   6.037926e-03
  2.792912e+00    4.801388e-01   6.003646e-03
  2.795122e+00    4.713633e-01   5.942826e-03
  2.797333e+00    4.617327e-01   5.876313e-03
  2.799543e+00    4.686577e-01   5.914397e-03
  2.801753e+00    4.601561e-01   5.854752e-03
  2.803964e+00    4.699767e-01   5.911249e-03
  2.806174e+00    4.747411e-01   5.935010e-03
  2.808385e+00    4.780498e-01   5.948829e-03
  2.810595e+00    4.721177e-01   5.904963e-03
  2.812806e+00    4.653773e-01   5.856109e-03
  2.815016e+00    4.671167e-01   5.862347e-03
  2.817227e+00    4.679711e-01   5.893435e-03
  2.819437e+00    4.761441e-01   5.955810e-03
  2.821648e+00    4.751495e-01   5.951875e-03
  2.823858e+00    4.837615e-01   6.010963e-03
  2.826068e+00    4.711764e-01   5.937234e-03
  2.828279e+00    4.736706e-01   5.956979e-03
  2.830489e+00    4.783307e-01   5.989553e-03
  2.832700e+00    4.698744e-01   5.938944e-03
  2.834910e+00    4.656917e-01   5.914488e-03
  2.837121e+00    4.779956e-01   5.993835e-03
  2.839331e+00    4.671494e-01   5.926675e-03
  2.841542e+00    4.690393e-01   5.939668e-03
  2.843752e+00    4.677456e-01   5.932240e-03
  2.845963e+00    4.645086e-01   5.912081e-03
  2.848173e+00    4.659621e-01   5.921409e-03
  2.850383e+00    4.701201e-01   5.948060e-03
  2.852594e+00    4.727131e-01   5.964356e-03
  2.854804e+00    4.816817e-01   6.020165e-03
  2.857015e+00    4.738886e-01   5.970842e-03
  2.859225e+00    4.630746e-01   5.902066e-03
  2.861436e+00    4.567955e-01   5.861259e-03
  2.863646e+00    4.695254e-01   5.942408e-03
  2.865857e+00    4.718961e-01   5.957740e-03
  2.868067e+00    4.656302e-01   5.918266e-03
  2.870278e+00    4.690059e-01   5.939329e-03
  2.872488e+00    4.858298e-01   6.043734e-03
  2.874698e+00    4.673849e-01   5.926857e-03
  2.876909e+00    4.678073e-01   5.928181e-03
  2.879119e+00    4.682827e-01   5.929574e-03
  2.881330e+00    4.599956e-01   5.875404e-03
  2.883540e+00    4.654971e-01   5.909031e-03
  2.885751e+00    4.495254e-01   5.805178e-03
  2.887961e+00    4.465966e-01   5.784347e-03
  2.890172e+00    4.622189e-01   5.883055e-03
  2.892382e+00    4.647270e-01   5.897197e-03
  2.894593e+00    4.566233e-01   5.843733e-03
  2.896803e+00    4.550764e-01   5.831862e-03
  2.899014e+00    4.557954e-01   5.834566e-03
  2.901224e+00    4.518624e-01   5.807366e-03
  2.903434e+00    4.626773e-01   5.874495e-03
  2.905645e+00    4.558083e-01   5.828511e-03
  2.907855e+00    4.588924e-01   5.846106e-03
  2.910066e+00    4.612724e-01   5.859154e-03
  2.912276e+00    4.661755e-01   5.888083e-03
  2.914487e+00    4.604044e-01   5.849060e-03
  2.916697e+00    4.514287e-01   5.789562e-03
  2.918908e+00    4.386347e-01   5.704971e-03
  2.921118e+00    4.577408e-01   5.825181e-03
  2.923329e+00    4.594993e-01   5.834060e-03
  2.925539e+00    4.591967e-01   5.829852e-03
  2.927749e+00    4.513268e-01   5.777377e-03
  2.929960e+00    4.497226e-01   5.764353e-03
  2.932170e+00    4.515369e-01   5.773647e-03
  2.934381e+00    4.569583e-01   5.805764e-03
  2.936591e+00    4.572344e-01   5.804935e-03
  2.938802e+00    4.515623e-01   5.766131e-03
  2.941012e+00    4.555949e-01   5.789473e-03
  2.943223e+00    4.578460e-01   5.801064e-03
  2.945433e+00    4.533563e-01   5.768820e-03
  2.947644e+00    4.489790e-01   5.736802e-03
  2.949854e+00    4.518714e-01   5.751003e-03
  2.952064e+00    4.461253e-01   5.710133e-03
  2.954275e+00    4.447904e-01   5.697214e-03
  2.956485e+00    4.658807e-01   5.826482e-03
  2.958696e+00    4.609557e-01   5.791216e-03
  2.960906e+00    4.672766e-01   5.826543e-03
  2.963117e+00    4.553359e-01   5.747136e-03
  2.965327e+00    4.588428e-01   5.765291e-03
  2.967538e+00    4.625302e-01   5.785487e-03
  2.969748e+00    4.462660e-01   5.680053e-03
  2.971959e+00    4.683075e-01   5.815450e-03
  2.974169e+00    4.726791e-01   5.839904e-03
  2.976379e+00    4.499643e-01   5.694950e-03
  2.978590e+00    4.640811e-01   5.780423e-03
  2.980800e+00    4.547910e-01   5.719481e-03
  2.983011e+00    4.435433e-01   5.645542e-03
  2.985221e+00    4.324096e-01   5.571156e-03
  2.987432e+00    4.441176e-01   5.642999e-03
  2.989642e+00    4.475167e-01   5.661936e-03
  2.991853e+00    4.630883e-01   5.756295e-03
  2.994063e+00    4.603576e-01   5.736367e-03
  2.996274e+00    4.458434e-01   5.642078e-03
  2.998484e+00    4.605507e-01   5.731636e-03
  3.000694e+00    4.614976e-01   5.734051e-03
  3.002905e+00    4.589797e-01   5.715440e-03
  3.005115e+00    4.560219e-01   5.694001e-03
  3.007326e+00    4.409680e-01   5.596126e-03
  3.009536e+00    4.352632e-01   5.556601e-03
  3.011747e+00    4.582130e-01   5.698285e-03
  3.013957e+00    4.507393e-01   5.648464e-03
  3.016168e+00    4.458067e-01   5.614232e-03
  3.018378e+00    4.552760e-01   5.670489e-03
  3.020589e+00    4.447664e-01   5.601475e-03
  3.022799e+00    4.538239e-01   5.655067e-03
  3.025010e+00    4.554495e-01   5.661921e-03
  3.027220e+00    4.545532e-01   5.653242e-03
  3.029430e+00    4.540830e-01   5.647064e-03
  3.031641e+00    4.548867e-01   5.648911e-03
  3.033851e+00    4.573006e-01   5.660341e-03
  3.036062e+00    4.491544e-01   5.606937e-03
  3.038272e+00    4.462129e-01   5.584971e-03
  3.040483e+00    4.526688e-01   5.622004e-03
  3.042693e+00    4.509802e-01   5.608256e-03
  3.044904e+00    4.495790e-01   5.595522e-03
  3.047114e+00    4.500051e-01   5.593360e-03
  3.049325e+00    4.530572e-01   5.607896e-03
  3.051535e+00    4.481786e-01   5.573246e-03
  3.053745e+00    4.428223e-01   5.535124e-03
  3.055956e+00    4.557314e-01   5.610631e-03
  3.058166e+00    4.398194e-01   5.507600e-03
  3.060377e+00    4.466341e-01   5.545346e-03
  3.062587e+00    4.540160e-01   5.586348e-03
  3.064798e+00    4.453427e-01   5.528502e-03
  3.067008e+00    4.457203e-01   5.526117e-03
  3.069219e+00    4.425273e-01   5.501829e-03
  3.071429e+00    4.531296e-01   5.563803e-03
  3.073640e+00    4.564134e-01   5.580588e-03
  3.075850e+00    4.542703e-01   5.563861e-03
  3.078060e+00    4.477244e-01   5.520529e-03
  3.080271e+00    4.510341e-01   5.537416e-03
  3.082481e+00    4.529482e-01   5.545681e-03
  3.084692e+00    4.365479e-01   5.441050e-03
  3.086902e+00    4.188211e-01   5.326277e-03
  3.089113e+00    4.332649e-01   5.413825e-03
  3.091323e+00    4.357603e-01   5.426063e-03
  3.093534e+00    4.408474e-01   5.454305e-03
  3.095744e+00    4.448809e-01   5.475843e-03
  3.097955e+00    4.338900e-01   5.404283e-03
  3.100165e+00    4.431697e-01   5.458427e-03
  3.102375e+00    4.605186e-01   5.560790e-03
  3.104586e+00    4.503061e-01   5.495296e-03
  3.106796e+00    4.312776e-01   5.374460e-03
  3.109007e+00    4.391201e-01   5.419916e-03
  3.111217e+00    4.475289e-01   5.467843e-03
  3.113428e+00    4.567682e-01   5.520575e-03
  3.115638e+00    4.542974e-01   5.502338e-03
  3.117849e+00    4.462577e-01   5.449723e-03
  3.120059e+00    4.492588e-01   5.464522e-03
  3.122270e+00    4.339379e-01   5.367339e-03
  3.124480e+00    4.393042e-01   5.396734e-03
  3.126691e+00    4.389255e-01   5.390876e-03
  3.128901e+00    4.534423e-01   5.476153e-03
  3.131111e+00    4.357666e-01   5.364555e-03
  3.133322e+00    4.383193e-01   5.376825e-03
  3.135532e+00    4.396959e-01   5.381860e-03
  3.137743e+00    4.448394e-01   5.409778e-03
  3.139953e+00    4.367505e-01   5.356709e-03
  3.142164e+00    4.385768e-01   5.379856e-03
  3.144374e+00    4.398641e-01   5.416066e-03
  3.146585e+00    4.606494e-01   5.557405e-03
  3.148795e+00    4.519583e-01   5.515644e-03
  3.151006e+00    4.462505e-01   5.489285e-03
  3.153216e+00    4.375645e-01   5.442699e-03
  3.155426e+00    4.343304e-01   5.428817e-03
  3.157637e+00    4.325260e-01   5.422981e-03
  3.159847e+00    4.341472e-01   5.437999e-03
  3.162058e+00    4.335483e-01   5.438623e-03
  3.164268e+00    4.305544e-01   5.423849e-03
  3.166479e+00    4.290483e-01   5.417949e-03
  3.168689e+00    4.366208e-01   5.468913e-03
  3.170900e+00    4.337257e-01   5.453907e-03
  3.173110e+00    4.365418e-01   5.474438e-03
  3.175321e+00    4.148673e-01   5.339249e-03
  3.177531e+00    4.213401e-01   5.383401e-03
  3.179741e+00    4.431236e-01   5.522893e-03
  3.181952e+00    4.455121e-01   5.539907e-03
  3.184162e+00    4.394428e-01   5.504231e-03
  3.186373e+00    4.385419e-01   5.500185e-03
  3.188583e+00    4.382735e-01   5.500302e-03
  3.190794e+00    4.460606e-01   5.550705e-03
  3.193004e+00    4.401408e-01   5.515024e-03
  3.195215e+00    4.300537e-01   5.452946e-03
  3.197425e+00    4.276312e-01   5.438760e-03
  3.199636e+00    4.346412e-01   5.482385e-03
  3.201846e+00    4.278122e-01   5.438552e-03
  3.204056e+00    4.307139e-01   5.457841e-03
  3.206267e+00    4.393907e-01   5.513402e-03
  3.208477e+00    4.270369e-01   5.436259e-03
  3.210688e+00    4.323949e-01   5.471107e-03
  3.212898e+00    4.363889e-01   5.496873e-03
  3.215109e+00    4.484773e-01   5.573265e-03
  3.217319e+00    4.301333e-01   5.458749e-03
  3.219530e+00    4.297614e-01   5.456754e-03
  3.221740e+00    4.332220e-01   5.479257e-03
  3.223951e+00    4.323288e-01   5.474072e-03
  3.226161e+00    4.208605e-01   5.401165e-03
  3.228372e+00    4.338261e-01   5.484268e-03
  3.230582e+00    4.237014e-01   5.420026e-03
  3.232792e+00    4.211116e-01   5.403669e-03
  3.235003e+00    4.205438e-01   5.400249e-03
  3.237213e+00    4.406637e-01   5.528030e-03
  3.239424e+00    4.207731e-01   5.401848e-03
  3.241634e+00    4.135634e-01   5.355470e-03
  3.243845e+00    4.245252e-01   5.426063e-03
  3.246055e+00    4.317207e-01   5.471554e-03
  3.248266e+00    4.334671e-01   5.482847e-03
  3.250476e+00    4.311661e-01   5.467953e-03
  3.252687e+00    4.188966e-01   5.389533e-03
  3.254897e+00    4.215399e-01   5.406364e-03
  3.257107e+00    4.335328e-01   5.482424e-03
  3.259318e+00    4.298387e-01   5.458783e-03
  3.261528e+00    4.297172e-01   5.457879e-03
  3.263739e+00    4.329807e-01   5.477994e-03
  3.265949e+00    4.227131e-01   5.412534e-03
  3.268160e+00    4.346150e-01   5.487767e-03
  3.270370e+00    4.404533e-01   5.524006e-03
  3.272581e+00    4.334615e-01   5.479706e-03
  3.274791e+00    4.242959e-01   5.420911e-03
  3.277002e+00    4.340817e-01   5.482515e-03
  3.279212e+00    4.329247e-01   5.474832e-03
  3.281422e+00    4.218740e-01   5.403916e-03
  3.283633e+00    4.324779e-01   5.470718e-03
  3.285843e+00    4.297023e-01   5.452799e-03
  3.288054e+00    4.220758e-01   5.403280e-03
  3.290264e+00    4.192271e-01   5.384683e-03
  3.292475e+00    4.168855e-01   5.368786e-03
  3.294685e+00    4.260044e-01   5.426568e-03
  3.296896e+00    4.192283e-01   5.382476e-03
  3.299106e+00    4.289006e-01   5.443641e-03
  3.301317e+00    4.228079e-01   5.403852e-03
  3.303527e+00    4.124419e-01   5.336712e-03
  3.305737e+00    4.233110e-01   5.405521e-03
  3.307948e+00    4.227768e-01   5.401452e-03
  3.310158e+00    4.125603e-01   5.334955e-03
  3.312369e+00    4.259941e-01   5.420206e-03
  3.314579e+00    4.107964e-01   5.321769e-03
  3.316790e+00    4.201444e-01   5.381264e-03
  3.319000e+00    4.212843e-01   5.387376e-03
  3.321211e+00    4.318014e-01   5.453590e-03
  3.323421e+00    4.312072e-01   5.448627e-03
  3.325632e+00    4.154743e-01   5.347434e-03
  3.327842e+00    4.099818e-01   5.311056e-03
  3.330052e+00    4.166134e-01   5.352765e-03
  3.332263e+00    4.345484e-01   5.465753e-03
  3.334473e+00    4.302026e-01   5.437415e-03
  3.336684e+00    4.330446e-01   5.454083e-03
  3.338894e+00    4.147137e-01   5.336553e-03
  3.341105e+00    4.247061e-01   5.399250e-03
  3.343315e+00    4.235128e-01   5.390513e-03
  3.345526e+00    4.190481e-01   5.361139e-03
  3.347736e+00    4.099884e-01   5.301481e-03
  3.349947e+00    4.182059e-01   5.353387e-03
  3.352157e+00    4.280045e-01   5.414570e-03
  3.354368e+00    4.209350e-01   5.368388e-03
  3.356578e+00    4.098240e-01   5.296032e-03
  3.358788e+00    4.185041e-01   5.350496e-03
  3.360999e+00    4.149643e-01   5.326590e-03
  3.363209e+00    4.165926e-01   5.335996e-03
  3.365420e+00    4.176749e-01   5.341442e-03
  3.367630e+00    4.107709e-01   5.296068e-03
  3.369841e+00    4.310699e-01   5.423909e-03
  3.372051e+00    4.129826e-01   5.306954e-03
  3.374262e+00    4.127217e-01   5.302825e-03
  3.376472e+00    4.261204e-01   5.385736e-03
  3.378683e+00    4.316088e-01   5.417777e-03
  3.380893e+00    4.165008e-01   5.319765e-03
  3.383103e+00    4.067663e-01   5.254552e-03
  3.385314e+00    4.128792e-01   5.291665e-03
  3.387524e+00    4.090061e-01   5.264074e-03
  3.389735e+00    4.113424e-01   5.276462e-03
  3.391945e+00    4.195358e-01   5.325051e-03
  3.394156e+00    4.165669e-01   5.301946e-03
  3.396366e+00    4.173487e-01   5.303481e-03
  3.398577e+00    4.075310e-01   5.237706e-03
  3.400787e+00    3.969799e-01   5.181164e-03
  3.402998e+00    3.999114e-01   5.237837e-03
  3.405208e+00    4.189189e-01   5.381878e-03
  3.407418e+00    3.946405e-01   5.239259e-03
  3.409629e+00    3.947030e-01   5.253532e-03
  3.411839e+00    3.783340e-01   5.154900e-03
  3.414050e+00    3.958095e-01   5.283551e-03
  3.416260e+00    4.020026e-01   5.334503e-03
  3.418471e+00    3.923900e-01   5.279731e-03
  3.420681e+00    3.877519e-01   5.256876e-03
  3.422892e+00    3.925440e-01   5.297274e-03
  3.425102e+00    3.902057e-01   5.289291e-03
  3.427313e+00    4.043948e-01   5.391923e-03
  3.429523e+00    3.962046e-01   5.344215e-03
  3.431733e+00    3.861658e-01   5.282747e-03
  3.433944e+00    3.766764e-01   5.223855e-03
  3.436154e+00    3.701916e-01   5.184803e-03
  3.438365e+00    3.813483e-01   5.268275e-03
  3.440575e+00    3.852867e-01   5.301393e-03
  3.442786e+00    3.920991e-01   5.353756e-03
  3.444996e+00    3.768545e-01   5.254158e-03
  3.447207e+00    3.543757e-01   5.100181e-03
  3.449417e+00    3.718826e-01   5.265455e-03
  3.451628e+00    3.791220e-01   5.346343e-03
  3.453838e+00    3.547159e-01   5.192171e-03
  3.456049e+00    3.734565e-01   5.351652e-03
  3.458259e+00    3.776816e-01   5.404130e-03
  3.460469e+00    3.627343e-01   5.315804e-03
  3.462680e+00    3.745522e-01   5.420952e-03
  3.464890e+00    3.714470e-01   5.416382e-03
  3.467101e+00    3.666013e-01   5.398361e-03
  3.469311e+00    3.752197e-01   5.478114e-03
  3.471522e+00    3.739783e-01   5.485424e-03
  3.473732e+00    3.877754e-01   5.601820e-03
  3.475943e+00    3.946914e-01   5.667508e-03
  3.478153e+00    4.005209e-01   5.724907e-03
  3.480364e+00    4.008327e-01   5.742404e-03
  3.482574e+00    4.169928e-01   5.872618e-03
  3.484784e+00    4.148257e-01   5.872292e-03
  3.486995e+00    4.371296e-01   6.043551e-03
  3.489205e+00    4.347470e-01   6.041941e-03
  3.491416e+00    4.568731e-01   6.209209e-03
  3.493626e+00    4.508506e-01   6.183008e-03
  3.495837e+00    4.669496e-01   6.307609e-03
  3.498047e+00    4.519425e-01   6.220071e-03
  3.500258e+00    4.478580e-01   6.206386e-03
  3.502468e+00    4.559991e-01   6.276975e-03
  3.504679e+00    4.777130e-01   6.439446e-03
  3.506889e+00    4.751804e-01   6.436963e-03
  3.509099e+00    4.808783e-01   6.489927e-03
  3.511310e+00    4.780107e-01   6.485039e-03
  3.513520e+00    4.952244e-01   6.615393e-03
  3.515731e+00    4.993554e-01   6.657491e-03
  3.517941e+00    5.013282e-01   6.685167e-03
  3.520152e+00    4.935967e-01   6.647727e-03
  3.522362e+00    4.973892e-01   6.687605e-03
  3.524573e+00    5.150857e-01   6.819994e-03
  3.526783e+00    5.132354e-01   6.821079e-03
  3.528994e+00    5.213980e-01   6.887421e-03
  3.531204e+00    5.363208e-01   6.997908e-03
  3.533414e+00    5.257358e-01   6.940631e-03
  3.535625e+00    5.350200e-01   7.014052e-03
  3.537835e+00    5.489175e-01   7.116877e-03
  3.540046e+00    5.253585e-01   6.971348e-03
  3.542256e+00    5.268518e-01   6.988698e-03
  3.544467e+00    5.284932e-01   7.007149e-03
  3.546677e+00    5.235592e-01   6.981854e-03
  3.548888e+00    5.250974e-01   6.999514e-03
  3.551098e+00    5.317504e-01   7.050963e-03
  3.553309e+00    5.495841e-01   7.176503e-03
  3.555519e+00    5.453267e-01   7.160070e-03
  3.557729e+00    5.308415e-01   7.075986e-03
  3.559940e+00    5.352727e-01   7.116988e-03
  3.562150e+00    5.497307e-01   7.224324e-03
  3.564361e+00    5.463064e-01   7.215250e-03
  3.566571e+00    5.395159e-01   7.184143e-03
  3.568782e+00    5.311171e-01   7.142071e-03
  3.570992e+00    5.248509e-01   7.113400e-03
  3.573203e+00    5.331920e-01   7.183793e-03
  3.575413e+00    5.551534e-01   7.344291e-03
  3.577624e+00    5.421121e-01   7.271726e-03
  3.579834e+00    5.384099e-01   7.260734e-03
  3.582045e+00    5.540491e-01   7.379720e-03
  3.584255e+00    5.541435e-01   7.394661e-03
  3.586465e+00    5.307161e-01   7.250484e-03
  3.588676e+00    5.441999e-01   7.356338e-03
  3.590886e+00    5.365391e-01   7.318103e-03
  3.593097e+00    5.282423e-01   7.275676e-03
  3.595307e+00    5.359626e-01   7.342601e-03
  3.597518e+00    5.204634e-01   7.249646e-03
  3.599728e+00    5.452789e-01   7.434699e-03
  3.601939e+00    5.341694e-01   7.372597e-03
  3.604149e+00    5.440853e-01   7.455261e-03
  3.606360e+00    5.294803e-01   7.368580e-03
  3.608570e+00    5.435718e-01   7.480242e-03
  3.610780e+00    5.482585e-01   7.523641e-03
  3.612991e+00    5.338292e-01   7.433959e-03
  3.615201e+00    5.284071e-01   7.405864e-03
  3.617412e+00    5.364453e-01   7.469266e-03
  3.619622e+00    5.240788e-01   7.388551e-03
  3.621833e+00    5.427271e-01   7.525613e-03
  3.624043e+00    5.131695e-01   7.327173e-03
  3.626254e+00    5.198167e-01   7.383997e-03
  3.628464e+00    5.244093e-01   7.427440e-03
  3.630675e+00    5.262036e-01   7.454155e-03
  3.632885e+00    5.354409e-01   7.533733e-03
  3.635095e+00    5.493796e-01   7.645827e-03
  3.637306e+00    5.378973e-01   7.579886e-03
  3.639516e+00    5.325395e-01   7.556592e-03
  3.641727e+00    5.258762e-01   7.523627e-03
  3.643937e+00    5.334266e-01   7.591974e-03
  3.646148e+00    5.344549e-01   7.613949e-03
  3.648358e+00    5.259255e-01   7.567689e-03
  3.650569e+00    5.357862e-01   7.653098e-03
  3.652779e+00    5.260647e-01   7.598002e-03
  3.654990e+00    5.460353e-01   7.755953e-03
  3.657200e+00    5.396201e-01   7.725263e-03
  3.659410e+00    5.582082e-01   7.872508e-03
  3.661621e+00    5.362940e-01   7.731649e-03
  3.663831e+00    5.327545e-01   7.721163e-03
  3.666042e+00    5.365642e-01   7.764025e-03
  3.668252e+00    5.268977e-01   7.708859e-03
  3.670463e+00    5.190649e-01   7.666482e-03
  3.672673e+00    5.292149e-01   7.756407e-03
  3.674884e+00    5.254917e-01   7.744442e-03
  3.677094e+00    5.201060e-01   7.720024e-03
  3.679305e+00    5.087585e-01   7.650543e-03
  3.681515e+00    5.298787e-01   7.823360e-03
  3.683726e+00    5.219299e-01   7.780132e-03
  3.685936e+00    5.402004e-01   7.931013e-03
  3.688146e+00    5.263836e-01   7.844687e-03
  3.690357e+00    5.111721e-01   7.746207e-03
  3.692567e+00    5.233711e-01   7.854155e-03
  3.694778e+00    5.132808e-01   7.793905e-03
  3.696988e+00    5.097178e-01   7.782549e-03
  3.699199e+00    5.381555e-01   8.013096e-03
  3.701409e+00    5.360128e-01   8.013759e-03
  3.703620e+00    5.054227e-01   7.797677e-03
  3.705830e+00    5.220472e-01   7.941253e-03
  3.708041e+00    5.268064e-01   7.994005e-03
  3.710251e+00    5.233581e-01   7.984526e-03
  3.712461e+00    5.292341e-01   8.046047e-03
  3.714672e+00    5.111111e-01   7.923673e-03
  3.716882e+00    5.137576e-01   7.960728e-03
  3.719093e+00    5.095339e-01   7.944901e-03
  3.721303e+00    5.121445e-01   7.982069e-03
  3.723514e+00    5.079036e-01   7.966026e-03
  3.725724e+00    5.265617e-01   8.128299e-03
  3.727935e+00    5.380857e-01   8.234572e-03
  3.730145e+00    5.216816e-01   8.125528e-03
  3.732356e+00    4.988245e-01   7.962706e-03
  3.734566e+00    5.095938e-01   8.065670e-03
  3.736776e+00    5.097389e-01   8.084493e-03
  3.738987e+00    5.285915e-01   8.250625e-03
  3.741197e+00    5.062202e-01   8.091992e-03
  3.743408e+00    5.166432e-01   8.193008e-03
  3.745618e+00    5.181993e-01   8.223770e-03
  3.747829e+00    4.983342e-01   8.082419e-03
  3.750039e+00    5.177241e-01   8.256658e-03
  3.752250e+00    5.144923e-01   8.249366e-03
  3.754460e+00    5.191109e-01   8.305044e-03
  3.756671e+00    4.864374e-01   8.057834e-03
  3.758881e+00    4.987237e-01   8.177343e-03
  3.761091e+00    5.151724e-01   8.330395e-03
  3.763302e+00    5.177992e-01   8.370863e-03
  3.765512e+00    5.121143e-01   8.344150e-03
  3.767723e+00    4.958279e-01   8.229516e-03
  3.769933e+00    4.919347e-01   8.216195e-03
  3.772144e+00    5.043092e-01   8.338393e-03
  3.774354e+00    5.031103e-01   8.348328e-03
  3.776565e+00    4.938425e-01   8.290693e-03
  3.778775e+00    5.060717e-01   8.412684e-03
  3.780986e+00    4.922696e-01   8.317270e-03
  3.783196e+00    5.252370e-01   8.611890e-03
  3.785407e+00    5.058446e-01   8.471965e-03
  3.787617e+00    5.093263e-01   8.521893e-03
  3.789827e+00    5.414002e-01   8.807454e-03
  3.792038e+00    5.207598e-01   8.659179e-03
  3.794248e+00    5.263615e-01   8.727310e-03
  3.796459e+00    5.153984e-01   8.657610e-03
  3.798669e+00    5.105137e-01   8.638036e-03
  3.800880e+00    5.004222e-01   8.573695e-03
  3.803090e+00    5.339217e-01   8.878523e-03
  3.805301e+00    5.362583e-01   8.920837e-03
  3.807511e+00    5.108434e-01   8.729179e-03
  3.809722e+00    5.266793e-01   8.886187e-03
  3.811932e+00    4.992407e-01   8.673891e-03
  3.814142e+00    5.207788e-01   8.882297e-03
  3.816353e+00    5.322935e-01   9.003614e-03
  3.818563e+00    5.023198e-01   8.769641e-03
  3.820774e+00    4.984274e-01   8.758714e-03
  3.822984e+00    4.981054e-01   8.779331e-03
  3.825195e+00    5.040501e-01   8.855313e-03
  3.827405e+00    5.154512e-01   8.979339e-03
  3.829616e+00    4.792454e-01   8.681815e-03
  3.831826e+00    5.065419e-01   8.949977e-03
  3.834037e+00    5.112588e-01   9.016479e-03
  3.836247e+00    5.074937e-01   9.008101e-03
  3.838457e+00    5.048312e-01   9.009761e-03
  3.840668e+00    4.864321e-01   8.868924e-03
  3.842878e+00    5.068064e-01   9.078566e-03
  3.845089e+00    4.798755e-01   8.859243e-03
  3.847299e+00    4.794485e-01   8.880660e-03
  3.849510e+00    5.155908e-01   9.235648e-03
  3.851720e+00    4.990120e-01   9.107486e-03
  3.853931e+00    5.161182e-01   9.281669e-03
  3.856141e+00    5.165724e-01   9.305175e-03
  3.858352e+00    5.173773e-01   9.332137e-03
  3.860562e+00    5.174050e-01   9.352086e-03
  3.862772e+00    5.112933e-01   9.316710e-03
  3.864983e+00    4.886831e-01   9.127905e-03
  3.867193e+00    5.191990e-01   9.428857e-03
  3.869404e+00    4.935846e-01   9.213155e-03
  3.871614e+00    5.035601e-01   9.325968e-03
  3.873825e+00    4.790210e-01   9.115933e-03
  3.876035e+00    5.040954e-01   9.372259e-03
  3.878246e+00    4.900148e-01   9.266159e-03
  3.880456e+00    4.632137e-01   9.037321e-03
  3.882667e+00    5.047442e-01   9.463413e-03
  3.884877e+00    4.970869e-01   9.421302e-03
  3.887087e+00    5.028301e-01   9.505896e-03
  3.889298e+00    4.739572e-01   9.258690e-03
  3.891508e+00    5.156727e-01   9.688894e-03
  3.893719e+00    4.831828e-01   9.409470e-03
  3.895929e+00    4.958519e-01   9.563561e-03
  3.898140e+00    4.866025e-01   9.505562e-03
  3.900350e+00    5.103219e-01   9.767218e-03
  3.902561e+00    5.096114e-01   9.793434e-03
  3.904771e+00    4.872672e-01   9.609078e-03
  3.906982e+00    4.975536e-01   9.743377e-03
  3.909192e+00    4.916973e-01   9.719484e-03
  3.911403e+00    4.939359e-01   9.775682e-03
  3.913613e+00    4.852763e-01   9.723853e-03
  3.915823e+00    4.769414e-01   9.674354e-03
  3.918034e+00    4.776876e-01   9.716748e-03
  3.920244e+00    4.787180e-01   9.762592e-03
  3.922455e+00    4.999174e-01   1.001298e-02
  3.924665e+00    4.782910e-01   9.830047e-03
  3.926876e+00    5.052275e-01   1.014081e-02
  3.929086e+00    4.949272e-01   1.007450e-02
  3.931297e+00    5.147911e-01   1.031051e-02
  3.933507e+00    4.960928e-01   1.015076e-02
  3.935718e+00    4.835956e-01   1.005063e-02
  3.937928e+00    5.056093e-01   1.030687e-02
  3.940138e+00    4.787228e-01   1.005812e-02
  3.942349e+00    5.265905e-01   1.058012e-02
  3.944559e+00    5.060797e-01   1.040260e-02
  3.946770e+00    4.874411e-01   1.023946e-02
  3.948980e+00    4.995973e-01   1.039746e-02
  3.951191e+00    4.993555e-01   1.042617e-02
  3.953401e+00    4.665859e-01   1.010899e-02
  3.955612e+00    5.137603e-01   1.064020e-02
  3.957822e+00    4.940931e-01   1.046658e-02
  3.960033e+00    4.940159e-01   1.049864e-02
  3.962243e+00    5.039182e-01   1.063674e-02
  3.964453e+00    4.909653e-01   1.053237e-02
  3.966664e+00    5.122975e-01   1.079333e-02
  3.968874e+00    4.639688e-01   1.029913e-02
  3.971085e+00    5.077928e-01   1.079706e-02
  3.973295e+00    5.011165e-01   1.074767e-02
  3.975506e+00    4.794343e-01   1.053399e-02
  3.977716e+00    4.967753e-01   1.074511e-02
  3.979927e+00    4.920337e-01   1.071606e-02
  3.982137e+00    4.870855e-01   1.068416e-02
  3.984348e+00    4.982493e-01   1.082898e-02
  3.986558e+00    4.921083e-01   1.078437e-02
  3.988768e+00    4.885898e-01   1.076898e-02
  3.990979e+00    4.944052e-01   1.085575e-02
  3.993189e+00    4.963922e-01   1.090089e-02
  3.995400e+00    4.779094e-01   1.071941e-02
  3.997610e+00    4.914726e-01   1.090041e-02
  3.999821e+00    4.889579e-01   1.091025e-02
  4.002031e+00    4.850394e-01   1.090482e-02
  4.004242e+00    5.227576e-01   1.136077e-02
  4.006452e+00    5.049387e-01   1.120574e-02
  4.008663e+00    4.922342e-01   1.110418e-02
  4.010873e+00    4.616094e-01   1.079230e-02
  4.013084e+00    4.798429e-01   1.104394e-02
  4.015294e+00    4.857533e-01   1.115289e-02
  4.017504e+00    4.685628e-01   1.099490e-02
  4.019715e+00    4.756210e-01   1.111955e-02
  4.021925e+00    4.669123e-01   1.105950e-02
  4.024136e+00    4.590545e-01   1.100853e-02
  4.026346e+00    5.010753e-01   1.154620e-02
  4.028557e+00    4.817613e-01   1.136584e-02
  4.030767e+00    5.033759e-01   1.166454e-02
  4.032978e+00    4.946229e-01   1.160949e-02
  4.035188e+00    4.719160e-01   1.138555e-02
  4.037399e+00    4.962991e-01   1.172410e-02
  4.039609e+00    4.653112e-01   1.139913e-02
  4.041819e+00    4.650914e-01   1.144412e-02
  4.044030e+00    4.848369e-01   1.173461e-02
  4.046240e+00    4.590665e-01   1.146702e-02
  4.048451e+00    4.851600e-01   1.183944e-02
  4.050661e+00    5.252147e-01   1.237223e-02
  4.052872e+00    4.608898e-01   1.164144e-02
  4.055082e+00    4.984550e-01   1.216080e-02
  4.057293e+00    4.858630e-01   1.206023e-02
  4.059503e+00    4.902810e-01   1.216994e-02
  4.061714e+00    5.130767e-01   1.250806e-02
  4.063924e+00    4.676417e-01   1.199717e-02
  4.066134e+00    4.770372e-01   1.217431e-02
  4.068345e+00    4.820915e-01   1.229742e-02
  4.070555e+00    4.989511e-01   1.257107e-02
  4.072766e+00    5.356840e-01   1.308976e-02
  4.074976e+00    4.636854e-01   1.223908e-02
  4.077187e+00    4.956215e-01   1.271642e-02
  4.079397e+00    4.203048e-01   1.177025e-02
  4.081608e+00    4.337533e-01   1.201913e-02
  4.083818e+00    4.668633e-01   1.253439e-02
  4.086029e+00    4.768606e-01   1.273464e-02
  4.088239e+00    4.672145e-01   1.267303e-02
  4.090449e+00    5.219569e-01   1.346752e-02
  4.092660e+00    5.063938e-01   1.333841e-02
  4.094870e+00    4.582034e-01   1.275823e-02
  4.097081e+00    5.086123e-01   1.351536e-02
  4.099291e+00    4.757941e-01   1.312635e-02
  4.101502e+00    4.891641e-01   1.335892e-02
  4.103712e+00    5.137616e-01   1.374181e-02
  4.105923e+00    4.706727e-01   1.320389e-02
  4.108133e+00    4.808061e-01   1.339657e-02
  4.110344e+00    4.632362e-01   1.319991e-02
  4.112554e+00    4.840261e-01   1.354609e-02
  4.114764e+00    5.107681e-01   1.397132e-02
  4.116975e+00    4.989052e-01   1.386254e-02
  4.119185e+00    5.099936e-01   1.407253e-02
  4.121396e+00    4.835208e-01   1.375913e-02
  4.123606e+00    4.749913e-01   1.369306e-02
  4.125817e+00    5.151013e-01   1.431931e-02
  4.128027e+00    5.482789e-01   1.483543e-02
  4.130238e+00    4.903687e-01   1.409048e-02
  4.132448e+00    4.868362e-01   1.410029e-02
  4.134659e+00    4.787592e-01   1.404328e-02
  4.136869e+00    4.627196e-01   1.386738e-02
  4.139080e+00    4.605485e-01   1.389723e-02
  4.141290e+00    4.858083e-01   1.433643e-02
  4.143500e+00    4.983426e-01   1.458728e-02
  4.145711e+00    4.766052e-01   1.433214e-02
  4.147921e+00    4.807650e-01   1.446055e-02
  4.150132e+00    4.994715e-01   1.480961e-02
  4.152342e+00    4.712748e-01   1.445513e-02
  4.154553e+00    4.469343e-01   1.414413e-02
  4.156763e+00    4.692154e-01   1.456370e-02
  4.158974e+00    4.333546e-01   1.406657e-02
  4.161184e+00    5.242367e-01   1.554811e-02
  4.163395e+00    5.297938e-01   1.571036e-02
  4.165605e+00    4.670227e-01   1.482705e-02
  4.167815e+00    4.687424e-01   1.493164e-02
  4.170026e+00    4.965719e-01   1.544945e-02
  4.172236e+00    4.690540e-01   1.509659e-02
  4.174447e+00    5.227821e-01   1.602433e-02
  4.176657e+00    4.735390e-01   1.533435e-02
  4.178868e+00    5.175594e-01   1.612219e-02
  4.181078e+00    4.866972e-01   1.572208e-02
  4.183289e+00    4.583910e-01   1.534529e-02
  4.185499e+00    4.840603e-01   1.586227e-02
  4.187710e+00    4.503593e-01   1.538971e-02
  4.189920e+00    4.870346e-01   1.610050e-02
  4.192130e+00    4.807810e-01   1.609448e-02
  4.194341e+00    4.629477e-01   1.589001e-02
  4.196551e+00    5.289408e-01   1.709229e-02
  4.198762e+00    4.858713e-01   1.648602e-02
  4.200972e+00    4.344637e-01   1.569023e-02
  4.203183e+00    4.302664e-01   1.571709e-02
  4.205393e+00    4.816712e-01   1.674004e-02
  4.207604e+00    4.675912e-01   1.660627e-02
  4.209814e+00    4.853868e-01   1.703526e-02
  4.212025e+00    4.886935e-01   1.721456e-02
  4.214235e+00    4.717359e-01   1.703293e-02
  4.216445e+00    5.036272e-01   1.772655e-02
  4.218656e+00    4.946953e-01   1.770029e-02
  4.220866e+00    4.959300e-01   1.785367e-02
  4.223077e+00    4.621474e-01   1.736761e-02
  4.225287e+00    3.988458e-01   1.626093e-02
  4.227498e+00    4.536845e-01   1.747910e-02
  4.229708e+00    4.981439e-01   1.846422e-02
  4.231919e+00    4.763317e-01   1.820485e-02
  4.234129e+00    5.416592e-01   1.957618e-02
  4.236340e+00    4.557599e-01   1.811044e-02
  4.238550e+00    4.735847e-01   1.862422e-02
  4.240761e+00    4.944964e-01   1.919907e-02
  4.242971e+00    4.406702e-01   1.829030e-02
  4.245181e+00    4.493619e-01   1.864296e-02
  4.247392e+00    5.269171e-01   2.037661e-02
  4.249602e+00    4.743312e-01   1.952539e-02
  4.251813e+00    4.585667e-01   1.938706e-02
  4.254023e+00    4.617042e-01   1.964927e-02
  4.256234e+00    4.692296e-01   2.002086e-02
  4.258444e+00    4.432563e-01   1.966185e-02
  4.260655e+00    4.918447e-01   2.093960e-02
  4.262865e+00    4.102398e-01   1.934054e-02
  4.265076e+00    4.444164e-01   2.035897e-02
  4.267286e+00    4.743212e-01   2.128209e-02
  4.269496e+00    4.344070e-01   2.061619e-02
  4.271707e+00    4.757968e-01   2.184191e-02
  4.273917e+00    4.823976e-01   2.227732e-02
  4.276128e+00    3.495870e-01   1.921640e-02
  4.278338e+00    5.098482e-01   2.351631e-02
  4.280549e+00    4.528688e-01   2.248148e-02
  4.282759e+00    4.755351e-01   2.336853e-02
  4.284970e+00    4.367221e-01   2.272530e-02
  4.287180e+00    5.071826e-01   2.478373e-02
  4.289391e+00    5.256255e-01   2.541994e-02
  4.291601e+00    5.318543e-01   2.577412e-02
  4.293811e+00    5.236582e-01   2.577538e-02
  4.296022e+00    4.387195e-01   2.378163e-02
  4.298232e+00    4.804386e-01   2.509487e-02
  4.300443e+00    4.837506e-01   2.538950e-02
  4.302653e+00    4.633853e-01   2.506401e-02
  4.304864e+00    4.490542e-01   2.488735e-02
  4.307074e+00    4.770845e-01   2.588336e-02
  4.309285e+00    4.179263e-01   2.444464e-02
  4.311495e+00    4.695621e-01   2.615413e-02
  4.313706e+00    4.674753e-01   2.634042e-02
  4.315916e+00    4.771186e-01   2.687308e-02
  4.318126e+00    4.931151e-01   2.758967e-02
  4.320337e+00    4.401164e-01   2.632858e-02
  4.322547e+00    6.018521e-01   3.111563e-02
  4.324758e+00    5.093298e-01   2.892145e-02
  4.326968e+00    6.075722e-01   3.194347e-02
  4.329179e+00    5.154248e-01   2.974585e-02
  4.331389e+00    4.545045e-01   2.825464e-02
  4.333600e+00    4.414150e-01   2.817775e-02
  4.335810e+00    3.695643e-01   2.608881e-02
  4.338021e+00    4.219059e-01   2.823222e-02
  4.340231e+00    5.063295e-01   3.131620e-02
  4.342442e+00    4.750959e-01   3.074199e-02
  4.344652e+00    4.830757e-01   3.142012e-02
  4.346862e+00    3.943644e-01   2.878700e-02
  4.349073e+00    4.379292e-01   3.077582e-02
  4.351283e+00    4.318567e-01   3.101863e-02
  4.353494e+00    4.508180e-01   3.218218e-02
  4.355704e+00    4.117417e-01   3.125015e-02
  4.357915e+00    4.126850e-01   3.180795e-02
  4.360125e+00    4.539747e-01   3.392962e-02
  4.362336e+00    4.267953e-01   3.349868e-02
  4.364546e+00    3.676688e-01   3.165719e-02
  4.366757e+00    3.428434e-01   3.117849e-02
  4.368967e+00    3.805989e-01   3.350366e-02
  4.371177e+00    5.567673e-01   4.138545e-02
  4.373388e+00    5.109896e-01   4.053604e-02
  4.375598e+00    4.241676e-01   3.777208e-02
  4.377809e+00    5.385153e-01   4.363785e-02
  4.380019e+00    4.524655e-01   4.100777e-02
  4.382230e+00    4.076290e-01   4.000489e-02
  4.384440e+00    5.630341e-01   4.837421e-02
  4.386651e+00    4.887281e-01   4.645588e-02
  4.388861e+00    3.638025e-01   4.142983e-02
  4.391072e+00    4.181309e-01   4.597063e-02
  4.393282e+00    5.917029e-01   5.680200e-02
  4.395492e+00    6.485955e-01   6.194460e-02
  4.397703e+00    2.878364e-01   4.315223e-02
  4.399913e+00    3.266376e-01   4.829447e-02
  4.402124e+00    3.648658e-01   5.393606e-02
  4.404334e+00    5.073949e-01   6.760640e-02
  4.406545e+00    5.341078e-01   7.452637e-02
  4.408755e+00    4.605393e-01   7.505941e-02
  4.410966e+00    2.056793e-01   5.551989e-02
  4.413176e+00    2.870763e-01   7.423136e-02
  4.415387e+00   -4.819031e-01            nan
  4.417597e+00   -2.031091e+00            nan
  4.419807e+00   -3.766224e-01            nan
