# == pyFAI calibration ==
# Distance Sample to Detector: 0.216 m
# PONI: 1.166e-01, 1.308e-01 m
# Rotations: 0.000000 0.000000 0.000000 rad
# 
# == Fit2d calibration ==
# Distance Sample-beamCenter: 216.000 mm
# Center: x=1744.293, y=1555.000 pix
# Tilt: 0.000 deg  TiltPlanRot: 0.000 deg
# 
# Detector Eiger 9M	 PixelSize= 7.500e-05, 7.500e-05 m
#    Detector has a mask: True 
#    Detector has a dark current: False 
#    detector has a flat field: False 
# 
# Wavelength: 9.8e-11 m
# Mask applied: from detector
# Dark current applied: False
# Flat field applied: False
# Polarization factor: None
# Normalization factor: 1.0
# 
# Headers of the input frame:
# {
# "_array_data.header_convention": "SLS_1.0",
# "_array_data.header_contents": "# Detector: Dectris Eiger 9M, S/N E-18-0102\r\n# Pixel_size 75e-6 m x 75e-6 m\r\n# Silicon sensor, thickness 0.000450 m\r\n# Exposure_time 0.024997 s\r\n# Exposure_period 0.025000 s\r\n# Count_cutoff 62318 counts\r\n# Wavelength 0.980106 A\r\n# Detector_distance 0.215992 m\r\n# Beam_xy (1555, 1744) pixels\r\n# Start_angle 0.000000 deg.\r\n# Angle_increment 0.000000 deg.",
# "Content-Type": "application/octet-stream;",
# "conversions": "x-CBF_BYTE_OFFSET",
# "Content-Transfer-Encoding": "BINARY",
# "X-Binary-Size": "10166592",
# "X-Binary-ID": "1",
# "X-Binary-Element-Type": "signed 32-bit integer",
# "X-Binary-Element-Byte-Order": "LITTLE_ENDIAN",
# "Content-MD5": "WUjMgQFnLmz/52lqYdkRJg==",
# "X-Binary-Number-of-Elements": "10166590",
# "X-Binary-Size-Fastest-Dimension": "3110",
# "X-Binary-Size-Second-Dimension": "3269",
# "X-Binary-Size-Padding": "4095"
# }
# --> H:/Proxima2a_2019-04-05/RAW_DATA/C5_gel17_position5/C5_mesh_1_data.cbf/C5_mesh_1_data.cbf000038.dat
#        q_A^-1              I           sigma 
  1.105228e-03    1.701850e+00   7.059072e-01
  3.315685e-03    1.126112e+00   3.490891e-01
  5.526141e-03    1.323703e+00   2.926627e-01
  7.736597e-03    1.481860e+00   2.615916e-01
  9.947054e-03    1.259611e+00   2.126154e-01
  1.215751e-02    1.370183e+00   2.005201e-01
  1.436797e-02    1.732121e+00   2.073791e-01
  1.657842e-02    1.414509e+00   1.744405e-01
  1.878888e-02    1.430290e+00   1.647690e-01
  2.099934e-02    1.610468e+00   1.654162e-01
  2.320979e-02    1.499457e+00   1.518098e-01
  2.542025e-02    1.403451e+00   1.403486e-01
  2.763070e-02    1.370734e+00   1.330353e-01
  2.984116e-02    1.572890e+00   1.371279e-01
  3.205162e-02    1.425196e+00   1.259574e-01
  3.426207e-02    1.309903e+00   1.167870e-01
  3.647253e-02    1.518104e+00   1.218542e-01
  3.868299e-02    1.552390e+00   1.196592e-01
  4.089344e-02    1.427454e+00   1.115994e-01
  4.310390e-02    1.414469e+00   1.081984e-01
  4.531436e-02    1.407392e+00   1.052624e-01
  4.752481e-02    1.650963e+00   1.113237e-01
  4.973527e-02    1.687487e+00   1.100201e-01
  5.194572e-02    1.617506e+00   1.053964e-01
  5.415618e-02    1.561119e+00   1.014044e-01
  5.636664e-02    1.616302e+00   1.011408e-01
  5.857709e-02    1.484287e+00   9.507657e-02
  6.078755e-02    1.525207e+00   9.460667e-02
  6.299801e-02    1.424963e+00   8.982520e-02
  6.520846e-02    1.463301e+00   8.947001e-02
  6.741892e-02    1.566605e+00   9.103944e-02
  6.962938e-02    1.585252e+00   9.011883e-02
  7.183983e-02    1.435614e+00   8.442885e-02
  7.405029e-02    1.455044e+00   8.371808e-02
  7.626074e-02    1.504764e+00   8.389278e-02
  7.847120e-02    1.398525e+00   7.972769e-02
  8.068166e-02    1.467100e+00   8.053192e-02
  8.289211e-02    1.477419e+00   7.972942e-02
  8.510257e-02    1.486907e+00   7.893892e-02
  8.731303e-02    1.502358e+00   7.833420e-02
  8.952348e-02    1.424129e+00   7.532208e-02
  9.173394e-02    1.390090e+00   7.351151e-02
  9.394439e-02    1.558927e+00   7.692405e-02
  9.615485e-02    1.639035e+00   7.796214e-02
  9.836531e-02    1.530809e+00   7.449086e-02
  1.005758e-01    1.558388e+00   7.432880e-02
  1.027862e-01    1.496623e+00   7.205168e-02
  1.049967e-01    1.551001e+00   7.257149e-02
  1.072071e-01    1.566810e+00   7.218367e-02
  1.094176e-01    1.570747e+00   7.153944e-02
  1.116280e-01    1.586208e+00   7.117374e-02
  1.138385e-01    1.521136e+00   6.901719e-02
  1.160490e-01    1.516923e+00   6.826118e-02
  1.182594e-01    1.580424e+00   6.901954e-02
  1.204699e-01    1.605199e+00   6.891681e-02
  1.226803e-01    1.553272e+00   6.717663e-02
  1.248908e-01    1.578828e+00   6.712417e-02
  1.271012e-01    1.619140e+00   6.738069e-02
  1.293117e-01    1.606438e+00   6.653892e-02
  1.315222e-01    1.582297e+00   6.547829e-02
  1.337326e-01    1.653455e+00   6.637763e-02
  1.359431e-01    1.595737e+00   6.524701e-02
  1.381535e-01    1.511771e+00   6.435963e-02
  1.403640e-01    1.605186e+00   6.660461e-02
  1.425744e-01    1.630907e+00   6.724339e-02
  1.447849e-01    1.628255e+00   6.720415e-02
  1.469953e-01    1.665437e+00   6.792457e-02
  1.492058e-01    1.638772e+00   6.730033e-02
  1.514163e-01    1.562878e+00   6.561434e-02
  1.536267e-01    1.541569e+00   6.503824e-02
  1.558372e-01    1.631744e+00   6.676572e-02
  1.580476e-01    1.611635e+00   6.619204e-02
  1.602581e-01    1.685098e+00   6.751192e-02
  1.624685e-01    1.774710e+00   6.909408e-02
  1.646790e-01    1.829997e+00   6.996063e-02
  1.668895e-01    1.789380e+00   6.898008e-02
  1.690999e-01    1.698784e+00   6.700936e-02
  1.713104e-01    1.738829e+00   6.758414e-02
  1.735208e-01    1.731933e+00   6.724024e-02
  1.757313e-01    1.816183e+00   6.864049e-02
  1.779417e-01    1.855445e+00   6.915218e-02
  1.801522e-01    1.846061e+00   6.875741e-02
  1.823626e-01    1.793458e+00   6.754512e-02
  1.845731e-01    1.865278e+00   6.866112e-02
  1.867836e-01    1.936149e+00   6.971727e-02
  1.889940e-01    1.989058e+00   7.043254e-02
  1.912045e-01    2.005165e+00   7.048098e-02
  1.934149e-01    2.076756e+00   7.148807e-02
  1.956254e-01    2.064027e+00   7.103361e-02
  1.978358e-01    2.023887e+00   7.009845e-02
  2.000463e-01    2.011852e+00   6.965813e-02
  2.022568e-01    1.928029e+00   6.796774e-02
  2.044672e-01    1.932884e+00   6.782009e-02
  2.066777e-01    2.079317e+00   7.010873e-02
  2.088881e-01    2.005370e+00   6.862555e-02
  2.110986e-01    1.957312e+00   6.756576e-02
  2.133090e-01    1.958061e+00   6.735900e-02
  2.155195e-01    1.989564e+00   6.767347e-02
  2.177300e-01    1.972055e+00   6.684573e-02
  2.199404e-01    2.069534e+00   6.667352e-02
  2.221509e-01    2.039999e+00   6.510910e-02
  2.243613e-01    2.081966e+00   6.494152e-02
  2.265718e-01    2.110507e+00   6.466450e-02
  2.287822e-01    2.126313e+00   6.426372e-02
  2.309927e-01    2.147396e+00   6.399322e-02
  2.332031e-01    2.166748e+00   6.373075e-02
  2.354136e-01    2.127667e+00   6.264155e-02
  2.376241e-01    2.155465e+00   6.256002e-02
  2.398345e-01    2.171356e+00   6.232554e-02
  2.420450e-01    2.173185e+00   6.190615e-02
  2.442554e-01    2.231035e+00   6.229261e-02
  2.464659e-01    2.184986e+00   6.123248e-02
  2.486763e-01    2.233135e+00   6.149657e-02
  2.508868e-01    2.252476e+00   6.137271e-02
  2.530973e-01    2.159049e+00   5.971393e-02
  2.553077e-01    2.118147e+00   5.878681e-02
  2.575182e-01    2.205504e+00   5.963190e-02
  2.597286e-01    2.127383e+00   5.822584e-02
  2.619391e-01    2.115878e+00   5.773386e-02
  2.641495e-01    2.120103e+00   5.747161e-02
  2.663600e-01    2.105104e+00   5.695303e-02
  2.685704e-01    2.171283e+00   5.752778e-02
  2.707809e-01    2.086620e+00   5.609574e-02
  2.729914e-01    2.038160e+00   5.515159e-02
  2.752018e-01    2.030677e+00   5.476371e-02
  2.774123e-01    2.068832e+00   5.499347e-02
  2.796227e-01    2.103613e+00   5.517951e-02
  2.818332e-01    1.993359e+00   5.344608e-02
  2.840436e-01    1.980759e+00   5.301861e-02
  2.862541e-01    2.009376e+00   5.314356e-02
  2.884646e-01    1.990706e+00   5.264504e-02
  2.906750e-01    1.963056e+00   5.203028e-02
  2.928855e-01    2.029370e+00   5.265667e-02
  2.950959e-01    2.014498e+00   5.222240e-02
  2.973064e-01    1.961661e+00   5.130138e-02
  2.995168e-01    1.927239e+00   5.061899e-02
  3.017273e-01    1.941461e+00   5.058140e-02
  3.039377e-01    1.980516e+00   5.086394e-02
  3.061482e-01    1.928643e+00   4.997628e-02
  3.083587e-01    1.936251e+00   4.985800e-02
  3.105691e-01    1.914554e+00   4.936610e-02
  3.127796e-01    1.956013e+00   4.968796e-02
  3.149900e-01    1.925134e+00   4.908884e-02
  3.172005e-01    1.948753e+00   4.918706e-02
  3.194109e-01    1.953655e+00   4.904561e-02
  3.216214e-01    1.933387e+00   4.859142e-02
  3.238319e-01    1.922027e+00   4.825654e-02
  3.260423e-01    1.870940e+00   4.742123e-02
  3.282528e-01    1.889309e+00   4.746377e-02
  3.304632e-01    1.935516e+00   4.785454e-02
  3.326737e-01    1.972685e+00   4.812337e-02
  3.348841e-01    1.865647e+00   4.661810e-02
  3.370946e-01    1.924862e+00   4.717395e-02
  3.393050e-01    1.887408e+00   4.653583e-02
  3.415155e-01    1.851458e+00   4.591719e-02
  3.437260e-01    1.841963e+00   4.562954e-02
  3.459364e-01    1.886620e+00   4.600854e-02
  3.481469e-01    1.898289e+00   4.598215e-02
  3.503573e-01    1.865203e+00   4.541362e-02
  3.525678e-01    1.879055e+00   4.541950e-02
  3.547782e-01    1.840162e+00   4.478454e-02
  3.569887e-01    1.792074e+00   4.403892e-02
  3.591992e-01    1.821215e+00   4.423842e-02
  3.614096e-01    1.864217e+00   4.460248e-02
  3.636201e-01    1.884389e+00   4.468555e-02
  3.658305e-01    1.863059e+00   4.428037e-02
  3.680410e-01    1.827061e+00   4.369967e-02
  3.702514e-01    1.801635e+00   4.324859e-02
  3.724619e-01    1.833517e+00   4.348101e-02
  3.746724e-01    1.793992e+00   4.286629e-02
  3.768828e-01    1.858404e+00   4.348224e-02
  3.790933e-01    1.799006e+00   4.264232e-02
  3.813037e-01    1.803512e+00   4.255597e-02
  3.835142e-01    1.782843e+00   4.217248e-02
  3.857246e-01    1.761319e+00   4.178145e-02
  3.879351e-01    1.856535e+00   4.275709e-02
  3.901455e-01    1.860069e+00   4.266154e-02
  3.923560e-01    1.837785e+00   4.227043e-02
  3.945665e-01    1.794072e+00   4.163226e-02
  3.967769e-01    1.785998e+00   4.140837e-02
  3.989874e-01    1.795731e+00   4.139141e-02
  4.011978e-01    1.794206e+00   4.124659e-02
  4.034083e-01    1.785276e+00   4.101751e-02
  4.056187e-01    1.791753e+00   4.096527e-02
  4.078292e-01    1.837083e+00   4.135467e-02
  4.100397e-01    1.888369e+00   4.179996e-02
  4.122501e-01    1.852881e+00   4.128145e-02
  4.144606e-01    1.852405e+00   4.115374e-02
  4.166710e-01    1.879143e+00   4.132643e-02
  4.188815e-01    1.861929e+00   4.101521e-02
  4.210919e-01    1.832017e+00   4.056519e-02
  4.233024e-01    1.855754e+00   4.070704e-02
  4.255128e-01    1.867364e+00   4.071615e-02
  4.277233e-01    1.843765e+00   4.034181e-02
  4.299338e-01    1.820150e+00   3.996731e-02
  4.321442e-01    1.801841e+00   3.965198e-02
  4.343547e-01    1.786834e+00   3.937487e-02
  4.365651e-01    1.762614e+00   3.899598e-02
  4.387756e-01    1.787419e+00   3.915944e-02
  4.409860e-01    1.829378e+00   3.950667e-02
  4.431965e-01    1.766675e+00   3.871635e-02
  4.454070e-01    1.777977e+00   3.873194e-02
  4.476174e-01    1.733961e+00   3.814447e-02
  4.498279e-01    1.758225e+00   3.830592e-02
  4.520383e-01    1.758673e+00   3.820568e-02
  4.542488e-01    1.747270e+00   3.797892e-02
  4.564592e-01    1.757722e+00   3.799015e-02
  4.586697e-01    1.745612e+00   3.775858e-02
  4.608801e-01    1.747056e+00   3.767300e-02
  4.630906e-01    1.726238e+00   3.734872e-02
  4.653011e-01    1.701262e+00   3.698006e-02
  4.675115e-01    1.684971e+00   3.670563e-02
  4.697220e-01    1.741857e+00   3.722238e-02
  4.719324e-01    1.742357e+00   3.713144e-02
  4.741429e-01    1.733723e+00   3.694388e-02
  4.763533e-01    1.742299e+00   3.694021e-02
  4.785638e-01    1.738987e+00   3.680972e-02
  4.807743e-01    1.731237e+00   3.663423e-02
  4.829847e-01    1.734027e+00   3.657110e-02
  4.851952e-01    1.667279e+00   3.576959e-02
  4.874056e-01    1.720361e+00   3.624291e-02
  4.896161e-01    1.694904e+00   3.588457e-02
  4.918265e-01    1.692934e+00   3.577463e-02
  4.940370e-01    1.726613e+00   3.603952e-02
  4.962475e-01    1.757203e+00   3.626759e-02
  4.984579e-01    1.726165e+00   3.585727e-02
  5.006684e-01    1.750626e+00   3.602239e-02
  5.028788e-01    1.705397e+00   3.546788e-02
  5.050893e-01    1.737625e+00   3.571434e-02
  5.072997e-01    1.726462e+00   3.551349e-02
  5.095102e-01    1.728408e+00   3.544836e-02
  5.117206e-01    1.717806e+00   3.525546e-02
  5.139311e-01    1.729737e+00   3.529396e-02
  5.161416e-01    1.731706e+00   3.523058e-02
  5.183520e-01    1.715208e+00   3.497905e-02
  5.205625e-01    1.714363e+00   3.488850e-02
  5.227729e-01    1.675942e+00   3.441488e-02
  5.249834e-01    1.730029e+00   3.488461e-02
  5.271938e-01    1.793096e+00   3.543192e-02
  5.294043e-01    1.772835e+00   3.514987e-02
  5.316148e-01    1.757742e+00   3.491975e-02
  5.338252e-01    1.821974e+00   3.547081e-02
  5.360357e-01    1.792948e+00   3.510703e-02
  5.382461e-01    1.774187e+00   3.484391e-02
  5.404566e-01    1.773569e+00   3.475857e-02
  5.426670e-01    1.775773e+00   3.470178e-02
  5.448775e-01    1.796899e+00   3.482961e-02
  5.470879e-01    1.810243e+00   3.488073e-02
  5.492984e-01    1.804360e+00   3.474659e-02
  5.515089e-01    1.793936e+00   3.456920e-02
  5.537193e-01    1.851313e+00   3.504033e-02
  5.559298e-01    1.799574e+00   3.447144e-02
  5.581402e-01    1.803931e+00   3.443773e-02
  5.603507e-01    1.798324e+00   3.430934e-02
  5.625611e-01    1.856459e+00   3.478384e-02
  5.647716e-01    1.858201e+00   3.472462e-02
  5.669821e-01    1.820677e+00   3.429810e-02
  5.691925e-01    1.832942e+00   3.433958e-02
  5.714030e-01    1.789652e+00   3.385929e-02
  5.736134e-01    1.720882e+00   3.313178e-02
  5.758239e-01    1.706336e+00   3.292100e-02
  5.780343e-01    1.741932e+00   3.319227e-02
  5.802448e-01    1.719761e+00   3.291132e-02
  5.824552e-01    1.686740e+00   3.252544e-02
  5.846657e-01    1.688527e+00   3.247482e-02
  5.868762e-01    1.644274e+00   3.197973e-02
  5.890866e-01    1.666922e+00   3.213241e-02
  5.912971e-01    1.669762e+00   3.209319e-02
  5.935075e-01    1.650576e+00   3.184232e-02
  5.957180e-01    1.693327e+00   3.218589e-02
  5.979284e-01    1.654647e+00   3.175122e-02
  6.001389e-01    1.706695e+00   3.218106e-02
  6.023494e-01    1.714216e+00   3.218641e-02
  6.045598e-01    1.695513e+00   3.194517e-02
  6.067703e-01    1.658489e+00   3.153094e-02
  6.089807e-01    1.646426e+00   3.135288e-02
  6.111912e-01    1.683972e+00   3.164504e-02
  6.134016e-01    1.703875e+00   3.176802e-02
  6.156121e-01    1.716559e+00   3.182265e-02
  6.178226e-01    1.732391e+00   3.190578e-02
  6.200330e-01    1.742561e+00   3.193618e-02
  6.222435e-01    1.724192e+00   3.170447e-02
  6.244539e-01    1.761307e+00   3.198114e-02
  6.266644e-01    1.778706e+00   3.207603e-02
  6.288748e-01    1.761909e+00   3.186209e-02
  6.310853e-01    1.799557e+00   3.213817e-02
  6.332957e-01    1.765751e+00   3.177343e-02
  6.355062e-01    1.700890e+00   3.112381e-02
  6.377167e-01    1.719771e+00   3.123602e-02
  6.399271e-01    1.723474e+00   3.120973e-02
  6.421376e-01    1.740912e+00   3.130733e-02
  6.443480e-01    1.728680e+00   3.113782e-02
  6.465585e-01    1.677323e+00   3.061369e-02
  6.487689e-01    1.738672e+00   3.110964e-02
  6.509794e-01    1.777341e+00   3.139440e-02
  6.531899e-01    1.692212e+00   3.057572e-02
  6.554003e-01    1.624616e+00   2.990249e-02
  6.576108e-01    1.620342e+00   2.980753e-02
  6.598212e-01    1.588777e+00   2.946091e-02
  6.620317e-01    1.625693e+00   2.974597e-02
  6.642421e-01    1.642795e+00   2.984671e-02
  6.664526e-01    1.659946e+00   2.994683e-02
  6.686630e-01    1.703042e+00   3.027701e-02
  6.708735e-01    1.637272e+00   2.963216e-02
  6.730840e-01    1.627823e+00   2.949265e-02
  6.752944e-01    1.640062e+00   2.954949e-02
  6.775049e-01    1.609130e+00   2.921637e-02
  6.797153e-01    1.613483e+00   2.920288e-02
  6.819258e-01    1.633967e+00   2.933464e-02
  6.841362e-01    1.660842e+00   2.952174e-02
  6.863467e-01    1.625343e+00   2.915223e-02
  6.885572e-01    1.658949e+00   2.939929e-02
  6.907676e-01    1.663161e+00   2.938384e-02
  6.929781e-01    1.616062e+00   2.891332e-02
  6.951885e-01    1.593620e+00   2.866099e-02
  6.973990e-01    1.637950e+00   2.900552e-02
  6.996094e-01    1.628746e+00   2.887302e-02
  7.018199e-01    1.631052e+00   2.884276e-02
  7.040303e-01    1.603192e+00   2.854513e-02
  7.062408e-01    1.592632e+00   2.840111e-02
  7.084513e-01    1.623491e+00   2.862508e-02
  7.106617e-01    1.622670e+00   2.856812e-02
  7.128722e-01    1.635400e+00   2.863032e-02
  7.150826e-01    1.655700e+00   2.875782e-02
  7.172931e-01    1.631830e+00   2.850056e-02
  7.195035e-01    1.610799e+00   2.826763e-02
  7.217140e-01    1.609562e+00   2.830677e-02
  7.239245e-01    1.600818e+00   2.845837e-02
  7.261349e-01    1.635175e+00   2.887283e-02
  7.283454e-01    1.577387e+00   2.843053e-02
  7.305558e-01    1.566931e+00   2.838998e-02
  7.327663e-01    1.575586e+00   2.851080e-02
  7.349767e-01    1.571982e+00   2.849453e-02
  7.371872e-01    1.599670e+00   2.873310e-02
  7.393976e-01    1.617240e+00   2.887601e-02
  7.416081e-01    1.621330e+00   2.889612e-02
  7.438186e-01    1.567918e+00   2.827214e-02
  7.460290e-01    1.579868e+00   2.808494e-02
  7.482395e-01    1.576018e+00   2.787948e-02
  7.504499e-01    1.567953e+00   2.767204e-02
  7.526604e-01    1.615630e+00   2.797155e-02
  7.548708e-01    1.629371e+00   2.799930e-02
  7.570813e-01    1.622358e+00   2.788724e-02
  7.592918e-01    1.594989e+00   2.761562e-02
  7.615022e-01    1.607169e+00   2.768669e-02
  7.637127e-01    1.602087e+00   2.760983e-02
  7.659231e-01    1.617771e+00   2.771221e-02
  7.681336e-01    1.593233e+00   2.746946e-02
  7.703440e-01    1.586691e+00   2.738166e-02
  7.725545e-01    1.589869e+00   2.737802e-02
  7.747650e-01    1.629430e+00   2.767771e-02
  7.769754e-01    1.617735e+00   2.752480e-02
  7.791859e-01    1.601097e+00   2.732897e-02
  7.813963e-01    1.615690e+00   2.740003e-02
  7.836068e-01    1.583841e+00   2.707664e-02
  7.858172e-01    1.610902e+00   2.725592e-02
  7.880277e-01    1.615238e+00   2.724065e-02
  7.902381e-01    1.625267e+00   2.727545e-02
  7.924486e-01    1.651754e+00   2.744588e-02
  7.946591e-01    1.615285e+00   2.709267e-02
  7.968695e-01    1.644084e+00   2.728421e-02
  7.990800e-01    1.649875e+00   2.728338e-02
  8.012904e-01    1.659610e+00   2.731642e-02
  8.035009e-01    1.695235e+00   2.755892e-02
  8.057113e-01    1.672752e+00   2.732825e-02
  8.079218e-01    1.592766e+00   2.662083e-02
  8.101323e-01    1.642516e+00   2.698747e-02
  8.123427e-01    1.668042e+00   2.715001e-02
  8.145532e-01    1.676472e+00   2.717196e-02
  8.167636e-01    1.689605e+00   2.723229e-02
  8.189741e-01    1.718585e+00   2.741908e-02
  8.211845e-01    1.662594e+00   2.692353e-02
  8.233950e-01    1.658914e+00   2.684998e-02
  8.256054e-01    1.675476e+00   2.693896e-02
  8.278159e-01    1.625797e+00   2.649277e-02
  8.300264e-01    1.658976e+00   2.671836e-02
  8.322368e-01    1.646736e+00   2.657640e-02
  8.344473e-01    1.682638e+00   2.682059e-02
  8.366577e-01    1.678294e+00   2.674287e-02
  8.388682e-01    1.675279e+00   2.667611e-02
  8.410786e-01    1.714414e+00   2.694289e-02
  8.432891e-01    1.690124e+00   2.670886e-02
  8.454996e-01    1.676547e+00   2.655926e-02
  8.477100e-01    1.649963e+00   2.630603e-02
  8.499205e-01    1.679399e+00   2.649796e-02
  8.521309e-01    1.681697e+00   2.647476e-02
  8.543414e-01    1.656861e+00   2.623752e-02
  8.565518e-01    1.681481e+00   2.639060e-02
  8.587623e-01    1.658234e+00   2.616673e-02
  8.609727e-01    1.645597e+00   2.602641e-02
  8.631832e-01    1.612342e+00   2.572238e-02
  8.653937e-01    1.628757e+00   2.581324e-02
  8.676041e-01    1.595013e+00   2.550592e-02
  8.698146e-01    1.618039e+00   2.565008e-02
  8.720250e-01    1.610563e+00   2.555178e-02
  8.742355e-01    1.601149e+00   2.543818e-02
  8.764459e-01    1.595408e+00   2.535382e-02
  8.786564e-01    1.604095e+00   2.538484e-02
  8.808669e-01    1.611655e+00   2.540600e-02
  8.830773e-01    1.619404e+00   2.542868e-02
  8.852878e-01    1.602455e+00   2.525735e-02
  8.874982e-01    1.600674e+00   2.520664e-02
  8.897087e-01    1.619241e+00   2.531455e-02
  8.919191e-01    1.609233e+00   2.519833e-02
  8.941296e-01    1.631632e+00   2.533543e-02
  8.963401e-01    1.646503e+00   2.541369e-02
  8.985505e-01    1.635868e+00   2.529410e-02
  9.007610e-01    1.596925e+00   2.495453e-02
  9.029714e-01    1.585539e+00   2.482970e-02
  9.051819e-01    1.611985e+00   2.499858e-02
  9.073923e-01    1.633107e+00   2.512485e-02
  9.096028e-01    1.621085e+00   2.499708e-02
  9.118132e-01    1.618230e+00   2.493861e-02
  9.140237e-01    1.645776e+00   2.511284e-02
  9.162342e-01    1.633651e+00   2.498525e-02
  9.184446e-01    1.614175e+00   2.479995e-02
  9.206551e-01    1.611978e+00   2.474733e-02
  9.228655e-01    1.643598e+00   2.495315e-02
  9.250760e-01    1.620566e+00   2.474216e-02
  9.272864e-01    1.611914e+00   2.464165e-02
  9.294969e-01    1.592631e+00   2.445811e-02
  9.317074e-01    1.632395e+00   2.472656e-02
  9.339178e-01    1.665698e+00   2.494341e-02
  9.361283e-01    1.646202e+00   2.476046e-02
  9.383387e-01    1.647398e+00   2.473575e-02
  9.405492e-01    1.688902e+00   2.501044e-02
  9.427596e-01    1.642006e+00   2.462526e-02
  9.449701e-01    1.686662e+00   2.492394e-02
  9.471805e-01    1.706974e+00   2.503806e-02
  9.493910e-01    1.723576e+00   2.512500e-02
  9.516015e-01    1.741358e+00   2.521901e-02
  9.538119e-01    1.723075e+00   2.505192e-02
  9.560224e-01    1.711725e+00   2.493410e-02
  9.582328e-01    1.735763e+00   2.507489e-02
  9.604433e-01    1.766600e+00   2.526082e-02
  9.626537e-01    1.794799e+00   2.542740e-02
  9.648642e-01    1.821735e+00   2.558241e-02
  9.670747e-01    1.818075e+00   2.552145e-02
  9.692851e-01    1.831656e+00   2.558255e-02
  9.714956e-01    1.876465e+00   2.585706e-02
  9.737060e-01    1.899273e+00   2.597956e-02
  9.759165e-01    1.894619e+00   2.591113e-02
  9.781269e-01    1.878069e+00   2.576397e-02
  9.803374e-01    1.861621e+00   2.561541e-02
  9.825478e-01    1.834313e+00   2.539332e-02
  9.847583e-01    1.807447e+00   2.517243e-02
  9.869688e-01    1.793185e+00   2.503937e-02
  9.891792e-01    1.782142e+00   2.492897e-02
  9.913897e-01    1.731792e+00   2.454114e-02
  9.936001e-01    1.760589e+00   2.471191e-02
  9.958106e-01    1.783009e+00   2.483499e-02
  9.980210e-01    1.714119e+00   2.431889e-02
  1.000231e+00    1.683190e+00   2.423049e-02
  1.002442e+00    1.684135e+00   2.436607e-02
  1.004652e+00    1.663171e+00   2.428150e-02
  1.006863e+00    1.634148e+00   2.411865e-02
  1.009073e+00    1.588758e+00   2.381773e-02
  1.011284e+00    1.586369e+00   2.383163e-02
  1.013494e+00    1.599591e+00   2.395447e-02
  1.015705e+00    1.579685e+00   2.382747e-02
  1.017915e+00    1.567783e+00   2.375387e-02
  1.020126e+00    1.566569e+00   2.376073e-02
  1.022336e+00    1.586205e+00   2.392095e-02
  1.024547e+00    1.581496e+00   2.389676e-02
  1.026757e+00    1.560314e+00   2.374459e-02
  1.028967e+00    1.531740e+00   2.353383e-02
  1.031178e+00    1.515508e+00   2.341491e-02
  1.033388e+00    1.541529e+00   2.362013e-02
  1.035599e+00    1.554405e+00   2.372203e-02
  1.037809e+00    1.609115e+00   2.413922e-02
  1.040020e+00    1.598710e+00   2.406239e-02
  1.042230e+00    1.559036e+00   2.376390e-02
  1.044441e+00    1.562059e+00   2.378669e-02
  1.046651e+00    1.542150e+00   2.363481e-02
  1.048862e+00    1.511878e+00   2.340088e-02
  1.051072e+00    1.530983e+00   2.354589e-02
  1.053282e+00    1.544884e+00   2.365158e-02
  1.055493e+00    1.563438e+00   2.378877e-02
  1.057703e+00    1.546524e+00   2.365824e-02
  1.059914e+00    1.497872e+00   2.327883e-02
  1.062124e+00    1.544860e+00   2.363699e-02
  1.064335e+00    1.531779e+00   2.353325e-02
  1.066545e+00    1.488833e+00   2.319500e-02
  1.068756e+00    1.472501e+00   2.306369e-02
  1.070966e+00    1.477211e+00   2.309399e-02
  1.073177e+00    1.474312e+00   2.306530e-02
  1.075387e+00    1.458792e+00   2.293833e-02
  1.077597e+00    1.446788e+00   2.283658e-02
  1.079808e+00    1.446131e+00   2.269946e-02
  1.082018e+00    1.438539e+00   2.245233e-02
  1.084229e+00    1.432273e+00   2.229437e-02
  1.086439e+00    1.443763e+00   2.229654e-02
  1.088650e+00    1.463300e+00   2.237097e-02
  1.090860e+00    1.451449e+00   2.221267e-02
  1.093071e+00    1.437640e+00   2.204483e-02
  1.095281e+00    1.430214e+00   2.193088e-02
  1.097492e+00    1.443205e+00   2.197540e-02
  1.099702e+00    1.425323e+00   2.178769e-02
  1.101912e+00    1.445453e+00   2.189206e-02
  1.104123e+00    1.452960e+00   2.190034e-02
  1.106333e+00    1.422759e+00   2.162727e-02
  1.108544e+00    1.454697e+00   2.182402e-02
  1.110754e+00    1.414796e+00   2.147981e-02
  1.112965e+00    1.404014e+00   2.135751e-02
  1.115175e+00    1.407061e+00   2.133967e-02
  1.117386e+00    1.414842e+00   2.135936e-02
  1.119596e+00    1.391530e+00   2.114505e-02
  1.121807e+00    1.420432e+00   2.132455e-02
  1.124017e+00    1.421978e+00   2.129931e-02
  1.126228e+00    1.385133e+00   2.098606e-02
  1.128438e+00    1.390548e+00   2.099040e-02
  1.130648e+00    1.383774e+00   2.090508e-02
  1.132859e+00    1.403693e+00   2.102056e-02
  1.135069e+00    1.408565e+00   2.102209e-02
  1.137280e+00    1.411945e+00   2.101403e-02
  1.139490e+00    1.401033e+00   2.089945e-02
  1.141701e+00    1.404730e+00   2.089365e-02
  1.143911e+00    1.406512e+00   2.087476e-02
  1.146122e+00    1.410124e+00   2.086920e-02
  1.148332e+00    1.384488e+00   2.064670e-02
  1.150543e+00    1.380952e+00   2.058943e-02
  1.152753e+00    1.403501e+00   2.072571e-02
  1.154963e+00    1.411881e+00   2.075602e-02
  1.157174e+00    1.389919e+00   2.056362e-02
  1.159384e+00    1.410758e+00   2.068691e-02
  1.161595e+00    1.459203e+00   2.100831e-02
  1.163805e+00    1.477503e+00   2.110923e-02
  1.166016e+00    1.478101e+00   2.108294e-02
  1.168226e+00    1.437774e+00   2.076364e-02
  1.170437e+00    1.436481e+00   2.072492e-02
  1.172647e+00    1.458411e+00   2.085267e-02
  1.174858e+00    1.399288e+00   2.039719e-02
  1.177068e+00    1.364694e+00   2.011518e-02
  1.179278e+00    1.398790e+00   2.033594e-02
  1.181489e+00    1.406472e+00   2.036425e-02
  1.183699e+00    1.377615e+00   2.012649e-02
  1.185910e+00    1.369642e+00   2.004028e-02
  1.188120e+00    1.353477e+00   1.989501e-02
  1.190331e+00    1.369811e+00   1.998777e-02
  1.192541e+00    1.375775e+00   2.000367e-02
  1.194752e+00    1.359068e+00   1.985472e-02
  1.196962e+00    1.370347e+00   1.991101e-02
  1.199173e+00    1.369922e+00   1.988124e-02
  1.201383e+00    1.356689e+00   1.975775e-02
  1.203593e+00    1.356220e+00   1.972945e-02
  1.205804e+00    1.368765e+00   1.979440e-02
  1.208014e+00    1.379992e+00   1.984826e-02
  1.210225e+00    1.369570e+00   1.974767e-02
  1.212435e+00    1.390062e+00   1.986968e-02
  1.214646e+00    1.409455e+00   1.998116e-02
  1.216856e+00    1.388727e+00   1.980784e-02
  1.219067e+00    1.378191e+00   1.970785e-02
  1.221277e+00    1.364357e+00   1.958352e-02
  1.223488e+00    1.354920e+00   1.948988e-02
  1.225698e+00    1.369159e+00   1.956493e-02
  1.227909e+00    1.351548e+00   1.940851e-02
  1.230119e+00    1.355922e+00   1.940797e-02
  1.232329e+00    1.370050e+00   1.947785e-02
  1.234540e+00    1.379111e+00   1.951157e-02
  1.236750e+00    1.335737e+00   1.917216e-02
  1.238961e+00    1.388260e+00   1.951813e-02
  1.241171e+00    1.392353e+00   1.952232e-02
  1.243382e+00    1.386081e+00   1.945447e-02
  1.245592e+00    1.403542e+00   1.955207e-02
  1.247803e+00    1.403488e+00   1.952755e-02
  1.250013e+00    1.479329e+00   2.002354e-02
  1.252224e+00    1.579855e+00   2.066760e-02
  1.254434e+00    1.541829e+00   2.039199e-02
  1.256644e+00    1.519187e+00   2.021710e-02
  1.258855e+00    1.435935e+00   1.963134e-02
  1.261065e+00    1.400689e+00   1.936509e-02
  1.263276e+00    1.419267e+00   1.946956e-02
  1.265486e+00    1.414171e+00   1.941117e-02
  1.267697e+00    1.411618e+00   1.937011e-02
  1.269907e+00    1.399258e+00   1.926201e-02
  1.272118e+00    1.392276e+00   1.919097e-02
  1.274328e+00    1.377359e+00   1.906492e-02
  1.276539e+00    1.393502e+00   1.915316e-02
  1.278749e+00    1.369915e+00   1.896794e-02
  1.280959e+00    1.367075e+00   1.892558e-02
  1.283170e+00    1.370388e+00   1.892589e-02
  1.285380e+00    1.379263e+00   1.896439e-02
  1.287591e+00    1.373759e+00   1.890430e-02
  1.289801e+00    1.357943e+00   1.877386e-02
  1.292012e+00    1.345847e+00   1.867301e-02
  1.294222e+00    1.340059e+00   1.861662e-02
  1.296433e+00    1.347330e+00   1.865147e-02
  1.298643e+00    1.373258e+00   1.881347e-02
  1.300854e+00    1.374225e+00   1.880352e-02
  1.303064e+00    1.377927e+00   1.880943e-02
  1.305274e+00    1.338620e+00   1.851786e-02
  1.307485e+00    1.359541e+00   1.864037e-02
  1.309695e+00    1.374530e+00   1.872041e-02
  1.311906e+00    1.360023e+00   1.859956e-02
  1.314116e+00    1.386942e+00   1.876167e-02
  1.316327e+00    1.397579e+00   1.881140e-02
  1.318537e+00    1.364001e+00   1.856207e-02
  1.320748e+00    1.337586e+00   1.835998e-02
  1.322958e+00    1.363780e+00   1.851825e-02
  1.325169e+00    1.373399e+00   1.856225e-02
  1.327379e+00    1.370238e+00   1.851890e-02
  1.329589e+00    1.369258e+00   1.849107e-02
  1.331800e+00    1.376634e+00   1.851990e-02
  1.334010e+00    1.387614e+00   1.857267e-02
  1.336221e+00    1.382792e+00   1.851837e-02
  1.338431e+00    1.366514e+00   1.838805e-02
  1.340642e+00    1.345852e+00   1.831257e-02
  1.342852e+00    1.367774e+00   1.856243e-02
  1.345063e+00    1.366733e+00   1.860518e-02
  1.347273e+00    1.361014e+00   1.860158e-02
  1.349484e+00    1.371834e+00   1.870329e-02
  1.351694e+00    1.377229e+00   1.876294e-02
  1.353905e+00    1.377213e+00   1.878104e-02
  1.356115e+00    1.342117e+00   1.855519e-02
  1.358325e+00    1.340357e+00   1.855628e-02
  1.360536e+00    1.346521e+00   1.861051e-02
  1.362746e+00    1.369000e+00   1.877483e-02
  1.364957e+00    1.345138e+00   1.861817e-02
  1.367167e+00    1.326897e+00   1.849857e-02
  1.369378e+00    1.322108e+00   1.847114e-02
  1.371588e+00    1.329199e+00   1.852570e-02
  1.373799e+00    1.345925e+00   1.864558e-02
  1.376009e+00    1.339699e+00   1.860580e-02
  1.378220e+00    1.327814e+00   1.852561e-02
  1.380430e+00    1.311235e+00   1.841228e-02
  1.382640e+00    1.305312e+00   1.837154e-02
  1.384851e+00    1.317030e+00   1.845470e-02
  1.387061e+00    1.314514e+00   1.843736e-02
  1.389272e+00    1.290390e+00   1.826761e-02
  1.391482e+00    1.301185e+00   1.834317e-02
  1.393693e+00    1.312832e+00   1.842419e-02
  1.395903e+00    1.321612e+00   1.848420e-02
  1.398114e+00    1.308023e+00   1.838753e-02
  1.400324e+00    1.313421e+00   1.842327e-02
  1.402535e+00    1.294461e+00   1.828749e-02
  1.404745e+00    1.297789e+00   1.830859e-02
  1.406955e+00    1.292778e+00   1.827049e-02
  1.409166e+00    1.291373e+00   1.825723e-02
  1.411376e+00    1.286718e+00   1.822116e-02
  1.413587e+00    1.285362e+00   1.820772e-02
  1.415797e+00    1.287635e+00   1.822026e-02
  1.418008e+00    1.276826e+00   1.810164e-02
  1.420218e+00    1.285434e+00   1.801190e-02
  1.422429e+00    1.281967e+00   1.790189e-02
  1.424639e+00    1.285312e+00   1.786015e-02
  1.426850e+00    1.284441e+00   1.779908e-02
  1.429060e+00    1.280788e+00   1.772458e-02
  1.431270e+00    1.265961e+00   1.757743e-02
  1.433481e+00    1.288910e+00   1.769478e-02
  1.435691e+00    1.258211e+00   1.744454e-02
  1.437902e+00    1.273304e+00   1.751234e-02
  1.440112e+00    1.267952e+00   1.744017e-02
  1.442323e+00    1.284141e+00   1.751794e-02
  1.444533e+00    1.261856e+00   1.733281e-02
  1.446744e+00    1.281715e+00   1.743741e-02
  1.448954e+00    1.275412e+00   1.736422e-02
  1.451165e+00    1.276041e+00   1.733868e-02
  1.453375e+00    1.272241e+00   1.728477e-02
  1.455586e+00    1.278862e+00   1.730143e-02
  1.457796e+00    1.262756e+00   1.716470e-02
  1.460006e+00    1.274578e+00   1.721757e-02
  1.462217e+00    1.271403e+00   1.716986e-02
  1.464427e+00    1.269539e+00   1.713168e-02
  1.466638e+00    1.253386e+00   1.699718e-02
  1.468848e+00    1.259497e+00   1.701330e-02
  1.471059e+00    1.278379e+00   1.711519e-02
  1.473269e+00    1.289084e+00   1.716214e-02
  1.475480e+00    1.273952e+00   1.703729e-02
  1.477690e+00    1.279466e+00   1.705018e-02
  1.479901e+00    1.270843e+00   1.696878e-02
  1.482111e+00    1.255121e+00   1.684026e-02
  1.484321e+00    1.252904e+00   1.680240e-02
  1.486532e+00    1.232672e+00   1.664415e-02
  1.488742e+00    1.267464e+00   1.685472e-02
  1.490953e+00    1.258167e+00   1.677026e-02
  1.493163e+00    1.264881e+00   1.679263e-02
  1.495374e+00    1.271391e+00   1.681426e-02
  1.497584e+00    1.255982e+00   1.669042e-02
  1.499795e+00    1.285303e+00   1.686227e-02
  1.502005e+00    1.270781e+00   1.674497e-02
  1.504216e+00    1.256954e+00   1.663260e-02
  1.506426e+00    1.251714e+00   1.657713e-02
  1.508636e+00    1.278918e+00   1.673569e-02
  1.510847e+00    1.258132e+00   1.657729e-02
  1.513057e+00    1.254087e+00   1.652556e-02
  1.515268e+00    1.241670e+00   1.641796e-02
  1.517478e+00    1.256778e+00   1.649235e-02
  1.519689e+00    1.288020e+00   1.667079e-02
  1.521899e+00    1.279933e+00   1.659502e-02
  1.524110e+00    1.256120e+00   1.641958e-02
  1.526320e+00    1.267834e+00   1.647623e-02
  1.528531e+00    1.270799e+00   1.647558e-02
  1.530741e+00    1.288601e+00   1.657114e-02
  1.532951e+00    1.276830e+00   1.647548e-02
  1.535162e+00    1.260627e+00   1.645760e-02
  1.537372e+00    1.247100e+00   1.643590e-02
  1.539583e+00    1.264432e+00   1.658417e-02
  1.541793e+00    1.250597e+00   1.650017e-02
  1.544004e+00    1.256712e+00   1.654069e-02
  1.546214e+00    1.252915e+00   1.651420e-02
  1.548425e+00    1.261954e+00   1.657391e-02
  1.550635e+00    1.271277e+00   1.664481e-02
  1.552846e+00    1.261378e+00   1.658960e-02
  1.555056e+00    1.248850e+00   1.646546e-02
  1.557266e+00    1.271025e+00   1.649936e-02
  1.559477e+00    1.269813e+00   1.643179e-02
  1.561687e+00    1.266420e+00   1.637888e-02
  1.563898e+00    1.272616e+00   1.640155e-02
  1.566108e+00    1.260085e+00   1.630454e-02
  1.568319e+00    1.247408e+00   1.620668e-02
  1.570529e+00    1.272371e+00   1.634261e-02
  1.572740e+00    1.275685e+00   1.633594e-02
  1.574950e+00    1.250207e+00   1.614560e-02
  1.577161e+00    1.274478e+00   1.627578e-02
  1.579371e+00    1.276923e+00   1.626743e-02
  1.581582e+00    1.267399e+00   1.618669e-02
  1.583792e+00    1.263466e+00   1.614340e-02
  1.586002e+00    1.264820e+00   1.613430e-02
  1.588213e+00    1.230142e+00   1.589443e-02
  1.590423e+00    1.271664e+00   1.614014e-02
  1.592634e+00    1.234978e+00   1.588413e-02
  1.594844e+00    1.226401e+00   1.580758e-02
  1.597055e+00    1.229132e+00   1.580480e-02
  1.599265e+00    1.240576e+00   1.585749e-02
  1.601476e+00    1.254210e+00   1.592396e-02
  1.603686e+00    1.267016e+00   1.598509e-02
  1.605897e+00    1.254658e+00   1.588664e-02
  1.608107e+00    1.266272e+00   1.594022e-02
  1.610317e+00    1.288646e+00   1.606072e-02
  1.612528e+00    1.304803e+00   1.614137e-02
  1.614738e+00    1.390214e+00   1.664115e-02
  1.616949e+00    1.410241e+00   1.674028e-02
  1.619159e+00    1.355324e+00   1.639139e-02
  1.621370e+00    1.310741e+00   1.610040e-02
  1.623580e+00    1.258183e+00   1.575566e-02
  1.625791e+00    1.194960e+00   1.533652e-02
  1.628001e+00    1.206773e+00   1.539383e-02
  1.630212e+00    1.212675e+00   1.541354e-02
  1.632422e+00    1.201350e+00   1.532340e-02
  1.634632e+00    1.171337e+00   1.511355e-02
  1.636843e+00    1.131242e+00   1.483544e-02
  1.639053e+00    1.149940e+00   1.494039e-02
  1.641264e+00    1.187485e+00   1.516512e-02
  1.643474e+00    1.182605e+00   1.511640e-02
  1.645685e+00    1.157304e+00   1.493716e-02
  1.647895e+00    1.153989e+00   1.489916e-02
  1.650106e+00    1.145090e+00   1.482466e-02
  1.652316e+00    1.121054e+00   1.465195e-02
  1.654527e+00    1.132799e+00   1.471190e-02
  1.656737e+00    1.120677e+00   1.461654e-02
  1.658947e+00    1.125375e+00   1.463089e-02
  1.661158e+00    1.129304e+00   1.464015e-02
  1.663368e+00    1.101983e+00   1.444610e-02
  1.665579e+00    1.117689e+00   1.453252e-02
  1.667789e+00    1.131424e+00   1.460520e-02
  1.670000e+00    1.130001e+00   1.458042e-02
  1.672210e+00    1.110142e+00   1.443585e-02
  1.674421e+00    1.123098e+00   1.450437e-02
  1.676631e+00    1.144354e+00   1.462481e-02
  1.678842e+00    1.157958e+00   1.469530e-02
  1.681052e+00    1.145128e+00   1.459793e-02
  1.683263e+00    1.099604e+00   1.428960e-02
  1.685473e+00    1.112374e+00   1.435699e-02
  1.687683e+00    1.100281e+00   1.426321e-02
  1.689894e+00    1.073013e+00   1.406964e-02
  1.692104e+00    1.135198e+00   1.445626e-02
  1.694315e+00    1.115624e+00   1.431631e-02
  1.696525e+00    1.083875e+00   1.409587e-02
  1.698736e+00    1.066834e+00   1.396979e-02
  1.700946e+00    1.075353e+00   1.401021e-02
  1.703157e+00    1.059585e+00   1.389246e-02
  1.705367e+00    1.035181e+00   1.371716e-02
  1.707578e+00    1.045949e+00   1.377377e-02
  1.709788e+00    1.039371e+00   1.371633e-02
  1.711998e+00    1.019046e+00   1.356670e-02
  1.714209e+00    1.026471e+00   1.360170e-02
  1.716419e+00    1.052185e+00   1.375660e-02
  1.718630e+00    1.037576e+00   1.364648e-02
  1.720840e+00    1.010623e+00   1.345400e-02
  1.723051e+00    1.010441e+00   1.343901e-02
  1.725261e+00    1.016431e+00   1.346415e-02
  1.727472e+00    1.006872e+00   1.338658e-02
  1.729682e+00    9.990377e-01   1.332107e-02
  1.731893e+00    1.000570e+00   1.331744e-02
  1.734103e+00    9.992883e-01   1.329518e-02
  1.736313e+00    9.826445e-01   1.317016e-02
  1.738524e+00    9.698001e-01   1.307018e-02
  1.740734e+00    1.000355e+00   1.326076e-02
  1.742945e+00    9.896667e-01   1.317636e-02
  1.745155e+00    9.731303e-01   1.305248e-02
  1.747366e+00    9.824201e-01   1.310086e-02
  1.749576e+00    9.739947e-01   1.303097e-02
  1.751787e+00    9.598407e-01   1.292277e-02
  1.753997e+00    9.565517e-01   1.288738e-02
  1.756208e+00    9.720067e-01   1.297789e-02
  1.758418e+00    9.649990e-01   1.291795e-02
  1.760628e+00    9.799674e-01   1.300433e-02
  1.762839e+00    9.641747e-01   1.288592e-02
  1.765049e+00    9.506202e-01   1.278197e-02
  1.767260e+00    9.672233e-01   1.288025e-02
  1.769470e+00    9.500915e-01   1.275273e-02
  1.771681e+00    9.607522e-01   1.281086e-02
  1.773891e+00    9.491245e-01   1.272007e-02
  1.776102e+00    9.415637e-01   1.265648e-02
  1.778312e+00    9.231871e-01   1.251977e-02
  1.780523e+00    9.138730e-01   1.244392e-02
  1.782733e+00    9.063950e-01   1.238042e-02
  1.784944e+00    9.371896e-01   1.257608e-02
  1.787154e+00    9.090974e-01   1.237379e-02
  1.789364e+00    9.121096e-01   1.238193e-02
  1.791575e+00    9.029291e-01   1.230707e-02
  1.793785e+00    9.091507e-01   1.233709e-02
  1.795996e+00    9.428184e-01   1.255077e-02
  1.798206e+00    9.188012e-01   1.237740e-02
  1.800417e+00    8.953656e-01   1.220595e-02
  1.802627e+00    9.229183e-01   1.238037e-02
  1.804838e+00    9.088461e-01   1.227352e-02
  1.807048e+00    9.183316e-01   1.232450e-02
  1.809259e+00    9.332126e-01   1.241015e-02
  1.811469e+00    9.319839e-01   1.238682e-02
  1.813679e+00    8.832285e-01   1.204364e-02
  1.815890e+00    8.838131e-01   1.203298e-02
  1.818100e+00    8.871211e-01   1.204046e-02
  1.820311e+00    9.061146e-01   1.215379e-02
  1.822521e+00    9.105051e-01   1.216819e-02
  1.824732e+00    9.218326e-01   1.222857e-02
  1.826942e+00    9.416300e-01   1.234646e-02
  1.829153e+00    9.532852e-01   1.241052e-02
  1.831363e+00    9.501132e-01   1.237740e-02
  1.833574e+00    9.000058e-01   1.203480e-02
  1.835784e+00    8.654404e-01   1.179009e-02
  1.837994e+00    8.776904e-01   1.186150e-02
  1.840205e+00    8.689169e-01   1.179095e-02
  1.842415e+00    8.817494e-01   1.186585e-02
  1.844626e+00    8.804771e-01   1.184568e-02
  1.846836e+00    8.654626e-01   1.173283e-02
  1.849047e+00    8.724689e-01   1.176857e-02
  1.851257e+00    8.604543e-01   1.167772e-02
  1.853468e+00    8.515918e-01   1.160866e-02
  1.855678e+00    8.709154e-01   1.173069e-02
  1.857889e+00    8.788965e-01   1.177572e-02
  1.860099e+00    8.690499e-01   1.170090e-02
  1.862309e+00    8.548601e-01   1.159646e-02
  1.864520e+00    8.600480e-01   1.162301e-02
  1.866730e+00    8.637444e-01   1.163852e-02
  1.868941e+00    8.665636e-01   1.164646e-02
  1.871151e+00    8.727317e-01   1.167632e-02
  1.873362e+00    8.509984e-01   1.151866e-02
  1.875572e+00    8.531912e-01   1.152254e-02
  1.877783e+00    8.344468e-01   1.138392e-02
  1.879993e+00    8.311155e-01   1.135012e-02
  1.882204e+00    8.323790e-01   1.134792e-02
  1.884414e+00    8.524959e-01   1.147310e-02
  1.886624e+00    8.405172e-01   1.138118e-02
  1.888835e+00    8.466675e-01   1.141171e-02
  1.891045e+00    8.397936e-01   1.135444e-02
  1.893256e+00    8.221840e-01   1.122375e-02
  1.895466e+00    8.623664e-01   1.148341e-02
  1.897677e+00    8.377374e-01   1.130735e-02
  1.899887e+00    8.176533e-01   1.116007e-02
  1.902098e+00    8.407975e-01   1.130603e-02
  1.904308e+00    8.294089e-01   1.121862e-02
  1.906519e+00    8.326095e-01   1.122938e-02
  1.908729e+00    8.579238e-01   1.138803e-02
  1.910940e+00    8.341349e-01   1.121786e-02
  1.913150e+00    8.183672e-01   1.110080e-02
  1.915360e+00    8.307313e-01   1.117366e-02
  1.917571e+00    8.198887e-01   1.108966e-02
  1.919781e+00    8.234282e-01   1.110288e-02
  1.921992e+00    8.251137e-01   1.110357e-02
  1.924202e+00    8.025278e-01   1.093990e-02
  1.926413e+00    8.086558e-01   1.097131e-02
  1.928623e+00    8.095474e-01   1.096686e-02
  1.930834e+00    8.135196e-01   1.098330e-02
  1.933044e+00    8.052606e-01   1.091678e-02
  1.935255e+00    8.125290e-01   1.095560e-02
  1.937465e+00    8.157737e-01   1.096699e-02
  1.939675e+00    8.268395e-01   1.103015e-02
  1.941886e+00    7.942424e-01   1.080034e-02
  1.944096e+00    8.006170e-01   1.083341e-02
  1.946307e+00    8.088478e-01   1.087857e-02
  1.948517e+00    8.199266e-01   1.094225e-02
  1.950728e+00    8.220392e-01   1.094595e-02
  1.952938e+00    8.041164e-01   1.081584e-02
  1.955149e+00    7.901753e-01   1.071147e-02
  1.957359e+00    8.020219e-01   1.078138e-02
  1.959570e+00    7.895619e-01   1.068648e-02
  1.961780e+00    7.943469e-01   1.070888e-02
  1.963990e+00    8.024711e-01   1.075332e-02
  1.966201e+00    7.905502e-01   1.066311e-02
  1.968411e+00    7.905751e-01   1.065310e-02
  1.970622e+00    7.819129e-01   1.058452e-02
  1.972832e+00    7.994959e-01   1.069282e-02
  1.975043e+00    7.911181e-01   1.062658e-02
  1.977253e+00    7.857944e-01   1.058081e-02
  1.979464e+00    7.929285e-01   1.061862e-02
  1.981674e+00    8.091099e-01   1.071601e-02
  1.983885e+00    8.050263e-01   1.067876e-02
  1.986095e+00    7.890187e-01   1.056231e-02
  1.988305e+00    8.003500e-01   1.062783e-02
  1.990516e+00    8.333668e-01   1.083458e-02
  1.992726e+00    8.336771e-01   1.082658e-02
  1.994937e+00    8.221436e-01   1.074103e-02
  1.997147e+00    8.131958e-01   1.067245e-02
  1.999358e+00    8.059002e-01   1.061441e-02
  2.001568e+00    8.438711e-01   1.085028e-02
  2.003779e+00    8.624420e-01   1.095646e-02
  2.005989e+00    8.055170e-01   1.057644e-02
  2.008200e+00    7.697917e-01   1.032769e-02
  2.010410e+00    7.742100e-01   1.034549e-02
  2.012621e+00    7.781226e-01   1.035984e-02
  2.014831e+00    7.888172e-01   1.041915e-02
  2.017041e+00    8.023038e-01   1.049722e-02
  2.019252e+00    7.956346e-01   1.044335e-02
  2.021462e+00    7.922198e-01   1.041126e-02
  2.023673e+00    7.777113e-01   1.030600e-02
  2.025883e+00    7.751778e-01   1.027960e-02
  2.028094e+00    7.654685e-01   1.020537e-02
  2.030304e+00    7.589883e-01   1.015256e-02
  2.032515e+00    7.680674e-01   1.020374e-02
  2.034725e+00    7.704260e-01   1.020990e-02
  2.036936e+00    7.778081e-01   1.024923e-02
  2.039146e+00    7.661961e-01   1.016283e-02
  2.041356e+00    7.556773e-01   1.008318e-02
  2.043567e+00    7.631549e-01   1.012357e-02
  2.045777e+00    7.715277e-01   1.016964e-02
  2.047988e+00    7.647808e-01   1.011562e-02
  2.050198e+00    7.537218e-01   1.003380e-02
  2.052409e+00    7.598609e-01   1.006687e-02
  2.054619e+00    7.693967e-01   1.012240e-02
  2.056830e+00    7.593648e-01   1.004897e-02
  2.059040e+00    7.554154e-01   1.001527e-02
  2.061251e+00    7.685681e-01   1.009473e-02
  2.063461e+00    7.705999e-01   1.010038e-02
  2.065671e+00    7.650908e-01   1.005540e-02
  2.067882e+00    7.383700e-01   9.869304e-03
  2.070092e+00    7.484737e-01   9.927392e-03
  2.072303e+00    7.457066e-01   9.899888e-03
  2.074513e+00    7.447538e-01   9.884239e-03
  2.076724e+00    7.523100e-01   9.924751e-03
  2.078934e+00    7.411462e-01   9.841852e-03
  2.081145e+00    7.396234e-01   9.822659e-03
  2.083355e+00    7.559372e-01   9.921126e-03
  2.085566e+00    7.845526e-01   1.009800e-02
  2.087776e+00    8.046526e-01   1.021662e-02
  2.089986e+00    8.313769e-01   1.037557e-02
  2.092197e+00    8.389453e-01   1.041314e-02
  2.094407e+00    8.455501e-01   1.044419e-02
  2.096618e+00    7.957331e-01   1.012259e-02
  2.098828e+00    7.626256e-01   9.900291e-03
  2.101039e+00    7.326236e-01   9.694598e-03
  2.103249e+00    7.538584e-01   9.825283e-03
  2.105460e+00    7.379533e-01   9.712037e-03
  2.107670e+00    7.183794e-01   9.573683e-03
  2.109881e+00    7.258043e-01   9.613877e-03
  2.112091e+00    7.159818e-01   9.539670e-03
  2.114301e+00    7.186273e-01   9.548537e-03
  2.116512e+00    7.195303e-01   9.545757e-03
  2.118722e+00    7.345507e-01   9.635975e-03
  2.120933e+00    7.347574e-01   9.628391e-03
  2.123143e+00    7.166733e-01   9.500276e-03
  2.125354e+00    7.184525e-01   9.503514e-03
  2.127564e+00    7.279878e-01   9.557574e-03
  2.129775e+00    7.246815e-01   9.527068e-03
  2.131985e+00    7.152875e-01   9.456040e-03
  2.134196e+00    7.201140e-01   9.479280e-03
  2.136406e+00    7.056578e-01   9.374939e-03
  2.138617e+00    7.088962e-01   9.387970e-03
  2.140827e+00    7.109228e-01   9.417467e-03
  2.143037e+00    7.239115e-01   9.549126e-03
  2.145248e+00    7.088599e-01   9.471378e-03
  2.147458e+00    7.142036e-01   9.522257e-03
  2.149669e+00    7.127250e-01   9.524320e-03
  2.151879e+00    7.174713e-01   9.565320e-03
  2.154090e+00    7.033241e-01   9.477853e-03
  2.156300e+00    7.105436e-01   9.533040e-03
  2.158511e+00    7.022611e-01   9.482617e-03
  2.160721e+00    6.990008e-01   9.465408e-03
  2.162932e+00    7.094491e-01   9.539647e-03
  2.165142e+00    7.087744e-01   9.538167e-03
  2.167352e+00    6.962157e-01   9.456200e-03
  2.169563e+00    6.988669e-01   9.476139e-03
  2.171773e+00    6.965125e-01   9.462613e-03
  2.173984e+00    7.174348e-01   9.605121e-03
  2.176194e+00    7.037745e-01   9.514472e-03
  2.178405e+00    6.865612e-01   9.398070e-03
  2.180615e+00    6.976430e-01   9.474283e-03
  2.182826e+00    6.972854e-01   9.472569e-03
  2.185036e+00    6.947297e-01   9.455225e-03
  2.187247e+00    6.967689e-01   9.469042e-03
  2.189457e+00    7.009184e-01   9.496791e-03
  2.191667e+00    6.846215e-01   9.385562e-03
  2.193878e+00    6.796308e-01   9.350728e-03
  2.196088e+00    6.789926e-01   9.345651e-03
  2.198299e+00    6.889237e-01   9.412647e-03
  2.200509e+00    6.813967e-01   9.360058e-03
  2.202720e+00    6.901701e-01   9.418936e-03
  2.204930e+00    6.853222e-01   9.384568e-03
  2.207141e+00    6.890892e-01   9.409200e-03
  2.209351e+00    6.850273e-01   9.379531e-03
  2.211562e+00    6.879418e-01   9.397850e-03
  2.213772e+00    6.788990e-01   9.280297e-03
  2.215982e+00    6.727192e-01   9.193865e-03
  2.218193e+00    6.885310e-01   9.271370e-03
  2.220403e+00    6.655009e-01   9.090590e-03
  2.222614e+00    6.799671e-01   9.167803e-03
  2.224824e+00    6.713994e-01   9.090507e-03
  2.227035e+00    6.768206e-01   9.109651e-03
  2.229245e+00    6.709332e-01   9.052978e-03
  2.231456e+00    6.738964e-01   9.057296e-03
  2.233666e+00    6.703124e-01   9.018105e-03
  2.235877e+00    6.695148e-01   8.998472e-03
  2.238087e+00    6.823592e-01   9.070775e-03
  2.240298e+00    6.688885e-01   8.967033e-03
  2.242508e+00    6.821953e-01   9.040508e-03
  2.244718e+00    6.679643e-01   8.929924e-03
  2.246929e+00    6.575555e-01   8.845755e-03
  2.249139e+00    6.717849e-01   8.928545e-03
  2.251350e+00    6.612005e-01   8.846268e-03
  2.253560e+00    6.727573e-01   8.911613e-03
  2.255771e+00    6.631137e-01   8.836144e-03
  2.257981e+00    6.694722e-01   8.867180e-03
  2.260192e+00    6.647260e-01   8.824578e-03
  2.262402e+00    6.773954e-01   8.897329e-03
  2.264613e+00    6.642232e-01   8.799549e-03
  2.266823e+00    6.687654e-01   8.819145e-03
  2.269033e+00    6.671686e-01   8.798203e-03
  2.271244e+00    6.664056e-01   8.782735e-03
  2.273454e+00    6.883882e-01   8.915958e-03
  2.275665e+00    6.805761e-01   8.854790e-03
  2.277875e+00    6.722820e-01   8.790643e-03
  2.280086e+00    6.784970e-01   8.821014e-03
  2.282296e+00    6.515271e-01   8.634572e-03
  2.284507e+00    6.580521e-01   8.667560e-03
  2.286717e+00    6.685960e-01   8.727184e-03
  2.288928e+00    6.730734e-01   8.746382e-03
  2.291138e+00    6.586247e-01   8.642550e-03
  2.293348e+00    6.599827e-01   8.641894e-03
  2.295559e+00    6.555073e-01   8.603220e-03
  2.297769e+00    6.642221e-01   8.650900e-03
  2.299980e+00    6.633017e-01   8.635515e-03
  2.302190e+00    6.543702e-01   8.568033e-03
  2.304401e+00    6.608176e-01   8.600767e-03
  2.306611e+00    6.441583e-01   8.482512e-03
  2.308822e+00    6.394675e-01   8.443260e-03
  2.311032e+00    6.649826e-01   8.603531e-03
  2.313243e+00    6.605413e-01   8.568440e-03
  2.315453e+00    6.515710e-01   8.502465e-03
  2.317663e+00    6.749701e-01   8.644457e-03
  2.319874e+00    6.718234e-01   8.615414e-03
  2.322084e+00    6.508451e-01   8.470823e-03
  2.324295e+00    6.647837e-01   8.552705e-03
  2.326505e+00    6.519854e-01   8.460868e-03
  2.328716e+00    6.537072e-01   8.463414e-03
  2.330926e+00    6.597873e-01   8.493774e-03
  2.333137e+00    6.520774e-01   8.435557e-03
  2.335347e+00    6.571606e-01   8.459399e-03
  2.337558e+00    6.563119e-01   8.445601e-03
  2.339768e+00    6.574805e-01   8.444422e-03
  2.341979e+00    6.568758e-01   8.432060e-03
  2.344189e+00    6.653448e-01   8.477670e-03
  2.346399e+00    6.416159e-01   8.316606e-03
  2.348610e+00    6.248574e-01   8.198868e-03
  2.350820e+00    6.447501e-01   8.320105e-03
  2.353031e+00    6.473024e-01   8.328194e-03
  2.355241e+00    6.413429e-01   8.281674e-03
  2.357452e+00    6.284168e-01   8.189390e-03
  2.359662e+00    6.428907e-01   8.274854e-03
  2.361873e+00    6.288028e-01   8.175486e-03
  2.364083e+00    6.197403e-01   8.108418e-03
  2.366294e+00    6.474422e-01   8.279414e-03
  2.368504e+00    6.384065e-01   8.213306e-03
  2.370714e+00    6.375861e-01   8.199873e-03
  2.372925e+00    6.461033e-01   8.246301e-03
  2.375135e+00    6.338615e-01   8.159661e-03
  2.377346e+00    6.413336e-01   8.199574e-03
  2.379556e+00    6.376380e-01   8.167928e-03
  2.381767e+00    6.089534e-01   7.974301e-03
  2.383977e+00    6.134409e-01   7.995751e-03
  2.386188e+00    6.184307e-01   8.020281e-03
  2.388398e+00    6.154088e-01   7.992734e-03
  2.390609e+00    6.122329e-01   7.964388e-03
  2.392819e+00    6.286443e-01   8.062566e-03
  2.395029e+00    6.143615e-01   7.962824e-03
  2.397240e+00    6.121456e-01   7.940567e-03
  2.399450e+00    6.099613e-01   7.918623e-03
  2.401661e+00    6.075127e-01   7.895035e-03
  2.403871e+00    6.231188e-01   7.987991e-03
  2.406082e+00    6.208614e-01   7.966002e-03
  2.408292e+00    6.179584e-01   7.939510e-03
  2.410503e+00    6.140940e-01   7.907125e-03
  2.412713e+00    6.120537e-01   7.886138e-03
  2.414924e+00    6.180940e-01   7.917411e-03
  2.417134e+00    6.066844e-01   7.836341e-03
  2.419344e+00    6.072508e-01   7.832566e-03
  2.421555e+00    5.978953e-01   7.764528e-03
  2.423765e+00    6.124675e-01   7.851058e-03
  2.425976e+00    6.235314e-01   7.913730e-03
  2.428186e+00    6.084260e-01   7.810005e-03
  2.430397e+00    6.080780e-01   7.800216e-03
  2.432607e+00    6.097450e-01   7.803537e-03
  2.434818e+00    5.933607e-01   7.690463e-03
  2.437028e+00    5.923300e-01   7.676639e-03
  2.439239e+00    5.996783e-01   7.716402e-03
  2.441449e+00    5.925311e-01   7.663094e-03
  2.443659e+00    5.779882e-01   7.561203e-03
  2.445870e+00    5.825959e-01   7.603439e-03
  2.448080e+00    5.898572e-01   7.685705e-03
  2.450291e+00    5.792014e-01   7.632604e-03
  2.452501e+00    5.660569e-01   7.556553e-03
  2.454712e+00    5.818098e-01   7.669454e-03
  2.456922e+00    5.810818e-01   7.671369e-03
  2.459133e+00    5.689576e-01   7.596329e-03
  2.461343e+00    5.563664e-01   7.516145e-03
  2.463554e+00    5.564038e-01   7.519800e-03
  2.465764e+00    5.564648e-01   7.523369e-03
  2.467975e+00    5.488025e-01   7.473632e-03
  2.470185e+00    5.594974e-01   7.548359e-03
  2.472395e+00    5.483081e-01   7.473720e-03
  2.474606e+00    5.575225e-01   7.537818e-03
  2.476816e+00    5.504203e-01   7.490393e-03
  2.479027e+00    5.579016e-01   7.541977e-03
  2.481237e+00    5.428152e-01   7.439592e-03
  2.483448e+00    5.437691e-01   7.446419e-03
  2.485658e+00    5.446408e-01   7.452233e-03
  2.487869e+00    5.485075e-01   7.478688e-03
  2.490079e+00    5.431857e-01   7.441803e-03
  2.492290e+00    5.523084e-01   7.503580e-03
  2.494500e+00    5.564013e-01   7.530602e-03
  2.496710e+00    5.499526e-01   7.486131e-03
  2.498921e+00    5.506202e-01   7.489654e-03
  2.501131e+00    5.649140e-01   7.585281e-03
  2.503342e+00    5.506386e-01   7.487551e-03
  2.505552e+00    5.459377e-01   7.454360e-03
  2.507763e+00    5.286005e-01   7.333645e-03
  2.509973e+00    5.287656e-01   7.333373e-03
  2.512184e+00    5.330238e-01   7.361231e-03
  2.514394e+00    5.254520e-01   7.299399e-03
  2.516605e+00    5.341368e-01   7.312097e-03
  2.518815e+00    5.095427e-01   7.113879e-03
  2.521025e+00    5.305746e-01   7.238140e-03
  2.523236e+00    5.319667e-01   7.229541e-03
  2.525446e+00    5.262558e-01   7.175017e-03
  2.527657e+00    5.362349e-01   7.227977e-03
  2.529867e+00    5.220311e-01   7.117454e-03
  2.532078e+00    5.439134e-01   7.249795e-03
  2.534288e+00    5.419954e-01   7.222893e-03
  2.536499e+00    5.284521e-01   7.120120e-03
  2.538709e+00    5.157673e-01   7.023206e-03
  2.540920e+00    5.318805e-01   7.121361e-03
  2.543130e+00    5.178583e-01   7.016570e-03
  2.545340e+00    5.114889e-01   6.963320e-03
  2.547551e+00    5.227835e-01   7.029855e-03
  2.549761e+00    5.173889e-01   6.983940e-03
  2.551972e+00    5.261225e-01   7.033256e-03
  2.554182e+00    5.199873e-01   6.982964e-03
  2.556393e+00    5.197507e-01   6.972286e-03
  2.558603e+00    5.288914e-01   7.024182e-03
  2.560814e+00    5.211319e-01   6.963756e-03
  2.563024e+00    5.142708e-01   6.909226e-03
  2.565235e+00    5.102004e-01   6.872405e-03
  2.567445e+00    5.173784e-01   6.911022e-03
  2.569656e+00    5.287133e-01   6.976493e-03
  2.571866e+00    5.184816e-01   6.899290e-03
  2.574076e+00    5.161011e-01   6.874170e-03
  2.576287e+00    5.215281e-01   6.901841e-03
  2.578497e+00    5.272062e-01   6.931392e-03
  2.580708e+00    5.223679e-01   6.891366e-03
  2.582918e+00    5.190589e-01   6.861727e-03
  2.585129e+00    5.239086e-01   6.885872e-03
  2.587339e+00    5.029240e-01   6.738973e-03
  2.589550e+00    5.115421e-01   6.788920e-03
  2.591760e+00    5.048186e-01   6.736469e-03
  2.593971e+00    5.248918e-01   6.861471e-03
  2.596181e+00    5.300794e-01   6.888966e-03
  2.598391e+00    5.111216e-01   6.759482e-03
  2.600602e+00    5.098090e-01   6.744858e-03
  2.602812e+00    5.307987e-01   6.874611e-03
  2.605023e+00    5.158989e-01   6.770242e-03
  2.607233e+00    5.045061e-01   6.687935e-03
  2.609444e+00    5.042078e-01   6.678763e-03
  2.611654e+00    5.051123e-01   6.677436e-03
  2.613865e+00    5.115415e-01   6.712716e-03
  2.616075e+00    5.246429e-01   6.790881e-03
  2.618286e+00    5.083010e-01   6.677267e-03
  2.620496e+00    5.006361e-01   6.620066e-03
  2.622706e+00    5.011655e-01   6.617819e-03
  2.624917e+00    5.116333e-01   6.680694e-03
  2.627127e+00    5.137581e-01   6.688765e-03
  2.629338e+00    5.158784e-01   6.696508e-03
  2.631548e+00    5.031777e-01   6.607389e-03
  2.633759e+00    4.920785e-01   6.527048e-03
  2.635969e+00    4.880520e-01   6.493669e-03
  2.638180e+00    5.067669e-01   6.609992e-03
  2.640390e+00    5.010862e-01   6.566232e-03
  2.642601e+00    5.170075e-01   6.662964e-03
  2.644811e+00    5.066214e-01   6.588585e-03
  2.647021e+00    5.026532e-01   6.556152e-03
  2.649232e+00    5.029550e-01   6.551364e-03
  2.651442e+00    5.032161e-01   6.546554e-03
  2.653653e+00    4.904464e-01   6.456209e-03
  2.655863e+00    5.044103e-01   6.540751e-03
  2.658074e+00    5.030048e-01   6.524996e-03
  2.660284e+00    4.924628e-01   6.449929e-03
  2.662495e+00    5.056401e-01   6.528835e-03
  2.664705e+00    5.083148e-01   6.539445e-03
  2.666916e+00    5.039309e-01   6.504681e-03
  2.669126e+00    4.935403e-01   6.430822e-03
  2.671337e+00    5.041859e-01   6.493164e-03
  2.673547e+00    4.981158e-01   6.447568e-03
  2.675757e+00    5.001943e-01   6.454512e-03
  2.677968e+00    4.955704e-01   6.418097e-03
  2.680178e+00    4.965637e-01   6.418075e-03
  2.682389e+00    4.971185e-01   6.415270e-03
  2.684599e+00    4.896958e-01   6.361017e-03
  2.686810e+00    4.890409e-01   6.350163e-03
  2.689020e+00    5.204393e-01   6.544383e-03
  2.691231e+00    5.043051e-01   6.435790e-03
  2.693441e+00    4.908603e-01   6.343246e-03
  2.695652e+00    4.919387e-01   6.343703e-03
  2.697862e+00    4.916638e-01   6.335555e-03
  2.700072e+00    5.073053e-01   6.429370e-03
  2.702283e+00    5.010012e-01   6.383001e-03
  2.704493e+00    4.937822e-01   6.330532e-03
  2.706704e+00    4.919163e-01   6.312132e-03
  2.708914e+00    4.942521e-01   6.321094e-03
  2.711125e+00    4.882510e-01   6.276353e-03
  2.713335e+00    4.930322e-01   6.300885e-03
  2.715546e+00    4.943705e-01   6.302916e-03
  2.717756e+00    4.983962e-01   6.322570e-03
  2.719967e+00    4.975771e-01   6.311099e-03
  2.722177e+00    4.889897e-01   6.250244e-03
  2.724387e+00    4.903267e-01   6.252654e-03
  2.726598e+00    4.897692e-01   6.243002e-03
  2.728808e+00    4.949753e-01   6.269895e-03
  2.731019e+00    4.858966e-01   6.205999e-03
  2.733229e+00    4.855400e-01   6.197892e-03
  2.735440e+00    4.890767e-01   6.214145e-03
  2.737650e+00    4.775835e-01   6.134702e-03
  2.739861e+00    4.859570e-01   6.182163e-03
  2.742071e+00    4.946676e-01   6.231510e-03
  2.744282e+00    4.850676e-01   6.164494e-03
  2.746492e+00    4.827151e-01   6.143480e-03
  2.748702e+00    4.813977e-01   6.129195e-03
  2.750913e+00    4.913781e-01   6.186552e-03
  2.753123e+00    4.732315e-01   6.065186e-03
  2.755334e+00    4.880529e-01   6.153292e-03
  2.757544e+00    4.840534e-01   6.122291e-03
  2.759755e+00    4.848223e-01   6.121225e-03
  2.761965e+00    4.988259e-01   6.202901e-03
  2.764176e+00    4.869493e-01   6.122607e-03
  2.766386e+00    4.851987e-01   6.105747e-03
  2.768597e+00    4.985595e-01   6.183267e-03
  2.770807e+00    4.839736e-01   6.086252e-03
  2.773017e+00    4.676204e-01   5.976634e-03
  2.775228e+00    4.934756e-01   6.133762e-03
  2.777438e+00    4.971959e-01   6.150928e-03
  2.779649e+00    4.844620e-01   6.065730e-03
  2.781859e+00    4.812117e-01   6.039543e-03
  2.784070e+00    4.841245e-01   6.051889e-03
  2.786280e+00    4.835472e-01   6.042498e-03
  2.788491e+00    4.742383e-01   5.978224e-03
  2.790701e+00    4.746754e-01   5.975327e-03
  2.792912e+00    4.890690e-01   6.059208e-03
  2.795122e+00    4.826121e-01   6.013315e-03
  2.797333e+00    4.823781e-01   6.006250e-03
  2.799543e+00    4.821990e-01   5.999238e-03
  2.801753e+00    4.830291e-01   5.998484e-03
  2.803964e+00    4.850367e-01   6.005237e-03
  2.806174e+00    4.771249e-01   5.949883e-03
  2.808385e+00    4.764790e-01   5.939048e-03
  2.810595e+00    4.862170e-01   5.992482e-03
  2.812806e+00    4.909537e-01   6.014877e-03
  2.815016e+00    4.813041e-01   5.950707e-03
  2.817227e+00    4.773647e-01   5.952304e-03
  2.819437e+00    4.771324e-01   5.961989e-03
  2.821648e+00    4.737993e-01   5.943410e-03
  2.823858e+00    4.749896e-01   5.956228e-03
  2.826068e+00    4.744864e-01   5.958044e-03
  2.828279e+00    4.850738e-01   6.028251e-03
  2.830489e+00    4.800778e-01   6.000496e-03
  2.832700e+00    4.764556e-01   5.980377e-03
  2.834910e+00    4.721799e-01   5.955547e-03
  2.837121e+00    4.808761e-01   6.011877e-03
  2.839331e+00    4.682221e-01   5.933478e-03
  2.841542e+00    4.858963e-01   6.045436e-03
  2.843752e+00    4.875729e-01   6.056679e-03
  2.845963e+00    4.785470e-01   6.000748e-03
  2.848173e+00    4.861024e-01   6.048024e-03
  2.850383e+00    4.919547e-01   6.084622e-03
  2.852594e+00    5.054742e-01   6.167566e-03
  2.854804e+00    4.992796e-01   6.129173e-03
  2.857015e+00    4.784745e-01   5.999654e-03
  2.859225e+00    4.688771e-01   5.938929e-03
  2.861436e+00    4.738234e-01   5.969499e-03
  2.863646e+00    4.749695e-01   5.976782e-03
  2.865857e+00    4.581431e-01   5.870269e-03
  2.868067e+00    4.564778e-01   5.859823e-03
  2.870278e+00    4.670271e-01   5.926786e-03
  2.872488e+00    4.604365e-01   5.883662e-03
  2.874698e+00    4.706220e-01   5.947332e-03
  2.876909e+00    4.661228e-01   5.917516e-03
  2.879119e+00    4.652072e-01   5.910060e-03
  2.881330e+00    4.668522e-01   5.919019e-03
  2.883540e+00    4.713844e-01   5.946292e-03
  2.885751e+00    4.718505e-01   5.947571e-03
  2.887961e+00    4.637997e-01   5.894725e-03
  2.890172e+00    4.657444e-01   5.905444e-03
  2.892382e+00    4.660093e-01   5.905316e-03
  2.894593e+00    4.708399e-01   5.934014e-03
  2.896803e+00    4.580129e-01   5.850649e-03
  2.899014e+00    4.705320e-01   5.928122e-03
  2.901224e+00    4.763204e-01   5.962468e-03
  2.903434e+00    4.751170e-01   5.952945e-03
  2.905645e+00    4.750301e-01   5.950143e-03
  2.907855e+00    4.560194e-01   5.827788e-03
  2.910066e+00    4.623776e-01   5.866165e-03
  2.912276e+00    4.608247e-01   5.854188e-03
  2.914487e+00    4.695067e-01   5.906585e-03
  2.916697e+00    4.735416e-01   5.929671e-03
  2.918908e+00    4.688503e-01   5.898186e-03
  2.921118e+00    4.587980e-01   5.831925e-03
  2.923329e+00    4.668280e-01   5.880395e-03
  2.925539e+00    4.664725e-01   5.875851e-03
  2.927749e+00    4.661150e-01   5.871265e-03
  2.929960e+00    4.605005e-01   5.833022e-03
  2.932170e+00    4.511235e-01   5.771010e-03
  2.934381e+00    4.528391e-01   5.779536e-03
  2.936591e+00    4.542711e-01   5.786089e-03
  2.938802e+00    4.599047e-01   5.819143e-03
  2.941012e+00    4.716483e-01   5.890585e-03
  2.943223e+00    4.670308e-01   5.858976e-03
  2.945433e+00    4.583514e-01   5.800513e-03
  2.947644e+00    4.653825e-01   5.840646e-03
  2.949854e+00    4.666257e-01   5.844146e-03
  2.952064e+00    4.641435e-01   5.824293e-03
  2.954275e+00    4.645053e-01   5.822112e-03
  2.956485e+00    4.655157e-01   5.824211e-03
  2.958696e+00    4.556653e-01   5.757899e-03
  2.960906e+00    4.640040e-01   5.806084e-03
  2.963117e+00    4.591878e-01   5.771398e-03
  2.965327e+00    4.622297e-01   5.786531e-03
  2.967538e+00    4.786555e-01   5.885457e-03
  2.969748e+00    4.729607e-01   5.847477e-03
  2.971959e+00    4.804190e-01   5.890176e-03
  2.974169e+00    4.708295e-01   5.828464e-03
  2.976379e+00    4.812967e-01   5.889885e-03
  2.978590e+00    4.816966e-01   5.889107e-03
  2.980800e+00    4.782782e-01   5.865317e-03
  2.983011e+00    4.489717e-01   5.679985e-03
  2.985221e+00    4.722655e-01   5.822238e-03
  2.987432e+00    4.699798e-01   5.804988e-03
  2.989642e+00    4.563964e-01   5.717842e-03
  2.991853e+00    4.642013e-01   5.763208e-03
  2.994063e+00    4.681439e-01   5.784682e-03
  2.996274e+00    4.518697e-01   5.680068e-03
  2.998484e+00    4.615178e-01   5.737658e-03
  3.000694e+00    4.607854e-01   5.729630e-03
  3.002905e+00    4.617278e-01   5.732520e-03
  3.005115e+00    4.642088e-01   5.744881e-03
  3.007326e+00    4.647308e-01   5.744926e-03
  3.009536e+00    4.594318e-01   5.708797e-03
  3.011747e+00    4.550051e-01   5.678299e-03
  3.013957e+00    4.629122e-01   5.724233e-03
  3.016168e+00    4.478045e-01   5.626788e-03
  3.018378e+00    4.579434e-01   5.687092e-03
  3.020589e+00    4.470156e-01   5.615620e-03
  3.022799e+00    4.490263e-01   5.625089e-03
  3.025010e+00    4.585910e-01   5.681420e-03
  3.027220e+00    4.624026e-01   5.701833e-03
  3.029430e+00    4.661876e-01   5.721838e-03
  3.031641e+00    4.553694e-01   5.651911e-03
  3.033851e+00    4.564781e-01   5.655250e-03
  3.036062e+00    4.545476e-01   5.640476e-03
  3.038272e+00    4.630288e-01   5.689246e-03
  3.040483e+00    4.500963e-01   5.606023e-03
  3.042693e+00    4.440971e-01   5.565277e-03
  3.044904e+00    4.641759e-01   5.685622e-03
  3.047114e+00    4.498529e-01   5.592430e-03
  3.049325e+00    4.547125e-01   5.618119e-03
  3.051535e+00    4.682576e-01   5.696720e-03
  3.053745e+00    4.483590e-01   5.569636e-03
  3.055956e+00    4.504874e-01   5.578242e-03
  3.058166e+00    4.599386e-01   5.632168e-03
  3.060377e+00    4.484601e-01   5.556680e-03
  3.062587e+00    4.478709e-01   5.548407e-03
  3.064798e+00    4.510328e-01   5.563693e-03
  3.067008e+00    4.613337e-01   5.622088e-03
  3.069219e+00    4.583791e-01   5.599500e-03
  3.071429e+00    4.635754e-01   5.627570e-03
  3.073640e+00    4.623669e-01   5.616862e-03
  3.075850e+00    4.537981e-01   5.560981e-03
  3.078060e+00    4.420753e-01   5.485588e-03
  3.080271e+00    4.468790e-01   5.511842e-03
  3.082481e+00    4.456836e-01   5.501042e-03
  3.084692e+00    4.444795e-01   5.490237e-03
  3.086902e+00    4.422100e-01   5.472971e-03
  3.089113e+00    4.529842e-01   5.535660e-03
  3.091323e+00    4.550658e-01   5.544967e-03
  3.093534e+00    4.570421e-01   5.553567e-03
  3.095744e+00    4.698015e-01   5.627124e-03
  3.097955e+00    4.472919e-01   5.487113e-03
  3.100165e+00    4.579854e-01   5.548935e-03
  3.102375e+00    4.514123e-01   5.505547e-03
  3.104586e+00    4.476410e-01   5.478977e-03
  3.106796e+00    4.542938e-01   5.516024e-03
  3.109007e+00    4.557706e-01   5.521710e-03
  3.111217e+00    4.557706e-01   5.517974e-03
  3.113428e+00    4.532039e-01   5.498988e-03
  3.115638e+00    4.562469e-01   5.514128e-03
  3.117849e+00    4.660231e-01   5.569091e-03
  3.120059e+00    4.528814e-01   5.486530e-03
  3.122270e+00    4.443329e-01   5.431221e-03
  3.124480e+00    4.524778e-01   5.477068e-03
  3.126691e+00    4.562059e-01   5.495971e-03
  3.128901e+00    4.527800e-01   5.472152e-03
  3.131111e+00    4.526618e-01   5.467550e-03
  3.133322e+00    4.600116e-01   5.508274e-03
  3.135532e+00    4.525580e-01   5.460017e-03
  3.137743e+00    4.504026e-01   5.443499e-03
  3.139953e+00    4.512312e-01   5.444784e-03
  3.142164e+00    4.418327e-01   5.399801e-03
  3.144374e+00    4.430002e-01   5.435325e-03
  3.146585e+00    4.499526e-01   5.492514e-03
  3.148795e+00    4.543247e-01   5.530051e-03
  3.151006e+00    4.506169e-01   5.516082e-03
  3.153216e+00    4.421718e-01   5.471274e-03
  3.155426e+00    4.400676e-01   5.464558e-03
  3.157637e+00    4.371689e-01   5.452008e-03
  3.159847e+00    4.499635e-01   5.536155e-03
  3.162058e+00    4.551473e-01   5.572461e-03
  3.164268e+00    4.455992e-01   5.517789e-03
  3.166479e+00    4.514976e-01   5.557884e-03
  3.168689e+00    4.515409e-01   5.561579e-03
  3.170900e+00    4.397914e-01   5.491902e-03
  3.173110e+00    4.581730e-01   5.608429e-03
  3.175321e+00    4.409374e-01   5.504455e-03
  3.177531e+00    4.368324e-01   5.481478e-03
  3.179741e+00    4.366295e-01   5.482301e-03
  3.181952e+00    4.374056e-01   5.489253e-03
  3.184162e+00    4.463835e-01   5.547532e-03
  3.186373e+00    4.362876e-01   5.486037e-03
  3.188583e+00    4.433445e-01   5.532023e-03
  3.190794e+00    4.389862e-01   5.506529e-03
  3.193004e+00    4.249130e-01   5.418774e-03
  3.195215e+00    4.362248e-01   5.491915e-03
  3.197425e+00    4.494291e-01   5.575649e-03
  3.199636e+00    4.518657e-01   5.589971e-03
  3.201846e+00    4.297172e-01   5.450652e-03
  3.204056e+00    4.458701e-01   5.553031e-03
  3.206267e+00    4.454558e-01   5.551324e-03
  3.208477e+00    4.503170e-01   5.582471e-03
  3.210688e+00    4.388833e-01   5.511998e-03
  3.212898e+00    4.383713e-01   5.509358e-03
  3.215109e+00    4.364174e-01   5.497836e-03
  3.217319e+00    4.488280e-01   5.576071e-03
  3.219530e+00    4.417190e-01   5.532171e-03
  3.221740e+00    4.379202e-01   5.508887e-03
  3.223951e+00    4.380276e-01   5.510030e-03
  3.226161e+00    4.270800e-01   5.440931e-03
  3.228372e+00    4.341506e-01   5.486315e-03
  3.230582e+00    4.362336e-01   5.499598e-03
  3.232792e+00    4.355419e-01   5.495474e-03
  3.235003e+00    4.396779e-01   5.521738e-03
  3.237213e+00    4.322414e-01   5.474960e-03
  3.239424e+00    4.355187e-01   5.495664e-03
  3.241634e+00    4.177766e-01   5.382693e-03
  3.243845e+00    4.286101e-01   5.452090e-03
  3.246055e+00    4.461569e-01   5.562299e-03
  3.248266e+00    4.349297e-01   5.492090e-03
  3.250476e+00    4.375052e-01   5.507997e-03
  3.252687e+00    4.387174e-01   5.515557e-03
  3.254897e+00    4.350246e-01   5.492170e-03
  3.257107e+00    4.233645e-01   5.417752e-03
  3.259318e+00    4.270526e-01   5.441074e-03
  3.261528e+00    4.225889e-01   5.412404e-03
  3.263739e+00    4.298458e-01   5.458131e-03
  3.265949e+00    4.284895e-01   5.449388e-03
  3.268160e+00    4.331469e-01   5.478503e-03
  3.270370e+00    4.292939e-01   5.453579e-03
  3.272581e+00    4.286241e-01   5.449027e-03
  3.274791e+00    4.274371e-01   5.440951e-03
  3.277002e+00    4.162489e-01   5.368733e-03
  3.279212e+00    4.138963e-01   5.353152e-03
  3.281422e+00    4.209328e-01   5.397879e-03
  3.283633e+00    4.198678e-01   5.390385e-03
  3.285843e+00    4.299398e-01   5.454288e-03
  3.288054e+00    4.474404e-01   5.563239e-03
  3.290264e+00    4.290459e-01   5.447389e-03
  3.292475e+00    4.353459e-01   5.486374e-03
  3.294685e+00    4.354582e-01   5.486442e-03
  3.296896e+00    4.349802e-01   5.482669e-03
  3.299106e+00    4.321934e-01   5.464516e-03
  3.301317e+00    4.297372e-01   5.447921e-03
  3.303527e+00    4.351312e-01   5.481548e-03
  3.305737e+00    4.140526e-01   5.346099e-03
  3.307948e+00    4.272431e-01   5.429887e-03
  3.310158e+00    4.309869e-01   5.452790e-03
  3.312369e+00    4.162416e-01   5.357828e-03
  3.314579e+00    4.269545e-01   5.425401e-03
  3.316790e+00    4.288074e-01   5.436471e-03
  3.319000e+00    4.472460e-01   5.550868e-03
  3.321211e+00    4.387166e-01   5.497125e-03
  3.323421e+00    4.179344e-01   5.364100e-03
  3.325632e+00    4.157712e-01   5.349339e-03
  3.327842e+00    4.355063e-01   5.473878e-03
  3.330052e+00    4.388360e-01   5.493676e-03
  3.332263e+00    4.290021e-01   5.430760e-03
  3.334473e+00    4.304649e-01   5.439086e-03
  3.336684e+00    4.316689e-01   5.445399e-03
  3.338894e+00    4.274328e-01   5.417790e-03
  3.341105e+00    4.255705e-01   5.404739e-03
  3.343315e+00    4.296907e-01   5.429689e-03
  3.345526e+00    4.250508e-01   5.399382e-03
  3.347736e+00    4.351743e-01   5.461890e-03
  3.349947e+00    4.283967e-01   5.418243e-03
  3.352157e+00    4.178281e-01   5.349822e-03
  3.354368e+00    4.128794e-01   5.316759e-03
  3.356578e+00    4.216440e-01   5.371860e-03
  3.358788e+00    4.225452e-01   5.376271e-03
  3.360999e+00    4.291061e-01   5.416584e-03
  3.363209e+00    4.115240e-01   5.303454e-03
  3.365420e+00    4.301738e-01   5.420750e-03
  3.367630e+00    4.130597e-01   5.310820e-03
  3.369841e+00    4.208504e-01   5.359235e-03
  3.372051e+00    4.206494e-01   5.355972e-03
  3.374262e+00    4.214826e-01   5.358802e-03
  3.376472e+00    4.398164e-01   5.471614e-03
  3.378683e+00    4.216859e-01   5.355143e-03
  3.380893e+00    4.244766e-01   5.370456e-03
  3.383103e+00    4.150768e-01   5.307965e-03
  3.385314e+00    4.201635e-01   5.338125e-03
  3.387524e+00    4.203395e-01   5.336518e-03
  3.389735e+00    4.108921e-01   5.273585e-03
  3.391945e+00    4.079392e-01   5.250936e-03
  3.394156e+00    4.094567e-01   5.256501e-03
  3.396366e+00    4.063430e-01   5.233089e-03
  3.398577e+00    4.009332e-01   5.195123e-03
  3.400787e+00    4.100093e-01   5.265503e-03
  3.402998e+00    4.045697e-01   5.268263e-03
  3.405208e+00    4.105510e-01   5.327843e-03
  3.407418e+00    4.050512e-01   5.307919e-03
  3.409629e+00    3.967797e-01   5.267337e-03
  3.411839e+00    3.865669e-01   5.210680e-03
  3.414050e+00    3.991739e-01   5.305978e-03
  3.416260e+00    3.832001e-01   5.208254e-03
  3.418471e+00    3.867362e-01   5.241536e-03
  3.420681e+00    3.929317e-01   5.291873e-03
  3.422892e+00    3.890779e-01   5.273853e-03
  3.425102e+00    3.706608e-01   5.155120e-03
  3.427313e+00    3.988539e-01   5.354850e-03
  3.429523e+00    3.991605e-01   5.364129e-03
  3.431733e+00    3.710920e-01   5.178591e-03
  3.433944e+00    3.989122e-01   5.375812e-03
  3.436154e+00    3.958732e-01   5.361643e-03
  3.438365e+00    3.792627e-01   5.253869e-03
  3.440575e+00    3.799303e-01   5.264397e-03
  3.442786e+00    4.066142e-01   5.451947e-03
  3.444996e+00    3.919709e-01   5.358492e-03
  3.447207e+00    3.817232e-01   5.293333e-03
  3.449417e+00    3.633094e-01   5.204442e-03
  3.451628e+00    3.589365e-01   5.202034e-03
  3.453838e+00    3.606946e-01   5.235740e-03
  3.456049e+00    3.612439e-01   5.263434e-03
  3.458259e+00    3.772358e-01   5.400928e-03
  3.460469e+00    3.635359e-01   5.321679e-03
  3.462680e+00    3.707155e-01   5.393102e-03
  3.464890e+00    3.705656e-01   5.409961e-03
  3.467101e+00    3.820335e-01   5.510808e-03
  3.469311e+00    3.910906e-01   5.592759e-03
  3.471522e+00    3.936737e-01   5.628020e-03
  3.473732e+00    3.992447e-01   5.684058e-03
  3.475943e+00    4.036318e-01   5.731348e-03
  3.478153e+00    4.031380e-01   5.743556e-03
  3.480364e+00    4.080989e-01   5.794240e-03
  3.482574e+00    4.127220e-01   5.842484e-03
  3.484784e+00    4.176685e-01   5.892361e-03
  3.486995e+00    4.223144e-01   5.940288e-03
  3.489205e+00    4.354590e-01   6.046870e-03
  3.491416e+00    4.473144e-01   6.143907e-03
  3.493626e+00    4.319862e-01   6.052281e-03
  3.495837e+00    4.424626e-01   6.139996e-03
  3.498047e+00    4.586881e-01   6.266291e-03
  3.500258e+00    4.687957e-01   6.349809e-03
  3.502468e+00    4.487967e-01   6.227218e-03
  3.504679e+00    4.775381e-01   6.438260e-03
  3.506889e+00    4.802859e-01   6.471446e-03
  3.509099e+00    4.855875e-01   6.521625e-03
  3.511310e+00    4.999766e-01   6.632373e-03
  3.513520e+00    4.927784e-01   6.599032e-03
  3.515731e+00    5.012272e-01   6.669952e-03
  3.517941e+00    5.004383e-01   6.679234e-03
  3.520152e+00    5.138847e-01   6.782958e-03
  3.522362e+00    5.026943e-01   6.723206e-03
  3.524573e+00    5.066549e-01   6.763929e-03
  3.526783e+00    5.099497e-01   6.799215e-03
  3.528994e+00    5.314850e-01   6.953720e-03
  3.531204e+00    5.378798e-01   7.008083e-03
  3.533414e+00    5.337576e-01   6.993363e-03
  3.535625e+00    5.367190e-01   7.025187e-03
  3.537835e+00    5.462084e-01   7.099282e-03
  3.540046e+00    5.576307e-01   7.182269e-03
  3.542256e+00    5.496492e-01   7.138320e-03
  3.544467e+00    5.389110e-01   7.075863e-03
  3.546677e+00    5.449532e-01   7.123074e-03
  3.548888e+00    5.540547e-01   7.189904e-03
  3.551098e+00    5.526409e-01   7.188170e-03
  3.553309e+00    5.616267e-01   7.254704e-03
  3.555519e+00    5.419164e-01   7.137633e-03
  3.557729e+00    5.540550e-01   7.229042e-03
  3.559940e+00    5.534244e-01   7.236664e-03
  3.562150e+00    5.377778e-01   7.145359e-03
  3.564361e+00    5.695130e-01   7.366904e-03
  3.566571e+00    5.278069e-01   7.105778e-03
  3.568782e+00    5.377049e-01   7.186192e-03
  3.570992e+00    5.434831e-01   7.238582e-03
  3.573203e+00    5.347636e-01   7.194389e-03
  3.575413e+00    5.447782e-01   7.275332e-03
  3.577624e+00    5.521630e-01   7.338812e-03
  3.579834e+00    5.462461e-01   7.313399e-03
  3.582045e+00    5.454456e-01   7.322202e-03
  3.584255e+00    5.370970e-01   7.280024e-03
  3.586465e+00    5.353224e-01   7.281882e-03
  3.588676e+00    5.576833e-01   7.446927e-03
  3.590886e+00    5.356247e-01   7.311848e-03
  3.593097e+00    5.437069e-01   7.381406e-03
  3.595307e+00    5.417686e-01   7.382249e-03
  3.597518e+00    5.474635e-01   7.435324e-03
  3.599728e+00    5.380964e-01   7.385551e-03
  3.601939e+00    5.576625e-01   7.533001e-03
  3.604149e+00    5.600258e-01   7.563667e-03
  3.606360e+00    5.497066e-01   7.508011e-03
  3.608570e+00    5.554271e-01   7.561375e-03
  3.610780e+00    5.604435e-01   7.606791e-03
  3.612991e+00    5.441082e-01   7.505197e-03
  3.615201e+00    5.510272e-01   7.562701e-03
  3.617412e+00    5.581788e-01   7.619069e-03
  3.619622e+00    5.398227e-01   7.498701e-03
  3.621833e+00    5.526443e-01   7.594086e-03
  3.624043e+00    5.534908e-01   7.609546e-03
  3.626254e+00    5.447899e-01   7.559323e-03
  3.628464e+00    5.531474e-01   7.628234e-03
  3.630675e+00    5.417646e-01   7.563574e-03
  3.632885e+00    5.375320e-01   7.548476e-03
  3.635095e+00    5.403034e-01   7.582367e-03
  3.637306e+00    5.502600e-01   7.666510e-03
  3.639516e+00    5.357088e-01   7.579042e-03
  3.641727e+00    5.262246e-01   7.526107e-03
  3.643937e+00    5.516165e-01   7.720361e-03
  3.646148e+00    5.268286e-01   7.559433e-03
  3.648358e+00    5.364343e-01   7.642916e-03
  3.650569e+00    5.423767e-01   7.699977e-03
  3.652779e+00    5.514966e-01   7.779538e-03
  3.654990e+00    5.399291e-01   7.712466e-03
  3.657200e+00    5.459386e-01   7.770346e-03
  3.659410e+00    5.522224e-01   7.830202e-03
  3.661621e+00    5.387126e-01   7.749040e-03
  3.663831e+00    5.440273e-01   7.802445e-03
  3.666042e+00    5.531526e-01   7.883076e-03
  3.668252e+00    5.570614e-01   7.926494e-03
  3.670463e+00    5.540303e-01   7.920464e-03
  3.672673e+00    5.316204e-01   7.774037e-03
  3.674884e+00    5.488624e-01   7.914780e-03
  3.677094e+00    5.401347e-01   7.867237e-03
  3.679305e+00    5.508602e-01   7.960828e-03
  3.681515e+00    5.411274e-01   7.905948e-03
  3.683726e+00    5.403374e-01   7.916143e-03
  3.685936e+00    5.625618e-01   8.093501e-03
  3.688146e+00    5.344229e-01   7.904396e-03
  3.690357e+00    5.356637e-01   7.929566e-03
  3.692567e+00    5.462973e-01   8.024327e-03
  3.694778e+00    5.284534e-01   7.908314e-03
  3.696988e+00    5.285581e-01   7.925042e-03
  3.699199e+00    5.449476e-01   8.063530e-03
  3.701409e+00    5.358232e-01   8.012298e-03
  3.703620e+00    5.400106e-01   8.060088e-03
  3.705830e+00    5.459341e-01   8.120904e-03
  3.708041e+00    5.362383e-01   8.065273e-03
  3.710251e+00    5.202992e-01   7.961165e-03
  3.712461e+00    5.170955e-01   7.953238e-03
  3.714672e+00    5.304549e-01   8.072177e-03
  3.716882e+00    5.407393e-01   8.167103e-03
  3.719093e+00    5.331568e-01   8.126986e-03
  3.721303e+00    5.184764e-01   8.031276e-03
  3.723514e+00    5.210753e-01   8.068647e-03
  3.725724e+00    5.262253e-01   8.125710e-03
  3.727935e+00    5.162365e-01   8.065686e-03
  3.730145e+00    4.963132e-01   7.925469e-03
  3.732356e+00    5.128973e-01   8.074263e-03
  3.734566e+00    5.205333e-01   8.151761e-03
  3.736776e+00    5.154150e-01   8.129391e-03
  3.738987e+00    5.207185e-01   8.188929e-03
  3.741197e+00    5.114341e-01   8.133610e-03
  3.743408e+00    5.002566e-01   8.062015e-03
  3.745618e+00    5.280315e-01   8.301369e-03
  3.747829e+00    5.336799e-01   8.364178e-03
  3.750039e+00    5.219561e-01   8.290337e-03
  3.752250e+00    5.221344e-01   8.310415e-03
  3.754460e+00    5.430356e-01   8.494217e-03
  3.756671e+00    5.450385e-01   8.529373e-03
  3.758881e+00    5.144356e-01   8.305211e-03
  3.761091e+00    5.271692e-01   8.426838e-03
  3.763302e+00    5.199758e-01   8.388447e-03
  3.765512e+00    5.046821e-01   8.283351e-03
  3.767723e+00    5.252554e-01   8.470200e-03
  3.769933e+00    5.047737e-01   8.322718e-03
  3.772144e+00    4.987034e-01   8.291965e-03
  3.774354e+00    5.337546e-01   8.598771e-03
  3.776565e+00    5.387843e-01   8.659727e-03
  3.778775e+00    5.195114e-01   8.523683e-03
  3.780986e+00    5.098942e-01   8.464842e-03
  3.783196e+00    5.185283e-01   8.556754e-03
  3.785407e+00    5.131000e-01   8.532479e-03
  3.787617e+00    5.064100e-01   8.497474e-03
  3.789827e+00    5.122832e-01   8.567371e-03
  3.792038e+00    5.280718e-01   8.719737e-03
  3.794248e+00    4.965515e-01   8.476578e-03
  3.796459e+00    5.074884e-01   8.590867e-03
  3.798669e+00    5.339776e-01   8.834352e-03
  3.800880e+00    5.117449e-01   8.670133e-03
  3.803090e+00    5.111725e-01   8.687349e-03
  3.805301e+00    5.192630e-01   8.778343e-03
  3.807511e+00    4.985455e-01   8.623442e-03
  3.809722e+00    4.879317e-01   8.553076e-03
  3.811932e+00    5.197404e-01   8.850113e-03
  3.814142e+00    5.228090e-01   8.899663e-03
  3.816353e+00    5.032143e-01   8.754234e-03
  3.818563e+00    4.977692e-01   8.729799e-03
  3.820774e+00    5.190854e-01   8.938387e-03
  3.822984e+00    4.922792e-01   8.727798e-03
  3.825195e+00    5.257577e-01   9.044060e-03
  3.827405e+00    5.028514e-01   8.868851e-03
  3.829616e+00    4.953346e-01   8.826341e-03
  3.831826e+00    5.059578e-01   8.944877e-03
  3.834037e+00    4.997388e-01   8.914278e-03
  3.836247e+00    4.986966e-01   8.929711e-03
  3.838457e+00    4.846972e-01   8.828210e-03
  3.840668e+00    4.959557e-01   8.955339e-03
  3.842878e+00    5.210116e-01   9.204887e-03
  3.845089e+00    4.843334e-01   8.900356e-03
  3.847299e+00    4.666571e-01   8.761368e-03
  3.849510e+00    4.979244e-01   9.076036e-03
  3.851720e+00    5.355051e-01   9.434618e-03
  3.853931e+00    5.210404e-01   9.325825e-03
  3.856141e+00    5.224456e-01   9.357940e-03
  3.858352e+00    5.173896e-01   9.332239e-03
  3.860562e+00    5.036483e-01   9.227000e-03
  3.862772e+00    5.148097e-01   9.348615e-03
  3.864983e+00    5.105219e-01   9.329636e-03
  3.867193e+00    4.905436e-01   9.165007e-03
  3.869404e+00    5.002832e-01   9.275434e-03
  3.871614e+00    4.996955e-01   9.290081e-03
  3.873825e+00    5.133616e-01   9.437103e-03
  3.876035e+00    5.143231e-01   9.466776e-03
  3.878246e+00    5.005088e-01   9.364934e-03
  3.880456e+00    4.665530e-01   9.069788e-03
  3.882667e+00    5.131415e-01   9.541837e-03
  3.884877e+00    5.082400e-01   9.526405e-03
  3.887087e+00    5.088545e-01   9.562626e-03
  3.889298e+00    4.956069e-01   9.467822e-03
  3.891508e+00    5.066020e-01   9.603292e-03
  3.893719e+00    5.180202e-01   9.742722e-03
  3.895929e+00    5.314731e-01   9.901180e-03
  3.898140e+00    4.691841e-01   9.333889e-03
  3.900350e+00    4.912646e-01   9.583111e-03
  3.902561e+00    4.908582e-01   9.611583e-03
  3.904771e+00    4.908336e-01   9.644100e-03
  3.906982e+00    5.296934e-01   1.005317e-02
  3.909192e+00    5.174493e-01   9.970724e-03
  3.911403e+00    4.984699e-01   9.820513e-03
  3.913613e+00    5.018428e-01   9.888410e-03
  3.915823e+00    5.151767e-01   1.005460e-02
  3.918034e+00    4.852606e-01   9.793530e-03
  3.920244e+00    5.069407e-01   1.004626e-02
  3.922455e+00    5.040832e-01   1.005455e-02
  3.924665e+00    4.948645e-01   9.999000e-03
  3.926876e+00    4.658459e-01   9.737503e-03
  3.929086e+00    4.905917e-01   1.003033e-02
  3.931297e+00    4.898556e-01   1.005771e-02
  3.933507e+00    4.906225e-01   1.009460e-02
  3.935718e+00    5.108203e-01   1.032967e-02
  3.937928e+00    5.173926e-01   1.042627e-02
  3.940138e+00    5.005258e-01   1.028471e-02
  3.942349e+00    4.868791e-01   1.017336e-02
  3.944559e+00    4.945532e-01   1.028341e-02
  3.946770e+00    5.097550e-01   1.047115e-02
  3.948980e+00    4.842737e-01   1.023677e-02
  3.951191e+00    4.895075e-01   1.032283e-02
  3.953401e+00    5.010076e-01   1.047521e-02
  3.955612e+00    4.917470e-01   1.040987e-02
  3.957822e+00    4.769983e-01   1.028389e-02
  3.960033e+00    4.558319e-01   1.008473e-02
  3.962243e+00    4.835211e-01   1.041923e-02
  3.964453e+00    4.847535e-01   1.046562e-02
  3.966664e+00    4.928092e-01   1.058587e-02
  3.968874e+00    5.010118e-01   1.070244e-02
  3.971085e+00    5.136641e-01   1.085925e-02
  3.973295e+00    5.013649e-01   1.075042e-02
  3.975506e+00    4.514584e-01   1.022203e-02
  3.977716e+00    5.225888e-01   1.102069e-02
  3.979927e+00    5.045000e-01   1.085089e-02
  3.982137e+00    5.188430e-01   1.102715e-02
  3.984348e+00    4.937606e-01   1.077998e-02
  3.986558e+00    5.010899e-01   1.088240e-02
  3.988768e+00    4.677817e-01   1.053716e-02
  3.990979e+00    4.662474e-01   1.054206e-02
  3.993189e+00    4.909715e-01   1.084121e-02
  3.995400e+00    5.149029e-01   1.112648e-02
  3.997610e+00    5.182522e-01   1.119353e-02
  3.999821e+00    5.118499e-01   1.116268e-02
  4.002031e+00    4.828605e-01   1.088030e-02
  4.004242e+00    4.872865e-01   1.096864e-02
  4.006452e+00    4.846607e-01   1.097846e-02
  4.008663e+00    4.643713e-01   1.078532e-02
  4.010873e+00    4.755282e-01   1.095364e-02
  4.013084e+00    5.005131e-01   1.127940e-02
  4.015294e+00    5.087066e-01   1.141332e-02
  4.017504e+00    4.940852e-01   1.129045e-02
  4.019715e+00    4.631515e-01   1.097277e-02
  4.021925e+00    4.700319e-01   1.109639e-02
  4.024136e+00    4.794962e-01   1.125097e-02
  4.026346e+00    5.058691e-01   1.160137e-02
  4.028557e+00    4.936456e-01   1.150513e-02
  4.030767e+00    4.980367e-01   1.160254e-02
  4.032978e+00    4.711140e-01   1.133022e-02
  4.035188e+00    5.140283e-01   1.188263e-02
  4.037399e+00    4.918216e-01   1.167122e-02
  4.039609e+00    4.625219e-01   1.136472e-02
  4.041819e+00    5.244567e-01   1.215271e-02
  4.044030e+00    4.569371e-01   1.139190e-02
  4.046240e+00    4.482740e-01   1.133156e-02
  4.048451e+00    4.881867e-01   1.187625e-02
  4.050661e+00    4.788638e-01   1.181375e-02
  4.052872e+00    4.848655e-01   1.194023e-02
  4.055082e+00    4.905849e-01   1.206448e-02
  4.057293e+00    4.988829e-01   1.222074e-02
  4.059503e+00    4.565136e-01   1.174345e-02
  4.061714e+00    4.710360e-01   1.198458e-02
  4.063924e+00    4.879020e-01   1.225428e-02
  4.066134e+00    4.901272e-01   1.234015e-02
  4.068345e+00    4.809576e-01   1.228311e-02
  4.070555e+00    4.766720e-01   1.228713e-02
  4.072766e+00    4.764133e-01   1.234445e-02
  4.074976e+00    4.860460e-01   1.253052e-02
  4.077187e+00    4.835301e-01   1.256040e-02
  4.079397e+00    4.855712e-01   1.265107e-02
  4.081608e+00    4.706138e-01   1.251956e-02
  4.083818e+00    4.805615e-01   1.271690e-02
  4.086029e+00    4.676197e-01   1.261060e-02
  4.088239e+00    5.376480e-01   1.359480e-02
  4.090449e+00    4.680156e-01   1.275273e-02
  4.092660e+00    5.021071e-01   1.328172e-02
  4.094870e+00    4.566185e-01   1.273628e-02
  4.097081e+00    4.856741e-01   1.320714e-02
  4.099291e+00    4.881568e-01   1.329555e-02
  4.101502e+00    5.045404e-01   1.356743e-02
  4.103712e+00    4.417228e-01   1.274204e-02
  4.105923e+00    4.899541e-01   1.347153e-02
  4.108133e+00    4.797846e-01   1.338233e-02
  4.110344e+00    4.798293e-01   1.343430e-02
  4.112554e+00    4.980574e-01   1.374101e-02
  4.114764e+00    4.667992e-01   1.335646e-02
  4.116975e+00    4.797753e-01   1.359406e-02
  4.119185e+00    5.198675e-01   1.420816e-02
  4.121396e+00    4.581889e-01   1.339391e-02
  4.123606e+00    4.851264e-01   1.383834e-02
  4.125817e+00    5.187299e-01   1.436964e-02
  4.128027e+00    5.020248e-01   1.419593e-02
  4.130238e+00    4.985352e-01   1.420722e-02
  4.132448e+00    5.092369e-01   1.442114e-02
  4.134659e+00    4.964176e-01   1.429975e-02
  4.136869e+00    4.951716e-01   1.434555e-02
  4.139080e+00    5.057127e-01   1.456260e-02
  4.141290e+00    5.015152e-01   1.456650e-02
  4.143500e+00    5.023978e-01   1.464643e-02
  4.145711e+00    4.911791e-01   1.454964e-02
  4.147921e+00    5.030535e-01   1.479190e-02
  4.150132e+00    5.047379e-01   1.488754e-02
  4.152342e+00    5.264069e-01   1.527737e-02
  4.154553e+00    5.033517e-01   1.501004e-02
  4.156763e+00    4.875978e-01   1.484643e-02
  4.158974e+00    5.009261e-01   1.512367e-02
  4.161184e+00    4.716635e-01   1.474802e-02
  4.163395e+00    5.015885e-01   1.528631e-02
  4.165605e+00    4.889466e-01   1.517101e-02
  4.167815e+00    4.790107e-01   1.509427e-02
  4.170026e+00    5.257227e-01   1.589646e-02
  4.172236e+00    4.953500e-01   1.551403e-02
  4.174447e+00    5.296436e-01   1.612908e-02
  4.176657e+00    5.205514e-01   1.607755e-02
  4.178868e+00    5.306162e-01   1.632405e-02
  4.181078e+00    5.360540e-01   1.650006e-02
  4.183289e+00    5.048816e-01   1.610482e-02
  4.185499e+00    4.980323e-01   1.608950e-02
  4.187710e+00    4.919673e-01   1.608490e-02
  4.189920e+00    5.052768e-01   1.639933e-02
  4.192130e+00    5.087137e-01   1.655528e-02
  4.194341e+00    4.863138e-01   1.628610e-02
  4.196551e+00    4.758106e-01   1.621141e-02
  4.198762e+00    4.903610e-01   1.656162e-02
  4.200972e+00    5.025479e-01   1.687486e-02
  4.203183e+00    4.551830e-01   1.616586e-02
  4.205393e+00    4.738613e-01   1.660393e-02
  4.207604e+00    4.721512e-01   1.668710e-02
  4.209814e+00    4.397446e-01   1.621460e-02
  4.212025e+00    4.468119e-01   1.646015e-02
  4.214235e+00    4.810964e-01   1.720103e-02
  4.216445e+00    5.787250e-01   1.900212e-02
  4.218656e+00    5.027827e-01   1.784451e-02
  4.220866e+00    5.115564e-01   1.813294e-02
  4.223077e+00    4.500863e-01   1.713952e-02
  4.225287e+00    4.757764e-01   1.775975e-02
  4.227498e+00    5.010769e-01   1.836946e-02
  4.229708e+00    4.805376e-01   1.813507e-02
  4.231919e+00    5.039808e-01   1.872612e-02
  4.234129e+00    4.370530e-01   1.758423e-02
  4.236340e+00    5.314158e-01   1.955602e-02
  4.238550e+00    4.618946e-01   1.839287e-02
  4.240761e+00    5.190029e-01   1.966910e-02
  4.242971e+00    4.698529e-01   1.888617e-02
  4.245181e+00    4.991956e-01   1.964915e-02
  4.247392e+00    6.014595e-01   2.177059e-02
  4.249602e+00    4.434946e-01   1.888016e-02
  4.251813e+00    4.138492e-01   1.841746e-02
  4.254023e+00    4.827944e-01   2.009283e-02
  4.256234e+00    5.440817e-01   2.155833e-02
  4.258444e+00    5.332938e-01   2.156697e-02
  4.260655e+00    4.751627e-01   2.058159e-02
  4.262865e+00    5.502637e-01   2.239927e-02
  4.265076e+00    4.714155e-01   2.096824e-02
  4.267286e+00    4.665107e-01   2.110676e-02
  4.269496e+00    4.313849e-01   2.054380e-02
  4.271707e+00    4.583651e-01   2.143787e-02
  4.273917e+00    4.685416e-01   2.195535e-02
  4.276128e+00    4.306455e-01   2.132789e-02
  4.278338e+00    5.595028e-01   2.463498e-02
  4.280549e+00    4.929087e-01   2.345407e-02
  4.282759e+00    4.163306e-01   2.186555e-02
  4.284970e+00    4.482037e-01   2.302224e-02
  4.287180e+00    4.973586e-01   2.454242e-02
  4.289391e+00    5.197023e-01   2.527655e-02
  4.291601e+00    4.226145e-01   2.297585e-02
  4.293811e+00    3.946956e-01   2.237661e-02
  4.296022e+00    4.915356e-01   2.517282e-02
  4.298232e+00    4.492309e-01   2.426653e-02
  4.300443e+00    4.465415e-01   2.439306e-02
  4.302653e+00    4.829087e-01   2.558726e-02
  4.304864e+00    4.585171e-01   2.514816e-02
  4.307074e+00    4.429072e-01   2.493864e-02
  4.309285e+00    3.901837e-01   2.362004e-02
  4.311495e+00    4.394673e-01   2.530140e-02
  4.313706e+00    4.806485e-01   2.670954e-02
  4.315916e+00    5.212947e-01   2.808888e-02
  4.318126e+00    4.798872e-01   2.721753e-02
  4.320337e+00    4.312331e-01   2.606197e-02
  4.322547e+00    4.814896e-01   2.783018e-02
  4.324758e+00    4.688025e-01   2.774698e-02
  4.326968e+00    4.793749e-01   2.837455e-02
  4.329179e+00    5.249429e-01   3.001893e-02
  4.331389e+00    6.236821e-01   3.309799e-02
  4.333600e+00    4.599343e-01   2.876279e-02
  4.335810e+00    4.356123e-01   2.832438e-02
  4.338021e+00    4.675064e-01   2.971863e-02
  4.340231e+00    4.390806e-01   2.916276e-02
  4.342442e+00    4.928566e-01   3.131144e-02
  4.344652e+00    4.328056e-01   2.974065e-02
  4.346862e+00    4.355335e-01   3.025099e-02
  4.349073e+00    5.305957e-01   3.387642e-02
  4.351283e+00    3.936624e-01   2.961505e-02
  4.353494e+00    3.871328e-01   2.982234e-02
  4.355704e+00    3.895988e-01   3.039973e-02
  4.357915e+00    3.598938e-01   2.970240e-02
  4.360125e+00    4.385292e-01   3.334703e-02
  4.362336e+00    3.666697e-01   3.105016e-02
  4.364546e+00    4.352222e-01   3.444155e-02
  4.366757e+00    5.175147e-01   3.830652e-02
  4.368967e+00    5.777001e-01   4.127973e-02
  4.371177e+00    4.999038e-01   3.921517e-02
  4.373388e+00    4.772613e-01   3.917471e-02
  4.375598e+00    4.310876e-01   3.807967e-02
  4.377809e+00    3.973894e-01   3.748620e-02
  4.380019e+00    3.780053e-01   3.748146e-02
  4.382230e+00    2.966454e-01   3.412955e-02
  4.384440e+00    2.817680e-01   3.421817e-02
  4.386651e+00    6.263935e-01   5.259454e-02
  4.388861e+00    4.210025e-01   4.456454e-02
  4.391072e+00    3.854623e-01   4.414126e-02
  4.393282e+00    4.894252e-01   5.166096e-02
  4.395492e+00    4.957486e-01   5.415493e-02
  4.397703e+00    5.866627e-01   6.160549e-02
  4.399913e+00    2.216288e-01   3.978623e-02
  4.402124e+00    3.359368e-01   5.175142e-02
  4.404334e+00    3.278897e-01   5.434877e-02
  4.406545e+00    3.144448e-01   5.718451e-02
  4.408755e+00    3.243692e-01   6.298654e-02
  4.410966e+00    4.055297e-01   7.795732e-02
  4.413176e+00    3.789063e-01   8.528665e-02
  4.415387e+00   -4.682073e-01            nan
  4.417597e+00   -1.904088e+00            nan
  4.419807e+00   -3.766224e-01            nan
