# == pyFAI calibration ==
# Distance Sample to Detector: 0.216 m
# PONI: 1.166e-01, 1.308e-01 m
# Rotations: 0.000000 0.000000 0.000000 rad
# 
# == Fit2d calibration ==
# Distance Sample-beamCenter: 216.000 mm
# Center: x=1744.293, y=1555.000 pix
# Tilt: 0.000 deg  TiltPlanRot: 0.000 deg
# 
# Detector Eiger 9M	 PixelSize= 7.500e-05, 7.500e-05 m
#    Detector has a mask: True 
#    Detector has a dark current: False 
#    detector has a flat field: False 
# 
# Wavelength: 9.8e-11 m
# Mask applied: from detector
# Dark current applied: False
# Flat field applied: False
# Polarization factor: None
# Normalization factor: 1.0
# 
# Headers of the input frame:
# {
# "_array_data.header_convention": "SLS_1.0",
# "_array_data.header_contents": "# Detector: Dectris Eiger 9M, S/N E-18-0102\r\n# Pixel_size 75e-6 m x 75e-6 m\r\n# Silicon sensor, thickness 0.000450 m\r\n# Exposure_time 0.024997 s\r\n# Exposure_period 0.025000 s\r\n# Count_cutoff 62318 counts\r\n# Wavelength 0.980106 A\r\n# Detector_distance 0.215992 m\r\n# Beam_xy (1555, 1744) pixels\r\n# Start_angle 0.000000 deg.\r\n# Angle_increment 0.000000 deg.",
# "Content-Type": "application/octet-stream;",
# "conversions": "x-CBF_BYTE_OFFSET",
# "Content-Transfer-Encoding": "BINARY",
# "X-Binary-Size": "10166590",
# "X-Binary-ID": "1",
# "X-Binary-Element-Type": "signed 32-bit integer",
# "X-Binary-Element-Byte-Order": "LITTLE_ENDIAN",
# "Content-MD5": "u9DeIAtzmCGqoauq5CfrLg==",
# "X-Binary-Number-of-Elements": "10166590",
# "X-Binary-Size-Fastest-Dimension": "3110",
# "X-Binary-Size-Second-Dimension": "3269",
# "X-Binary-Size-Padding": "4095"
# }
# --> H:/Proxima2a_2019-04-05/RAW_DATA/C5_gel17_position5/C5_mesh_1_data.cbf/C5_mesh_1_data.cbf000121.dat
#        q_A^-1              I           sigma 
  1.105228e-03    1.979246e+00   7.612668e-01
  3.315685e-03    1.549539e+00   4.094932e-01
  5.526141e-03    1.181079e+00   2.764468e-01
  7.736597e-03    1.471965e+00   2.607167e-01
  9.947054e-03    1.384069e+00   2.228720e-01
  1.215751e-02    1.155735e+00   1.841611e-01
  1.436797e-02    1.285922e+00   1.786830e-01
  1.657842e-02    1.229915e+00   1.626605e-01
  1.878888e-02    1.404675e+00   1.632869e-01
  2.099934e-02    1.305926e+00   1.489571e-01
  2.320979e-02    1.475889e+00   1.506120e-01
  2.542025e-02    1.408408e+00   1.405962e-01
  2.763070e-02    1.481378e+00   1.383003e-01
  2.984116e-02    1.455230e+00   1.318992e-01
  3.205162e-02    1.392499e+00   1.245041e-01
  3.426207e-02    1.416013e+00   1.214251e-01
  3.647253e-02    1.438461e+00   1.186148e-01
  3.868299e-02    1.233168e+00   1.066490e-01
  4.089344e-02    1.175864e+00   1.012883e-01
  4.310390e-02    1.450181e+00   1.095557e-01
  4.531436e-02    1.413157e+00   1.054778e-01
  4.752481e-02    1.413650e+00   1.030125e-01
  4.973527e-02    1.448818e+00   1.019433e-01
  5.194572e-02    1.388029e+00   9.763427e-02
  5.415618e-02    1.403259e+00   9.614079e-02
  5.636664e-02    1.305981e+00   9.091460e-02
  5.857709e-02    1.424979e+00   9.315770e-02
  6.078755e-02    1.585291e+00   9.645214e-02
  6.299801e-02    1.483144e+00   9.164064e-02
  6.520846e-02    1.506730e+00   9.078800e-02
  6.741892e-02    1.477107e+00   8.840073e-02
  6.962938e-02    1.411724e+00   8.504353e-02
  7.183983e-02    1.433435e+00   8.436475e-02
  7.405029e-02    1.494996e+00   8.485965e-02
  7.626074e-02    1.518525e+00   8.427551e-02
  7.847120e-02    1.460829e+00   8.148425e-02
  8.068166e-02    1.524089e+00   8.208115e-02
  8.289211e-02    1.424088e+00   7.827719e-02
  8.510257e-02    1.418266e+00   7.709535e-02
  8.731303e-02    1.477586e+00   7.768571e-02
  8.952348e-02    1.383912e+00   7.425092e-02
  9.173394e-02    1.358608e+00   7.267432e-02
  9.394439e-02    1.415119e+00   7.329018e-02
  9.615485e-02    1.518732e+00   7.504647e-02
  9.836531e-02    1.556941e+00   7.512397e-02
  1.005758e-01    1.450262e+00   7.170390e-02
  1.027862e-01    1.448956e+00   7.089496e-02
  1.049967e-01    1.526992e+00   7.200760e-02
  1.072071e-01    1.474220e+00   7.001834e-02
  1.094176e-01    1.550063e+00   7.106686e-02
  1.116280e-01    1.494663e+00   6.908937e-02
  1.138385e-01    1.586940e+00   7.049422e-02
  1.160490e-01    1.575677e+00   6.957059e-02
  1.182594e-01    1.531823e+00   6.795004e-02
  1.204699e-01    1.578334e+00   6.833765e-02
  1.226803e-01    1.562649e+00   6.737910e-02
  1.248908e-01    1.572598e+00   6.699159e-02
  1.271012e-01    1.601688e+00   6.701659e-02
  1.293117e-01    1.569270e+00   6.576464e-02
  1.315222e-01    1.646924e+00   6.680210e-02
  1.337326e-01    1.546109e+00   6.418680e-02
  1.359431e-01    1.505159e+00   6.336814e-02
  1.381535e-01    1.488974e+00   6.387255e-02
  1.403640e-01    1.425598e+00   6.276827e-02
  1.425744e-01    1.477245e+00   6.399722e-02
  1.447849e-01    1.515395e+00   6.483325e-02
  1.469953e-01    1.465687e+00   6.372113e-02
  1.492058e-01    1.522858e+00   6.487652e-02
  1.514163e-01    1.640371e+00   6.722134e-02
  1.536267e-01    1.625511e+00   6.678554e-02
  1.558372e-01    1.562104e+00   6.532545e-02
  1.580476e-01    1.683545e+00   6.765264e-02
  1.602581e-01    1.697451e+00   6.775893e-02
  1.624685e-01    1.587058e+00   6.533920e-02
  1.646790e-01    1.616580e+00   6.575473e-02
  1.668895e-01    1.737163e+00   6.796616e-02
  1.690999e-01    1.641612e+00   6.587211e-02
  1.713104e-01    1.726137e+00   6.733704e-02
  1.735208e-01    1.778234e+00   6.813312e-02
  1.757313e-01    1.759519e+00   6.756122e-02
  1.779417e-01    1.806418e+00   6.823244e-02
  1.801522e-01    1.839536e+00   6.863578e-02
  1.823626e-01    1.810546e+00   6.786612e-02
  1.845731e-01    1.886725e+00   6.905472e-02
  1.867836e-01    1.997348e+00   7.081053e-02
  1.889940e-01    2.025275e+00   7.107086e-02
  1.912045e-01    1.975755e+00   6.996220e-02
  1.934149e-01    2.070643e+00   7.138279e-02
  1.956254e-01    1.990781e+00   6.976184e-02
  1.978358e-01    1.946712e+00   6.874898e-02
  2.000463e-01    1.906985e+00   6.781837e-02
  2.022568e-01    1.905101e+00   6.756238e-02
  2.044672e-01    1.951418e+00   6.814449e-02
  2.066777e-01    1.911089e+00   6.721283e-02
  2.088881e-01    1.868497e+00   6.624222e-02
  2.110986e-01    1.797645e+00   6.475131e-02
  2.133090e-01    1.881202e+00   6.602375e-02
  2.155195e-01    1.869895e+00   6.560670e-02
  2.177300e-01    1.848942e+00   6.472557e-02
  2.199404e-01    1.879449e+00   6.353783e-02
  2.221509e-01    1.904688e+00   6.291274e-02
  2.243613e-01    1.981070e+00   6.334839e-02
  2.265718e-01    2.032532e+00   6.345870e-02
  2.287822e-01    2.001922e+00   6.235566e-02
  2.309927e-01    2.014076e+00   6.197491e-02
  2.332031e-01    2.101245e+00   6.276003e-02
  2.354136e-01    2.111462e+00   6.240255e-02
  2.376241e-01    2.100599e+00   6.175870e-02
  2.398345e-01    2.110937e+00   6.145229e-02
  2.420450e-01    2.131951e+00   6.131604e-02
  2.442554e-01    2.115007e+00   6.065116e-02
  2.464659e-01    2.093583e+00   5.993808e-02
  2.486763e-01    2.096522e+00   5.958586e-02
  2.508868e-01    2.067845e+00   5.880363e-02
  2.530973e-01    2.072691e+00   5.850751e-02
  2.553077e-01    2.053386e+00   5.788115e-02
  2.575182e-01    2.101666e+00   5.821120e-02
  2.597286e-01    2.064867e+00   5.736395e-02
  2.619391e-01    1.956750e+00   5.552044e-02
  2.641495e-01    1.973200e+00   5.544475e-02
  2.663600e-01    2.032581e+00   5.596339e-02
  2.685704e-01    2.063259e+00   5.607848e-02
  2.707809e-01    2.056558e+00   5.569018e-02
  2.729914e-01    1.987241e+00   5.445831e-02
  2.752018e-01    2.017080e+00   5.458008e-02
  2.774123e-01    1.969696e+00   5.365967e-02
  2.796227e-01    2.005080e+00   5.387171e-02
  2.818332e-01    1.942858e+00   5.276471e-02
  2.840436e-01    1.909993e+00   5.206293e-02
  2.862541e-01    1.922316e+00   5.197952e-02
  2.884646e-01    1.948493e+00   5.208390e-02
  2.906750e-01    1.901017e+00   5.120152e-02
  2.928855e-01    1.913858e+00   5.113611e-02
  2.950959e-01    1.943424e+00   5.129286e-02
  2.973064e-01    1.907552e+00   5.058891e-02
  2.995168e-01    1.915500e+00   5.046456e-02
  3.017273e-01    1.956063e+00   5.077126e-02
  3.039377e-01    1.951395e+00   5.048862e-02
  3.061482e-01    1.877019e+00   4.930289e-02
  3.083587e-01    1.848436e+00   4.871430e-02
  3.105691e-01    1.842601e+00   4.842957e-02
  3.127796e-01    1.902819e+00   4.900767e-02
  3.149900e-01    1.884429e+00   4.856709e-02
  3.172005e-01    1.868876e+00   4.816846e-02
  3.194109e-01    1.869170e+00   4.797341e-02
  3.216214e-01    1.819700e+00   4.714115e-02
  3.238319e-01    1.842127e+00   4.724286e-02
  3.260423e-01    1.829200e+00   4.688928e-02
  3.282528e-01    1.843450e+00   4.688417e-02
  3.304632e-01    1.776480e+00   4.584641e-02
  3.326737e-01    1.767200e+00   4.554805e-02
  3.348841e-01    1.801437e+00   4.580884e-02
  3.370946e-01    1.813669e+00   4.579115e-02
  3.393050e-01    1.783184e+00   4.523271e-02
  3.415155e-01    1.810492e+00   4.540636e-02
  3.437260e-01    1.811369e+00   4.524902e-02
  3.459364e-01    1.785398e+00   4.475728e-02
  3.481469e-01    1.760536e+00   4.428234e-02
  3.503573e-01    1.709648e+00   4.347869e-02
  3.525678e-01    1.756703e+00   4.391589e-02
  3.547782e-01    1.750868e+00   4.368443e-02
  3.569887e-01    1.766436e+00   4.372276e-02
  3.591992e-01    1.776389e+00   4.369062e-02
  3.614096e-01    1.715459e+00   4.278594e-02
  3.636201e-01    1.729945e+00   4.281519e-02
  3.658305e-01    1.701238e+00   4.231366e-02
  3.680410e-01    1.744263e+00   4.269800e-02
  3.702514e-01    1.774519e+00   4.292190e-02
  3.724619e-01    1.744711e+00   4.241496e-02
  3.746724e-01    1.704356e+00   4.178168e-02
  3.768828e-01    1.734565e+00   4.200850e-02
  3.790933e-01    1.759067e+00   4.216632e-02
  3.813037e-01    1.762364e+00   4.206772e-02
  3.835142e-01    1.766757e+00   4.198178e-02
  3.857246e-01    1.736557e+00   4.148673e-02
  3.879351e-01    1.722253e+00   4.118179e-02
  3.901455e-01    1.745041e+00   4.132136e-02
  3.923560e-01    1.734590e+00   4.106652e-02
  3.945665e-01    1.725928e+00   4.083393e-02
  3.967769e-01    1.728654e+00   4.073819e-02
  3.989874e-01    1.760578e+00   4.098427e-02
  4.011978e-01    1.703254e+00   4.018756e-02
  4.034083e-01    1.733526e+00   4.041863e-02
  4.056187e-01    1.766973e+00   4.068101e-02
  4.078292e-01    1.733021e+00   4.016635e-02
  4.100397e-01    1.743110e+00   4.016009e-02
  4.122501e-01    1.727739e+00   3.986303e-02
  4.144606e-01    1.702369e+00   3.945193e-02
  4.166710e-01    1.774717e+00   4.016175e-02
  4.188815e-01    1.742598e+00   3.967911e-02
  4.210919e-01    1.750534e+00   3.965279e-02
  4.233024e-01    1.793756e+00   4.002128e-02
  4.255128e-01    1.821722e+00   4.021548e-02
  4.277233e-01    1.827450e+00   4.016293e-02
  4.299338e-01    1.777068e+00   3.949147e-02
  4.321442e-01    1.811697e+00   3.976027e-02
  4.343547e-01    1.746241e+00   3.892504e-02
  4.365651e-01    1.707426e+00   3.838065e-02
  4.387756e-01    1.719525e+00   3.840852e-02
  4.409860e-01    1.737749e+00   3.850456e-02
  4.431965e-01    1.728736e+00   3.829837e-02
  4.454070e-01    1.719993e+00   3.809512e-02
  4.476174e-01    1.702089e+00   3.779228e-02
  4.498279e-01    1.707294e+00   3.774704e-02
  4.520383e-01    1.739528e+00   3.799714e-02
  4.542488e-01    1.664288e+00   3.706611e-02
  4.564592e-01    1.668417e+00   3.701247e-02
  4.586697e-01    1.740223e+00   3.770024e-02
  4.608801e-01    1.689587e+00   3.704822e-02
  4.630906e-01    1.655623e+00   3.657683e-02
  4.653011e-01    1.685113e+00   3.680412e-02
  4.675115e-01    1.681897e+00   3.667212e-02
  4.697220e-01    1.710001e+00   3.688045e-02
  4.719324e-01    1.687405e+00   3.654120e-02
  4.741429e-01    1.682609e+00   3.639521e-02
  4.763533e-01    1.668099e+00   3.614504e-02
  4.785638e-01    1.736944e+00   3.678810e-02
  4.807743e-01    1.754833e+00   3.688303e-02
  4.829847e-01    1.697619e+00   3.618515e-02
  4.851952e-01    1.659224e+00   3.568308e-02
  4.874056e-01    1.674938e+00   3.576125e-02
  4.896161e-01    1.631974e+00   3.521209e-02
  4.918265e-01    1.625009e+00   3.504960e-02
  4.940370e-01    1.627163e+00   3.498623e-02
  4.962475e-01    1.662177e+00   3.527334e-02
  4.984579e-01    1.591739e+00   3.443279e-02
  5.006684e-01    1.623395e+00   3.468869e-02
  5.028788e-01    1.650141e+00   3.488854e-02
  5.050893e-01    1.634065e+00   3.463375e-02
  5.072997e-01    1.653828e+00   3.475840e-02
  5.095102e-01    1.654598e+00   3.468322e-02
  5.117206e-01    1.647458e+00   3.452601e-02
  5.139311e-01    1.676816e+00   3.474985e-02
  5.161416e-01    1.637664e+00   3.426062e-02
  5.183520e-01    1.644964e+00   3.425528e-02
  5.205625e-01    1.642830e+00   3.415287e-02
  5.227729e-01    1.648777e+00   3.413483e-02
  5.249834e-01    1.629014e+00   3.385087e-02
  5.271938e-01    1.640216e+00   3.388779e-02
  5.294043e-01    1.707437e+00   3.449544e-02
  5.316148e-01    1.753462e+00   3.487722e-02
  5.338252e-01    1.719375e+00   3.445763e-02
  5.360357e-01    1.701850e+00   3.420352e-02
  5.382461e-01    1.682326e+00   3.392989e-02
  5.404566e-01    1.712349e+00   3.415339e-02
  5.426670e-01    1.740509e+00   3.435550e-02
  5.448775e-01    1.733506e+00   3.420971e-02
  5.470879e-01    1.771633e+00   3.450675e-02
  5.492984e-01    1.762787e+00   3.434397e-02
  5.515089e-01    1.734913e+00   3.399578e-02
  5.537193e-01    1.730702e+00   3.387969e-02
  5.559298e-01    1.738971e+00   3.388604e-02
  5.581402e-01    1.758103e+00   3.399748e-02
  5.603507e-01    1.779854e+00   3.413270e-02
  5.625611e-01    1.808474e+00   3.433136e-02
  5.647716e-01    1.793322e+00   3.411303e-02
  5.669821e-01    1.789717e+00   3.400524e-02
  5.691925e-01    1.738512e+00   3.344333e-02
  5.714030e-01    1.706974e+00   3.306793e-02
  5.736134e-01    1.687787e+00   3.281163e-02
  5.758239e-01    1.653291e+00   3.240528e-02
  5.780343e-01    1.635933e+00   3.216651e-02
  5.802448e-01    1.652726e+00   3.226351e-02
  5.824552e-01    1.624205e+00   3.191682e-02
  5.846657e-01    1.622903e+00   3.183750e-02
  5.868762e-01    1.651806e+00   3.205289e-02
  5.890866e-01    1.581634e+00   3.129962e-02
  5.912971e-01    1.538743e+00   3.080836e-02
  5.935075e-01    1.571736e+00   3.107254e-02
  5.957180e-01    1.595856e+00   3.124583e-02
  5.979284e-01    1.595236e+00   3.117598e-02
  6.001389e-01    1.605083e+00   3.120836e-02
  6.023494e-01    1.665424e+00   3.172503e-02
  6.045598e-01    1.630014e+00   3.132206e-02
  6.067703e-01    1.619662e+00   3.115965e-02
  6.089807e-01    1.627523e+00   3.117237e-02
  6.111912e-01    1.673819e+00   3.154950e-02
  6.134016e-01    1.651302e+00   3.127408e-02
  6.156121e-01    1.625370e+00   3.096588e-02
  6.178226e-01    1.631031e+00   3.095831e-02
  6.200330e-01    1.662264e+00   3.119169e-02
  6.222435e-01    1.655467e+00   3.106620e-02
  6.244539e-01    1.683298e+00   3.126488e-02
  6.266644e-01    1.682506e+00   3.119658e-02
  6.288748e-01    1.639675e+00   3.073698e-02
  6.310853e-01    1.710915e+00   3.133664e-02
  6.332957e-01    1.699062e+00   3.116763e-02
  6.355062e-01    1.667147e+00   3.081354e-02
  6.377167e-01    1.675162e+00   3.082824e-02
  6.399271e-01    1.713646e+00   3.112060e-02
  6.421376e-01    1.706135e+00   3.099305e-02
  6.443480e-01    1.704465e+00   3.091897e-02
  6.465585e-01    1.667149e+00   3.052071e-02
  6.487689e-01    1.644592e+00   3.025628e-02
  6.509794e-01    1.645551e+00   3.020803e-02
  6.531899e-01    1.568685e+00   2.943861e-02
  6.554003e-01    1.561641e+00   2.931719e-02
  6.576108e-01    1.582742e+00   2.945964e-02
  6.598212e-01    1.574484e+00   2.932809e-02
  6.620317e-01    1.596085e+00   2.947386e-02
  6.642421e-01    1.571332e+00   2.919032e-02
  6.664526e-01    1.581568e+00   2.923128e-02
  6.686630e-01    1.580986e+00   2.917187e-02
  6.708735e-01    1.609250e+00   2.937748e-02
  6.730840e-01    1.572041e+00   2.898293e-02
  6.752944e-01    1.555337e+00   2.877612e-02
  6.775049e-01    1.581654e+00   2.896585e-02
  6.797153e-01    1.564199e+00   2.875341e-02
  6.819258e-01    1.565669e+00   2.871505e-02
  6.841362e-01    1.576641e+00   2.876365e-02
  6.863467e-01    1.573375e+00   2.868239e-02
  6.885572e-01    1.592326e+00   2.880291e-02
  6.907676e-01    1.557017e+00   2.843073e-02
  6.929781e-01    1.593299e+00   2.870896e-02
  6.951885e-01    1.577526e+00   2.851590e-02
  6.973990e-01    1.600038e+00   2.866787e-02
  6.996094e-01    1.566722e+00   2.831794e-02
  7.018199e-01    1.607571e+00   2.863437e-02
  7.040303e-01    1.610864e+00   2.861335e-02
  7.062408e-01    1.570319e+00   2.820147e-02
  7.084513e-01    1.589282e+00   2.832189e-02
  7.106617e-01    1.594044e+00   2.831499e-02
  7.128722e-01    1.584686e+00   2.818292e-02
  7.150826e-01    1.585096e+00   2.813799e-02
  7.172931e-01    1.559388e+00   2.786077e-02
  7.195035e-01    1.510521e+00   2.737361e-02
  7.217140e-01    1.544570e+00   2.772937e-02
  7.239245e-01    1.499191e+00   2.754025e-02
  7.261349e-01    1.507942e+00   2.772677e-02
  7.283454e-01    1.573371e+00   2.839429e-02
  7.305558e-01    1.579895e+00   2.850719e-02
  7.327663e-01    1.578781e+00   2.853969e-02
  7.349767e-01    1.551206e+00   2.830561e-02
  7.371872e-01    1.576860e+00   2.852752e-02
  7.393976e-01    1.517258e+00   2.796920e-02
  7.416081e-01    1.520093e+00   2.797940e-02
  7.438186e-01    1.550269e+00   2.811257e-02
  7.460290e-01    1.505854e+00   2.741920e-02
  7.482395e-01    1.507667e+00   2.726820e-02
  7.504499e-01    1.535044e+00   2.738011e-02
  7.526604e-01    1.543602e+00   2.734095e-02
  7.548708e-01    1.525722e+00   2.709411e-02
  7.570813e-01    1.502111e+00   2.683388e-02
  7.592918e-01    1.502192e+00   2.680022e-02
  7.615022e-01    1.502359e+00   2.676871e-02
  7.637127e-01    1.514626e+00   2.684561e-02
  7.659231e-01    1.563294e+00   2.724161e-02
  7.681336e-01    1.582812e+00   2.737947e-02
  7.703440e-01    1.576248e+00   2.729141e-02
  7.725545e-01    1.531308e+00   2.686909e-02
  7.747650e-01    1.566208e+00   2.713545e-02
  7.769754e-01    1.585058e+00   2.724537e-02
  7.791859e-01    1.579391e+00   2.714310e-02
  7.813963e-01    1.566326e+00   2.697820e-02
  7.836068e-01    1.534955e+00   2.665551e-02
  7.858172e-01    1.561011e+00   2.683050e-02
  7.880277e-01    1.605903e+00   2.716184e-02
  7.902381e-01    1.570696e+00   2.681363e-02
  7.924486e-01    1.567402e+00   2.673589e-02
  7.946591e-01    1.553431e+00   2.656887e-02
  7.968695e-01    1.620143e+00   2.708483e-02
  7.990800e-01    1.607068e+00   2.692712e-02
  8.012904e-01    1.630224e+00   2.707350e-02
  8.035009e-01    1.625070e+00   2.698258e-02
  8.057113e-01    1.615233e+00   2.685426e-02
  8.079218e-01    1.614148e+00   2.679892e-02
  8.101323e-01    1.612973e+00   2.674367e-02
  8.123427e-01    1.624313e+00   2.679177e-02
  8.145532e-01    1.569822e+00   2.629348e-02
  8.167636e-01    1.594250e+00   2.645270e-02
  8.189741e-01    1.617128e+00   2.659742e-02
  8.211845e-01    1.638786e+00   2.673005e-02
  8.233950e-01    1.625798e+00   2.658064e-02
  8.256054e-01    1.627550e+00   2.655086e-02
  8.278159e-01    1.727257e+00   2.730691e-02
  8.300264e-01    1.634580e+00   2.652120e-02
  8.322368e-01    1.649501e+00   2.659870e-02
  8.344473e-01    1.629998e+00   2.639772e-02
  8.366577e-01    1.647476e+00   2.649619e-02
  8.388682e-01    1.625237e+00   2.627469e-02
  8.410786e-01    1.616675e+00   2.616360e-02
  8.432891e-01    1.676677e+00   2.660238e-02
  8.454996e-01    1.640599e+00   2.627297e-02
  8.477100e-01    1.643631e+00   2.625551e-02
  8.499205e-01    1.639016e+00   2.617744e-02
  8.521309e-01    1.645647e+00   2.618946e-02
  8.543414e-01    1.586452e+00   2.567399e-02
  8.565518e-01    1.609179e+00   2.581698e-02
  8.587623e-01    1.586007e+00   2.559051e-02
  8.609727e-01    1.608340e+00   2.573009e-02
  8.631832e-01    1.570567e+00   2.538696e-02
  8.653937e-01    1.586582e+00   2.547684e-02
  8.676041e-01    1.550860e+00   2.515044e-02
  8.698146e-01    1.526787e+00   2.491629e-02
  8.720250e-01    1.566574e+00   2.520038e-02
  8.742355e-01    1.603142e+00   2.545403e-02
  8.764459e-01    1.566812e+00   2.512557e-02
  8.786564e-01    1.578009e+00   2.517759e-02
  8.808669e-01    1.563583e+00   2.502426e-02
  8.830773e-01    1.530230e+00   2.471864e-02
  8.852878e-01    1.549114e+00   2.483340e-02
  8.874982e-01    1.556781e+00   2.485867e-02
  8.897087e-01    1.551726e+00   2.478116e-02
  8.919191e-01    1.545727e+00   2.469612e-02
  8.941296e-01    1.535948e+00   2.458134e-02
  8.963401e-01    1.557904e+00   2.472046e-02
  8.985505e-01    1.568185e+00   2.476530e-02
  9.007610e-01    1.593529e+00   2.492797e-02
  9.029714e-01    1.566298e+00   2.467859e-02
  9.051819e-01    1.580146e+00   2.475046e-02
  9.073923e-01    1.571327e+00   2.464505e-02
  9.096028e-01    1.580783e+00   2.468438e-02
  9.118132e-01    1.583165e+00   2.466696e-02
  9.140237e-01    1.568210e+00   2.451391e-02
  9.162342e-01    1.591963e+00   2.466439e-02
  9.184446e-01    1.584571e+00   2.457147e-02
  9.206551e-01    1.586470e+00   2.455077e-02
  9.228655e-01    1.579744e+00   2.446363e-02
  9.250760e-01    1.573585e+00   2.438087e-02
  9.272864e-01    1.557607e+00   2.422299e-02
  9.294969e-01    1.606522e+00   2.456454e-02
  9.317074e-01    1.605890e+00   2.452501e-02
  9.339178e-01    1.618583e+00   2.458811e-02
  9.361283e-01    1.642200e+00   2.473034e-02
  9.383387e-01    1.652023e+00   2.477046e-02
  9.405492e-01    1.626975e+00   2.454764e-02
  9.427596e-01    1.627827e+00   2.451870e-02
  9.449701e-01    1.667307e+00   2.478053e-02
  9.471805e-01    1.660726e+00   2.469656e-02
  9.493910e-01    1.673479e+00   2.475716e-02
  9.516015e-01    1.696750e+00   2.489391e-02
  9.538119e-01    1.685539e+00   2.477753e-02
  9.560224e-01    1.741225e+00   2.514804e-02
  9.582328e-01    1.749914e+00   2.517690e-02
  9.604433e-01    1.777931e+00   2.534170e-02
  9.626537e-01    1.805236e+00   2.550121e-02
  9.648642e-01    1.841926e+00   2.572380e-02
  9.670747e-01    1.841551e+00   2.568570e-02
  9.692851e-01    1.817346e+00   2.548243e-02
  9.714956e-01    1.870855e+00   2.581838e-02
  9.737060e-01    1.868114e+00   2.576558e-02
  9.759165e-01    1.875335e+00   2.577893e-02
  9.781269e-01    1.890751e+00   2.585080e-02
  9.803374e-01    1.865353e+00   2.564109e-02
  9.825478e-01    1.873677e+00   2.566433e-02
  9.847583e-01    1.900450e+00   2.581193e-02
  9.869688e-01    1.885135e+00   2.567333e-02
  9.891792e-01    1.845047e+00   2.536512e-02
  9.913897e-01    1.822125e+00   2.517304e-02
  9.936001e-01    1.794549e+00   2.494914e-02
  9.958106e-01    1.732575e+00   2.448123e-02
  9.980210e-01    1.710705e+00   2.429464e-02
  1.000231e+00    1.690697e+00   2.428448e-02
  1.002442e+00    1.662634e+00   2.421004e-02
  1.004652e+00    1.631217e+00   2.404711e-02
  1.006863e+00    1.634099e+00   2.411827e-02
  1.009073e+00    1.630612e+00   2.412943e-02
  1.011284e+00    1.579055e+00   2.377663e-02
  1.013494e+00    1.545957e+00   2.354946e-02
  1.015705e+00    1.536775e+00   2.350160e-02
  1.017915e+00    1.547826e+00   2.360221e-02
  1.020126e+00    1.541202e+00   2.356757e-02
  1.022336e+00    1.523973e+00   2.344701e-02
  1.024547e+00    1.523407e+00   2.345379e-02
  1.026757e+00    1.489223e+00   2.319736e-02
  1.028967e+00    1.488371e+00   2.319826e-02
  1.031178e+00    1.476992e+00   2.311546e-02
  1.033388e+00    1.468810e+00   2.305628e-02
  1.035599e+00    1.505404e+00   2.334512e-02
  1.037809e+00    1.509080e+00   2.337688e-02
  1.040020e+00    1.449280e+00   2.291025e-02
  1.042230e+00    1.474684e+00   2.311206e-02
  1.044441e+00    1.444430e+00   2.287358e-02
  1.046651e+00    1.442203e+00   2.285607e-02
  1.048862e+00    1.458135e+00   2.298120e-02
  1.051072e+00    1.436110e+00   2.280468e-02
  1.053282e+00    1.415438e+00   2.263903e-02
  1.055493e+00    1.407746e+00   2.257326e-02
  1.057703e+00    1.430085e+00   2.275014e-02
  1.059914e+00    1.485394e+00   2.318167e-02
  1.062124e+00    1.462603e+00   2.299914e-02
  1.064335e+00    1.457111e+00   2.295248e-02
  1.066545e+00    1.448583e+00   2.287932e-02
  1.068756e+00    1.425449e+00   2.269221e-02
  1.070966e+00    1.421622e+00   2.265531e-02
  1.073177e+00    1.420989e+00   2.264433e-02
  1.075387e+00    1.428216e+00   2.269667e-02
  1.077597e+00    1.437253e+00   2.276120e-02
  1.079808e+00    1.428012e+00   2.255682e-02
  1.082018e+00    1.399826e+00   2.214816e-02
  1.084229e+00    1.370427e+00   2.180773e-02
  1.086439e+00    1.404224e+00   2.198910e-02
  1.088650e+00    1.443168e+00   2.221656e-02
  1.090860e+00    1.439602e+00   2.212182e-02
  1.093071e+00    1.421623e+00   2.192170e-02
  1.095281e+00    1.413623e+00   2.180332e-02
  1.097492e+00    1.387630e+00   2.154813e-02
  1.099702e+00    1.387628e+00   2.149765e-02
  1.101912e+00    1.415621e+00   2.166498e-02
  1.104123e+00    1.397801e+00   2.148062e-02
  1.106333e+00    1.357649e+00   2.112662e-02
  1.108544e+00    1.354448e+00   2.105860e-02
  1.110754e+00    1.388793e+00   2.128148e-02
  1.112965e+00    1.386505e+00   2.122393e-02
  1.115175e+00    1.389713e+00   2.120772e-02
  1.117386e+00    1.435899e+00   2.151769e-02
  1.119596e+00    1.396456e+00   2.118245e-02
  1.121807e+00    1.392753e+00   2.111575e-02
  1.124017e+00    1.396586e+00   2.110829e-02
  1.126228e+00    1.385059e+00   2.098549e-02
  1.128438e+00    1.398800e+00   2.105260e-02
  1.130648e+00    1.375508e+00   2.084256e-02
  1.132859e+00    1.364056e+00   2.072165e-02
  1.135069e+00    1.342835e+00   2.052573e-02
  1.137280e+00    1.366598e+00   2.067383e-02
  1.139490e+00    1.342232e+00   2.045617e-02
  1.141701e+00    1.337701e+00   2.038906e-02
  1.143911e+00    1.357768e+00   2.050986e-02
  1.146122e+00    1.363034e+00   2.051779e-02
  1.148332e+00    1.340005e+00   2.031232e-02
  1.150543e+00    1.339551e+00   2.027844e-02
  1.152753e+00    1.353144e+00   2.035051e-02
  1.154963e+00    1.343711e+00   2.024873e-02
  1.157174e+00    1.362159e+00   2.035723e-02
  1.159384e+00    1.348851e+00   2.022795e-02
  1.161595e+00    1.341028e+00   2.013967e-02
  1.163805e+00    1.340383e+00   2.010587e-02
  1.166016e+00    1.357022e+00   2.020097e-02
  1.168226e+00    1.378160e+00   2.032861e-02
  1.170437e+00    1.364754e+00   2.020089e-02
  1.172647e+00    1.351612e+00   2.007465e-02
  1.174858e+00    1.358856e+00   2.010033e-02
  1.177068e+00    1.343839e+00   1.996090e-02
  1.179278e+00    1.315740e+00   1.972301e-02
  1.181489e+00    1.366022e+00   2.006925e-02
  1.183699e+00    1.358875e+00   1.998914e-02
  1.185910e+00    1.335917e+00   1.979200e-02
  1.188120e+00    1.359622e+00   1.994011e-02
  1.190331e+00    1.349794e+00   1.984122e-02
  1.192541e+00    1.325710e+00   1.963631e-02
  1.194752e+00    1.360435e+00   1.986469e-02
  1.196962e+00    1.341034e+00   1.969692e-02
  1.199173e+00    1.318689e+00   1.950593e-02
  1.201383e+00    1.340334e+00   1.963829e-02
  1.203593e+00    1.353241e+00   1.970777e-02
  1.205804e+00    1.345918e+00   1.962852e-02
  1.208014e+00    1.319921e+00   1.941147e-02
  1.210225e+00    1.335801e+00   1.950268e-02
  1.212435e+00    1.337605e+00   1.949119e-02
  1.214646e+00    1.333169e+00   1.943288e-02
  1.216856e+00    1.331331e+00   1.939419e-02
  1.219067e+00    1.337059e+00   1.941153e-02
  1.221277e+00    1.334640e+00   1.936905e-02
  1.223488e+00    1.344334e+00   1.941359e-02
  1.225698e+00    1.327356e+00   1.926395e-02
  1.227909e+00    1.331489e+00   1.926392e-02
  1.230119e+00    1.362879e+00   1.945769e-02
  1.232329e+00    1.347333e+00   1.931572e-02
  1.234540e+00    1.349816e+00   1.930320e-02
  1.236750e+00    1.343057e+00   1.922465e-02
  1.238961e+00    1.335649e+00   1.914471e-02
  1.241171e+00    1.314310e+00   1.896732e-02
  1.243382e+00    1.308182e+00   1.889988e-02
  1.245592e+00    1.349003e+00   1.916842e-02
  1.247803e+00    1.316797e+00   1.891487e-02
  1.250013e+00    1.301735e+00   1.878325e-02
  1.252224e+00    1.326780e+00   1.894003e-02
  1.254434e+00    1.313310e+00   1.882024e-02
  1.256644e+00    1.288579e+00   1.861952e-02
  1.258855e+00    1.289891e+00   1.860624e-02
  1.261065e+00    1.317494e+00   1.878118e-02
  1.263276e+00    1.328822e+00   1.883898e-02
  1.265486e+00    1.340392e+00   1.889804e-02
  1.267697e+00    1.338018e+00   1.885837e-02
  1.269907e+00    1.372706e+00   1.907837e-02
  1.272118e+00    1.358094e+00   1.895393e-02
  1.274328e+00    1.383065e+00   1.910436e-02
  1.276539e+00    1.348540e+00   1.884165e-02
  1.278749e+00    1.336909e+00   1.873803e-02
  1.280959e+00    1.339595e+00   1.873439e-02
  1.283170e+00    1.346437e+00   1.875979e-02
  1.285380e+00    1.356308e+00   1.880590e-02
  1.287591e+00    1.350418e+00   1.874302e-02
  1.289801e+00    1.341683e+00   1.866113e-02
  1.292012e+00    1.336234e+00   1.860619e-02
  1.294222e+00    1.320361e+00   1.847928e-02
  1.296433e+00    1.360087e+00   1.873955e-02
  1.298643e+00    1.343576e+00   1.860906e-02
  1.300854e+00    1.323007e+00   1.844980e-02
  1.303064e+00    1.321536e+00   1.842052e-02
  1.305274e+00    1.339035e+00   1.852072e-02
  1.307485e+00    1.324953e+00   1.840173e-02
  1.309695e+00    1.327562e+00   1.839778e-02
  1.311906e+00    1.340394e+00   1.846485e-02
  1.314116e+00    1.358878e+00   1.857088e-02
  1.316327e+00    1.341186e+00   1.842797e-02
  1.318537e+00    1.365846e+00   1.857460e-02
  1.320748e+00    1.383331e+00   1.867129e-02
  1.322958e+00    1.400295e+00   1.876454e-02
  1.325169e+00    1.375561e+00   1.857686e-02
  1.327379e+00    1.350905e+00   1.838781e-02
  1.329589e+00    1.337084e+00   1.827252e-02
  1.331800e+00    1.359876e+00   1.840682e-02
  1.334010e+00    1.374121e+00   1.848214e-02
  1.336221e+00    1.405915e+00   1.867254e-02
  1.338431e+00    1.416998e+00   1.872464e-02
  1.340642e+00    1.414644e+00   1.877474e-02
  1.342852e+00    1.396423e+00   1.875585e-02
  1.345063e+00    1.357149e+00   1.853983e-02
  1.347273e+00    1.349903e+00   1.852550e-02
  1.349484e+00    1.361179e+00   1.863049e-02
  1.351694e+00    1.384728e+00   1.881397e-02
  1.353905e+00    1.364960e+00   1.869730e-02
  1.356115e+00    1.345728e+00   1.858013e-02
  1.358325e+00    1.335803e+00   1.852473e-02
  1.360536e+00    1.340646e+00   1.856986e-02
  1.362746e+00    1.350752e+00   1.864929e-02
  1.364957e+00    1.320446e+00   1.844649e-02
  1.367167e+00    1.321685e+00   1.846220e-02
  1.369378e+00    1.324770e+00   1.848972e-02
  1.371588e+00    1.312486e+00   1.840887e-02
  1.373799e+00    1.327870e+00   1.852010e-02
  1.376009e+00    1.325977e+00   1.851026e-02
  1.378220e+00    1.333066e+00   1.856222e-02
  1.380430e+00    1.325938e+00   1.851522e-02
  1.382640e+00    1.311369e+00   1.841412e-02
  1.384851e+00    1.313252e+00   1.842821e-02
  1.387061e+00    1.316784e+00   1.845328e-02
  1.389272e+00    1.305328e+00   1.837303e-02
  1.391482e+00    1.308661e+00   1.839580e-02
  1.393693e+00    1.319422e+00   1.847038e-02
  1.395903e+00    1.310848e+00   1.840877e-02
  1.398114e+00    1.319655e+00   1.846910e-02
  1.400324e+00    1.321423e+00   1.847932e-02
  1.402535e+00    1.294891e+00   1.829053e-02
  1.404745e+00    1.302274e+00   1.834019e-02
  1.406955e+00    1.285217e+00   1.821699e-02
  1.409166e+00    1.299605e+00   1.831532e-02
  1.411376e+00    1.297768e+00   1.829924e-02
  1.413587e+00    1.278014e+00   1.815561e-02
  1.415797e+00    1.260014e+00   1.802377e-02
  1.418008e+00    1.273778e+00   1.808001e-02
  1.420218e+00    1.270939e+00   1.791007e-02
  1.422429e+00    1.261292e+00   1.775695e-02
  1.424639e+00    1.278166e+00   1.781042e-02
  1.426850e+00    1.291574e+00   1.784845e-02
  1.429060e+00    1.259763e+00   1.757850e-02
  1.431270e+00    1.243052e+00   1.741767e-02
  1.433481e+00    1.290041e+00   1.770252e-02
  1.435691e+00    1.302790e+00   1.775088e-02
  1.437902e+00    1.324797e+00   1.786292e-02
  1.440112e+00    1.335023e+00   1.789552e-02
  1.442323e+00    1.297542e+00   1.760912e-02
  1.444533e+00    1.298860e+00   1.758512e-02
  1.446744e+00    1.320354e+00   1.769829e-02
  1.448954e+00    1.300794e+00   1.753617e-02
  1.451165e+00    1.295344e+00   1.746933e-02
  1.453375e+00    1.277599e+00   1.732114e-02
  1.455586e+00    1.276393e+00   1.728472e-02
  1.457796e+00    1.280186e+00   1.728275e-02
  1.460006e+00    1.300520e+00   1.739189e-02
  1.462217e+00    1.306846e+00   1.740754e-02
  1.464427e+00    1.281297e+00   1.721083e-02
  1.466638e+00    1.293370e+00   1.726614e-02
  1.468848e+00    1.301732e+00   1.729622e-02
  1.471059e+00    1.299277e+00   1.725452e-02
  1.473269e+00    1.301656e+00   1.724561e-02
  1.475480e+00    1.295027e+00   1.717766e-02
  1.477690e+00    1.266705e+00   1.696493e-02
  1.479901e+00    1.285070e+00   1.706349e-02
  1.482111e+00    1.255860e+00   1.684521e-02
  1.484321e+00    1.294672e+00   1.708019e-02
  1.486532e+00    1.250165e+00   1.676184e-02
  1.488742e+00    1.257606e+00   1.678905e-02
  1.490953e+00    1.260853e+00   1.678815e-02
  1.493163e+00    1.267347e+00   1.680902e-02
  1.495374e+00    1.243362e+00   1.662787e-02
  1.497584e+00    1.221853e+00   1.646212e-02
  1.499795e+00    1.248834e+00   1.662132e-02
  1.502005e+00    1.246203e+00   1.658225e-02
  1.504216e+00    1.221496e+00   1.639633e-02
  1.506426e+00    1.214492e+00   1.632879e-02
  1.508636e+00    1.253352e+00   1.656755e-02
  1.510847e+00    1.235813e+00   1.642961e-02
  1.513057e+00    1.217678e+00   1.628389e-02
  1.515268e+00    1.248428e+00   1.646257e-02
  1.517478e+00    1.250219e+00   1.644927e-02
  1.519689e+00    1.222373e+00   1.624041e-02
  1.521899e+00    1.203001e+00   1.608857e-02
  1.524110e+00    1.248587e+00   1.637024e-02
  1.526320e+00    1.277795e+00   1.654084e-02
  1.528531e+00    1.257085e+00   1.638644e-02
  1.530741e+00    1.269941e+00   1.645071e-02
  1.532951e+00    1.274136e+00   1.645809e-02
  1.535162e+00    1.251322e+00   1.639674e-02
  1.537372e+00    1.233199e+00   1.634407e-02
  1.539583e+00    1.225268e+00   1.632530e-02
  1.541793e+00    1.256939e+00   1.654194e-02
  1.544004e+00    1.267341e+00   1.661051e-02
  1.546214e+00    1.238419e+00   1.641838e-02
  1.548425e+00    1.249428e+00   1.649145e-02
  1.550635e+00    1.269819e+00   1.663526e-02
  1.552846e+00    1.256688e+00   1.655873e-02
  1.555056e+00    1.264151e+00   1.656601e-02
  1.557266e+00    1.273858e+00   1.651775e-02
  1.559477e+00    1.280462e+00   1.650055e-02
  1.561687e+00    1.261063e+00   1.634420e-02
  1.563898e+00    1.247465e+00   1.623868e-02
  1.566108e+00    1.245382e+00   1.620912e-02
  1.568319e+00    1.242169e+00   1.617262e-02
  1.570529e+00    1.247226e+00   1.618034e-02
  1.572740e+00    1.264590e+00   1.626472e-02
  1.574950e+00    1.290552e+00   1.640405e-02
  1.577161e+00    1.290252e+00   1.637621e-02
  1.579371e+00    1.289547e+00   1.634764e-02
  1.581582e+00    1.289818e+00   1.632924e-02
  1.583792e+00    1.283056e+00   1.626807e-02
  1.586002e+00    1.287647e+00   1.627923e-02
  1.588213e+00    1.309598e+00   1.639971e-02
  1.590423e+00    1.314065e+00   1.640702e-02
  1.592634e+00    1.292488e+00   1.624975e-02
  1.594844e+00    1.268086e+00   1.607399e-02
  1.597055e+00    1.257812e+00   1.598812e-02
  1.599265e+00    1.255398e+00   1.595194e-02
  1.601476e+00    1.265820e+00   1.599750e-02
  1.603686e+00    1.260255e+00   1.594238e-02
  1.605897e+00    1.267244e+00   1.596613e-02
  1.608107e+00    1.274873e+00   1.599427e-02
  1.610317e+00    1.269848e+00   1.594315e-02
  1.612528e+00    1.261464e+00   1.587107e-02
  1.614738e+00    1.241005e+00   1.572281e-02
  1.616949e+00    1.232504e+00   1.564985e-02
  1.619159e+00    1.218819e+00   1.554403e-02
  1.621370e+00    1.234692e+00   1.562633e-02
  1.623580e+00    1.247592e+00   1.568917e-02
  1.625791e+00    1.246157e+00   1.566161e-02
  1.628001e+00    1.229527e+00   1.553830e-02
  1.630212e+00    1.206631e+00   1.537508e-02
  1.632422e+00    1.203036e+00   1.533413e-02
  1.634632e+00    1.202110e+00   1.531079e-02
  1.636843e+00    1.175660e+00   1.512387e-02
  1.639053e+00    1.187381e+00   1.518168e-02
  1.641264e+00    1.181682e+00   1.512803e-02
  1.643474e+00    1.170648e+00   1.503979e-02
  1.645685e+00    1.153272e+00   1.491113e-02
  1.647895e+00    1.157451e+00   1.492150e-02
  1.650106e+00    1.158071e+00   1.490845e-02
  1.652316e+00    1.147430e+00   1.482331e-02
  1.654527e+00    1.134315e+00   1.472175e-02
  1.656737e+00    1.130825e+00   1.468255e-02
  1.658947e+00    1.141496e+00   1.473533e-02
  1.661158e+00    1.125101e+00   1.461288e-02
  1.663368e+00    1.089563e+00   1.436445e-02
  1.665579e+00    1.086297e+00   1.432698e-02
  1.667789e+00    1.096267e+00   1.437650e-02
  1.670000e+00    1.098723e+00   1.437722e-02
  1.672210e+00    1.071711e+00   1.418376e-02
  1.674421e+00    1.086346e+00   1.426510e-02
  1.676631e+00    1.065466e+00   1.411171e-02
  1.678842e+00    1.091174e+00   1.426523e-02
  1.681052e+00    1.088639e+00   1.423331e-02
  1.683263e+00    1.070551e+00   1.409957e-02
  1.685473e+00    1.055748e+00   1.398680e-02
  1.687683e+00    1.073257e+00   1.408695e-02
  1.689894e+00    1.073531e+00   1.407304e-02
  1.692104e+00    1.067743e+00   1.402019e-02
  1.694315e+00    1.065397e+00   1.399032e-02
  1.696525e+00    1.063165e+00   1.396055e-02
  1.698736e+00    1.093095e+00   1.414066e-02
  1.700946e+00    1.092389e+00   1.412076e-02
  1.703157e+00    1.058109e+00   1.388278e-02
  1.705367e+00    1.026397e+00   1.365886e-02
  1.707578e+00    1.007376e+00   1.351741e-02
  1.709788e+00    1.022467e+00   1.360431e-02
  1.711998e+00    1.017000e+00   1.355308e-02
  1.714209e+00    1.011071e+00   1.349927e-02
  1.716419e+00    1.020810e+00   1.354995e-02
  1.718630e+00    9.966459e-01   1.337460e-02
  1.720840e+00    1.007865e+00   1.343562e-02
  1.723051e+00    9.784554e-01   1.322461e-02
  1.725261e+00    9.839376e-01   1.324718e-02
  1.727472e+00    9.783652e-01   1.319573e-02
  1.729682e+00    9.939456e-01   1.328706e-02
  1.731893e+00    9.675608e-01   1.309593e-02
  1.734103e+00    9.604058e-01   1.303395e-02
  1.736313e+00    9.560416e-01   1.299065e-02
  1.738524e+00    9.762503e-01   1.311357e-02
  1.740734e+00    9.708556e-01   1.306380e-02
  1.742945e+00    9.463957e-01   1.288507e-02
  1.745155e+00    9.553760e-01   1.293285e-02
  1.747366e+00    9.660230e-01   1.299108e-02
  1.749576e+00    9.508554e-01   1.287525e-02
  1.751787e+00    9.523349e-01   1.287214e-02
  1.753997e+00    9.472913e-01   1.282484e-02
  1.756208e+00    9.550340e-01   1.286409e-02
  1.758418e+00    9.432572e-01   1.277161e-02
  1.760628e+00    9.428133e-01   1.275543e-02
  1.762839e+00    9.226573e-01   1.260544e-02
  1.765049e+00    9.148410e-01   1.253911e-02
  1.767260e+00    9.264896e-01   1.260612e-02
  1.769470e+00    9.215053e-01   1.255941e-02
  1.771681e+00    9.076337e-01   1.245169e-02
  1.773891e+00    9.055359e-01   1.242455e-02
  1.776102e+00    9.022781e-01   1.238962e-02
  1.778312e+00    9.153052e-01   1.246621e-02
  1.780523e+00    8.986660e-01   1.233994e-02
  1.782733e+00    8.992020e-01   1.233121e-02
  1.784944e+00    8.790684e-01   1.217989e-02
  1.787154e+00    8.805773e-01   1.217815e-02
  1.789364e+00    8.878815e-01   1.221636e-02
  1.791575e+00    8.975073e-01   1.227007e-02
  1.793785e+00    8.878940e-01   1.219202e-02
  1.795996e+00    8.886603e-01   1.218497e-02
  1.798206e+00    8.837376e-01   1.213892e-02
  1.800417e+00    8.799020e-01   1.210010e-02
  1.802627e+00    8.828776e-01   1.210882e-02
  1.804838e+00    8.843852e-01   1.210724e-02
  1.807048e+00    8.904977e-01   1.213628e-02
  1.809259e+00    8.792282e-01   1.204587e-02
  1.811469e+00    8.635437e-01   1.192332e-02
  1.813679e+00    8.582253e-01   1.187193e-02
  1.815890e+00    8.642446e-01   1.189902e-02
  1.818100e+00    8.742633e-01   1.195288e-02
  1.820311e+00    8.577900e-01   1.182528e-02
  1.822521e+00    8.529110e-01   1.177705e-02
  1.824732e+00    8.614146e-01   1.182104e-02
  1.826942e+00    8.726526e-01   1.188567e-02
  1.829153e+00    8.672074e-01   1.183697e-02
  1.831363e+00    8.598825e-01   1.177499e-02
  1.833574e+00    8.603824e-01   1.176687e-02
  1.835784e+00    8.802263e-01   1.189037e-02
  1.837994e+00    8.820738e-01   1.189109e-02
  1.840205e+00    8.952254e-01   1.196811e-02
  1.842415e+00    8.987150e-01   1.197948e-02
  1.844626e+00    8.898584e-01   1.190862e-02
  1.846836e+00    8.747125e-01   1.179536e-02
  1.849047e+00    8.760518e-01   1.179270e-02
  1.851257e+00    9.024265e-01   1.195913e-02
  1.853468e+00    8.912796e-01   1.187610e-02
  1.855678e+00    8.752857e-01   1.176010e-02
  1.857889e+00    8.606495e-01   1.165285e-02
  1.860099e+00    8.705176e-01   1.171076e-02
  1.862309e+00    8.793905e-01   1.176167e-02
  1.864520e+00    8.735310e-01   1.171376e-02
  1.866730e+00    8.578888e-01   1.159900e-02
  1.868941e+00    8.509837e-01   1.154131e-02
  1.871151e+00    8.546974e-01   1.155503e-02
  1.873362e+00    8.519683e-01   1.152522e-02
  1.875572e+00    8.518544e-01   1.151350e-02
  1.877783e+00    8.498063e-01   1.148821e-02
  1.879993e+00    8.641698e-01   1.157362e-02
  1.882204e+00    8.405641e-01   1.140360e-02
  1.884414e+00    8.320788e-01   1.133487e-02
  1.886624e+00    8.332813e-01   1.133208e-02
  1.888835e+00    8.296511e-01   1.129647e-02
  1.891045e+00    8.365830e-01   1.133267e-02
  1.893256e+00    8.610303e-01   1.148585e-02
  1.895466e+00    8.617450e-01   1.147929e-02
  1.897677e+00    8.604813e-01   1.145979e-02
  1.899887e+00    8.446839e-01   1.134306e-02
  1.902098e+00    8.392155e-01   1.129538e-02
  1.904308e+00    8.588477e-01   1.141597e-02
  1.906519e+00    8.581833e-01   1.140055e-02
  1.908729e+00    8.569667e-01   1.138168e-02
  1.910940e+00    8.421830e-01   1.127184e-02
  1.913150e+00    8.340185e-01   1.120644e-02
  1.915360e+00    8.509457e-01   1.130879e-02
  1.917571e+00    8.396164e-01   1.122229e-02
  1.919781e+00    8.436424e-01   1.123832e-02
  1.921992e+00    8.390208e-01   1.119676e-02
  1.924202e+00    8.374803e-01   1.117559e-02
  1.926413e+00    8.124511e-01   1.099705e-02
  1.928623e+00    8.125746e-01   1.098734e-02
  1.930834e+00    8.119296e-01   1.097256e-02
  1.933044e+00    8.081545e-01   1.093637e-02
  1.935255e+00    8.167257e-01   1.098385e-02
  1.937465e+00    8.134784e-01   1.095157e-02
  1.939675e+00    8.007585e-01   1.085479e-02
  1.941886e+00    8.192726e-01   1.096919e-02
  1.944096e+00    7.850505e-01   1.072760e-02
  1.946307e+00    7.894843e-01   1.074757e-02
  1.948517e+00    7.866486e-01   1.071790e-02
  1.950728e+00    7.817912e-01   1.067461e-02
  1.952938e+00    7.791791e-01   1.064680e-02
  1.955149e+00    7.984113e-01   1.076715e-02
  1.957359e+00    7.832153e-01   1.065423e-02
  1.959570e+00    7.837324e-01   1.064695e-02
  1.961780e+00    7.867568e-01   1.065760e-02
  1.963990e+00    7.909969e-01   1.067616e-02
  1.966201e+00    7.790415e-01   1.058520e-02
  1.968411e+00    7.743884e-01   1.054348e-02
  1.970622e+00    7.835951e-01   1.059591e-02
  1.972832e+00    7.796163e-01   1.055904e-02
  1.975043e+00    7.783843e-01   1.054071e-02
  1.977253e+00    7.676371e-01   1.045784e-02
  1.979464e+00    7.870378e-01   1.057911e-02
  1.981674e+00    7.722933e-01   1.046938e-02
  1.983885e+00    7.666908e-01   1.042139e-02
  1.986095e+00    7.753298e-01   1.047025e-02
  1.988305e+00    8.134395e-01   1.071441e-02
  1.990516e+00    7.872750e-01   1.053070e-02
  1.992726e+00    7.823188e-01   1.048781e-02
  1.994937e+00    7.606502e-01   1.033154e-02
  1.997147e+00    7.646754e-01   1.034914e-02
  1.999358e+00    7.658659e-01   1.034742e-02
  2.001568e+00    7.733822e-01   1.038724e-02
  2.003779e+00    7.675444e-01   1.033612e-02
  2.005989e+00    7.694478e-01   1.033689e-02
  2.008200e+00    7.707088e-01   1.033385e-02
  2.010410e+00    7.607457e-01   1.025515e-02
  2.012621e+00    7.573750e-01   1.022079e-02
  2.014831e+00    7.571306e-01   1.020774e-02
  2.017041e+00    7.563709e-01   1.019231e-02
  2.019252e+00    7.649853e-01   1.024021e-02
  2.021462e+00    7.764573e-01   1.030715e-02
  2.023673e+00    7.633581e-01   1.021046e-02
  2.025883e+00    7.689563e-01   1.023827e-02
  2.028094e+00    7.584519e-01   1.015849e-02
  2.030304e+00    7.656330e-01   1.019690e-02
  2.032515e+00    7.480389e-01   1.006984e-02
  2.034725e+00    7.643738e-01   1.016970e-02
  2.036936e+00    7.707182e-01   1.020242e-02
  2.039146e+00    7.569871e-01   1.010156e-02
  2.041356e+00    7.700901e-01   1.017887e-02
  2.043567e+00    7.506893e-01   1.004057e-02
  2.045777e+00    7.585734e-01   1.008387e-02
  2.047988e+00    7.817686e-01   1.022736e-02
  2.050198e+00    7.778592e-01   1.019320e-02
  2.052409e+00    7.898216e-01   1.026341e-02
  2.054619e+00    7.974910e-01   1.030555e-02
  2.056830e+00    7.705823e-01   1.012293e-02
  2.059040e+00    7.596728e-01   1.004346e-02
  2.061251e+00    7.724332e-01   1.012009e-02
  2.063461e+00    7.701768e-01   1.009761e-02
  2.065671e+00    7.628433e-01   1.004062e-02
  2.067882e+00    7.559977e-01   9.986401e-03
  2.070092e+00    7.592810e-01   9.998812e-03
  2.072303e+00    7.551649e-01   9.962471e-03
  2.074513e+00    7.529052e-01   9.938200e-03
  2.076724e+00    7.345137e-01   9.806654e-03
  2.078934e+00    7.573271e-01   9.948696e-03
  2.081145e+00    7.322630e-01   9.773677e-03
  2.083355e+00    7.309790e-01   9.755992e-03
  2.085566e+00    7.324515e-01   9.756944e-03
  2.087776e+00    7.480066e-01   9.850453e-03
  2.089986e+00    7.334622e-01   9.745472e-03
  2.092197e+00    7.212658e-01   9.655234e-03
  2.094407e+00    7.335851e-01   9.728130e-03
  2.096618e+00    7.170953e-01   9.609394e-03
  2.098828e+00    7.205347e-01   9.623184e-03
  2.101039e+00    7.161962e-01   9.585294e-03
  2.103249e+00    7.080588e-01   9.522153e-03
  2.105460e+00    7.038858e-01   9.485202e-03
  2.107670e+00    7.018382e-01   9.462814e-03
  2.109881e+00    7.064530e-01   9.484848e-03
  2.112091e+00    7.128648e-01   9.518879e-03
  2.114301e+00    7.272575e-01   9.605700e-03
  2.116512e+00    7.046700e-01   9.446685e-03
  2.118722e+00    7.027797e-01   9.425280e-03
  2.120933e+00    7.172377e-01   9.512920e-03
  2.123143e+00    6.920702e-01   9.335757e-03
  2.125354e+00    7.065614e-01   9.424554e-03
  2.127564e+00    6.929387e-01   9.324654e-03
  2.129775e+00    7.065111e-01   9.406876e-03
  2.131985e+00    6.976461e-01   9.338709e-03
  2.134196e+00    6.840441e-01   9.238824e-03
  2.136406e+00    6.925887e-01   9.287708e-03
  2.138617e+00    7.065735e-01   9.372579e-03
  2.140827e+00    7.148150e-01   9.443211e-03
  2.143037e+00    7.091451e-01   9.451234e-03
  2.145248e+00    7.070904e-01   9.459550e-03
  2.147458e+00    6.919770e-01   9.372926e-03
  2.149669e+00    6.837659e-01   9.328819e-03
  2.151879e+00    7.144087e-01   9.544869e-03
  2.154090e+00    7.015668e-01   9.466018e-03
  2.156300e+00    6.978374e-01   9.447415e-03
  2.158511e+00    6.999676e-01   9.467115e-03
  2.160721e+00    6.919354e-01   9.417460e-03
  2.162932e+00    6.880199e-01   9.394463e-03
  2.165142e+00    6.999299e-01   9.478457e-03
  2.167352e+00    7.061459e-01   9.523397e-03
  2.169563e+00    6.691297e-01   9.272369e-03
  2.171773e+00    6.625212e-01   9.228819e-03
  2.173984e+00    6.829937e-01   9.371727e-03
  2.176194e+00    6.911536e-01   9.428762e-03
  2.178405e+00    6.813483e-01   9.362320e-03
  2.180615e+00    6.834275e-01   9.377277e-03
  2.182826e+00    6.815149e-01   9.364815e-03
  2.185036e+00    6.997634e-01   9.489419e-03
  2.187247e+00    6.821536e-01   9.369212e-03
  2.189457e+00    6.877881e-01   9.407417e-03
  2.191667e+00    6.837695e-01   9.379718e-03
  2.193878e+00    6.764865e-01   9.329072e-03
  2.196088e+00    6.699687e-01   9.283346e-03
  2.198299e+00    6.899408e-01   9.419582e-03
  2.200509e+00    6.881690e-01   9.406462e-03
  2.202720e+00    6.715705e-01   9.291163e-03
  2.204930e+00    6.771411e-01   9.328387e-03
  2.207141e+00    6.698442e-01   9.276878e-03
  2.209351e+00    6.875111e-01   9.396522e-03
  2.211562e+00    6.894224e-01   9.407944e-03
  2.213772e+00    6.833323e-01   9.310564e-03
  2.215982e+00    6.580551e-01   9.093105e-03
  2.218193e+00    6.531775e-01   9.030222e-03
  2.220403e+00    6.480916e-01   8.970886e-03
  2.222614e+00    6.436715e-01   8.919765e-03
  2.224824e+00    6.619837e-01   9.026541e-03
  2.227035e+00    6.576759e-01   8.979880e-03
  2.229245e+00    6.726847e-01   9.064786e-03
  2.231456e+00    6.674623e-01   9.013958e-03
  2.233666e+00    6.683027e-01   9.004572e-03
  2.235877e+00    6.660672e-01   8.975280e-03
  2.238087e+00    6.447695e-01   8.817406e-03
  2.240298e+00    6.555036e-01   8.876836e-03
  2.242508e+00    6.868128e-01   9.071050e-03
  2.244718e+00    6.743631e-01   8.972604e-03
  2.246929e+00    6.538540e-01   8.820827e-03
  2.249139e+00    6.684881e-01   8.906594e-03
  2.251350e+00    6.672627e-01   8.886742e-03
  2.253560e+00    6.548816e-01   8.792433e-03
  2.255771e+00    6.506914e-01   8.752982e-03
  2.257981e+00    6.512929e-01   8.745952e-03
  2.260192e+00    6.433287e-01   8.681404e-03
  2.262402e+00    6.434080e-01   8.671239e-03
  2.264613e+00    6.544715e-01   8.734711e-03
  2.266823e+00    6.542261e-01   8.722751e-03
  2.269033e+00    6.559206e-01   8.723726e-03
  2.271244e+00    6.400662e-01   8.607422e-03
  2.273454e+00    6.617934e-01   8.742035e-03
  2.275665e+00    6.493201e-01   8.649066e-03
  2.277875e+00    6.696541e-01   8.773440e-03
  2.280086e+00    6.655203e-01   8.736251e-03
  2.282296e+00    6.360673e-01   8.531522e-03
  2.284507e+00    6.321587e-01   8.495323e-03
  2.286717e+00    6.436015e-01   8.562498e-03
  2.288928e+00    6.396520e-01   8.526475e-03
  2.291138e+00    6.435269e-01   8.542898e-03
  2.293348e+00    6.556619e-01   8.613565e-03
  2.295559e+00    6.437577e-01   8.525764e-03
  2.297769e+00    6.534397e-01   8.580402e-03
  2.299980e+00    6.470727e-01   8.529219e-03
  2.302190e+00    6.254733e-01   8.376723e-03
  2.304401e+00    6.220294e-01   8.344520e-03
  2.306611e+00    6.473671e-01   8.503604e-03
  2.308822e+00    6.324923e-01   8.397090e-03
  2.311032e+00    6.424406e-01   8.456445e-03
  2.313243e+00    6.428095e-01   8.452646e-03
  2.315453e+00    6.411253e-01   8.434043e-03
  2.317663e+00    6.229474e-01   8.304662e-03
  2.319874e+00    6.400643e-01   8.409289e-03
  2.322084e+00    6.433672e-01   8.422026e-03
  2.324295e+00    6.257139e-01   8.297584e-03
  2.326505e+00    6.292039e-01   8.311717e-03
  2.328716e+00    6.439372e-01   8.399937e-03
  2.330926e+00    6.239015e-01   8.259552e-03
  2.333137e+00    6.403188e-01   8.359159e-03
  2.335347e+00    6.368214e-01   8.327451e-03
  2.337558e+00    6.554790e-01   8.440245e-03
  2.339768e+00    6.203278e-01   8.202379e-03
  2.341979e+00    6.409713e-01   8.329347e-03
  2.344189e+00    6.283838e-01   8.238829e-03
  2.346399e+00    6.227760e-01   8.193588e-03
  2.348610e+00    6.225898e-01   8.183970e-03
  2.350820e+00    6.294593e-01   8.220861e-03
  2.353031e+00    6.292362e-01   8.211160e-03
  2.355241e+00    6.212115e-01   8.150646e-03
  2.357452e+00    6.227138e-01   8.152140e-03
  2.359662e+00    6.332037e-01   8.212291e-03
  2.361873e+00    6.184416e-01   8.107840e-03
  2.364083e+00    6.212027e-01   8.117984e-03
  2.366294e+00    6.125019e-01   8.052913e-03
  2.368504e+00    6.259918e-01   8.133046e-03
  2.370714e+00    6.196724e-01   8.083867e-03
  2.372925e+00    6.190578e-01   8.071856e-03
  2.375135e+00    6.143700e-01   8.033239e-03
  2.377346e+00    6.063412e-01   7.972738e-03
  2.379556e+00    6.028293e-01   7.941857e-03
  2.381767e+00    6.053354e-01   7.950565e-03
  2.383977e+00    6.057196e-01   7.945263e-03
  2.386188e+00    6.192936e-01   8.025883e-03
  2.388398e+00    6.143258e-01   7.985695e-03
  2.390609e+00    6.127833e-01   7.967966e-03
  2.392819e+00    6.048324e-01   7.908409e-03
  2.395029e+00    6.030698e-01   7.889291e-03
  2.397240e+00    5.825273e-01   7.746106e-03
  2.399450e+00    5.902925e-01   7.789889e-03
  2.401661e+00    6.015959e-01   7.856504e-03
  2.403871e+00    6.064922e-01   7.880687e-03
  2.406082e+00    6.179098e-01   7.947045e-03
  2.408292e+00    6.188259e-01   7.945074e-03
  2.410503e+00    6.292602e-01   8.004162e-03
  2.412713e+00    6.140092e-01   7.898753e-03
  2.414924e+00    5.889286e-01   7.728360e-03
  2.417134e+00    5.953016e-01   7.762477e-03
  2.419344e+00    5.910175e-01   7.727161e-03
  2.421555e+00    5.938316e-01   7.738092e-03
  2.423765e+00    5.862961e-01   7.681511e-03
  2.425976e+00    5.834236e-01   7.654969e-03
  2.428186e+00    5.791057e-01   7.619495e-03
  2.430397e+00    5.945942e-01   7.713257e-03
  2.432607e+00    5.812817e-01   7.619216e-03
  2.434818e+00    5.894044e-01   7.664779e-03
  2.437028e+00    5.846547e-01   7.626735e-03
  2.439239e+00    5.888474e-01   7.646410e-03
  2.441449e+00    5.802659e-01   7.583358e-03
  2.443659e+00    5.806639e-01   7.578684e-03
  2.445870e+00    5.695220e-01   7.517667e-03
  2.448080e+00    5.483956e-01   7.410651e-03
  2.450291e+00    5.621136e-01   7.519155e-03
  2.452501e+00    5.653942e-01   7.552132e-03
  2.454712e+00    5.654224e-01   7.560684e-03
  2.456922e+00    5.660233e-01   7.571296e-03
  2.459133e+00    5.649852e-01   7.569771e-03
  2.461343e+00    5.643368e-01   7.569768e-03
  2.463554e+00    5.574310e-01   7.526774e-03
  2.465764e+00    5.409259e-01   7.417561e-03
  2.467975e+00    5.540130e-01   7.509030e-03
  2.470185e+00    5.449483e-01   7.449578e-03
  2.472395e+00    5.303817e-01   7.350528e-03
  2.474606e+00    5.415529e-01   7.429081e-03
  2.476816e+00    5.363090e-01   7.393756e-03
  2.479027e+00    5.326811e-01   7.369540e-03
  2.481237e+00    5.321599e-01   7.366193e-03
  2.483448e+00    5.347709e-01   7.384554e-03
  2.485658e+00    5.292565e-01   7.346244e-03
  2.487869e+00    5.393250e-01   7.415811e-03
  2.490079e+00    5.350304e-01   7.385735e-03
  2.492290e+00    5.341655e-01   7.379320e-03
  2.494500e+00    5.178401e-01   7.264963e-03
  2.496710e+00    5.260453e-01   7.321597e-03
  2.498921e+00    5.311096e-01   7.355778e-03
  2.501131e+00    5.415512e-01   7.426761e-03
  2.503342e+00    5.238353e-01   7.303051e-03
  2.505552e+00    5.235923e-01   7.300206e-03
  2.507763e+00    5.164863e-01   7.249121e-03
  2.509973e+00    5.108319e-01   7.207938e-03
  2.512184e+00    5.259630e-01   7.312308e-03
  2.514394e+00    5.364410e-01   7.375339e-03
  2.516605e+00    5.364150e-01   7.327661e-03
  2.518815e+00    5.140371e-01   7.145191e-03
  2.521025e+00    5.204087e-01   7.168480e-03
  2.523236e+00    5.114650e-01   7.088850e-03
  2.525446e+00    5.348938e-01   7.233657e-03
  2.527657e+00    5.242912e-01   7.147045e-03
  2.529867e+00    5.177220e-01   7.088014e-03
  2.532078e+00    5.219809e-01   7.102135e-03
  2.534288e+00    5.237463e-01   7.100245e-03
  2.536499e+00    5.131351e-01   7.016174e-03
  2.538709e+00    5.035799e-01   6.939726e-03
  2.540920e+00    5.204664e-01   7.044537e-03
  2.543130e+00    5.153701e-01   6.999682e-03
  2.545340e+00    5.116596e-01   6.964497e-03
  2.547551e+00    5.027997e-01   6.894181e-03
  2.549761e+00    5.124328e-01   6.950406e-03
  2.551972e+00    5.158332e-01   6.964148e-03
  2.554182e+00    5.137978e-01   6.941278e-03
  2.556393e+00    5.057168e-01   6.877515e-03
  2.558603e+00    5.126632e-01   6.915576e-03
  2.560814e+00    5.143005e-01   6.917966e-03
  2.563024e+00    4.989704e-01   6.805677e-03
  2.565235e+00    4.995002e-01   6.799940e-03
  2.567445e+00    5.130441e-01   6.882023e-03
  2.569656e+00    5.003133e-01   6.786543e-03
  2.571866e+00    5.063404e-01   6.818020e-03
  2.574076e+00    5.011030e-01   6.773551e-03
  2.576287e+00    5.029700e-01   6.777940e-03
  2.578497e+00    4.987208e-01   6.741543e-03
  2.580708e+00    4.857604e-01   6.645505e-03
  2.582918e+00    4.987067e-01   6.725852e-03
  2.585129e+00    4.867644e-01   6.637286e-03
  2.587339e+00    4.942302e-01   6.680466e-03
  2.589550e+00    4.975770e-01   6.695608e-03
  2.591760e+00    5.023606e-01   6.720055e-03
  2.593971e+00    4.981051e-01   6.684104e-03
  2.596181e+00    5.029203e-01   6.710160e-03
  2.598391e+00    4.985096e-01   6.675561e-03
  2.600602e+00    4.972343e-01   6.661153e-03
  2.602812e+00    5.087381e-01   6.730246e-03
  2.605023e+00    4.939120e-01   6.624398e-03
  2.607233e+00    5.000589e-01   6.658391e-03
  2.609444e+00    4.909621e-01   6.590451e-03
  2.611654e+00    5.080640e-01   6.696909e-03
  2.613865e+00    5.063755e-01   6.678750e-03
  2.616075e+00    4.957856e-01   6.601479e-03
  2.618286e+00    4.880749e-01   6.543064e-03
  2.620496e+00    4.896386e-01   6.546946e-03
  2.622706e+00    4.985510e-01   6.600536e-03
  2.624917e+00    5.015106e-01   6.614293e-03
  2.627127e+00    4.900900e-01   6.532875e-03
  2.629338e+00    4.886131e-01   6.517136e-03
  2.631548e+00    4.868466e-01   6.499279e-03
  2.633759e+00    4.932655e-01   6.534900e-03
  2.635969e+00    4.961961e-01   6.547638e-03
  2.638180e+00    4.941244e-01   6.527010e-03
  2.640390e+00    4.990035e-01   6.552579e-03
  2.642601e+00    5.011585e-01   6.560045e-03
  2.644811e+00    4.971216e-01   6.526522e-03
  2.647021e+00    4.930716e-01   6.493357e-03
  2.649232e+00    4.912886e-01   6.474949e-03
  2.651442e+00    4.828060e-01   6.412401e-03
  2.653653e+00    4.933719e-01   6.475437e-03
  2.655863e+00    4.890848e-01   6.440633e-03
  2.658074e+00    4.940954e-01   6.466932e-03
  2.660284e+00    4.995853e-01   6.496412e-03
  2.662495e+00    4.981936e-01   6.480583e-03
  2.664705e+00    4.921774e-01   6.434809e-03
  2.666916e+00    4.844598e-01   6.377774e-03
  2.669126e+00    4.825905e-01   6.359080e-03
  2.671337e+00    4.989489e-01   6.459353e-03
  2.673547e+00    4.969761e-01   6.440178e-03
  2.675757e+00    4.924875e-01   6.404611e-03
  2.677968e+00    4.788604e-01   6.308956e-03
  2.680178e+00    4.759896e-01   6.283724e-03
  2.682389e+00    4.895837e-01   6.366445e-03
  2.684599e+00    5.016449e-01   6.438153e-03
  2.686810e+00    4.942475e-01   6.383899e-03
  2.689020e+00    4.849653e-01   6.317412e-03
  2.691231e+00    4.781113e-01   6.266410e-03
  2.693441e+00    4.816193e-01   6.283263e-03
  2.695652e+00    4.853730e-01   6.301204e-03
  2.697862e+00    4.843533e-01   6.288294e-03
  2.700072e+00    4.813146e-01   6.262509e-03
  2.702283e+00    4.827278e-01   6.265511e-03
  2.704493e+00    4.881903e-01   6.294578e-03
  2.706704e+00    4.928496e-01   6.318118e-03
  2.708914e+00    4.835540e-01   6.252309e-03
  2.711125e+00    4.866222e-01   6.265884e-03
  2.713335e+00    4.785197e-01   6.207449e-03
  2.715546e+00    4.748582e-01   6.177298e-03
  2.717756e+00    4.664407e-01   6.116518e-03
  2.719967e+00    4.700311e-01   6.133908e-03
  2.722177e+00    4.842475e-01   6.219858e-03
  2.724387e+00    4.840579e-01   6.212560e-03
  2.726598e+00    4.718811e-01   6.127941e-03
  2.728808e+00    4.887633e-01   6.230413e-03
  2.731019e+00    4.802828e-01   6.170044e-03
  2.733229e+00    4.685043e-01   6.088204e-03
  2.735440e+00    4.749440e-01   6.123690e-03
  2.737650e+00    4.716694e-01   6.096604e-03
  2.739861e+00    4.748313e-01   6.110983e-03
  2.742071e+00    4.754892e-01   6.109526e-03
  2.744282e+00    4.670364e-01   6.048821e-03
  2.746492e+00    4.717388e-01   6.073239e-03
  2.748702e+00    4.695457e-01   6.053273e-03
  2.750913e+00    4.661850e-01   6.025877e-03
  2.753123e+00    4.744052e-01   6.072681e-03
  2.755334e+00    4.818762e-01   6.114255e-03
  2.757544e+00    4.751899e-01   6.065968e-03
  2.759755e+00    4.705253e-01   6.030302e-03
  2.761965e+00    4.774422e-01   6.068494e-03
  2.764176e+00    4.711367e-01   6.022372e-03
  2.766386e+00    4.701313e-01   6.010195e-03
  2.768597e+00    4.742781e-01   6.030818e-03
  2.770807e+00    4.767171e-01   6.040449e-03
  2.773017e+00    4.699319e-01   5.991389e-03
  2.775228e+00    4.633440e-01   5.943545e-03
  2.777438e+00    4.864525e-01   6.084111e-03
  2.779649e+00    4.836722e-01   6.060779e-03
  2.781859e+00    4.699745e-01   5.968623e-03
  2.784070e+00    4.790115e-01   6.019833e-03
  2.786280e+00    4.818154e-01   6.031669e-03
  2.788491e+00    4.809571e-01   6.020413e-03
  2.790701e+00    4.777763e-01   5.994829e-03
  2.792912e+00    4.746591e-01   5.969279e-03
  2.795122e+00    4.715628e-01   5.944076e-03
  2.797333e+00    4.698919e-01   5.928008e-03
  2.799543e+00    4.687777e-01   5.915158e-03
  2.801753e+00    4.539586e-01   5.815192e-03
  2.803964e+00    4.607012e-01   5.852629e-03
  2.806174e+00    4.849884e-01   5.998700e-03
  2.808385e+00    4.861758e-01   5.999190e-03
  2.810595e+00    4.763365e-01   5.931289e-03
  2.812806e+00    4.684825e-01   5.875621e-03
  2.815016e+00    4.609372e-01   5.823425e-03
  2.817227e+00    4.760760e-01   5.944263e-03
  2.819437e+00    4.736473e-01   5.940176e-03
  2.821648e+00    4.759614e-01   5.956959e-03
  2.823858e+00    4.717734e-01   5.936028e-03
  2.826068e+00    4.704329e-01   5.932537e-03
  2.828279e+00    4.728094e-01   5.951563e-03
  2.830489e+00    4.693137e-01   5.932840e-03
  2.832700e+00    4.658997e-01   5.913758e-03
  2.834910e+00    4.723724e-01   5.956770e-03
  2.837121e+00    4.634243e-01   5.901773e-03
  2.839331e+00    4.688601e-01   5.937510e-03
  2.841542e+00    4.600486e-01   5.882467e-03
  2.843752e+00    4.536637e-01   5.842268e-03
  2.845963e+00    4.536014e-01   5.842248e-03
  2.848173e+00    4.613267e-01   5.891875e-03
  2.850383e+00    4.655348e-01   5.918981e-03
  2.852594e+00    4.633467e-01   5.904980e-03
  2.854804e+00    4.622792e-01   5.897675e-03
  2.857015e+00    4.636711e-01   5.906104e-03
  2.859225e+00    4.664864e-01   5.923770e-03
  2.861436e+00    4.664389e-01   5.922805e-03
  2.863646e+00    4.613463e-01   5.890426e-03
  2.865857e+00    4.628162e-01   5.900146e-03
  2.868067e+00    4.584720e-01   5.872605e-03
  2.870278e+00    4.596656e-01   5.879892e-03
  2.872488e+00    4.665685e-01   5.922714e-03
  2.874698e+00    4.529516e-01   5.834621e-03
  2.876909e+00    4.465707e-01   5.792071e-03
  2.879119e+00    4.415610e-01   5.757900e-03
  2.881330e+00    4.514514e-01   5.820578e-03
  2.883540e+00    4.462735e-01   5.785741e-03
  2.885751e+00    4.422639e-01   5.758075e-03
  2.887961e+00    4.528163e-01   5.824505e-03
  2.890172e+00    4.472860e-01   5.787250e-03
  2.892382e+00    4.507606e-01   5.807890e-03
  2.894593e+00    4.597434e-01   5.863667e-03
  2.896803e+00    4.644426e-01   5.891574e-03
  2.899014e+00    4.546914e-01   5.827500e-03
  2.901224e+00    4.423673e-01   5.746023e-03
  2.903434e+00    4.518694e-01   5.805474e-03
  2.905645e+00    4.618627e-01   5.867097e-03
  2.907855e+00    4.694896e-01   5.913218e-03
  2.910066e+00    4.595928e-01   5.848488e-03
  2.912276e+00    4.454033e-01   5.755410e-03
  2.914487e+00    4.540122e-01   5.808305e-03
  2.916697e+00    4.584843e-01   5.834633e-03
  2.918908e+00    4.522603e-01   5.792890e-03
  2.921118e+00    4.540582e-01   5.801710e-03
  2.923329e+00    4.559237e-01   5.811331e-03
  2.925539e+00    4.549780e-01   5.802993e-03
  2.927749e+00    4.589141e-01   5.825749e-03
  2.929960e+00    4.434461e-01   5.723971e-03
  2.932170e+00    4.476582e-01   5.748802e-03
  2.934381e+00    4.572832e-01   5.807832e-03
  2.936591e+00    4.433758e-01   5.716295e-03
  2.938802e+00    4.464877e-01   5.733630e-03
  2.941012e+00    4.580324e-01   5.804944e-03
  2.943223e+00    4.360790e-01   5.661493e-03
  2.945433e+00    4.479571e-01   5.734366e-03
  2.947644e+00    4.462643e-01   5.719420e-03
  2.949854e+00    4.577602e-01   5.788354e-03
  2.952064e+00    4.592746e-01   5.793670e-03
  2.954275e+00    4.538836e-01   5.755169e-03
  2.956485e+00    4.553286e-01   5.760126e-03
  2.958696e+00    4.428049e-01   5.676054e-03
  2.960906e+00    4.455897e-01   5.689727e-03
  2.963117e+00    4.502650e-01   5.715034e-03
  2.965327e+00    4.431412e-01   5.665797e-03
  2.967538e+00    4.455448e-01   5.678257e-03
  2.969748e+00    4.424413e-01   5.655662e-03
  2.971959e+00    4.570753e-01   5.745276e-03
  2.974169e+00    4.581844e-01   5.749671e-03
  2.976379e+00    4.488973e-01   5.688199e-03
  2.978590e+00    4.557373e-01   5.728225e-03
  2.980800e+00    4.516802e-01   5.699869e-03
  2.983011e+00    4.476717e-01   5.671763e-03
  2.985221e+00    4.589589e-01   5.739627e-03
  2.987432e+00    4.474930e-01   5.664404e-03
  2.989642e+00    4.473952e-01   5.661190e-03
  2.991853e+00    4.456007e-01   5.646553e-03
  2.994063e+00    4.546147e-01   5.700477e-03
  2.996274e+00    4.480321e-01   5.655885e-03
  2.998484e+00    4.570129e-01   5.709610e-03
  3.000694e+00    4.393589e-01   5.594825e-03
  3.002905e+00    4.430287e-01   5.615242e-03
  3.005115e+00    4.409167e-01   5.598901e-03
  3.007326e+00    4.506942e-01   5.657488e-03
  3.009536e+00    4.513251e-01   5.658210e-03
  3.011747e+00    4.494509e-01   5.643554e-03
  3.013957e+00    4.265520e-01   5.494807e-03
  3.016168e+00    4.512080e-01   5.648127e-03
  3.018378e+00    4.584935e-01   5.690502e-03
  3.020589e+00    4.593455e-01   5.692539e-03
  3.022799e+00    4.564033e-01   5.671115e-03
  3.025010e+00    4.580341e-01   5.677971e-03
  3.027220e+00    4.450450e-01   5.593805e-03
  3.029430e+00    4.473986e-01   5.605338e-03
  3.031641e+00    4.434662e-01   5.577547e-03
  3.033851e+00    4.512566e-01   5.622814e-03
  3.036062e+00    4.460440e-01   5.587473e-03
  3.038272e+00    4.497606e-01   5.607145e-03
  3.040483e+00    4.396355e-01   5.540472e-03
  3.042693e+00    4.587939e-01   5.656632e-03
  3.044904e+00    4.481561e-01   5.586658e-03
  3.047114e+00    4.479822e-01   5.580771e-03
  3.049325e+00    4.557163e-01   5.624340e-03
  3.051535e+00    4.478596e-01   5.571252e-03
  3.053745e+00    4.472304e-01   5.562613e-03
  3.055956e+00    4.500879e-01   5.575772e-03
  3.058166e+00    4.504831e-01   5.573977e-03
  3.060377e+00    4.406555e-01   5.508113e-03
  3.062587e+00    4.562390e-01   5.599994e-03
  3.064798e+00    4.451530e-01   5.527324e-03
  3.067008e+00    4.440625e-01   5.515833e-03
  3.069219e+00    4.491324e-01   5.542723e-03
  3.071429e+00    4.547685e-01   5.573867e-03
  3.073640e+00    4.615505e-01   5.611912e-03
  3.075850e+00    4.402978e-01   5.477627e-03
  3.078060e+00    4.503037e-01   5.536404e-03
  3.080271e+00    4.397818e-01   5.467905e-03
  3.082481e+00    4.476550e-01   5.513176e-03
  3.084692e+00    4.426531e-01   5.478957e-03
  3.086902e+00    4.395246e-01   5.456331e-03
  3.089113e+00    4.486786e-01   5.509291e-03
  3.091323e+00    4.496641e-01   5.511953e-03
  3.093534e+00    4.508226e-01   5.515665e-03
  3.095744e+00    4.543273e-01   5.533666e-03
  3.097955e+00    4.473344e-01   5.487379e-03
  3.100165e+00    4.365401e-01   5.417458e-03
  3.102375e+00    4.396859e-01   5.433559e-03
  3.104586e+00    4.477064e-01   5.479389e-03
  3.106796e+00    4.449308e-01   5.458879e-03
  3.109007e+00    4.477282e-01   5.472778e-03
  3.111217e+00    4.385223e-01   5.412564e-03
  3.113428e+00    4.391732e-01   5.413199e-03
  3.115638e+00    4.242737e-01   5.317416e-03
  3.117849e+00    4.413798e-01   5.419833e-03
  3.120059e+00    4.387278e-01   5.400109e-03
  3.122270e+00    4.504381e-01   5.468412e-03
  3.124480e+00    4.245563e-01   5.305403e-03
  3.126691e+00    4.420230e-01   5.409845e-03
  3.128901e+00    4.418438e-01   5.405670e-03
  3.131111e+00    4.402292e-01   5.391949e-03
  3.133322e+00    4.280292e-01   5.313343e-03
  3.135532e+00    4.292403e-01   5.317485e-03
  3.137743e+00    4.422603e-01   5.394069e-03
  3.139953e+00    4.387068e-01   5.368700e-03
  3.142164e+00    4.354686e-01   5.360759e-03
  3.144374e+00    4.191800e-01   5.287200e-03
  3.146585e+00    4.273010e-01   5.352461e-03
  3.148795e+00    4.392359e-01   5.437443e-03
  3.151006e+00    4.395002e-01   5.447609e-03
  3.153216e+00    4.371064e-01   5.439852e-03
  3.155426e+00    4.395017e-01   5.461028e-03
  3.157637e+00    4.413345e-01   5.477940e-03
  3.159847e+00    4.221136e-01   5.362099e-03
  3.162058e+00    4.413844e-01   5.487554e-03
  3.164268e+00    4.343418e-01   5.447647e-03
  3.166479e+00    4.323385e-01   5.438678e-03
  3.168689e+00    4.351222e-01   5.459525e-03
  3.170900e+00    4.366285e-01   5.472115e-03
  3.173110e+00    4.336943e-01   5.456561e-03
  3.175321e+00    4.356880e-01   5.471578e-03
  3.177531e+00    4.315061e-01   5.447966e-03
  3.179741e+00    4.357712e-01   5.476902e-03
  3.181952e+00    4.209646e-01   5.385118e-03
  3.184162e+00    4.171339e-01   5.362696e-03
  3.186373e+00    4.235594e-01   5.405420e-03
  3.188583e+00    4.216298e-01   5.394844e-03
  3.190794e+00    4.345754e-01   5.478786e-03
  3.193004e+00    4.406173e-01   5.517991e-03
  3.195215e+00    4.334200e-01   5.474249e-03
  3.197425e+00    4.381509e-01   5.505252e-03
  3.199636e+00    4.342373e-01   5.479833e-03
  3.201846e+00    4.308723e-01   5.457977e-03
  3.204056e+00    4.270970e-01   5.434877e-03
  3.206267e+00    4.246599e-01   5.420195e-03
  3.208477e+00    4.322188e-01   5.469124e-03
  3.210688e+00    4.381787e-01   5.507574e-03
  3.212898e+00    4.161373e-01   5.367846e-03
  3.215109e+00    4.279661e-01   5.444316e-03
  3.217319e+00    4.267255e-01   5.437072e-03
  3.219530e+00    4.213458e-01   5.403067e-03
  3.221740e+00    4.354834e-01   5.493532e-03
  3.223951e+00    4.326825e-01   5.476313e-03
  3.226161e+00    4.220771e-01   5.408970e-03
  3.228372e+00    4.211345e-01   5.403449e-03
  3.230582e+00    4.277562e-01   5.445898e-03
  3.232792e+00    4.238414e-01   5.421143e-03
  3.235003e+00    4.091448e-01   5.326576e-03
  3.237213e+00    4.179387e-01   5.383613e-03
  3.239424e+00    4.231275e-01   5.416907e-03
  3.241634e+00    4.243162e-01   5.424666e-03
  3.243845e+00    4.270485e-01   5.442146e-03
  3.246055e+00    4.322335e-01   5.474822e-03
  3.248266e+00    4.181042e-01   5.384823e-03
  3.250476e+00    4.128211e-01   5.350342e-03
  3.252687e+00    4.252776e-01   5.430417e-03
  3.254897e+00    4.251075e-01   5.429200e-03
  3.257107e+00    4.091893e-01   5.326281e-03
  3.259318e+00    4.263251e-01   5.436434e-03
  3.261528e+00    4.176810e-01   5.380887e-03
  3.263739e+00    4.284394e-01   5.449195e-03
  3.265949e+00    4.184488e-01   5.385166e-03
  3.268160e+00    4.226954e-01   5.411998e-03
  3.270370e+00    4.154366e-01   5.364841e-03
  3.272581e+00    4.090503e-01   5.323151e-03
  3.274791e+00    4.199460e-01   5.393078e-03
  3.277002e+00    4.044747e-01   5.292241e-03
  3.279212e+00    4.235554e-01   5.415249e-03
  3.281422e+00    4.234016e-01   5.413680e-03
  3.283633e+00    4.373897e-01   5.501700e-03
  3.285843e+00    4.256881e-01   5.427276e-03
  3.288054e+00    4.176337e-01   5.374766e-03
  3.290264e+00    4.067662e-01   5.304048e-03
  3.292475e+00    4.095575e-01   5.321405e-03
  3.294685e+00    4.089165e-01   5.316598e-03
  3.296896e+00    4.239197e-01   5.412515e-03
  3.299106e+00    4.175196e-01   5.370947e-03
  3.301317e+00    4.230572e-01   5.405419e-03
  3.303527e+00    4.226581e-01   5.402401e-03
  3.305737e+00    4.148497e-01   5.351246e-03
  3.307948e+00    4.084919e-01   5.309410e-03
  3.310158e+00    4.242953e-01   5.410273e-03
  3.312369e+00    4.155127e-01   5.353139e-03
  3.314579e+00    4.112425e-01   5.324652e-03
  3.316790e+00    4.214810e-01   5.389821e-03
  3.319000e+00    4.094183e-01   5.310963e-03
  3.321211e+00    4.161482e-01   5.353836e-03
  3.323421e+00    4.118648e-01   5.325024e-03
  3.325632e+00    4.155455e-01   5.347872e-03
  3.327842e+00    4.163710e-01   5.352288e-03
  3.330052e+00    4.204417e-01   5.377309e-03
  3.332263e+00    4.154287e-01   5.344146e-03
  3.334473e+00    4.139714e-01   5.333874e-03
  3.336684e+00    4.164605e-01   5.348614e-03
  3.338894e+00    4.139200e-01   5.331447e-03
  3.341105e+00    4.326499e-01   5.449509e-03
  3.343315e+00    4.243145e-01   5.395623e-03
  3.345526e+00    4.157896e-01   5.340252e-03
  3.347736e+00    4.149621e-01   5.333528e-03
  3.349947e+00    4.080466e-01   5.287986e-03
  3.352157e+00    4.150600e-01   5.332057e-03
  3.354368e+00    4.210560e-01   5.369144e-03
  3.356578e+00    4.115456e-01   5.307151e-03
  3.358788e+00    4.134160e-01   5.317880e-03
  3.360999e+00    4.211423e-01   5.366071e-03
  3.363209e+00    4.060638e-01   5.268171e-03
  3.365420e+00    4.040909e-01   5.253833e-03
  3.367630e+00    4.005963e-01   5.230082e-03
  3.369841e+00    4.115872e-01   5.299925e-03
  3.372051e+00    4.007281e-01   5.227618e-03
  3.374262e+00    4.028291e-01   5.238881e-03
  3.376472e+00    4.180995e-01   5.334816e-03
  3.378683e+00    4.094179e-01   5.276653e-03
  3.380893e+00    4.187289e-01   5.333956e-03
  3.383103e+00    4.372252e-01   5.447736e-03
  3.385314e+00    4.262085e-01   5.376408e-03
  3.387524e+00    4.060111e-01   5.244783e-03
  3.389735e+00    4.135624e-01   5.290682e-03
  3.391945e+00    4.062568e-01   5.240095e-03
  3.394156e+00    4.103848e-01   5.262454e-03
  3.396366e+00    4.188546e-01   5.313026e-03
  3.398577e+00    4.137288e-01   5.277393e-03
  3.400787e+00    4.107983e-01   5.270558e-03
  3.402998e+00    4.054435e-01   5.273965e-03
  3.405208e+00    3.941729e-01   5.220503e-03
  3.407418e+00    4.013479e-01   5.283584e-03
  3.409629e+00    3.918454e-01   5.234480e-03
  3.411839e+00    3.772345e-01   5.147404e-03
  3.414050e+00    3.887360e-01   5.236149e-03
  3.416260e+00    3.873511e-01   5.236364e-03
  3.418471e+00    3.985849e-01   5.321246e-03
  3.420681e+00    3.770112e-01   5.183564e-03
  3.422892e+00    3.665587e-01   5.118957e-03
  3.425102e+00    3.732650e-01   5.173199e-03
  3.427313e+00    3.823621e-01   5.242984e-03
  3.429523e+00    3.930874e-01   5.323152e-03
  3.431733e+00    3.797551e-01   5.238686e-03
  3.433944e+00    3.818375e-01   5.259519e-03
  3.436154e+00    3.693368e-01   5.178824e-03
  3.438365e+00    3.701887e-01   5.190625e-03
  3.440575e+00    3.616033e-01   5.135879e-03
  3.442786e+00    3.640577e-01   5.158763e-03
  3.444996e+00    3.570284e-01   5.114068e-03
  3.447207e+00    3.604171e-01   5.143464e-03
  3.449417e+00    3.667102e-01   5.228726e-03
  3.451628e+00    3.430466e-01   5.085607e-03
  3.453838e+00    3.612864e-01   5.240012e-03
  3.456049e+00    3.640825e-01   5.284111e-03
  3.458259e+00    3.533781e-01   5.227340e-03
  3.460469e+00    3.554052e-01   5.261826e-03
  3.462680e+00    3.458152e-01   5.208867e-03
  3.464890e+00    3.371273e-01   5.160094e-03
  3.467101e+00    3.549353e-01   5.311755e-03
  3.469311e+00    3.667815e-01   5.416166e-03
  3.471522e+00    3.778397e-01   5.513673e-03
  3.473732e+00    3.803124e-01   5.547645e-03
  3.475943e+00    3.981054e-01   5.691973e-03
  3.478153e+00    4.047552e-01   5.755069e-03
  3.480364e+00    4.171909e-01   5.858422e-03
  3.482574e+00    4.170702e-01   5.873168e-03
  3.484784e+00    4.184079e-01   5.897600e-03
  3.486995e+00    4.150470e-01   5.888938e-03
  3.489205e+00    4.316909e-01   6.020651e-03
  3.491416e+00    4.609385e-01   6.236765e-03
  3.493626e+00    4.375348e-01   6.091048e-03
  3.495837e+00    4.498021e-01   6.190709e-03
  3.498047e+00    4.333403e-01   6.090689e-03
  3.500258e+00    4.350635e-01   6.117091e-03
  3.502468e+00    4.577386e-01   6.288923e-03
  3.504679e+00    4.794268e-01   6.451007e-03
  3.506889e+00    4.780043e-01   6.456055e-03
  3.509099e+00    4.631098e-01   6.368906e-03
  3.511310e+00    4.679522e-01   6.416450e-03
  3.513520e+00    4.788840e-01   6.505321e-03
  3.515731e+00    4.806713e-01   6.531771e-03
  3.517941e+00    4.759267e-01   6.513594e-03
  3.520152e+00    4.885018e-01   6.613309e-03
  3.522362e+00    5.060256e-01   6.745432e-03
  3.524573e+00    5.121835e-01   6.800733e-03
  3.526783e+00    5.031949e-01   6.754062e-03
  3.528994e+00    5.069900e-01   6.791574e-03
  3.531204e+00    5.284660e-01   6.946484e-03
  3.533414e+00    5.305142e-01   6.972068e-03
  3.535625e+00    5.287970e-01   6.973168e-03
  3.537835e+00    5.326140e-01   7.010391e-03
  3.540046e+00    5.322255e-01   7.016740e-03
  3.542256e+00    5.469251e-01   7.120603e-03
  3.544467e+00    5.193608e-01   6.946336e-03
  3.546677e+00    5.334076e-01   7.047222e-03
  3.548888e+00    5.360543e-01   7.072153e-03
  3.551098e+00    5.277848e-01   7.024648e-03
  3.553309e+00    5.281091e-01   7.034900e-03
  3.555519e+00    5.302844e-01   7.060609e-03
  3.557729e+00    5.351129e-01   7.104383e-03
  3.559940e+00    5.440472e-01   7.175104e-03
  3.562150e+00    5.354243e-01   7.129710e-03
  3.564361e+00    5.399755e-01   7.173285e-03
  3.566571e+00    5.570672e-01   7.300091e-03
  3.568782e+00    5.307399e-01   7.139523e-03
  3.570992e+00    5.339419e-01   7.174731e-03
  3.573203e+00    5.400982e-01   7.230198e-03
  3.575413e+00    5.251346e-01   7.142973e-03
  3.577624e+00    5.251888e-01   7.157317e-03
  3.579834e+00    5.154564e-01   7.104286e-03
  3.582045e+00    5.426058e-01   7.303114e-03
  3.584255e+00    5.214262e-01   7.173033e-03
  3.586465e+00    5.197608e-01   7.175283e-03
  3.588676e+00    5.244987e-01   7.221937e-03
  3.590886e+00    5.333953e-01   7.296600e-03
  3.593097e+00    5.329286e-01   7.307891e-03
  3.595307e+00    5.414299e-01   7.379937e-03
  3.597518e+00    5.296143e-01   7.313116e-03
  3.599728e+00    5.381351e-01   7.385822e-03
  3.601939e+00    5.380251e-01   7.399199e-03
  3.604149e+00    5.435156e-01   7.451336e-03
  3.606360e+00    5.269641e-01   7.351046e-03
  3.608570e+00    5.263028e-01   7.360478e-03
  3.610780e+00    5.341504e-01   7.426188e-03
  3.612991e+00    5.279351e-01   7.392821e-03
  3.615201e+00    5.206791e-01   7.351510e-03
  3.617412e+00    5.239316e-01   7.381600e-03
  3.619622e+00    5.441652e-01   7.528820e-03
  3.621833e+00    5.150975e-01   7.331588e-03
  3.624043e+00    5.085459e-01   7.294064e-03
  3.626254e+00    5.278795e-01   7.441039e-03
  3.628464e+00    5.360827e-01   7.509653e-03
  3.630675e+00    5.404123e-01   7.554112e-03
  3.632885e+00    5.289617e-01   7.488048e-03
  3.635095e+00    5.280772e-01   7.496085e-03
  3.637306e+00    5.392697e-01   7.589571e-03
  3.639516e+00    5.223878e-01   7.484223e-03
  3.641727e+00    5.419527e-01   7.637747e-03
  3.643937e+00    5.330588e-01   7.589385e-03
  3.646148e+00    5.345538e-01   7.614653e-03
  3.648358e+00    5.159031e-01   7.495206e-03
  3.650569e+00    5.336154e-01   7.637575e-03
  3.652779e+00    5.323709e-01   7.643416e-03
  3.654990e+00    5.342045e-01   7.671464e-03
  3.657200e+00    5.380992e-01   7.714396e-03
  3.659410e+00    5.310367e-01   7.678538e-03
  3.661621e+00    5.338167e-01   7.713725e-03
  3.663831e+00    5.121103e-01   7.570141e-03
  3.666042e+00    5.089970e-01   7.561895e-03
  3.668252e+00    5.253776e-01   7.697760e-03
  3.670463e+00    5.378522e-01   7.803967e-03
  3.672673e+00    5.160660e-01   7.659475e-03
  3.674884e+00    5.109085e-01   7.636218e-03
  3.677094e+00    5.214325e-01   7.729833e-03
  3.679305e+00    5.127687e-01   7.680666e-03
  3.681515e+00    5.236573e-01   7.777277e-03
  3.683726e+00    5.082223e-01   7.677305e-03
  3.685936e+00    5.366971e-01   7.905228e-03
  3.688146e+00    5.189064e-01   7.788799e-03
  3.690357e+00    5.092440e-01   7.731569e-03
  3.692567e+00    5.219669e-01   7.843609e-03
  3.694778e+00    5.081252e-01   7.754667e-03
  3.696988e+00    5.320339e-01   7.951093e-03
  3.699199e+00    5.186263e-01   7.866390e-03
  3.701409e+00    4.961175e-01   7.709722e-03
  3.703620e+00    5.257956e-01   7.953289e-03
  3.705830e+00    5.247581e-01   7.961851e-03
  3.708041e+00    5.221010e-01   7.958218e-03
  3.710251e+00    5.439047e-01   8.139734e-03
  3.712461e+00    5.110922e-01   7.906995e-03
  3.714672e+00    5.125150e-01   7.934477e-03
  3.716882e+00    5.486788e-01   8.226843e-03
  3.719093e+00    5.062881e-01   7.919580e-03
  3.721303e+00    5.009964e-01   7.894726e-03
  3.723514e+00    5.021527e-01   7.920795e-03
  3.725724e+00    5.081809e-01   7.985176e-03
  3.727935e+00    5.153807e-01   8.058985e-03
  3.730145e+00    5.174585e-01   8.092531e-03
  3.732356e+00    5.009993e-01   7.980073e-03
  3.734566e+00    4.955222e-01   7.953529e-03
  3.736776e+00    5.103869e-01   8.089612e-03
  3.738987e+00    5.059165e-01   8.071703e-03
  3.741197e+00    4.980496e-01   8.026448e-03
  3.743408e+00    5.025713e-01   8.080654e-03
  3.745618e+00    5.103334e-01   8.161088e-03
  3.747829e+00    5.059121e-01   8.143636e-03
  3.750039e+00    5.012153e-01   8.124023e-03
  3.752250e+00    4.955286e-01   8.095876e-03
  3.754460e+00    5.114542e-01   8.243584e-03
  3.756671e+00    5.078590e-01   8.233272e-03
  3.758881e+00    4.966842e-01   8.160658e-03
  3.761091e+00    5.002802e-01   8.209159e-03
  3.763302e+00    4.999843e-01   8.225545e-03
  3.765512e+00    5.161399e-01   8.376893e-03
  3.767723e+00    4.916477e-01   8.194742e-03
  3.769933e+00    5.012374e-01   8.293499e-03
  3.772144e+00    4.848762e-01   8.176225e-03
  3.774354e+00    4.939513e-01   8.271962e-03
  3.776565e+00    4.873465e-01   8.235977e-03
  3.778775e+00    4.926730e-01   8.300575e-03
  3.780986e+00    4.899836e-01   8.297909e-03
  3.783196e+00    5.033700e-01   8.430750e-03
  3.785407e+00    4.722408e-01   8.185719e-03
  3.787617e+00    4.986584e-01   8.432196e-03
  3.789827e+00    4.877406e-01   8.359625e-03
  3.792038e+00    5.001202e-01   8.485819e-03
  3.794248e+00    5.322454e-01   8.775927e-03
  3.796459e+00    4.895769e-01   8.437970e-03
  3.798669e+00    5.049711e-01   8.591004e-03
  3.800880e+00    4.912962e-01   8.495168e-03
  3.803090e+00    5.185186e-01   8.749544e-03
  3.805301e+00    5.025902e-01   8.636270e-03
  3.807511e+00    5.110119e-01   8.730545e-03
  3.809722e+00    5.203968e-01   8.833059e-03
  3.811932e+00    5.052779e-01   8.726168e-03
  3.814142e+00    5.029807e-01   8.729268e-03
  3.816353e+00    4.693536e-01   8.454564e-03
  3.818563e+00    5.057111e-01   8.799146e-03
  3.820774e+00    4.840753e-01   8.631695e-03
  3.822984e+00    4.988075e-01   8.785503e-03
  3.825195e+00    4.805311e-01   8.646302e-03
  3.827405e+00    4.894651e-01   8.750020e-03
  3.829616e+00    4.903260e-01   8.781604e-03
  3.831826e+00    4.985608e-01   8.879219e-03
  3.834037e+00    4.921801e-01   8.846613e-03
  3.836247e+00    4.792714e-01   8.754103e-03
  3.838457e+00    4.989057e-01   8.956676e-03
  3.840668e+00    5.021299e-01   9.010889e-03
  3.842878e+00    4.776181e-01   8.813291e-03
  3.845089e+00    4.797702e-01   8.858288e-03
  3.847299e+00    4.670401e-01   8.764952e-03
  3.849510e+00    4.716438e-01   8.833304e-03
  3.851720e+00    4.846004e-01   8.975008e-03
  3.853931e+00    4.780040e-01   8.932375e-03
  3.856141e+00    4.950720e-01   9.109493e-03
  3.858352e+00    4.822009e-01   9.009260e-03
  3.860562e+00    4.880961e-01   9.083397e-03
  3.862772e+00    4.918520e-01   9.137802e-03
  3.864983e+00    5.094540e-01   9.319820e-03
  3.867193e+00    4.865360e-01   9.127533e-03
  3.869404e+00    4.789908e-01   9.075896e-03
  3.871614e+00    4.810761e-01   9.115442e-03
  3.873825e+00    4.826294e-01   9.150169e-03
  3.876035e+00    4.643738e-01   8.995442e-03
  3.878246e+00    4.745897e-01   9.119121e-03
  3.880456e+00    4.932680e-01   9.325914e-03
  3.882667e+00    4.753202e-01   9.183438e-03
  3.884877e+00    4.893717e-01   9.347911e-03
  3.887087e+00    4.786613e-01   9.274591e-03
  3.889298e+00    4.471244e-01   8.992837e-03
  3.891508e+00    4.900018e-01   9.444595e-03
  3.893719e+00    4.934323e-01   9.508732e-03
  3.895929e+00    4.774447e-01   9.384414e-03
  3.898140e+00    4.887736e-01   9.526716e-03
  3.900350e+00    4.911684e-01   9.582202e-03
  3.902561e+00    4.761180e-01   9.466110e-03
  3.904771e+00    5.148472e-01   9.877284e-03
  3.906982e+00    4.803176e-01   9.573133e-03
  3.909192e+00    5.016441e-01   9.817240e-03
  3.911403e+00    4.784858e-01   9.621695e-03
  3.913613e+00    4.884588e-01   9.755590e-03
  3.915823e+00    4.987702e-01   9.893215e-03
  3.918034e+00    5.151073e-01   1.009020e-02
  3.920244e+00    4.874692e-01   9.851451e-03
  3.922455e+00    4.945040e-01   9.958611e-03
  3.924665e+00    4.881042e-01   9.930383e-03
  3.926876e+00    4.748463e-01   9.831208e-03
  3.929086e+00    4.690668e-01   9.807758e-03
  3.931297e+00    4.875531e-01   1.003406e-02
  3.933507e+00    4.773175e-01   9.956746e-03
  3.935718e+00    4.810650e-01   1.002435e-02
  3.937928e+00    4.819074e-01   1.006244e-02
  3.940138e+00    4.678667e-01   9.943387e-03
  3.942349e+00    4.961317e-01   1.026960e-02
  3.944559e+00    4.702797e-01   1.002791e-02
  3.946770e+00    4.959246e-01   1.032809e-02
  3.948980e+00    4.916950e-01   1.031490e-02
  3.951191e+00    4.921946e-01   1.035115e-02
  3.953401e+00    4.923270e-01   1.038411e-02
  3.955612e+00    4.697013e-01   1.017379e-02
  3.957822e+00    5.013899e-01   1.054358e-02
  3.960033e+00    4.721840e-01   1.026398e-02
  3.962243e+00    5.086007e-01   1.068610e-02
  3.964453e+00    4.884628e-01   1.050552e-02
  3.966664e+00    5.212616e-01   1.088719e-02
  3.968874e+00    5.016568e-01   1.070941e-02
  3.971085e+00    4.776289e-01   1.047144e-02
  3.973295e+00    4.924514e-01   1.065434e-02
  3.975506e+00    4.807702e-01   1.054870e-02
  3.977716e+00    4.886763e-01   1.065717e-02
  3.979927e+00    4.861046e-01   1.065120e-02
  3.982137e+00    4.919710e-01   1.073769e-02
  3.984348e+00    4.848361e-01   1.068220e-02
  3.986558e+00    5.071577e-01   1.094804e-02
  3.988768e+00    4.880756e-01   1.076325e-02
  3.990979e+00    4.804763e-01   1.070178e-02
  3.993189e+00    4.642966e-01   1.054261e-02
  3.995400e+00    4.842342e-01   1.079010e-02
  3.997610e+00    4.810147e-01   1.078386e-02
  3.999821e+00    4.933987e-01   1.095962e-02
  4.002031e+00    5.018689e-01   1.109237e-02
  4.004242e+00    5.035890e-01   1.115062e-02
  4.006452e+00    4.624871e-01   1.072434e-02
  4.008663e+00    5.045300e-01   1.124198e-02
  4.010873e+00    4.725098e-01   1.091891e-02
  4.013084e+00    4.685072e-01   1.091286e-02
  4.015294e+00    4.320075e-01   1.051775e-02
  4.017504e+00    4.611729e-01   1.090786e-02
  4.019715e+00    4.807819e-01   1.117966e-02
  4.021925e+00    4.583679e-01   1.095788e-02
  4.024136e+00    4.755438e-01   1.120448e-02
  4.026346e+00    4.939926e-01   1.146442e-02
  4.028557e+00    4.882950e-01   1.144258e-02
  4.030767e+00    4.899016e-01   1.150739e-02
  4.032978e+00    4.552906e-01   1.113838e-02
  4.035188e+00    4.762836e-01   1.143803e-02
  4.037399e+00    4.618766e-01   1.131029e-02
  4.039609e+00    4.853772e-01   1.164217e-02
  4.041819e+00    4.573427e-01   1.134855e-02
  4.044030e+00    4.612772e-01   1.144582e-02
  4.046240e+00    4.263726e-01   1.105128e-02
  4.048451e+00    4.671521e-01   1.161760e-02
  4.050661e+00    4.904902e-01   1.195618e-02
  4.052872e+00    4.888839e-01   1.198975e-02
  4.055082e+00    4.624681e-01   1.171365e-02
  4.057293e+00    4.684728e-01   1.184239e-02
  4.059503e+00    4.957900e-01   1.223815e-02
  4.061714e+00    4.663678e-01   1.192512e-02
  4.063924e+00    4.855903e-01   1.222520e-02
  4.066134e+00    4.882704e-01   1.231681e-02
  4.068345e+00    4.464734e-01   1.183450e-02
  4.070555e+00    4.688267e-01   1.218563e-02
  4.072766e+00    4.389209e-01   1.184878e-02
  4.074976e+00    4.737102e-01   1.237048e-02
  4.077187e+00    5.028748e-01   1.280920e-02
  4.079397e+00    4.695053e-01   1.244007e-02
  4.081608e+00    4.685440e-01   1.249191e-02
  4.083818e+00    4.967372e-01   1.292913e-02
  4.086029e+00    4.655400e-01   1.258267e-02
  4.088239e+00    4.768571e-01   1.280312e-02
  4.090449e+00    4.537496e-01   1.255690e-02
  4.092660e+00    4.879700e-01   1.309338e-02
  4.094870e+00    4.526074e-01   1.268018e-02
  4.097081e+00    4.531833e-01   1.275770e-02
  4.099291e+00    4.682696e-01   1.302194e-02
  4.101502e+00    5.037305e-01   1.355646e-02
  4.103712e+00    4.985394e-01   1.353667e-02
  4.105923e+00    4.901534e-01   1.347433e-02
  4.108133e+00    4.647774e-01   1.317144e-02
  4.110344e+00    4.821782e-01   1.346708e-02
  4.112554e+00    4.336859e-01   1.282247e-02
  4.114764e+00    4.332192e-01   1.286705e-02
  4.116975e+00    4.578319e-01   1.327948e-02
  4.119185e+00    4.559387e-01   1.330600e-02
  4.121396e+00    4.547281e-01   1.334306e-02
  4.123606e+00    4.708531e-01   1.363335e-02
  4.125817e+00    4.595514e-01   1.352512e-02
  4.128027e+00    4.997908e-01   1.416428e-02
  4.130238e+00    4.919904e-01   1.411362e-02
  4.132448e+00    4.777466e-01   1.396813e-02
  4.134659e+00    5.121280e-01   1.452421e-02
  4.136869e+00    4.915892e-01   1.429351e-02
  4.139080e+00    4.653862e-01   1.397024e-02
  4.141290e+00    4.276803e-01   1.345120e-02
  4.143500e+00    4.975333e-01   1.457542e-02
  4.145711e+00    4.781701e-01   1.435573e-02
  4.147921e+00    4.220613e-01   1.354895e-02
  4.150132e+00    4.958963e-01   1.475653e-02
  4.152342e+00    5.366415e-01   1.542499e-02
  4.154553e+00    4.695966e-01   1.449813e-02
  4.156763e+00    4.655610e-01   1.450709e-02
  4.158974e+00    4.766620e-01   1.475277e-02
  4.161184e+00    4.794546e-01   1.486931e-02
  4.163395e+00    5.077198e-01   1.537937e-02
  4.165605e+00    4.933816e-01   1.523961e-02
  4.167815e+00    5.030376e-01   1.546838e-02
  4.170026e+00    5.035820e-01   1.555797e-02
  4.172236e+00    5.233443e-01   1.594644e-02
  4.174447e+00    4.778246e-01   1.531982e-02
  4.176657e+00    4.435339e-01   1.484091e-02
  4.178868e+00    4.801407e-01   1.552816e-02
  4.181078e+00    5.053468e-01   1.602051e-02
  4.183289e+00    4.920997e-01   1.589952e-02
  4.185499e+00    4.622436e-01   1.550072e-02
  4.187710e+00    4.675619e-01   1.568093e-02
  4.189920e+00    4.455932e-01   1.540018e-02
  4.192130e+00    4.859770e-01   1.618114e-02
  4.194341e+00    5.236266e-01   1.689930e-02
  4.196551e+00    5.433813e-01   1.732427e-02
  4.198762e+00    4.763829e-01   1.632420e-02
  4.200972e+00    4.557550e-01   1.607001e-02
  4.203183e+00    4.204179e-01   1.553605e-02
  4.205393e+00    5.078441e-01   1.718909e-02
  4.207604e+00    4.854864e-01   1.692091e-02
  4.209814e+00    4.995218e-01   1.728163e-02
  4.212025e+00    4.585530e-01   1.667498e-02
  4.214235e+00    4.517307e-01   1.666813e-02
  4.216445e+00    5.179091e-01   1.797597e-02
  4.218656e+00    4.896804e-01   1.761053e-02
  4.220866e+00    4.636068e-01   1.726193e-02
  4.223077e+00    5.046201e-01   1.814803e-02
  4.225287e+00    4.486369e-01   1.724618e-02
  4.227498e+00    4.831857e-01   1.803841e-02
  4.229708e+00    5.367692e-01   1.916666e-02
  4.231919e+00    4.768316e-01   1.821477e-02
  4.234129e+00    4.235242e-01   1.731032e-02
  4.236340e+00    4.729968e-01   1.844960e-02
  4.238550e+00    4.783536e-01   1.871769e-02
  4.240761e+00    4.244067e-01   1.778688e-02
  4.242971e+00    4.458668e-01   1.839739e-02
  4.245181e+00    4.496383e-01   1.864909e-02
  4.247392e+00    4.637450e-01   1.911582e-02
  4.249602e+00    5.302344e-01   2.064372e-02
  4.251813e+00    4.337130e-01   1.885465e-02
  4.254023e+00    4.509899e-01   1.942008e-02
  4.256234e+00    5.563060e-01   2.179874e-02
  4.258444e+00    5.399086e-01   2.170051e-02
  4.260655e+00    4.780686e-01   2.064420e-02
  4.262865e+00    4.736157e-01   2.078096e-02
  4.265076e+00    4.236671e-01   1.987801e-02
  4.267286e+00    4.603734e-01   2.096688e-02
  4.269496e+00    4.331673e-01   2.058634e-02
  4.271707e+00    4.720864e-01   2.175662e-02
  4.273917e+00    4.681529e-01   2.194612e-02
  4.276128e+00    4.437937e-01   2.165118e-02
  4.278338e+00    4.632732e-01   2.241675e-02
  4.280549e+00    4.219481e-01   2.170021e-02
  4.282759e+00    4.916622e-01   2.376129e-02
  4.284970e+00    4.141923e-01   2.213217e-02
  4.287180e+00    4.888954e-01   2.433252e-02
  4.289391e+00    4.463995e-01   2.342602e-02
  4.291601e+00    4.684667e-01   2.418957e-02
  4.293811e+00    4.212683e-01   2.311847e-02
  4.296022e+00    4.408073e-01   2.383836e-02
  4.298232e+00    3.998459e-01   2.289346e-02
  4.300443e+00    4.810718e-01   2.531881e-02
  4.302653e+00    4.503305e-01   2.470859e-02
  4.304864e+00    4.963571e-01   2.616552e-02
  4.307074e+00    4.348847e-01   2.471179e-02
  4.309285e+00    5.256280e-01   2.741425e-02
  4.311495e+00    4.349207e-01   2.517104e-02
  4.313706e+00    4.146909e-01   2.480874e-02
  4.315916e+00    4.610430e-01   2.641651e-02
  4.318126e+00    5.267577e-01   2.851542e-02
  4.320337e+00    3.914837e-01   2.483188e-02
  4.322547e+00    4.823989e-01   2.785691e-02
  4.324758e+00    5.078345e-01   2.887855e-02
  4.326968e+00    4.597710e-01   2.778845e-02
  4.329179e+00    5.183414e-01   2.982955e-02
  4.331389e+00    5.276200e-01   3.044313e-02
  4.333600e+00    3.914414e-01   2.653514e-02
  4.335810e+00    4.611146e-01   2.914136e-02
  4.338021e+00    3.740519e-01   2.658233e-02
  4.340231e+00    5.682629e-01   3.317646e-02
  4.342442e+00    4.593890e-01   3.023029e-02
  4.344652e+00    4.168313e-01   2.918628e-02
  4.346862e+00    3.674243e-01   2.778511e-02
  4.349073e+00    4.793990e-01   3.220089e-02
  4.351283e+00    4.015476e-01   2.991088e-02
  4.353494e+00    3.624859e-01   2.885677e-02
  4.355704e+00    4.409468e-01   3.233982e-02
  4.357915e+00    4.203766e-01   3.210205e-02
  4.360125e+00    4.428191e-01   3.351117e-02
  4.362336e+00    5.178102e-01   3.689729e-02
  4.364546e+00    3.496549e-01   3.087271e-02
  4.366757e+00    3.521173e-01   3.159631e-02
  4.368967e+00    4.409150e-01   3.606292e-02
  4.371177e+00    4.601303e-01   3.762338e-02
  4.373388e+00    6.206045e-01   4.467060e-02
  4.375598e+00    4.289955e-01   3.798824e-02
  4.377809e+00    4.847017e-01   4.140056e-02
  4.380019e+00    3.549947e-01   3.632202e-02
  4.382230e+00    3.676011e-01   3.799196e-02
  4.384440e+00    5.009094e-01   4.562523e-02
  4.386651e+00    5.984170e-01   5.140618e-02
  4.388861e+00    3.410702e-01   4.011372e-02
  4.391072e+00    4.025367e-01   4.510757e-02
  4.393282e+00    4.597365e-01   5.007034e-02
  4.395492e+00    4.765154e-01   5.309513e-02
  4.397703e+00    4.365056e-01   5.313609e-02
  4.399913e+00    4.786294e-01   5.846095e-02
  4.402124e+00    2.539955e-01   4.500346e-02
  4.404334e+00    3.584595e-01   5.682395e-02
  4.406545e+00    3.992679e-01   6.444032e-02
  4.408755e+00    2.698855e-01   5.745183e-02
  4.410966e+00    3.828551e-01   7.574654e-02
  4.413176e+00    1.214129e-01   4.827859e-02
  4.415387e+00   -2.904102e-01            nan
  4.417597e+00   -1.749984e+00            nan
  4.419807e+00   -3.766224e-01            nan
