# == pyFAI calibration ==
# Distance Sample to Detector: 0.216 m
# PONI: 1.166e-01, 1.308e-01 m
# Rotations: 0.000000 0.000000 0.000000 rad
# 
# == Fit2d calibration ==
# Distance Sample-beamCenter: 216.000 mm
# Center: x=1744.293, y=1555.000 pix
# Tilt: 0.000 deg  TiltPlanRot: 0.000 deg
# 
# Detector Eiger 9M	 PixelSize= 7.500e-05, 7.500e-05 m
#    Detector has a mask: True 
#    Detector has a dark current: False 
#    detector has a flat field: False 
# 
# Wavelength: 9.8e-11 m
# Mask applied: from detector
# Dark current applied: False
# Flat field applied: False
# Polarization factor: None
# Normalization factor: 1.0
# 
# Headers of the input frame:
# {
# "_array_data.header_convention": "SLS_1.0",
# "_array_data.header_contents": "# Detector: Dectris Eiger 9M, S/N E-18-0102\r\n# Pixel_size 75e-6 m x 75e-6 m\r\n# Silicon sensor, thickness 0.000450 m\r\n# Exposure_time 0.024997 s\r\n# Exposure_period 0.025000 s\r\n# Count_cutoff 62318 counts\r\n# Wavelength 0.980106 A\r\n# Detector_distance 0.215992 m\r\n# Beam_xy (1555, 1744) pixels\r\n# Start_angle 0.000000 deg.\r\n# Angle_increment 0.000000 deg.",
# "Content-Type": "application/octet-stream;",
# "conversions": "x-CBF_BYTE_OFFSET",
# "Content-Transfer-Encoding": "BINARY",
# "X-Binary-Size": "10166630",
# "X-Binary-ID": "1",
# "X-Binary-Element-Type": "signed 32-bit integer",
# "X-Binary-Element-Byte-Order": "LITTLE_ENDIAN",
# "Content-MD5": "ogz2pqDOtCbu/lTU/23ZbA==",
# "X-Binary-Number-of-Elements": "10166590",
# "X-Binary-Size-Fastest-Dimension": "3110",
# "X-Binary-Size-Second-Dimension": "3269",
# "X-Binary-Size-Padding": "4095"
# }
# --> H:/Proxima2a_2019-04-05/RAW_DATA/C5_gel17_position5/C5_mesh_1_data.cbf/C5_mesh_1_data.cbf000096.dat
#        q_A^-1              I           sigma 
  1.105228e-03    1.671629e+00   6.996114e-01
  3.315685e-03    1.590572e+00   4.148796e-01
  5.526141e-03    1.011564e+00   2.558402e-01
  7.736597e-03    1.183406e+00   2.337691e-01
  9.947054e-03    1.362095e+00   2.210957e-01
  1.215751e-02    1.353189e+00   1.992727e-01
  1.436797e-02    1.304894e+00   1.799962e-01
  1.657842e-02    1.500553e+00   1.796677e-01
  1.878888e-02    1.447780e+00   1.657734e-01
  2.099934e-02    1.186332e+00   1.419728e-01
  2.320979e-02    1.244362e+00   1.382949e-01
  2.542025e-02    1.304715e+00   1.353217e-01
  2.763070e-02    1.275529e+00   1.283322e-01
  2.984116e-02    1.433212e+00   1.308976e-01
  3.205162e-02    1.322915e+00   1.213535e-01
  3.426207e-02    1.461555e+00   1.233623e-01
  3.647253e-02    1.683514e+00   1.283211e-01
  3.868299e-02    1.540007e+00   1.191810e-01
  4.089344e-02    1.478132e+00   1.135631e-01
  4.310390e-02    1.425101e+00   1.086042e-01
  4.531436e-02    1.363450e+00   1.036061e-01
  4.752481e-02    1.527472e+00   1.070793e-01
  4.973527e-02    1.511994e+00   1.041422e-01
  5.194572e-02    1.419011e+00   9.871788e-02
  5.415618e-02    1.418615e+00   9.666540e-02
  5.636664e-02    1.455083e+00   9.596418e-02
  5.857709e-02    1.329383e+00   8.997871e-02
  6.078755e-02    1.352539e+00   8.909066e-02
  6.299801e-02    1.413337e+00   8.945805e-02
  6.520846e-02    1.412335e+00   8.789811e-02
  6.741892e-02    1.379797e+00   8.543926e-02
  6.962938e-02    1.460618e+00   8.650370e-02
  7.183983e-02    1.507776e+00   8.652479e-02
  7.405029e-02    1.549294e+00   8.638693e-02
  7.626074e-02    1.562139e+00   8.547717e-02
  7.847120e-02    1.451229e+00   8.121608e-02
  8.068166e-02    1.351531e+00   7.729499e-02
  8.289211e-02    1.463932e+00   7.936465e-02
  8.510257e-02    1.587058e+00   8.155411e-02
  8.731303e-02    1.481159e+00   7.777959e-02
  8.952348e-02    1.481123e+00   7.681450e-02
  9.173394e-02    1.603321e+00   7.894853e-02
  9.394439e-02    1.616640e+00   7.833502e-02
  9.615485e-02    1.603212e+00   7.710548e-02
  9.836531e-02    1.526908e+00   7.439590e-02
  1.005758e-01    1.457724e+00   7.188812e-02
  1.027862e-01    1.468745e+00   7.137745e-02
  1.049967e-01    1.504568e+00   7.147691e-02
  1.072071e-01    1.545156e+00   7.168312e-02
  1.094176e-01    1.559860e+00   7.129107e-02
  1.116280e-01    1.607420e+00   7.164805e-02
  1.138385e-01    1.645284e+00   7.177840e-02
  1.160490e-01    1.605327e+00   7.022210e-02
  1.182594e-01    1.607483e+00   6.960788e-02
  1.204699e-01    1.572390e+00   6.820887e-02
  1.226803e-01    1.548027e+00   6.706311e-02
  1.248908e-01    1.565137e+00   6.683251e-02
  1.271012e-01    1.550228e+00   6.593121e-02
  1.293117e-01    1.624369e+00   6.690925e-02
  1.315222e-01    1.579865e+00   6.542794e-02
  1.337326e-01    1.550067e+00   6.426892e-02
  1.359431e-01    1.565341e+00   6.462257e-02
  1.381535e-01    1.548537e+00   6.513756e-02
  1.403640e-01    1.549176e+00   6.543228e-02
  1.425744e-01    1.585352e+00   6.629756e-02
  1.447849e-01    1.595415e+00   6.652301e-02
  1.469953e-01    1.614393e+00   6.687557e-02
  1.492058e-01    1.640235e+00   6.733035e-02
  1.514163e-01    1.641743e+00   6.724945e-02
  1.536267e-01    1.591398e+00   6.608102e-02
  1.558372e-01    1.547920e+00   6.502820e-02
  1.580476e-01    1.656591e+00   6.710889e-02
  1.602581e-01    1.628404e+00   6.636652e-02
  1.624685e-01    1.618471e+00   6.598265e-02
  1.646790e-01    1.539033e+00   6.415823e-02
  1.668895e-01    1.600245e+00   6.523275e-02
  1.690999e-01    1.665403e+00   6.634769e-02
  1.713104e-01    1.781772e+00   6.841361e-02
  1.735208e-01    1.818115e+00   6.889289e-02
  1.757313e-01    1.840225e+00   6.909330e-02
  1.779417e-01    1.863057e+00   6.929388e-02
  1.801522e-01    1.887152e+00   6.951844e-02
  1.823626e-01    1.812388e+00   6.790063e-02
  1.845731e-01    1.941140e+00   7.004345e-02
  1.867836e-01    1.978529e+00   7.047615e-02
  1.889940e-01    1.961944e+00   6.995084e-02
  1.912045e-01    1.900318e+00   6.861357e-02
  1.934149e-01    1.957497e+00   6.940509e-02
  1.956254e-01    1.953330e+00   6.910253e-02
  1.978358e-01    1.947356e+00   6.876033e-02
  2.000463e-01    2.048902e+00   7.029659e-02
  2.022568e-01    2.110720e+00   7.111501e-02
  2.044672e-01    2.080055e+00   7.035469e-02
  2.066777e-01    2.077455e+00   7.007732e-02
  2.088881e-01    2.117819e+00   7.052335e-02
  2.110986e-01    1.998072e+00   6.826566e-02
  2.133090e-01    2.021823e+00   6.844693e-02
  2.155195e-01    1.960104e+00   6.717059e-02
  2.177300e-01    1.968706e+00   6.678895e-02
  2.199404e-01    2.034953e+00   6.611416e-02
  2.221509e-01    1.997931e+00   6.443428e-02
  2.243613e-01    1.955554e+00   6.293914e-02
  2.265718e-01    2.017283e+00   6.322017e-02
  2.287822e-01    2.106899e+00   6.396969e-02
  2.309927e-01    2.106945e+00   6.338763e-02
  2.332031e-01    2.179036e+00   6.391121e-02
  2.354136e-01    2.163132e+00   6.316147e-02
  2.376241e-01    2.145087e+00   6.240926e-02
  2.398345e-01    2.096385e+00   6.124011e-02
  2.420450e-01    2.129938e+00   6.128709e-02
  2.442554e-01    2.136733e+00   6.096188e-02
  2.464659e-01    2.172117e+00   6.105190e-02
  2.486763e-01    2.124176e+00   5.997755e-02
  2.508868e-01    2.109472e+00   5.939256e-02
  2.530973e-01    2.137120e+00   5.940988e-02
  2.553077e-01    2.148623e+00   5.920821e-02
  2.575182e-01    2.137423e+00   5.870431e-02
  2.597286e-01    2.131756e+00   5.828564e-02
  2.619391e-01    2.194221e+00   5.879297e-02
  2.641495e-01    2.133000e+00   5.764617e-02
  2.663600e-01    2.107417e+00   5.698431e-02
  2.685704e-01    2.117650e+00   5.681285e-02
  2.707809e-01    2.006340e+00   5.500604e-02
  2.729914e-01    2.048570e+00   5.529226e-02
  2.752018e-01    2.087451e+00   5.552399e-02
  2.774123e-01    2.061948e+00   5.490189e-02
  2.796227e-01    2.049564e+00   5.446602e-02
  2.818332e-01    2.042745e+00   5.410409e-02
  2.840436e-01    2.044813e+00   5.386907e-02
  2.862541e-01    2.045985e+00   5.362548e-02
  2.884646e-01    1.962107e+00   5.226553e-02
  2.906750e-01    2.013819e+00   5.269871e-02
  2.928855e-01    2.027016e+00   5.262613e-02
  2.950959e-01    2.019649e+00   5.228912e-02
  2.973064e-01    1.997455e+00   5.176729e-02
  2.995168e-01    2.003311e+00   5.160833e-02
  3.017273e-01    2.009333e+00   5.145797e-02
  3.039377e-01    1.905351e+00   4.988940e-02
  3.061482e-01    1.950581e+00   5.025969e-02
  3.083587e-01    1.990072e+00   5.054620e-02
  3.105691e-01    1.938722e+00   4.967671e-02
  3.127796e-01    1.951438e+00   4.962983e-02
  3.149900e-01    1.940342e+00   4.928233e-02
  3.172005e-01    1.893641e+00   4.848658e-02
  3.194109e-01    1.885471e+00   4.818214e-02
  3.216214e-01    1.930663e+00   4.855718e-02
  3.238319e-01    1.962544e+00   4.876252e-02
  3.260423e-01    1.972654e+00   4.869321e-02
  3.282528e-01    1.924314e+00   4.790146e-02
  3.304632e-01    1.913557e+00   4.758231e-02
  3.326737e-01    1.920352e+00   4.748074e-02
  3.348841e-01    1.865603e+00   4.661754e-02
  3.370946e-01    1.844500e+00   4.617872e-02
  3.393050e-01    1.876020e+00   4.639521e-02
  3.415155e-01    1.884211e+00   4.632154e-02
  3.437260e-01    1.975251e+00   4.725163e-02
  3.459364e-01    1.961035e+00   4.690713e-02
  3.481469e-01    1.860881e+00   4.552683e-02
  3.503573e-01    1.853983e+00   4.527682e-02
  3.525678e-01    1.867738e+00   4.528252e-02
  3.547782e-01    1.907311e+00   4.559432e-02
  3.569887e-01    1.864976e+00   4.492575e-02
  3.591992e-01    1.845086e+00   4.452740e-02
  3.614096e-01    1.894331e+00   4.496128e-02
  3.636201e-01    1.885395e+00   4.469747e-02
  3.658305e-01    1.864890e+00   4.430212e-02
  3.680410e-01    1.847426e+00   4.394255e-02
  3.702514e-01    1.852284e+00   4.385230e-02
  3.724619e-01    1.844737e+00   4.361386e-02
  3.746724e-01    1.820644e+00   4.318355e-02
  3.768828e-01    1.792899e+00   4.270904e-02
  3.790933e-01    1.783553e+00   4.245878e-02
  3.813037e-01    1.783091e+00   4.231436e-02
  3.835142e-01    1.827582e+00   4.269833e-02
  3.857246e-01    1.835799e+00   4.265570e-02
  3.879351e-01    1.822773e+00   4.236656e-02
  3.901455e-01    1.823970e+00   4.224551e-02
  3.923560e-01    1.837511e+00   4.226729e-02
  3.945665e-01    1.773827e+00   4.139668e-02
  3.967769e-01    1.820166e+00   4.180259e-02
  3.989874e-01    1.786253e+00   4.128202e-02
  4.011978e-01    1.813075e+00   4.146291e-02
  4.034083e-01    1.844002e+00   4.168667e-02
  4.056187e-01    1.862042e+00   4.176106e-02
  4.078292e-01    1.769070e+00   4.058196e-02
  4.100397e-01    1.835082e+00   4.120595e-02
  4.122501e-01    1.863835e+00   4.140330e-02
  4.144606e-01    1.837186e+00   4.098434e-02
  4.166710e-01    1.818998e+00   4.065970e-02
  4.188815e-01    1.865761e+00   4.105737e-02
  4.210919e-01    1.901045e+00   4.132234e-02
  4.233024e-01    1.822791e+00   4.034390e-02
  4.255128e-01    1.853167e+00   4.056107e-02
  4.277233e-01    1.873535e+00   4.066619e-02
  4.299338e-01    1.804598e+00   3.979619e-02
  4.321442e-01    1.854360e+00   4.022569e-02
  4.343547e-01    1.847428e+00   4.003692e-02
  4.365651e-01    1.798174e+00   3.938738e-02
  4.387756e-01    1.803388e+00   3.933398e-02
  4.409860e-01    1.766802e+00   3.882510e-02
  4.431965e-01    1.728576e+00   3.829660e-02
  4.454070e-01    1.798211e+00   3.895169e-02
  4.476174e-01    1.785949e+00   3.871208e-02
  4.498279e-01    1.801300e+00   3.877232e-02
  4.520383e-01    1.762216e+00   3.824414e-02
  4.542488e-01    1.717900e+00   3.765839e-02
  4.564592e-01    1.695127e+00   3.730756e-02
  4.586697e-01    1.729699e+00   3.758610e-02
  4.608801e-01    1.710290e+00   3.727448e-02
  4.630906e-01    1.703692e+00   3.710402e-02
  4.653011e-01    1.724048e+00   3.722687e-02
  4.675115e-01    1.773010e+00   3.765235e-02
  4.697220e-01    1.778005e+00   3.760663e-02
  4.719324e-01    1.755336e+00   3.726948e-02
  4.741429e-01    1.728187e+00   3.688485e-02
  4.763533e-01    1.749416e+00   3.701558e-02
  4.785638e-01    1.717809e+00   3.658491e-02
  4.807743e-01    1.698590e+00   3.628717e-02
  4.829847e-01    1.666658e+00   3.585365e-02
  4.851952e-01    1.699451e+00   3.611302e-02
  4.874056e-01    1.767405e+00   3.673511e-02
  4.896161e-01    1.737511e+00   3.633280e-02
  4.918265e-01    1.753250e+00   3.640633e-02
  4.940370e-01    1.683936e+00   3.559136e-02
  4.962475e-01    1.723878e+00   3.592204e-02
  4.984579e-01    1.730810e+00   3.590548e-02
  5.006684e-01    1.737687e+00   3.588903e-02
  5.028788e-01    1.742052e+00   3.584701e-02
  5.050893e-01    1.693942e+00   3.526258e-02
  5.072997e-01    1.723014e+00   3.547798e-02
  5.095102e-01    1.742217e+00   3.558972e-02
  5.117206e-01    1.680475e+00   3.487027e-02
  5.139311e-01    1.680249e+00   3.478540e-02
  5.161416e-01    1.701782e+00   3.492486e-02
  5.183520e-01    1.701024e+00   3.483411e-02
  5.205625e-01    1.677763e+00   3.451407e-02
  5.227729e-01    1.678357e+00   3.443965e-02
  5.249834e-01    1.737495e+00   3.495981e-02
  5.271938e-01    1.770872e+00   3.521165e-02
  5.294043e-01    1.770640e+00   3.512809e-02
  5.316148e-01    1.774613e+00   3.508694e-02
  5.338252e-01    1.764980e+00   3.491161e-02
  5.360357e-01    1.734973e+00   3.453476e-02
  5.382461e-01    1.779444e+00   3.489549e-02
  5.404566e-01    1.819156e+00   3.520244e-02
  5.426670e-01    1.798406e+00   3.492223e-02
  5.448775e-01    1.762882e+00   3.449837e-02
  5.470879e-01    1.801657e+00   3.479791e-02
  5.492984e-01    1.839130e+00   3.507975e-02
  5.515089e-01    1.801162e+00   3.463880e-02
  5.537193e-01    1.773463e+00   3.429566e-02
  5.559298e-01    1.818853e+00   3.465561e-02
  5.581402e-01    1.830480e+00   3.469022e-02
  5.603507e-01    1.854187e+00   3.483816e-02
  5.625611e-01    1.841029e+00   3.463900e-02
  5.647716e-01    1.805951e+00   3.423294e-02
  5.669821e-01    1.794734e+00   3.405286e-02
  5.691925e-01    1.807466e+00   3.410010e-02
  5.714030e-01    1.759928e+00   3.357693e-02
  5.736134e-01    1.756457e+00   3.347247e-02
  5.758239e-01    1.769632e+00   3.352607e-02
  5.780343e-01    1.700994e+00   3.279992e-02
  5.802448e-01    1.677339e+00   3.250288e-02
  5.824552e-01    1.675148e+00   3.241347e-02
  5.846657e-01    1.698961e+00   3.257500e-02
  5.868762e-01    1.702352e+00   3.253961e-02
  5.890866e-01    1.687026e+00   3.232559e-02
  5.912971e-01    1.681655e+00   3.220729e-02
  5.935075e-01    1.672186e+00   3.205010e-02
  5.957180e-01    1.686091e+00   3.211706e-02
  5.979284e-01    1.671438e+00   3.191190e-02
  6.001389e-01    1.701759e+00   3.213450e-02
  6.023494e-01    1.695592e+00   3.201109e-02
  6.045598e-01    1.686653e+00   3.186158e-02
  6.067703e-01    1.684640e+00   3.177855e-02
  6.089807e-01    1.729668e+00   3.213569e-02
  6.111912e-01    1.699645e+00   3.179198e-02
  6.134016e-01    1.701727e+00   3.174797e-02
  6.156121e-01    1.698729e+00   3.165697e-02
  6.178226e-01    1.698518e+00   3.159231e-02
  6.200330e-01    1.747710e+00   3.198331e-02
  6.222435e-01    1.726818e+00   3.172861e-02
  6.244539e-01    1.706842e+00   3.148279e-02
  6.266644e-01    1.714073e+00   3.148786e-02
  6.288748e-01    1.684170e+00   3.115125e-02
  6.310853e-01    1.715904e+00   3.138229e-02
  6.332957e-01    1.754293e+00   3.167015e-02
  6.355062e-01    1.760862e+00   3.166774e-02
  6.377167e-01    1.748269e+00   3.149377e-02
  6.399271e-01    1.744063e+00   3.139558e-02
  6.421376e-01    1.780419e+00   3.166057e-02
  6.443480e-01    1.709286e+00   3.096267e-02
  6.465585e-01    1.707229e+00   3.088539e-02
  6.487689e-01    1.726010e+00   3.099618e-02
  6.509794e-01    1.696865e+00   3.067540e-02
  6.531899e-01    1.695099e+00   3.060177e-02
  6.554003e-01    1.690165e+00   3.049975e-02
  6.576108e-01    1.647815e+00   3.005916e-02
  6.598212e-01    1.639529e+00   2.992777e-02
  6.620317e-01    1.627336e+00   2.976101e-02
  6.642421e-01    1.619731e+00   2.963646e-02
  6.664526e-01    1.626308e+00   2.964185e-02
  6.686630e-01    1.620137e+00   2.953086e-02
  6.708735e-01    1.613472e+00   2.941599e-02
  6.730840e-01    1.638810e+00   2.959203e-02
  6.752944e-01    1.627569e+00   2.943673e-02
  6.775049e-01    1.631364e+00   2.941751e-02
  6.797153e-01    1.664997e+00   2.966540e-02
  6.819258e-01    1.599578e+00   2.902434e-02
  6.841362e-01    1.641430e+00   2.934868e-02
  6.863467e-01    1.621864e+00   2.912103e-02
  6.885572e-01    1.576960e+00   2.866360e-02
  6.907676e-01    1.581403e+00   2.865249e-02
  6.929781e-01    1.634367e+00   2.907660e-02
  6.951885e-01    1.616090e+00   2.886235e-02
  6.973990e-01    1.642757e+00   2.904805e-02
  6.996094e-01    1.629770e+00   2.888210e-02
  7.018199e-01    1.635176e+00   2.887919e-02
  7.040303e-01    1.593024e+00   2.845447e-02
  7.062408e-01    1.609418e+00   2.855040e-02
  7.084513e-01    1.642889e+00   2.879558e-02
  7.106617e-01    1.620896e+00   2.855249e-02
  7.128722e-01    1.669885e+00   2.893060e-02
  7.150826e-01    1.624388e+00   2.848461e-02
  7.172931e-01    1.610641e+00   2.831491e-02
  7.195035e-01    1.557300e+00   2.779424e-02
  7.217140e-01    1.599156e+00   2.821511e-02
  7.239245e-01    1.600177e+00   2.845269e-02
  7.261349e-01    1.600867e+00   2.856832e-02
  7.283454e-01    1.591936e+00   2.856135e-02
  7.305558e-01    1.591161e+00   2.860864e-02
  7.327663e-01    1.623552e+00   2.894152e-02
  7.349767e-01    1.603909e+00   2.878246e-02
  7.371872e-01    1.590760e+00   2.865296e-02
  7.393976e-01    1.594496e+00   2.867226e-02
  7.416081e-01    1.594351e+00   2.865469e-02
  7.438186e-01    1.614269e+00   2.868698e-02
  7.460290e-01    1.595397e+00   2.822264e-02
  7.482395e-01    1.625099e+00   2.831024e-02
  7.504499e-01    1.620793e+00   2.813448e-02
  7.526604e-01    1.580703e+00   2.766756e-02
  7.548708e-01    1.584907e+00   2.761461e-02
  7.570813e-01    1.620170e+00   2.786842e-02
  7.592918e-01    1.624112e+00   2.786659e-02
  7.615022e-01    1.611033e+00   2.771996e-02
  7.637127e-01    1.603855e+00   2.762507e-02
  7.659231e-01    1.609403e+00   2.764044e-02
  7.681336e-01    1.629788e+00   2.778279e-02
  7.703440e-01    1.620650e+00   2.767313e-02
  7.725545e-01    1.611722e+00   2.756554e-02
  7.747650e-01    1.682258e+00   2.812279e-02
  7.769754e-01    1.673929e+00   2.799878e-02
  7.791859e-01    1.632262e+00   2.759367e-02
  7.813963e-01    1.614718e+00   2.739178e-02
  7.836068e-01    1.630363e+00   2.747143e-02
  7.858172e-01    1.620006e+00   2.733283e-02
  7.880277e-01    1.623546e+00   2.731061e-02
  7.902381e-01    1.710478e+00   2.798131e-02
  7.924486e-01    1.713479e+00   2.795399e-02
  7.946591e-01    1.672865e+00   2.757134e-02
  7.968695e-01    1.635947e+00   2.721662e-02
  7.990800e-01    1.641599e+00   2.721486e-02
  8.012904e-01    1.628142e+00   2.705621e-02
  8.035009e-01    1.647841e+00   2.717096e-02
  8.057113e-01    1.664988e+00   2.726473e-02
  8.079218e-01    1.633057e+00   2.695544e-02
  8.101323e-01    1.618005e+00   2.678534e-02
  8.123427e-01    1.668876e+00   2.715680e-02
  8.145532e-01    1.664584e+00   2.707545e-02
  8.167636e-01    1.668300e+00   2.706008e-02
  8.189741e-01    1.656096e+00   2.691598e-02
  8.211845e-01    1.663935e+00   2.693437e-02
  8.233950e-01    1.677155e+00   2.699720e-02
  8.256054e-01    1.664177e+00   2.684797e-02
  8.278159e-01    1.655279e+00   2.673190e-02
  8.300264e-01    1.679575e+00   2.688372e-02
  8.322368e-01    1.660791e+00   2.668958e-02
  8.344473e-01    1.653172e+00   2.658472e-02
  8.366577e-01    1.655838e+00   2.656334e-02
  8.388682e-01    1.682676e+00   2.673495e-02
  8.410786e-01    1.641253e+00   2.636174e-02
  8.432891e-01    1.669831e+00   2.654801e-02
  8.454996e-01    1.678066e+00   2.657129e-02
  8.477100e-01    1.664080e+00   2.641832e-02
  8.499205e-01    1.649192e+00   2.625859e-02
  8.521309e-01    1.643185e+00   2.616985e-02
  8.543414e-01    1.643183e+00   2.612899e-02
  8.565518e-01    1.649666e+00   2.613974e-02
  8.587623e-01    1.631976e+00   2.595873e-02
  8.609727e-01    1.597147e+00   2.564042e-02
  8.631832e-01    1.615639e+00   2.574865e-02
  8.653937e-01    1.624694e+00   2.578103e-02
  8.676041e-01    1.606403e+00   2.559682e-02
  8.698146e-01    1.615670e+00   2.563130e-02
  8.720250e-01    1.618848e+00   2.561740e-02
  8.742355e-01    1.593240e+00   2.537530e-02
  8.764459e-01    1.578890e+00   2.522221e-02
  8.786564e-01    1.592563e+00   2.529342e-02
  8.808669e-01    1.631516e+00   2.556208e-02
  8.830773e-01    1.596818e+00   2.525074e-02
  8.852878e-01    1.601032e+00   2.524612e-02
  8.874982e-01    1.588881e+00   2.511363e-02
  8.897087e-01    1.602291e+00   2.518169e-02
  8.919191e-01    1.586004e+00   2.501580e-02
  8.941296e-01    1.584616e+00   2.496775e-02
  8.963401e-01    1.592154e+00   2.499073e-02
  8.985505e-01    1.598205e+00   2.500123e-02
  9.007610e-01    1.581523e+00   2.483388e-02
  9.029714e-01    1.564972e+00   2.466815e-02
  9.051819e-01    1.563675e+00   2.462112e-02
  9.073923e-01    1.593327e+00   2.481696e-02
  9.096028e-01    1.638563e+00   2.513146e-02
  9.118132e-01    1.613129e+00   2.489929e-02
  9.140237e-01    1.619368e+00   2.491055e-02
  9.162342e-01    1.629102e+00   2.495042e-02
  9.184446e-01    1.599352e+00   2.468581e-02
  9.206551e-01    1.611831e+00   2.474621e-02
  9.228655e-01    1.624648e+00   2.480889e-02
  9.250760e-01    1.602562e+00   2.460433e-02
  9.272864e-01    1.625713e+00   2.474691e-02
  9.294969e-01    1.611445e+00   2.460215e-02
  9.317074e-01    1.628851e+00   2.469971e-02
  9.339178e-01    1.647366e+00   2.480578e-02
  9.361283e-01    1.630934e+00   2.464536e-02
  9.383387e-01    1.661887e+00   2.484430e-02
  9.405492e-01    1.658101e+00   2.478133e-02
  9.427596e-01    1.671824e+00   2.484783e-02
  9.449701e-01    1.693018e+00   2.497087e-02
  9.471805e-01    1.713159e+00   2.508338e-02
  9.493910e-01    1.703419e+00   2.497766e-02
  9.516015e-01    1.738189e+00   2.519605e-02
  9.538119e-01    1.726964e+00   2.508016e-02
  9.560224e-01    1.725792e+00   2.503636e-02
  9.582328e-01    1.716066e+00   2.493220e-02
  9.604433e-01    1.774560e+00   2.531767e-02
  9.626537e-01    1.787348e+00   2.537455e-02
  9.648642e-01    1.808264e+00   2.548767e-02
  9.670747e-01    1.788859e+00   2.531555e-02
  9.692851e-01    1.815390e+00   2.546871e-02
  9.714956e-01    1.819898e+00   2.546434e-02
  9.737060e-01    1.857456e+00   2.569197e-02
  9.759165e-01    1.856924e+00   2.565208e-02
  9.781269e-01    1.801139e+00   2.523079e-02
  9.803374e-01    1.805604e+00   2.522708e-02
  9.825478e-01    1.811717e+00   2.523642e-02
  9.847583e-01    1.831486e+00   2.533927e-02
  9.869688e-01    1.811704e+00   2.516834e-02
  9.891792e-01    1.779032e+00   2.490721e-02
  9.913897e-01    1.792698e+00   2.496894e-02
  9.936001e-01    1.783056e+00   2.486912e-02
  9.958106e-01    1.744467e+00   2.456510e-02
  9.980210e-01    1.731133e+00   2.443927e-02
  1.000231e+00    1.758928e+00   2.476963e-02
  1.002442e+00    1.787263e+00   2.510103e-02
  1.004652e+00    1.672562e+00   2.434999e-02
  1.006863e+00    1.612502e+00   2.395837e-02
  1.009073e+00    1.652739e+00   2.429257e-02
  1.011284e+00    1.629495e+00   2.415340e-02
  1.013494e+00    1.598002e+00   2.394259e-02
  1.015705e+00    1.600127e+00   2.398112e-02
  1.017915e+00    1.617900e+00   2.413056e-02
  1.020126e+00    1.613831e+00   2.411650e-02
  1.022336e+00    1.559577e+00   2.371934e-02
  1.024547e+00    1.520399e+00   2.343061e-02
  1.026757e+00    1.548906e+00   2.365761e-02
  1.028967e+00    1.582593e+00   2.392127e-02
  1.031178e+00    1.568536e+00   2.382103e-02
  1.033388e+00    1.564896e+00   2.379850e-02
  1.035599e+00    1.552647e+00   2.370862e-02
  1.037809e+00    1.533607e+00   2.356608e-02
  1.040020e+00    1.514848e+00   2.342277e-02
  1.042230e+00    1.519582e+00   2.346127e-02
  1.044441e+00    1.502993e+00   2.333264e-02
  1.046651e+00    1.495070e+00   2.327124e-02
  1.048862e+00    1.479885e+00   2.315195e-02
  1.051072e+00    1.523594e+00   2.348900e-02
  1.053282e+00    1.527922e+00   2.352139e-02
  1.055493e+00    1.553645e+00   2.371414e-02
  1.057703e+00    1.566420e+00   2.380993e-02
  1.059914e+00    1.514020e+00   2.340398e-02
  1.062124e+00    1.522092e+00   2.346218e-02
  1.064335e+00    1.508795e+00   2.335602e-02
  1.066545e+00    1.522908e+00   2.345891e-02
  1.068756e+00    1.493314e+00   2.322614e-02
  1.070966e+00    1.439229e+00   2.279518e-02
  1.073177e+00    1.449919e+00   2.287367e-02
  1.075387e+00    1.476287e+00   2.307547e-02
  1.077597e+00    1.510631e+00   2.333500e-02
  1.079808e+00    1.496112e+00   2.308840e-02
  1.082018e+00    1.503222e+00   2.295155e-02
  1.084229e+00    1.501582e+00   2.282743e-02
  1.086439e+00    1.482600e+00   2.259446e-02
  1.088650e+00    1.466119e+00   2.239253e-02
  1.090860e+00    1.419061e+00   2.196344e-02
  1.093071e+00    1.423891e+00   2.193917e-02
  1.095281e+00    1.400671e+00   2.170320e-02
  1.097492e+00    1.424828e+00   2.183501e-02
  1.099702e+00    1.450741e+00   2.198112e-02
  1.101912e+00    1.414555e+00   2.165683e-02
  1.104123e+00    1.402805e+00   2.151901e-02
  1.106333e+00    1.447185e+00   2.181211e-02
  1.108544e+00    1.428123e+00   2.162378e-02
  1.110754e+00    1.394788e+00   2.132736e-02
  1.112965e+00    1.420614e+00   2.148338e-02
  1.115175e+00    1.413250e+00   2.138657e-02
  1.117386e+00    1.413682e+00   2.135058e-02
  1.119596e+00    1.402012e+00   2.122455e-02
  1.121807e+00    1.381369e+00   2.102929e-02
  1.124017e+00    1.366053e+00   2.087627e-02
  1.126228e+00    1.390897e+00   2.102966e-02
  1.128438e+00    1.427557e+00   2.126789e-02
  1.130648e+00    1.436922e+00   2.130277e-02
  1.132859e+00    1.396770e+00   2.096866e-02
  1.135069e+00    1.412657e+00   2.105260e-02
  1.137280e+00    1.391049e+00   2.085796e-02
  1.139490e+00    1.377717e+00   2.072481e-02
  1.141701e+00    1.409383e+00   2.092821e-02
  1.143911e+00    1.386123e+00   2.072293e-02
  1.146122e+00    1.359884e+00   2.049407e-02
  1.148332e+00    1.355111e+00   2.042647e-02
  1.150543e+00    1.368478e+00   2.049623e-02
  1.152753e+00    1.366000e+00   2.044695e-02
  1.154963e+00    1.388865e+00   2.058614e-02
  1.157174e+00    1.389291e+00   2.055896e-02
  1.159384e+00    1.369626e+00   2.038313e-02
  1.161595e+00    1.366452e+00   2.032969e-02
  1.163805e+00    1.359124e+00   2.024594e-02
  1.166016e+00    1.385629e+00   2.041278e-02
  1.168226e+00    1.384039e+00   2.037192e-02
  1.170437e+00    1.388375e+00   2.037495e-02
  1.172647e+00    1.365740e+00   2.017930e-02
  1.174858e+00    1.364943e+00   2.014529e-02
  1.177068e+00    1.375743e+00   2.019645e-02
  1.179278e+00    1.373583e+00   2.015189e-02
  1.181489e+00    1.354452e+00   1.998409e-02
  1.183699e+00    1.392945e+00   2.023816e-02
  1.185910e+00    1.370976e+00   2.005004e-02
  1.188120e+00    1.366160e+00   1.998801e-02
  1.190331e+00    1.354182e+00   1.987343e-02
  1.192541e+00    1.374251e+00   1.999258e-02
  1.194752e+00    1.328558e+00   1.963060e-02
  1.196962e+00    1.351074e+00   1.977050e-02
  1.199173e+00    1.317496e+00   1.949711e-02
  1.201383e+00    1.331463e+00   1.957319e-02
  1.203593e+00    1.380540e+00   1.990556e-02
  1.205804e+00    1.408034e+00   2.007633e-02
  1.208014e+00    1.424060e+00   2.016267e-02
  1.210225e+00    1.635731e+00   2.158129e-02
  1.212435e+00    1.877375e+00   2.309135e-02
  1.214646e+00    1.741813e+00   2.221250e-02
  1.216856e+00    1.520747e+00   2.072802e-02
  1.219067e+00    1.432250e+00   2.009065e-02
  1.221277e+00    1.387865e+00   1.975152e-02
  1.223488e+00    1.383817e+00   1.969661e-02
  1.225698e+00    1.357689e+00   1.948281e-02
  1.227909e+00    1.398620e+00   1.974357e-02
  1.230119e+00    1.470643e+00   2.021233e-02
  1.232329e+00    1.401994e+00   1.970364e-02
  1.234540e+00    1.409243e+00   1.972355e-02
  1.236750e+00    1.408989e+00   1.969087e-02
  1.238961e+00    1.445324e+00   1.991520e-02
  1.241171e+00    1.509188e+00   2.032490e-02
  1.243382e+00    1.488022e+00   2.015720e-02
  1.245592e+00    1.440053e+00   1.980474e-02
  1.247803e+00    1.473013e+00   2.000538e-02
  1.250013e+00    1.507416e+00   2.021276e-02
  1.252224e+00    1.602965e+00   2.081819e-02
  1.254434e+00    1.620470e+00   2.090558e-02
  1.256644e+00    1.487787e+00   2.000710e-02
  1.258855e+00    1.411024e+00   1.946031e-02
  1.261065e+00    1.409813e+00   1.942806e-02
  1.263276e+00    1.400321e+00   1.933919e-02
  1.265486e+00    1.379715e+00   1.917324e-02
  1.267697e+00    1.392855e+00   1.924093e-02
  1.269907e+00    1.393324e+00   1.922112e-02
  1.272118e+00    1.388216e+00   1.916297e-02
  1.274328e+00    1.408375e+00   1.927837e-02
  1.276539e+00    1.450281e+00   1.953943e-02
  1.278749e+00    1.544945e+00   2.014324e-02
  1.280959e+00    1.587453e+00   2.039401e-02
  1.283170e+00    1.639327e+00   2.069989e-02
  1.285380e+00    1.511035e+00   1.984970e-02
  1.287591e+00    1.395977e+00   1.905655e-02
  1.289801e+00    1.402468e+00   1.907917e-02
  1.292012e+00    1.362706e+00   1.878960e-02
  1.294222e+00    1.355906e+00   1.872637e-02
  1.296433e+00    1.381670e+00   1.888765e-02
  1.298643e+00    1.368193e+00   1.877876e-02
  1.300854e+00    1.347410e+00   1.861916e-02
  1.303064e+00    1.369110e+00   1.874915e-02
  1.305274e+00    1.359987e+00   1.866506e-02
  1.307485e+00    1.354200e+00   1.860372e-02
  1.309695e+00    1.371031e+00   1.869656e-02
  1.311906e+00    1.357735e+00   1.858393e-02
  1.314116e+00    1.363052e+00   1.859937e-02
  1.316327e+00    1.365403e+00   1.859360e-02
  1.318537e+00    1.353349e+00   1.848943e-02
  1.320748e+00    1.363400e+00   1.853630e-02
  1.322958e+00    1.380304e+00   1.863010e-02
  1.325169e+00    1.392248e+00   1.868919e-02
  1.327379e+00    1.369818e+00   1.851607e-02
  1.329589e+00    1.372505e+00   1.851297e-02
  1.331800e+00    1.363611e+00   1.843210e-02
  1.334010e+00    1.374208e+00   1.848273e-02
  1.336221e+00    1.372426e+00   1.844883e-02
  1.338431e+00    1.351855e+00   1.828914e-02
  1.340642e+00    1.390220e+00   1.861197e-02
  1.342852e+00    1.362558e+00   1.852701e-02
  1.345063e+00    1.346717e+00   1.846843e-02
  1.347273e+00    1.341570e+00   1.846823e-02
  1.349484e+00    1.362778e+00   1.864144e-02
  1.351694e+00    1.352852e+00   1.859617e-02
  1.353905e+00    1.334260e+00   1.848584e-02
  1.356115e+00    1.338192e+00   1.852802e-02
  1.358325e+00    1.325265e+00   1.845151e-02
  1.360536e+00    1.363879e+00   1.873007e-02
  1.362746e+00    1.343358e+00   1.859819e-02
  1.364957e+00    1.341241e+00   1.859115e-02
  1.367167e+00    1.357834e+00   1.871299e-02
  1.369378e+00    1.346271e+00   1.863915e-02
  1.371588e+00    1.314974e+00   1.842633e-02
  1.373799e+00    1.323416e+00   1.848900e-02
  1.376009e+00    1.326824e+00   1.851618e-02
  1.378220e+00    1.334877e+00   1.857481e-02
  1.380430e+00    1.302347e+00   1.834978e-02
  1.382640e+00    1.316962e+00   1.845333e-02
  1.384851e+00    1.333791e+00   1.857177e-02
  1.387061e+00    1.300596e+00   1.833949e-02
  1.389272e+00    1.298762e+00   1.832678e-02
  1.391482e+00    1.264985e+00   1.808621e-02
  1.393693e+00    1.278166e+00   1.817932e-02
  1.395903e+00    1.293503e+00   1.828656e-02
  1.398114e+00    1.306654e+00   1.837789e-02
  1.400324e+00    1.305698e+00   1.836903e-02
  1.402535e+00    1.310572e+00   1.840093e-02
  1.404745e+00    1.302996e+00   1.834529e-02
  1.406955e+00    1.290584e+00   1.825497e-02
  1.409166e+00    1.322636e+00   1.847691e-02
  1.411376e+00    1.277252e+00   1.815404e-02
  1.413587e+00    1.244684e+00   1.791729e-02
  1.415797e+00    1.277108e+00   1.814562e-02
  1.418008e+00    1.265034e+00   1.801785e-02
  1.420218e+00    1.283449e+00   1.799799e-02
  1.422429e+00    1.291074e+00   1.796536e-02
  1.424639e+00    1.277899e+00   1.780858e-02
  1.426850e+00    1.282776e+00   1.778754e-02
  1.429060e+00    1.301137e+00   1.786481e-02
  1.431270e+00    1.285954e+00   1.771570e-02
  1.433481e+00    1.256157e+00   1.746852e-02
  1.435691e+00    1.261832e+00   1.746960e-02
  1.437902e+00    1.294092e+00   1.765472e-02
  1.440112e+00    1.269620e+00   1.745166e-02
  1.442323e+00    1.266756e+00   1.739895e-02
  1.444533e+00    1.279039e+00   1.745044e-02
  1.446744e+00    1.284399e+00   1.745566e-02
  1.448954e+00    1.281933e+00   1.740855e-02
  1.451165e+00    1.300672e+00   1.750521e-02
  1.453375e+00    1.290784e+00   1.741029e-02
  1.455586e+00    1.282783e+00   1.732794e-02
  1.457796e+00    1.265036e+00   1.718019e-02
  1.460006e+00    1.293672e+00   1.734604e-02
  1.462217e+00    1.293110e+00   1.731583e-02
  1.464427e+00    1.289457e+00   1.726553e-02
  1.466638e+00    1.283925e+00   1.720300e-02
  1.468848e+00    1.264331e+00   1.704593e-02
  1.471059e+00    1.262420e+00   1.700801e-02
  1.473269e+00    1.280434e+00   1.710446e-02
  1.475480e+00    1.268870e+00   1.700329e-02
  1.477690e+00    1.279052e+00   1.704741e-02
  1.479901e+00    1.309440e+00   1.722452e-02
  1.482111e+00    1.289111e+00   1.706678e-02
  1.484321e+00    1.271660e+00   1.692769e-02
  1.486532e+00    1.282896e+00   1.697985e-02
  1.488742e+00    1.285511e+00   1.697429e-02
  1.490953e+00    1.282882e+00   1.693418e-02
  1.493163e+00    1.268036e+00   1.681358e-02
  1.495374e+00    1.262443e+00   1.675497e-02
  1.497584e+00    1.261090e+00   1.672435e-02
  1.499795e+00    1.259228e+00   1.669034e-02
  1.502005e+00    1.269262e+00   1.673496e-02
  1.504216e+00    1.266561e+00   1.669603e-02
  1.506426e+00    1.271837e+00   1.670986e-02
  1.508636e+00    1.261300e+00   1.662000e-02
  1.510847e+00    1.274017e+00   1.668162e-02
  1.513057e+00    1.266387e+00   1.660639e-02
  1.515268e+00    1.267755e+00   1.658952e-02
  1.517478e+00    1.257654e+00   1.649810e-02
  1.519689e+00    1.272022e+00   1.656693e-02
  1.521899e+00    1.294872e+00   1.669158e-02
  1.524110e+00    1.302952e+00   1.672286e-02
  1.526320e+00    1.281341e+00   1.656377e-02
  1.528531e+00    1.275932e+00   1.650882e-02
  1.530741e+00    1.256791e+00   1.636533e-02
  1.532951e+00    1.268339e+00   1.642060e-02
  1.535162e+00    1.250780e+00   1.639318e-02
  1.537372e+00    1.249595e+00   1.645234e-02
  1.539583e+00    1.239088e+00   1.641714e-02
  1.541793e+00    1.248258e+00   1.648470e-02
  1.544004e+00    1.302264e+00   1.683780e-02
  1.546214e+00    1.272847e+00   1.664505e-02
  1.548425e+00    1.262754e+00   1.657917e-02
  1.550635e+00    1.264320e+00   1.659919e-02
  1.552846e+00    1.268347e+00   1.663535e-02
  1.555056e+00    1.271143e+00   1.661178e-02
  1.557266e+00    1.247742e+00   1.634754e-02
  1.559477e+00    1.242498e+00   1.625410e-02
  1.561687e+00    1.235804e+00   1.617969e-02
  1.563898e+00    1.247439e+00   1.623849e-02
  1.566108e+00    1.243310e+00   1.619565e-02
  1.568319e+00    1.273911e+00   1.637793e-02
  1.570529e+00    1.281465e+00   1.640093e-02
  1.572740e+00    1.276191e+00   1.633917e-02
  1.574950e+00    1.268834e+00   1.626544e-02
  1.577161e+00    1.263788e+00   1.620738e-02
  1.579371e+00    1.271734e+00   1.623434e-02
  1.581582e+00    1.273296e+00   1.622430e-02
  1.583792e+00    1.293532e+00   1.633435e-02
  1.586002e+00    1.286088e+00   1.626937e-02
  1.588213e+00    1.264898e+00   1.611740e-02
  1.590423e+00    1.291616e+00   1.626627e-02
  1.592634e+00    1.292456e+00   1.624954e-02
  1.594844e+00    1.259326e+00   1.601837e-02
  1.597055e+00    1.266923e+00   1.604593e-02
  1.599265e+00    1.244563e+00   1.588295e-02
  1.601476e+00    1.257787e+00   1.594666e-02
  1.603686e+00    1.271360e+00   1.601246e-02
  1.605897e+00    1.268633e+00   1.597489e-02
  1.608107e+00    1.247571e+00   1.582208e-02
  1.610317e+00    1.259341e+00   1.587706e-02
  1.612528e+00    1.260230e+00   1.586327e-02
  1.614738e+00    1.288514e+00   1.602095e-02
  1.616949e+00    1.303634e+00   1.609508e-02
  1.619159e+00    1.285899e+00   1.596606e-02
  1.621370e+00    1.284919e+00   1.594100e-02
  1.623580e+00    1.277768e+00   1.587780e-02
  1.625791e+00    1.234352e+00   1.558726e-02
  1.628001e+00    1.219842e+00   1.547698e-02
  1.630212e+00    1.190136e+00   1.526963e-02
  1.632422e+00    1.204216e+00   1.534165e-02
  1.634632e+00    1.197162e+00   1.527925e-02
  1.636843e+00    1.191738e+00   1.522694e-02
  1.639053e+00    1.183979e+00   1.515993e-02
  1.641264e+00    1.174957e+00   1.508492e-02
  1.643474e+00    1.168774e+00   1.502774e-02
  1.645685e+00    1.167596e+00   1.500343e-02
  1.647895e+00    1.164065e+00   1.496407e-02
  1.650106e+00    1.163740e+00   1.494488e-02
  1.652316e+00    1.182281e+00   1.504675e-02
  1.654527e+00    1.173201e+00   1.497196e-02
  1.656737e+00    1.148890e+00   1.479938e-02
  1.658947e+00    1.119838e+00   1.459488e-02
  1.661158e+00    1.123928e+00   1.460524e-02
  1.663368e+00    1.148289e+00   1.474647e-02
  1.665579e+00    1.174781e+00   1.489906e-02
  1.667789e+00    1.179820e+00   1.491431e-02
  1.670000e+00    1.204586e+00   1.505389e-02
  1.672210e+00    1.209743e+00   1.506952e-02
  1.674421e+00    1.208973e+00   1.504868e-02
  1.676631e+00    1.251702e+00   1.529538e-02
  1.678842e+00    1.339885e+00   1.580753e-02
  1.681052e+00    1.398856e+00   1.613431e-02
  1.683263e+00    1.302582e+00   1.555271e-02
  1.685473e+00    1.182925e+00   1.480532e-02
  1.687683e+00    1.184345e+00   1.479803e-02
  1.689894e+00    1.157128e+00   1.461073e-02
  1.692104e+00    1.106236e+00   1.427068e-02
  1.694315e+00    1.105373e+00   1.425037e-02
  1.696525e+00    1.094893e+00   1.416733e-02
  1.698736e+00    1.090873e+00   1.412631e-02
  1.700946e+00    1.089297e+00   1.410075e-02
  1.703157e+00    1.069016e+00   1.395415e-02
  1.705367e+00    1.089812e+00   1.407446e-02
  1.707578e+00    1.115566e+00   1.422476e-02
  1.709788e+00    1.093186e+00   1.406693e-02
  1.711998e+00    1.072776e+00   1.391977e-02
  1.714209e+00    1.087029e+00   1.399716e-02
  1.716419e+00    1.093526e+00   1.402428e-02
  1.718630e+00    1.071563e+00   1.386816e-02
  1.720840e+00    1.041176e+00   1.365585e-02
  1.723051e+00    1.044802e+00   1.366560e-02
  1.725261e+00    1.019810e+00   1.348653e-02
  1.727472e+00    1.006165e+00   1.338189e-02
  1.729682e+00    1.005533e+00   1.336428e-02
  1.731893e+00    1.008788e+00   1.337202e-02
  1.734103e+00    9.698142e-01   1.309765e-02
  1.736313e+00    9.874254e-01   1.320214e-02
  1.738524e+00    9.964426e-01   1.324850e-02
  1.740734e+00    9.977674e-01   1.324362e-02
  1.742945e+00    9.926501e-01   1.319619e-02
  1.745155e+00    9.850729e-01   1.313232e-02
  1.747366e+00    9.656080e-01   1.298829e-02
  1.749576e+00    9.707955e-01   1.300955e-02
  1.751787e+00    9.728138e-01   1.300980e-02
  1.753997e+00    9.650640e-01   1.294460e-02
  1.756208e+00    9.505672e-01   1.283396e-02
  1.758418e+00    9.496649e-01   1.281492e-02
  1.760628e+00    9.454046e-01   1.277294e-02
  1.762839e+00    9.398071e-01   1.272203e-02
  1.765049e+00    9.551936e-01   1.281268e-02
  1.767260e+00    9.561177e-01   1.280611e-02
  1.769470e+00    9.493269e-01   1.274758e-02
  1.771681e+00    9.504429e-01   1.274197e-02
  1.773891e+00    9.462200e-01   1.270059e-02
  1.776102e+00    9.389656e-01   1.263901e-02
  1.778312e+00    9.231454e-01   1.251948e-02
  1.780523e+00    9.327548e-01   1.257180e-02
  1.782733e+00    9.495302e-01   1.267159e-02
  1.784944e+00    9.501250e-01   1.266257e-02
  1.787154e+00    9.702340e-01   1.278309e-02
  1.789364e+00    9.572088e-01   1.268435e-02
  1.791575e+00    9.242199e-01   1.245134e-02
  1.793785e+00    9.342936e-01   1.250652e-02
  1.795996e+00    9.232851e-01   1.242010e-02
  1.798206e+00    9.026838e-01   1.226833e-02
  1.800417e+00    9.182466e-01   1.236094e-02
  1.802627e+00    8.888687e-01   1.214986e-02
  1.804838e+00    8.989596e-01   1.220657e-02
  1.807048e+00    8.878160e-01   1.211801e-02
  1.809259e+00    9.000737e-01   1.218782e-02
  1.811469e+00    9.022993e-01   1.218794e-02
  1.813679e+00    8.789905e-01   1.201471e-02
  1.815890e+00    8.835128e-01   1.203093e-02
  1.818100e+00    8.981266e-01   1.211491e-02
  1.820311e+00    8.904155e-01   1.204805e-02
  1.822521e+00    8.858202e-01   1.200211e-02
  1.824732e+00    8.937988e-01   1.204119e-02
  1.826942e+00    8.936457e-01   1.202780e-02
  1.829153e+00    8.694391e-01   1.185218e-02
  1.831363e+00    8.949597e-01   1.201276e-02
  1.833574e+00    8.837405e-01   1.192554e-02
  1.835784e+00    8.630818e-01   1.177402e-02
  1.837994e+00    8.541145e-01   1.170112e-02
  1.840205e+00    8.592393e-01   1.172510e-02
  1.842415e+00    8.707069e-01   1.179132e-02
  1.844626e+00    8.589787e-01   1.170017e-02
  1.846836e+00    8.547670e-01   1.166010e-02
  1.849047e+00    8.521404e-01   1.163067e-02
  1.851257e+00    8.455415e-01   1.157606e-02
  1.853468e+00    8.699828e-01   1.173334e-02
  1.855678e+00    8.653492e-01   1.169315e-02
  1.857889e+00    8.686288e-01   1.170674e-02
  1.860099e+00    8.524469e-01   1.158858e-02
  1.862309e+00    8.502307e-01   1.156503e-02
  1.864520e+00    8.456389e-01   1.152523e-02
  1.866730e+00    8.459106e-01   1.151774e-02
  1.868941e+00    8.444800e-01   1.149711e-02
  1.871151e+00    8.507478e-01   1.152831e-02
  1.873362e+00    8.306918e-01   1.138040e-02
  1.875572e+00    8.297008e-01   1.136280e-02
  1.877783e+00    8.285660e-01   1.134374e-02
  1.879993e+00    8.360884e-01   1.138402e-02
  1.882204e+00    8.365931e-01   1.137661e-02
  1.884414e+00    8.541274e-01   1.148407e-02
  1.886624e+00    8.596622e-01   1.151005e-02
  1.888835e+00    8.315106e-01   1.130914e-02
  1.891045e+00    8.359807e-01   1.132860e-02
  1.893256e+00    8.477815e-01   1.139716e-02
  1.895466e+00    8.199857e-01   1.119770e-02
  1.897677e+00    8.415574e-01   1.133306e-02
  1.899887e+00    8.486202e-01   1.136945e-02
  1.902098e+00    8.274140e-01   1.121568e-02
  1.904308e+00    8.247005e-01   1.118674e-02
  1.906519e+00    8.206953e-01   1.114875e-02
  1.908729e+00    8.467840e-01   1.131384e-02
  1.910940e+00    8.375832e-01   1.124103e-02
  1.913150e+00    8.162443e-01   1.108639e-02
  1.915360e+00    8.168232e-01   1.107973e-02
  1.917571e+00    8.205933e-01   1.109443e-02
  1.919781e+00    8.275539e-01   1.113064e-02
  1.921992e+00    8.270814e-01   1.111682e-02
  1.924202e+00    8.387514e-01   1.118404e-02
  1.926413e+00    8.415182e-01   1.119205e-02
  1.928623e+00    8.070104e-01   1.094967e-02
  1.930834e+00    7.976741e-01   1.087580e-02
  1.933044e+00    8.064688e-01   1.092497e-02
  1.935255e+00    8.299797e-01   1.107261e-02
  1.937465e+00    8.104588e-01   1.093121e-02
  1.939675e+00    8.200798e-01   1.098498e-02
  1.941886e+00    8.048272e-01   1.087205e-02
  1.944096e+00    8.199094e-01   1.096317e-02
  1.946307e+00    7.989517e-01   1.081182e-02
  1.948517e+00    8.004178e-01   1.081129e-02
  1.950728e+00    8.143899e-01   1.089489e-02
  1.952938e+00    7.977181e-01   1.077272e-02
  1.955149e+00    7.985222e-01   1.076789e-02
  1.957359e+00    8.253651e-01   1.093715e-02
  1.959570e+00    8.092830e-01   1.081912e-02
  1.961780e+00    8.286804e-01   1.093785e-02
  1.963990e+00    8.133704e-01   1.082612e-02
  1.966201e+00    7.966819e-01   1.070436e-02
  1.968411e+00    8.044981e-01   1.074650e-02
  1.970622e+00    8.027577e-01   1.072469e-02
  1.972832e+00    7.883665e-01   1.061813e-02
  1.975043e+00    7.990779e-01   1.067990e-02
  1.977253e+00    8.182604e-01   1.079716e-02
  1.979464e+00    8.463059e-01   1.097022e-02
  1.981674e+00    8.396322e-01   1.091626e-02
  1.983885e+00    8.215245e-01   1.078764e-02
  1.986095e+00    8.052719e-01   1.067054e-02
  1.988305e+00    7.923548e-01   1.057462e-02
  1.990516e+00    8.119739e-01   1.069461e-02
  1.992726e+00    8.441116e-01   1.089412e-02
  1.994937e+00    8.480846e-01   1.090918e-02
  1.997147e+00    8.110688e-01   1.065848e-02
  1.999358e+00    8.176515e-01   1.069152e-02
  2.001568e+00    8.190284e-01   1.068940e-02
  2.003779e+00    8.042902e-01   1.058063e-02
  2.005989e+00    8.154974e-01   1.064172e-02
  2.008200e+00    8.177809e-01   1.064474e-02
  2.010410e+00    8.169193e-01   1.062703e-02
  2.012621e+00    7.972536e-01   1.048642e-02
  2.014831e+00    7.827708e-01   1.037914e-02
  2.017041e+00    7.837203e-01   1.037494e-02
  2.019252e+00    7.807152e-01   1.034497e-02
  2.021462e+00    7.916108e-01   1.040724e-02
  2.023673e+00    8.119071e-01   1.053012e-02
  2.025883e+00    8.121940e-01   1.052219e-02
  2.028094e+00    8.058527e-01   1.047110e-02
  2.030304e+00    7.970675e-01   1.040413e-02
  2.032515e+00    7.864866e-01   1.032536e-02
  2.034725e+00    8.013202e-01   1.041260e-02
  2.036936e+00    7.676994e-01   1.018243e-02
  2.039146e+00    7.496228e-01   1.005231e-02
  2.041356e+00    7.535073e-01   1.006867e-02
  2.043567e+00    7.880027e-01   1.028707e-02
  2.045777e+00    7.787917e-01   1.021739e-02
  2.047988e+00    7.784010e-01   1.020532e-02
  2.050198e+00    7.654271e-01   1.011141e-02
  2.052409e+00    7.616720e-01   1.007887e-02
  2.054619e+00    7.385761e-01   9.917596e-03
  2.056830e+00    7.308944e-01   9.858773e-03
  2.059040e+00    7.546438e-01   1.001015e-02
  2.061251e+00    7.762182e-01   1.014483e-02
  2.063461e+00    8.167698e-01   1.039855e-02
  2.065671e+00    7.732808e-01   1.010910e-02
  2.067882e+00    7.477533e-01   9.931812e-03
  2.070092e+00    7.469742e-01   9.917438e-03
  2.072303e+00    7.459589e-01   9.901567e-03
  2.074513e+00    7.641687e-01   1.001223e-02
  2.076724e+00    7.647921e-01   1.000675e-02
  2.078934e+00    7.548495e-01   9.932413e-03
  2.081145e+00    7.676188e-01   1.000684e-02
  2.083355e+00    7.579210e-01   9.934144e-03
  2.085566e+00    7.749906e-01   1.003629e-02
  2.087776e+00    7.697157e-01   9.992374e-03
  2.089986e+00    7.759283e-01   1.002361e-02
  2.092197e+00    7.699496e-01   9.975770e-03
  2.094407e+00    7.772975e-01   1.001377e-02
  2.096618e+00    7.661848e-01   9.932859e-03
  2.098828e+00    7.575295e-01   9.867153e-03
  2.101039e+00    7.291622e-01   9.671677e-03
  2.103249e+00    7.289569e-01   9.661647e-03
  2.105460e+00    7.357498e-01   9.697512e-03
  2.107670e+00    7.214434e-01   9.594087e-03
  2.109881e+00    7.150201e-01   9.542184e-03
  2.112091e+00    7.102379e-01   9.501330e-03
  2.114301e+00    7.164244e-01   9.533891e-03
  2.116512e+00    7.174748e-01   9.532115e-03
  2.118722e+00    7.140672e-01   9.500679e-03
  2.120933e+00    7.133016e-01   9.486759e-03
  2.123143e+00    7.235712e-01   9.545879e-03
  2.125354e+00    7.102161e-01   9.448892e-03
  2.127564e+00    7.076163e-01   9.422895e-03
  2.129775e+00    7.227896e-01   9.514620e-03
  2.131985e+00    7.125549e-01   9.437970e-03
  2.134196e+00    7.139657e-01   9.438720e-03
  2.136406e+00    7.216914e-01   9.480841e-03
  2.138617e+00    6.991574e-01   9.323273e-03
  2.140827e+00    7.050519e-01   9.378497e-03
  2.143037e+00    7.112215e-01   9.465055e-03
  2.145248e+00    7.137675e-01   9.504113e-03
  2.147458e+00    6.967670e-01   9.405294e-03
  2.149669e+00    7.096202e-01   9.503560e-03
  2.151879e+00    6.904525e-01   9.383481e-03
  2.154090e+00    7.159116e-01   9.562282e-03
  2.156300e+00    7.038535e-01   9.488055e-03
  2.158511e+00    6.982625e-01   9.455589e-03
  2.160721e+00    6.891170e-01   9.398251e-03
  2.162932e+00    7.025533e-01   9.493175e-03
  2.165142e+00    6.914517e-01   9.420889e-03
  2.167352e+00    7.021769e-01   9.496580e-03
  2.169563e+00    6.987861e-01   9.475602e-03
  2.171773e+00    7.041944e-01   9.514650e-03
  2.173984e+00    6.956121e-01   9.457920e-03
  2.176194e+00    6.874175e-01   9.403240e-03
  2.178405e+00    6.935548e-01   9.445818e-03
  2.180615e+00    6.781383e-01   9.340928e-03
  2.182826e+00    6.676236e-01   9.268886e-03
  2.185036e+00    6.735329e-01   9.309860e-03
  2.187247e+00    6.827768e-01   9.373493e-03
  2.189457e+00    6.893871e-01   9.418330e-03
  2.191667e+00    7.027724e-01   9.509173e-03
  2.193878e+00    6.804211e-01   9.356160e-03
  2.196088e+00    6.828371e-01   9.372068e-03
  2.198299e+00    7.056717e-01   9.526385e-03
  2.200509e+00    6.926535e-01   9.437039e-03
  2.202720e+00    7.097067e-01   9.551326e-03
  2.204930e+00    6.810922e-01   9.355576e-03
  2.207141e+00    6.652300e-01   9.244866e-03
  2.209351e+00    6.856058e-01   9.383493e-03
  2.211562e+00    6.918924e-01   9.424782e-03
  2.213772e+00    6.935927e-01   9.380192e-03
  2.215982e+00    6.995301e-01   9.375278e-03
  2.218193e+00    6.980103e-01   9.334982e-03
  2.220403e+00    6.902534e-01   9.258101e-03
  2.222614e+00    6.807231e-01   9.172895e-03
  2.224824e+00    6.899131e-01   9.214988e-03
  2.227035e+00    6.786729e-01   9.122115e-03
  2.229245e+00    6.787271e-01   9.105403e-03
  2.231456e+00    6.899713e-01   9.164681e-03
  2.233666e+00    6.800695e-01   9.083510e-03
  2.235877e+00    6.650692e-01   8.968550e-03
  2.238087e+00    6.740564e-01   9.015418e-03
  2.240298e+00    6.633481e-01   8.929831e-03
  2.242508e+00    6.608294e-01   8.897812e-03
  2.244718e+00    6.676710e-01   8.927946e-03
  2.246929e+00    6.821911e-01   9.009935e-03
  2.249139e+00    6.774138e-01   8.965877e-03
  2.251350e+00    6.717938e-01   8.916844e-03
  2.253560e+00    6.753480e-01   8.928777e-03
  2.255771e+00    6.506574e-01   8.752750e-03
  2.257981e+00    6.543179e-01   8.766242e-03
  2.260192e+00    6.578830e-01   8.779041e-03
  2.262402e+00    6.740334e-01   8.875211e-03
  2.264613e+00    6.663254e-01   8.813471e-03
  2.266823e+00    6.599473e-01   8.760810e-03
  2.269033e+00    6.641039e-01   8.777963e-03
  2.271244e+00    6.718871e-01   8.818792e-03
  2.273454e+00    6.549148e-01   8.696494e-03
  2.275665e+00    6.700481e-01   8.786020e-03
  2.277875e+00    6.775994e-01   8.825344e-03
  2.280086e+00    6.723984e-01   8.781279e-03
  2.282296e+00    6.511600e-01   8.632141e-03
  2.284507e+00    6.436706e-01   8.572330e-03
  2.286717e+00    6.584552e-01   8.660751e-03
  2.288928e+00    6.639825e-01   8.687103e-03
  2.291138e+00    6.511585e-01   8.593436e-03
  2.293348e+00    6.527452e-01   8.594371e-03
  2.295559e+00    6.512116e-01   8.574986e-03
  2.297769e+00    6.536954e-01   8.582075e-03
  2.299980e+00    6.621325e-01   8.627901e-03
  2.302190e+00    6.488833e-01   8.532036e-03
  2.304401e+00    6.553293e-01   8.564968e-03
  2.306611e+00    6.691901e-01   8.645759e-03
  2.308822e+00    6.421326e-01   8.460840e-03
  2.311032e+00    6.502818e-01   8.507906e-03
  2.313243e+00    6.516949e-01   8.510860e-03
  2.315453e+00    6.494192e-01   8.488420e-03
  2.317663e+00    6.596255e-01   8.545644e-03
  2.319874e+00    6.567335e-01   8.518090e-03
  2.322084e+00    6.332467e-01   8.355535e-03
  2.324295e+00    6.436980e-01   8.415959e-03
  2.326505e+00    6.456249e-01   8.419496e-03
  2.328716e+00    6.412809e-01   8.382590e-03
  2.330926e+00    6.380670e-01   8.352797e-03
  2.333137e+00    6.416851e-01   8.368067e-03
  2.335347e+00    6.442254e-01   8.375727e-03
  2.337558e+00    6.614385e-01   8.478515e-03
  2.339768e+00    6.501458e-01   8.397201e-03
  2.341979e+00    6.260160e-01   8.231616e-03
  2.344189e+00    6.373900e-01   8.297655e-03
  2.346399e+00    6.290010e-01   8.234436e-03
  2.348610e+00    6.252571e-01   8.201485e-03
  2.350820e+00    6.654564e-01   8.452644e-03
  2.353031e+00    6.474160e-01   8.328944e-03
  2.355241e+00    6.316674e-01   8.218960e-03
  2.357452e+00    6.382174e-01   8.252999e-03
  2.359662e+00    6.422793e-01   8.270924e-03
  2.361873e+00    6.255863e-01   8.154544e-03
  2.364083e+00    6.383036e-01   8.228958e-03
  2.366294e+00    6.377361e-01   8.217124e-03
  2.368504e+00    6.329583e-01   8.178188e-03
  2.370714e+00    6.265324e-01   8.128494e-03
  2.372925e+00    6.141919e-01   8.040068e-03
  2.375135e+00    6.184912e-01   8.060125e-03
  2.377346e+00    6.274762e-01   8.110495e-03
  2.379556e+00    6.505648e-01   8.250289e-03
  2.381767e+00    6.268887e-01   8.090896e-03
  2.383977e+00    6.313447e-01   8.111588e-03
  2.386188e+00    6.317512e-01   8.106205e-03
  2.388398e+00    6.195292e-01   8.019440e-03
  2.390609e+00    6.296155e-01   8.076664e-03
  2.392819e+00    6.105515e-01   7.945708e-03
  2.395029e+00    6.319734e-01   8.076120e-03
  2.397240e+00    6.284683e-01   8.045767e-03
  2.399450e+00    6.073122e-01   7.901404e-03
  2.401661e+00    6.052347e-01   7.880233e-03
  2.403871e+00    6.136317e-01   7.926941e-03
  2.406082e+00    6.176378e-01   7.945287e-03
  2.408292e+00    6.127941e-01   7.906269e-03
  2.410503e+00    6.066973e-01   7.859354e-03
  2.412713e+00    6.078538e-01   7.859044e-03
  2.414924e+00    6.113650e-01   7.874192e-03
  2.417134e+00    6.105948e-01   7.861557e-03
  2.419344e+00    6.091564e-01   7.844846e-03
  2.421555e+00    6.026431e-01   7.795286e-03
  2.423765e+00    6.125948e-01   7.851894e-03
  2.425976e+00    6.110531e-01   7.834141e-03
  2.428186e+00    6.075428e-01   7.804333e-03
  2.430397e+00    5.896408e-01   7.681063e-03
  2.432607e+00    5.887390e-01   7.667932e-03
  2.434818e+00    5.917366e-01   7.679929e-03
  2.437028e+00    5.910034e-01   7.668034e-03
  2.439239e+00    5.998114e-01   7.717263e-03
  2.441449e+00    5.914841e-01   7.656325e-03
  2.443659e+00    5.814149e-01   7.583577e-03
  2.445870e+00    5.915823e-01   7.661861e-03
  2.448080e+00    5.956435e-01   7.723306e-03
  2.450291e+00    5.814297e-01   7.647262e-03
  2.452501e+00    5.860311e-01   7.688716e-03
  2.454712e+00    5.707663e-01   7.596353e-03
  2.456922e+00    5.490877e-01   7.457160e-03
  2.459133e+00    5.651088e-01   7.570595e-03
  2.461343e+00    5.509708e-01   7.479595e-03
  2.463554e+00    5.505154e-01   7.479928e-03
  2.465764e+00    5.611373e-01   7.554860e-03
  2.467975e+00    5.560847e-01   7.523066e-03
  2.470185e+00    5.600476e-01   7.552064e-03
  2.472395e+00    5.476683e-01   7.469369e-03
  2.474606e+00    5.566980e-01   7.532234e-03
  2.476816e+00    5.574086e-01   7.537798e-03
  2.479027e+00    5.388080e-01   7.411795e-03
  2.481237e+00    5.461062e-01   7.462109e-03
  2.483448e+00    5.343880e-01   7.381899e-03
  2.485658e+00    5.562350e-01   7.531139e-03
  2.487869e+00    5.559561e-01   7.529292e-03
  2.490079e+00    5.517850e-01   7.500482e-03
  2.492290e+00    5.464770e-01   7.463869e-03
  2.494500e+00    5.435418e-01   7.443077e-03
  2.496710e+00    5.363024e-01   7.392637e-03
  2.498921e+00    5.420693e-01   7.431283e-03
  2.501131e+00    5.304756e-01   7.350440e-03
  2.503342e+00    5.161318e-01   7.249139e-03
  2.505552e+00    5.283107e-01   7.333022e-03
  2.507763e+00    5.383230e-01   7.400767e-03
  2.509973e+00    5.254421e-01   7.310311e-03
  2.512184e+00    5.176148e-01   7.254033e-03
  2.514394e+00    5.417457e-01   7.411716e-03
  2.516605e+00    5.408575e-01   7.357940e-03
  2.518815e+00    5.305276e-01   7.258899e-03
  2.521025e+00    5.328500e-01   7.253645e-03
  2.523236e+00    5.437867e-01   7.309420e-03
  2.525446e+00    5.423580e-01   7.283964e-03
  2.527657e+00    5.272708e-01   7.167313e-03
  2.529867e+00    5.179926e-01   7.089880e-03
  2.532078e+00    5.249817e-01   7.122498e-03
  2.534288e+00    5.447501e-01   7.241222e-03
  2.536499e+00    5.443687e-01   7.226537e-03
  2.538709e+00    5.312123e-01   7.127597e-03
  2.540920e+00    5.389749e-01   7.168698e-03
  2.543130e+00    5.318291e-01   7.110586e-03
  2.545340e+00    5.063143e-01   6.928023e-03
  2.547551e+00    5.123631e-01   6.959426e-03
  2.549761e+00    5.331727e-01   7.089674e-03
  2.551972e+00    5.259868e-01   7.032354e-03
  2.554182e+00    5.151930e-01   6.950696e-03
  2.556393e+00    5.196840e-01   6.971834e-03
  2.558603e+00    5.332528e-01   7.053078e-03
  2.560814e+00    5.254647e-01   6.992659e-03
  2.563024e+00    5.168156e-01   6.926296e-03
  2.565235e+00    5.236556e-01   6.962429e-03
  2.567445e+00    5.241508e-01   6.956123e-03
  2.569656e+00    5.194062e-01   6.914811e-03
  2.571866e+00    5.091859e-01   6.837151e-03
  2.574076e+00    5.228953e-01   6.919262e-03
  2.576287e+00    5.273147e-01   6.940044e-03
  2.578497e+00    5.136916e-01   6.841970e-03
  2.580708e+00    5.176799e-01   6.860371e-03
  2.582918e+00    5.256150e-01   6.904919e-03
  2.585129e+00    5.171654e-01   6.841417e-03
  2.587339e+00    5.126392e-01   6.803749e-03
  2.589550e+00    5.108112e-01   6.784065e-03
  2.591760e+00    5.128857e-01   6.790088e-03
  2.593971e+00    5.050795e-01   6.730745e-03
  2.596181e+00    5.104249e-01   6.760031e-03
  2.598391e+00    5.145746e-01   6.782268e-03
  2.600602e+00    5.239472e-01   6.837742e-03
  2.602812e+00    5.155811e-01   6.775366e-03
  2.605023e+00    5.164172e-01   6.773627e-03
  2.607233e+00    5.190335e-01   6.783536e-03
  2.609444e+00    5.187855e-01   6.774640e-03
  2.611654e+00    4.983623e-01   6.632663e-03
  2.613865e+00    5.207532e-01   6.772883e-03
  2.616075e+00    5.202564e-01   6.762433e-03
  2.618286e+00    5.167996e-01   6.732853e-03
  2.620496e+00    4.970291e-01   6.596175e-03
  2.622706e+00    4.978924e-01   6.596186e-03
  2.624917e+00    5.038915e-01   6.629966e-03
  2.627127e+00    5.032686e-01   6.620124e-03
  2.629338e+00    5.052329e-01   6.627057e-03
  2.631548e+00    4.955461e-01   6.557088e-03
  2.633759e+00    4.970253e-01   6.559755e-03
  2.635969e+00    5.070658e-01   6.618964e-03
  2.638180e+00    5.102726e-01   6.632812e-03
  2.640390e+00    5.097595e-01   6.622829e-03
  2.642601e+00    5.043972e-01   6.581204e-03
  2.644811e+00    5.150965e-01   6.643455e-03
  2.647021e+00    5.182920e-01   6.657358e-03
  2.649232e+00    4.983751e-01   6.521489e-03
  2.651442e+00    4.988093e-01   6.517807e-03
  2.653653e+00    4.969480e-01   6.498866e-03
  2.655863e+00    4.998565e-01   6.511162e-03
  2.658074e+00    4.975172e-01   6.489307e-03
  2.660284e+00    5.028675e-01   6.517695e-03
  2.662495e+00    5.121423e-01   6.570695e-03
  2.664705e+00    4.991092e-01   6.479961e-03
  2.666916e+00    4.877879e-01   6.399638e-03
  2.669126e+00    5.030828e-01   6.492687e-03
  2.671337e+00    5.005196e-01   6.469525e-03
  2.673547e+00    4.904958e-01   6.398061e-03
  2.675757e+00    4.987124e-01   6.444941e-03
  2.677968e+00    5.010722e-01   6.453618e-03
  2.680178e+00    4.890229e-01   6.369168e-03
  2.682389e+00    4.876729e-01   6.354023e-03
  2.684599e+00    5.021339e-01   6.441282e-03
  2.686810e+00    5.006618e-01   6.425182e-03
  2.689020e+00    4.960071e-01   6.388934e-03
  2.691231e+00    4.995471e-01   6.405330e-03
  2.693441e+00    4.903378e-01   6.339885e-03
  2.695652e+00    4.806722e-01   6.270630e-03
  2.697862e+00    4.958049e-01   6.362177e-03
  2.700072e+00    4.959163e-01   6.356803e-03
  2.702283e+00    4.842150e-01   6.275152e-03
  2.704493e+00    4.857134e-01   6.278600e-03
  2.706704e+00    4.910914e-01   6.306819e-03
  2.708914e+00    5.098485e-01   6.420057e-03
  2.711125e+00    4.905877e-01   6.291361e-03
  2.713335e+00    4.898748e-01   6.280673e-03
  2.715546e+00    4.903031e-01   6.276946e-03
  2.717756e+00    4.879617e-01   6.256029e-03
  2.719967e+00    5.007609e-01   6.331249e-03
  2.722177e+00    4.923204e-01   6.271504e-03
  2.724387e+00    4.816938e-01   6.197361e-03
  2.726598e+00    4.864572e-01   6.221863e-03
  2.728808e+00    4.826838e-01   6.191553e-03
  2.731019e+00    4.808514e-01   6.173685e-03
  2.733229e+00    4.910834e-01   6.233181e-03
  2.735440e+00    4.906915e-01   6.224385e-03
  2.737650e+00    4.887323e-01   6.205902e-03
  2.739861e+00    4.852729e-01   6.177802e-03
  2.742071e+00    4.884974e-01   6.192542e-03
  2.744282e+00    4.762356e-01   6.108107e-03
  2.746492e+00    4.757328e-01   6.098881e-03
  2.748702e+00    4.881305e-01   6.171911e-03
  2.750913e+00    4.809102e-01   6.120298e-03
  2.753123e+00    4.774515e-01   6.092164e-03
  2.755334e+00    4.873129e-01   6.148635e-03
  2.757544e+00    4.737185e-01   6.056580e-03
  2.759755e+00    4.804555e-01   6.093591e-03
  2.761965e+00    4.808553e-01   6.090161e-03
  2.764176e+00    4.887824e-01   6.134096e-03
  2.766386e+00    4.761821e-01   6.048763e-03
  2.768597e+00    4.765464e-01   6.045219e-03
  2.770807e+00    4.876394e-01   6.109244e-03
  2.773017e+00    4.834663e-01   6.077059e-03
  2.775228e+00    4.913697e-01   6.120658e-03
  2.777438e+00    4.860176e-01   6.081397e-03
  2.779649e+00    4.815409e-01   6.047411e-03
  2.781859e+00    4.787235e-01   6.023913e-03
  2.784070e+00    4.803697e-01   6.028378e-03
  2.786280e+00    4.784188e-01   6.010358e-03
  2.788491e+00    4.854475e-01   6.048458e-03
  2.790701e+00    4.831408e-01   6.028385e-03
  2.792912e+00    4.965562e-01   6.105405e-03
  2.795122e+00    4.926791e-01   6.075713e-03
  2.797333e+00    4.744533e-01   5.956716e-03
  2.799543e+00    4.780443e-01   5.973320e-03
  2.801753e+00    4.896089e-01   6.039215e-03
  2.803964e+00    4.753882e-01   5.945202e-03
  2.806174e+00    4.771020e-01   5.949741e-03
  2.808385e+00    4.843724e-01   5.988042e-03
  2.810595e+00    4.830756e-01   5.973091e-03
  2.812806e+00    4.868477e-01   5.989676e-03
  2.815016e+00    4.786616e-01   5.934348e-03
  2.817227e+00    4.700314e-01   5.906410e-03
  2.819437e+00    4.689280e-01   5.910504e-03
  2.821648e+00    4.747461e-01   5.949340e-03
  2.823858e+00    4.875059e-01   6.034186e-03
  2.826068e+00    4.751795e-01   5.962406e-03
  2.828279e+00    4.686345e-01   5.925235e-03
  2.830489e+00    4.736858e-01   5.960395e-03
  2.832700e+00    4.750570e-01   5.971602e-03
  2.834910e+00    4.627158e-01   5.895569e-03
  2.837121e+00    4.668418e-01   5.923493e-03
  2.839331e+00    4.700451e-01   5.945002e-03
  2.841542e+00    4.749669e-01   5.977075e-03
  2.843752e+00    4.781061e-01   5.997589e-03
  2.845963e+00    4.774163e-01   5.993649e-03
  2.848173e+00    4.881008e-01   6.060437e-03
  2.850383e+00    4.820054e-01   6.022789e-03
  2.852594e+00    4.785578e-01   6.001132e-03
  2.854804e+00    4.744716e-01   5.974927e-03
  2.857015e+00    4.682283e-01   5.935076e-03
  2.859225e+00    4.789354e-01   6.002281e-03
  2.861436e+00    4.732862e-01   5.966123e-03
  2.863646e+00    4.694691e-01   5.942066e-03
  2.865857e+00    4.713257e-01   5.954119e-03
  2.868067e+00    4.730748e-01   5.965401e-03
  2.870278e+00    4.638934e-01   5.906876e-03
  2.872488e+00    4.710789e-01   5.951265e-03
  2.874698e+00    4.707391e-01   5.948082e-03
  2.876909e+00    4.725608e-01   5.958231e-03
  2.879119e+00    4.653420e-01   5.910924e-03
  2.881330e+00    4.555382e-01   5.846865e-03
  2.883540e+00    4.592796e-01   5.869443e-03
  2.885751e+00    4.630380e-01   5.891762e-03
  2.887961e+00    4.685991e-01   5.925133e-03
  2.890172e+00    4.667977e-01   5.912136e-03
  2.892382e+00    4.666430e-01   5.909320e-03
  2.894593e+00    4.715441e-01   5.938456e-03
  2.896803e+00    4.689310e-01   5.919967e-03
  2.899014e+00    4.677792e-01   5.910773e-03
  2.901224e+00    4.653620e-01   5.893473e-03
  2.903434e+00    4.735832e-01   5.943329e-03
  2.905645e+00    4.742987e-01   5.945556e-03
  2.907855e+00    4.852778e-01   6.011823e-03
  2.910066e+00    4.823548e-01   5.991561e-03
  2.912276e+00    4.610628e-01   5.855716e-03
  2.914487e+00    4.762971e-01   5.949139e-03
  2.916697e+00    4.673044e-01   5.890486e-03
  2.918908e+00    4.673955e-01   5.889033e-03
  2.921118e+00    4.624351e-01   5.854987e-03
  2.923329e+00    4.709015e-01   5.906001e-03
  2.925539e+00    4.612688e-01   5.842994e-03
  2.927749e+00    4.586190e-01   5.823860e-03
  2.929960e+00    4.631317e-01   5.849652e-03
  2.932170e+00    4.680220e-01   5.878091e-03
  2.934381e+00    4.761229e-01   5.926265e-03
  2.936591e+00    4.748646e-01   5.915790e-03
  2.938802e+00    4.689301e-01   5.875969e-03
  2.941012e+00    4.558688e-01   5.791229e-03
  2.943223e+00    4.535679e-01   5.773890e-03
  2.945433e+00    4.515648e-01   5.757418e-03
  2.947644e+00    4.578319e-01   5.793069e-03
  2.949854e+00    4.798827e-01   5.926575e-03
  2.952064e+00    4.677710e-01   5.847011e-03
  2.954275e+00    4.707045e-01   5.860842e-03
  2.956485e+00    4.692351e-01   5.847438e-03
  2.958696e+00    4.496520e-01   5.719760e-03
  2.960906e+00    4.685488e-01   5.834462e-03
  2.963117e+00    4.609577e-01   5.782516e-03
  2.965327e+00    4.475752e-01   5.694071e-03
  2.967538e+00    4.581693e-01   5.758118e-03
  2.969748e+00    4.649105e-01   5.797508e-03
  2.971959e+00    4.716725e-01   5.836308e-03
  2.974169e+00    4.834351e-01   5.905950e-03
  2.976379e+00    4.858629e-01   5.917775e-03
  2.978590e+00    4.718447e-01   5.828583e-03
  2.980800e+00    4.679271e-01   5.801482e-03
  2.983011e+00    4.731332e-01   5.830806e-03
  2.985221e+00    4.811279e-01   5.876624e-03
  2.987432e+00    4.737544e-01   5.828243e-03
  2.989642e+00    4.619955e-01   5.752817e-03
  2.991853e+00    4.688168e-01   5.791777e-03
  2.994063e+00    4.670301e-01   5.777801e-03
  2.996274e+00    4.648171e-01   5.760869e-03
  2.998484e+00    4.655096e-01   5.762418e-03
  3.000694e+00    4.782603e-01   5.837262e-03
  3.002905e+00    4.636209e-01   5.744267e-03
  3.005115e+00    4.659347e-01   5.755543e-03
  3.007326e+00    4.631491e-01   5.735147e-03
  3.009536e+00    4.626888e-01   5.728990e-03
  3.011747e+00    4.652764e-01   5.742052e-03
  3.013957e+00    4.531726e-01   5.663679e-03
  3.016168e+00    4.571253e-01   5.685057e-03
  3.018378e+00    4.547973e-01   5.667511e-03
  3.020589e+00    4.583136e-01   5.686147e-03
  3.022799e+00    4.596093e-01   5.690989e-03
  3.025010e+00    4.552900e-01   5.660943e-03
  3.027220e+00    4.487841e-01   5.617243e-03
  3.029430e+00    4.614765e-01   5.692854e-03
  3.031641e+00    4.510672e-01   5.625148e-03
  3.033851e+00    4.466640e-01   5.594123e-03
  3.036062e+00    4.464453e-01   5.589981e-03
  3.038272e+00    4.679697e-01   5.719511e-03
  3.040483e+00    4.610699e-01   5.673949e-03
  3.042693e+00    4.612803e-01   5.671929e-03
  3.044904e+00    4.607709e-01   5.664735e-03
  3.047114e+00    4.711527e-01   5.723280e-03
  3.049325e+00    4.611431e-01   5.657729e-03
  3.051535e+00    4.577322e-01   5.632327e-03
  3.053745e+00    4.463877e-01   5.557374e-03
  3.055956e+00    4.488465e-01   5.568085e-03
  3.058166e+00    4.579231e-01   5.619798e-03
  3.060377e+00    4.622187e-01   5.641275e-03
  3.062587e+00    4.532683e-01   5.581743e-03
  3.064798e+00    4.569365e-01   5.600001e-03
  3.067008e+00    4.515675e-01   5.562243e-03
  3.069219e+00    4.662598e-01   5.647431e-03
  3.071429e+00    4.536272e-01   5.566884e-03
  3.073640e+00    4.444824e-01   5.507147e-03
  3.075850e+00    4.501037e-01   5.538287e-03
  3.078060e+00    4.613444e-01   5.603860e-03
  3.080271e+00    4.537133e-01   5.553845e-03
  3.082481e+00    4.590573e-01   5.582948e-03
  3.084692e+00    4.516519e-01   5.534365e-03
  3.086902e+00    4.442246e-01   5.485434e-03
  3.089113e+00    4.415587e-01   5.465404e-03
  3.091323e+00    4.462034e-01   5.490701e-03
  3.093534e+00    4.570117e-01   5.553402e-03
  3.095744e+00    4.518522e-01   5.518571e-03
  3.097955e+00    4.476450e-01   5.489268e-03
  3.100165e+00    4.458477e-01   5.474920e-03
  3.102375e+00    4.536058e-01   5.518885e-03
  3.104586e+00    4.491687e-01   5.488340e-03
  3.106796e+00    4.492941e-01   5.485567e-03
  3.109007e+00    4.687570e-01   5.599828e-03
  3.111217e+00    4.540577e-01   5.507607e-03
  3.113428e+00    4.644419e-01   5.566741e-03
  3.115638e+00    4.510025e-01   5.482359e-03
  3.117849e+00    4.467498e-01   5.452723e-03
  3.120059e+00    4.395029e-01   5.404862e-03
  3.122270e+00    4.447764e-01   5.433952e-03
  3.124480e+00    4.411766e-01   5.408221e-03
  3.126691e+00    4.585049e-01   5.509806e-03
  3.128901e+00    4.524139e-01   5.469942e-03
  3.131111e+00    4.532143e-01   5.470892e-03
  3.133322e+00    4.485981e-01   5.439498e-03
  3.135532e+00    4.443395e-01   5.410222e-03
  3.137743e+00    4.400274e-01   5.380438e-03
  3.139953e+00    4.299086e-01   5.314583e-03
  3.142164e+00    4.484496e-01   5.440054e-03
  3.144374e+00    4.555795e-01   5.511981e-03
  3.146585e+00    4.387200e-01   5.423523e-03
  3.148795e+00    4.516903e-01   5.513992e-03
  3.151006e+00    4.427586e-01   5.467763e-03
  3.153216e+00    4.525706e-01   5.535236e-03
  3.155426e+00    4.552553e-01   5.558050e-03
  3.157637e+00    4.477583e-01   5.517656e-03
  3.159847e+00    4.517090e-01   5.546882e-03
  3.162058e+00    4.474202e-01   5.524965e-03
  3.164268e+00    4.331079e-01   5.439897e-03
  3.166479e+00    4.371612e-01   5.468940e-03
  3.168689e+00    4.399067e-01   5.489453e-03
  3.170900e+00    4.377366e-01   5.479056e-03
  3.173110e+00    4.395455e-01   5.493254e-03
  3.175321e+00    4.419686e-01   5.510856e-03
  3.177531e+00    4.479911e-01   5.551070e-03
  3.179741e+00    4.411052e-01   5.510314e-03
  3.181952e+00    4.382270e-01   5.494420e-03
  3.184162e+00    4.289953e-01   5.438400e-03
  3.186373e+00    4.432611e-01   5.529709e-03
  3.188583e+00    4.370150e-01   5.492385e-03
  3.190794e+00    4.574817e-01   5.621316e-03
  3.193004e+00    4.551582e-01   5.608326e-03
  3.195215e+00    4.413320e-01   5.523976e-03
  3.197425e+00    4.494492e-01   5.575781e-03
  3.199636e+00    4.382029e-01   5.504807e-03
  3.201846e+00    4.474278e-01   5.561833e-03
  3.204056e+00    4.376875e-01   5.501857e-03
  3.206267e+00    4.452623e-01   5.550110e-03
  3.208477e+00    4.334485e-01   5.476924e-03
  3.210688e+00    4.386760e-01   5.510679e-03
  3.212898e+00    4.406840e-01   5.523887e-03
  3.215109e+00    4.344868e-01   5.485643e-03
  3.217319e+00    4.389993e-01   5.514696e-03
  3.219530e+00    4.467967e-01   5.563867e-03
  3.221740e+00    4.398381e-01   5.520933e-03
  3.223951e+00    4.391786e-01   5.517271e-03
  3.226161e+00    4.299593e-01   5.459236e-03
  3.228372e+00    4.465442e-01   5.564062e-03
  3.230582e+00    4.418261e-01   5.534751e-03
  3.232792e+00    4.438139e-01   5.547414e-03
  3.235003e+00    4.328326e-01   5.478585e-03
  3.237213e+00    4.380524e-01   5.511628e-03
  3.239424e+00    4.414360e-01   5.532868e-03
  3.241634e+00    4.381956e-01   5.512679e-03
  3.243845e+00    4.187149e-01   5.388790e-03
  3.246055e+00    4.338837e-01   5.485264e-03
  3.248266e+00    4.330213e-01   5.480015e-03
  3.250476e+00    4.297237e-01   5.458797e-03
  3.252687e+00    4.282488e-01   5.449360e-03
  3.254897e+00    4.276499e-01   5.445404e-03
  3.257107e+00    4.186136e-01   5.387273e-03
  3.259318e+00    4.348398e-01   5.490440e-03
  3.261528e+00    4.343001e-01   5.486900e-03
  3.263739e+00    4.408281e-01   5.527411e-03
  3.265949e+00    4.281328e-01   5.447128e-03
  3.268160e+00    4.464492e-01   5.561991e-03
  3.270370e+00    4.220448e-01   5.407337e-03
  3.272581e+00    4.295466e-01   5.454882e-03
  3.274791e+00    4.444278e-01   5.548042e-03
  3.277002e+00    4.360572e-01   5.494988e-03
  3.279212e+00    4.211715e-01   5.400000e-03
  3.281422e+00    4.163022e-01   5.368110e-03
  3.283633e+00    4.230275e-01   5.410614e-03
  3.285843e+00    4.287234e-01   5.446579e-03
  3.288054e+00    4.425063e-01   5.532490e-03
  3.290264e+00    4.261203e-01   5.428773e-03
  3.292475e+00    4.380292e-01   5.503257e-03
  3.294685e+00    4.254231e-01   5.422865e-03
  3.296896e+00    4.322848e-01   5.465650e-03
  3.299106e+00    4.379419e-01   5.500732e-03
  3.301317e+00    4.364825e-01   5.490524e-03
  3.303527e+00    4.218766e-01   5.397415e-03
  3.305737e+00    4.186976e-01   5.375989e-03
  3.307948e+00    4.293882e-01   5.443524e-03
  3.310158e+00    4.209643e-01   5.389007e-03
  3.312369e+00    4.174072e-01   5.365323e-03
  3.314579e+00    4.287305e-01   5.436675e-03
  3.316790e+00    4.329425e-01   5.462619e-03
  3.319000e+00    4.264371e-01   5.420217e-03
  3.321211e+00    4.205665e-01   5.382190e-03
  3.323421e+00    4.296338e-01   5.438658e-03
  3.325632e+00    4.269460e-01   5.420772e-03
  3.327842e+00    4.055727e-01   5.282413e-03
  3.330052e+00    4.347920e-01   5.468293e-03
  3.332263e+00    4.234501e-01   5.395517e-03
  3.334473e+00    4.257997e-01   5.409530e-03
  3.336684e+00    4.238264e-01   5.395714e-03
  3.338894e+00    4.115211e-01   5.315973e-03
  3.341105e+00    4.240749e-01   5.395237e-03
  3.343315e+00    4.131010e-01   5.323851e-03
  3.345526e+00    4.217913e-01   5.378637e-03
  3.347736e+00    4.358715e-01   5.466254e-03
  3.349947e+00    4.202937e-01   5.366759e-03
  3.352157e+00    4.311039e-01   5.434140e-03
  3.354368e+00    4.188378e-01   5.354995e-03
  3.356578e+00    4.233078e-01   5.382441e-03
  3.358788e+00    4.242524e-01   5.387126e-03
  3.360999e+00    4.261608e-01   5.397953e-03
  3.363209e+00    4.262492e-01   5.397502e-03
  3.365420e+00    4.221432e-01   5.369932e-03
  3.367630e+00    4.176082e-01   5.339982e-03
  3.369841e+00    4.192701e-01   5.349159e-03
  3.372051e+00    4.256422e-01   5.387646e-03
  3.374262e+00    4.337893e-01   5.436501e-03
  3.376472e+00    4.207173e-01   5.351488e-03
  3.378683e+00    4.264124e-01   5.385063e-03
  3.380893e+00    4.288974e-01   5.398353e-03
  3.383103e+00    4.177528e-01   5.325033e-03
  3.385314e+00    4.219707e-01   5.349606e-03
  3.387524e+00    4.135367e-01   5.293150e-03
  3.389735e+00    4.199396e-01   5.331331e-03
  3.391945e+00    4.163682e-01   5.304901e-03
  3.394156e+00    4.180193e-01   5.311172e-03
  3.396366e+00    4.165657e-01   5.298510e-03
  3.398577e+00    4.204224e-01   5.319883e-03
  3.400787e+00    4.216396e-01   5.339665e-03
  3.402998e+00    4.240656e-01   5.393712e-03
  3.405208e+00    4.126095e-01   5.341209e-03
  3.407418e+00    4.042916e-01   5.302927e-03
  3.409629e+00    4.151384e-01   5.387800e-03
  3.411839e+00    4.105937e-01   5.370178e-03
  3.414050e+00    4.131383e-01   5.397992e-03
  3.416260e+00    3.955259e-01   5.291369e-03
  3.418471e+00    3.748348e-01   5.160259e-03
  3.420681e+00    3.820288e-01   5.217922e-03
  3.422892e+00    3.887598e-01   5.271697e-03
  3.425102e+00    3.937058e-01   5.312957e-03
  3.427313e+00    3.899224e-01   5.294574e-03
  3.429523e+00    3.944336e-01   5.332252e-03
  3.431733e+00    3.798554e-01   5.239396e-03
  3.433944e+00    3.834389e-01   5.270517e-03
  3.436154e+00    4.007597e-01   5.394625e-03
  3.438365e+00    4.071058e-01   5.443293e-03
  3.440575e+00    3.962542e-01   5.376324e-03
  3.442786e+00    3.990126e-01   5.400732e-03
  3.444996e+00    3.931176e-01   5.366338e-03
  3.447207e+00    3.672672e-01   5.192130e-03
  3.449417e+00    3.726433e-01   5.270835e-03
  3.451628e+00    3.637362e-01   5.236743e-03
  3.453838e+00    3.761962e-01   5.347049e-03
  3.456049e+00    3.707571e-01   5.332286e-03
  3.458259e+00    3.794945e-01   5.417090e-03
  3.460469e+00    3.751944e-01   5.406319e-03
  3.462680e+00    3.647693e-01   5.349710e-03
  3.464890e+00    3.763204e-01   5.451781e-03
  3.467101e+00    3.718264e-01   5.436718e-03
  3.469311e+00    3.673688e-01   5.420474e-03
  3.471522e+00    3.975537e-01   5.655684e-03
  3.473732e+00    3.983133e-01   5.677440e-03
  3.475943e+00    3.886449e-01   5.623919e-03
  3.478153e+00    4.124986e-01   5.809861e-03
  3.480364e+00    4.009225e-01   5.743086e-03
  3.482574e+00    4.063035e-01   5.796850e-03
  3.484784e+00    4.098937e-01   5.837287e-03
  3.486995e+00    4.188750e-01   5.916023e-03
  3.489205e+00    4.325684e-01   6.026757e-03
  3.491416e+00    4.564373e-01   6.206249e-03
  3.493626e+00    4.487696e-01   6.168730e-03
  3.495837e+00    4.371753e-01   6.103216e-03
  3.498047e+00    4.519638e-01   6.220183e-03
  3.500258e+00    4.579942e-01   6.276228e-03
  3.502468e+00    4.683352e-01   6.361318e-03
  3.504679e+00    4.684125e-01   6.376455e-03
  3.506889e+00    4.696346e-01   6.399297e-03
  3.509099e+00    4.807179e-01   6.488826e-03
  3.511310e+00    5.003828e-01   6.635063e-03
  3.513520e+00    5.103926e-01   6.715922e-03
  3.515731e+00    5.110437e-01   6.734978e-03
  3.517941e+00    5.038502e-01   6.701957e-03
  3.520152e+00    5.250406e-01   6.856177e-03
  3.522362e+00    5.153707e-01   6.807451e-03
  3.524573e+00    5.173203e-01   6.834748e-03
  3.526783e+00    5.177348e-01   6.850938e-03
  3.528994e+00    5.144778e-01   6.841577e-03
  3.531204e+00    5.281672e-01   6.944491e-03
  3.533414e+00    5.450106e-01   7.066697e-03
  3.535625e+00    5.410419e-01   7.053435e-03
  3.537835e+00    5.345169e-01   7.022918e-03
  3.540046e+00    5.379206e-01   7.054167e-03
  3.542256e+00    5.567998e-01   7.184585e-03
  3.544467e+00    5.412750e-01   7.091388e-03
  3.546677e+00    5.425985e-01   7.107664e-03
  3.548888e+00    5.361686e-01   7.072932e-03
  3.551098e+00    5.401611e-01   7.106514e-03
  3.553309e+00    5.424656e-01   7.129885e-03
  3.555519e+00    5.450612e-01   7.158310e-03
  3.557729e+00    5.485593e-01   7.193076e-03
  3.559940e+00    5.517630e-01   7.225812e-03
  3.562150e+00    5.494897e-01   7.222746e-03
  3.564361e+00    5.384245e-01   7.163020e-03
  3.566571e+00    5.507718e-01   7.258680e-03
  3.568782e+00    5.656157e-01   7.370357e-03
  3.570992e+00    5.473835e-01   7.264492e-03
  3.573203e+00    5.432202e-01   7.251068e-03
  3.575413e+00    5.447130e-01   7.274909e-03
  3.577624e+00    5.253774e-01   7.158590e-03
  3.579834e+00    5.443521e-01   7.300710e-03
  3.582045e+00    5.367454e-01   7.263571e-03
  3.584255e+00    5.477168e-01   7.351621e-03
  3.586465e+00    5.430159e-01   7.334057e-03
  3.588676e+00    5.436292e-01   7.352466e-03
  3.590886e+00    5.581004e-01   7.463661e-03
  3.593097e+00    5.636486e-01   7.515571e-03
  3.595307e+00    5.496857e-01   7.436001e-03
  3.597518e+00    5.387376e-01   7.375827e-03
  3.599728e+00    5.477227e-01   7.451348e-03
  3.601939e+00    5.394315e-01   7.408831e-03
  3.604149e+00    5.472478e-01   7.476861e-03
  3.606360e+00    5.585179e-01   7.567973e-03
  3.608570e+00    5.569879e-01   7.571969e-03
  3.610780e+00    5.634497e-01   7.627153e-03
  3.612991e+00    5.736104e-01   7.705985e-03
  3.615201e+00    5.544621e-01   7.586239e-03
  3.617412e+00    5.754352e-01   7.735941e-03
  3.619622e+00    5.460605e-01   7.541925e-03
  3.621833e+00    5.365879e-01   7.482960e-03
  3.624043e+00    5.415139e-01   7.526762e-03
  3.626254e+00    5.498083e-01   7.594041e-03
  3.628464e+00    5.621421e-01   7.690011e-03
  3.630675e+00    5.318257e-01   7.493876e-03
  3.632885e+00    5.431843e-01   7.588048e-03
  3.635095e+00    5.347261e-01   7.543134e-03
  3.637306e+00    5.563316e-01   7.708673e-03
  3.639516e+00    5.511891e-01   7.687788e-03
  3.641727e+00    5.284103e-01   7.541738e-03
  3.643937e+00    5.397292e-01   7.636684e-03
  3.646148e+00    5.351641e-01   7.619021e-03
  3.648358e+00    5.384269e-01   7.657084e-03
  3.650569e+00    5.477761e-01   7.738237e-03
  3.652779e+00    5.507912e-01   7.774538e-03
  3.654990e+00    5.424090e-01   7.730158e-03
  3.657200e+00    5.488372e-01   7.790958e-03
  3.659410e+00    5.385481e-01   7.732634e-03
  3.661621e+00    5.578850e-01   7.885709e-03
  3.663831e+00    5.521068e-01   7.860190e-03
  3.666042e+00    5.372471e-01   7.768924e-03
  3.668252e+00    5.551373e-01   7.912780e-03
  3.670463e+00    5.604160e-01   7.965969e-03
  3.672673e+00    5.463986e-01   7.881359e-03
  3.674884e+00    5.335902e-01   7.803896e-03
  3.677094e+00    5.322357e-01   7.809500e-03
  3.679305e+00    5.400106e-01   7.882031e-03
  3.681515e+00    5.247620e-01   7.785501e-03
  3.683726e+00    5.291684e-01   7.833873e-03
  3.685936e+00    5.579939e-01   8.060589e-03
  3.688146e+00    5.301662e-01   7.872839e-03
  3.690357e+00    5.323665e-01   7.905133e-03
  3.692567e+00    5.505164e-01   8.055255e-03
  3.694778e+00    5.395534e-01   7.990916e-03
  3.696988e+00    5.221549e-01   7.876917e-03
  3.699199e+00    5.318232e-01   7.965859e-03
  3.701409e+00    5.268910e-01   7.945229e-03
  3.703620e+00    5.315394e-01   7.996608e-03
  3.705830e+00    5.514901e-01   8.162123e-03
  3.708041e+00    5.378639e-01   8.077484e-03
  3.710251e+00    5.159897e-01   7.928110e-03
  3.712461e+00    5.309339e-01   8.058953e-03
  3.714672e+00    5.183311e-01   7.979442e-03
  3.716882e+00    5.214066e-01   8.019782e-03
  3.719093e+00    5.220177e-01   8.041611e-03
  3.721303e+00    5.278851e-01   8.103810e-03
  3.723514e+00    5.225631e-01   8.080162e-03
  3.725724e+00    5.223574e-01   8.095820e-03
  3.727935e+00    5.157492e-01   8.061850e-03
  3.730145e+00    5.088564e-01   8.024993e-03
  3.732356e+00    5.286704e-01   8.197468e-03
  3.734566e+00    5.296567e-01   8.222903e-03
  3.736776e+00    5.314341e-01   8.254739e-03
  3.738987e+00    5.112554e-01   8.114197e-03
  3.741197e+00    5.139650e-01   8.153673e-03
  3.743408e+00    5.196816e-01   8.217061e-03
  3.745618e+00    5.152240e-01   8.200100e-03
  3.747829e+00    5.320442e-01   8.351325e-03
  3.750039e+00    5.154539e-01   8.238552e-03
  3.752250e+00    5.113700e-01   8.224308e-03
  3.754460e+00    5.027207e-01   8.172898e-03
  3.756671e+00    5.383011e-01   8.476422e-03
  3.758881e+00    5.359241e-01   8.476867e-03
  3.761091e+00    5.333616e-01   8.476230e-03
  3.763302e+00    5.109326e-01   8.315159e-03
  3.765512e+00    5.072294e-01   8.304248e-03
  3.767723e+00    5.072388e-01   8.323664e-03
  3.769933e+00    5.250800e-01   8.488448e-03
  3.772144e+00    5.433525e-01   8.655172e-03
  3.774354e+00    5.467252e-01   8.702653e-03
  3.776565e+00    5.286484e-01   8.577920e-03
  3.778775e+00    4.982112e-01   8.347121e-03
  3.780986e+00    4.992568e-01   8.376080e-03
  3.783196e+00    5.104651e-01   8.489927e-03
  3.785407e+00    4.951882e-01   8.382238e-03
  3.787617e+00    5.014456e-01   8.455713e-03
  3.789827e+00    5.169168e-01   8.606020e-03
  3.792038e+00    5.086702e-01   8.558074e-03
  3.794248e+00    5.291336e-01   8.750219e-03
  3.796459e+00    5.344465e-01   8.816121e-03
  3.798669e+00    5.264250e-01   8.771639e-03
  3.800880e+00    5.144177e-01   8.692757e-03
  3.803090e+00    5.121647e-01   8.695795e-03
  3.805301e+00    5.129037e-01   8.724430e-03
  3.807511e+00    5.124695e-01   8.742984e-03
  3.809722e+00    5.009461e-01   8.666428e-03
  3.811932e+00    4.754040e-01   8.464292e-03
  3.814142e+00    4.976358e-01   8.682709e-03
  3.816353e+00    5.119554e-01   8.829879e-03
  3.818563e+00    5.235964e-01   8.953448e-03
  3.820774e+00    4.833218e-01   8.624992e-03
  3.822984e+00    5.071107e-01   8.858282e-03
  3.825195e+00    5.052986e-01   8.866346e-03
  3.827405e+00    5.078292e-01   8.912627e-03
  3.829616e+00    5.221569e-01   9.062168e-03
  3.831826e+00    5.215252e-01   9.081439e-03
  3.834037e+00    4.980591e-01   8.899296e-03
  3.836247e+00    4.889891e-01   8.842404e-03
  3.838457e+00    4.732004e-01   8.722877e-03
  3.840668e+00    4.876926e-01   8.880416e-03
  3.842878e+00    5.176308e-01   9.174938e-03
  3.845089e+00    5.112363e-01   9.144196e-03
  3.847299e+00    4.952026e-01   9.025392e-03
  3.849510e+00    4.733269e-01   8.849062e-03
  3.851720e+00    5.020782e-01   9.135393e-03
  3.853931e+00    4.974295e-01   9.112080e-03
  3.856141e+00    4.998059e-01   9.152932e-03
  3.858352e+00    4.918676e-01   9.099160e-03
  3.860562e+00    4.634875e-01   8.851469e-03
  3.862772e+00    4.866220e-01   9.089052e-03
  3.864983e+00    5.127720e-01   9.350152e-03
  3.867193e+00    4.917550e-01   9.176299e-03
  3.869404e+00    4.930680e-01   9.208354e-03
  3.871614e+00    4.905658e-01   9.204821e-03
  3.873825e+00    4.848710e-01   9.171463e-03
  3.876035e+00    4.958141e-01   9.294921e-03
  3.878246e+00    4.935804e-01   9.299793e-03
  3.880456e+00    5.071549e-01   9.456263e-03
  3.882667e+00    5.182084e-01   9.588816e-03
  3.884877e+00    5.176440e-01   9.614143e-03
  3.887087e+00    5.084617e-01   9.558947e-03
  3.889298e+00    4.892201e-01   9.406633e-03
  3.891508e+00    4.976175e-01   9.517688e-03
  3.893719e+00    5.189314e-01   9.751352e-03
  3.895929e+00    4.897030e-01   9.504127e-03
  3.898140e+00    4.809627e-01   9.450284e-03
  3.900350e+00    5.094103e-01   9.758507e-03
  3.902561e+00    5.202608e-01   9.895224e-03
  3.904771e+00    5.019993e-01   9.753275e-03
  3.906982e+00    5.034675e-01   9.801118e-03
  3.909192e+00    5.020337e-01   9.821084e-03
  3.911403e+00    5.092112e-01   9.925739e-03
  3.913613e+00    5.239195e-01   1.010351e-02
  3.915823e+00    5.171582e-01   1.007397e-02
  3.918034e+00    5.094733e-01   1.003485e-02
  3.920244e+00    5.145916e-01   1.012176e-02
  3.922455e+00    5.115425e-01   1.012877e-02
  3.924665e+00    4.932556e-01   9.982661e-03
  3.926876e+00    4.850344e-01   9.936041e-03
  3.929086e+00    4.926074e-01   1.005094e-02
  3.931297e+00    4.944254e-01   1.010447e-02
  3.933507e+00    4.655718e-01   9.833537e-03
  3.935718e+00    4.829180e-01   1.004363e-02
  3.937928e+00    4.749989e-01   9.990001e-03
  3.940138e+00    4.919162e-01   1.019581e-02
  3.942349e+00    5.032898e-01   1.034336e-02
  3.944559e+00    5.110523e-01   1.045357e-02
  3.946770e+00    5.020924e-01   1.039219e-02
  3.948980e+00    5.058278e-01   1.046204e-02
  3.951191e+00    5.089436e-01   1.052581e-02
  3.953401e+00    5.024123e-01   1.048987e-02
  3.955612e+00    5.011179e-01   1.050858e-02
  3.957822e+00    4.711343e-01   1.022048e-02
  3.960033e+00    4.938708e-01   1.049703e-02
  3.962243e+00    4.992405e-01   1.058731e-02
  3.964453e+00    5.008000e-01   1.063744e-02
  3.966664e+00    5.128630e-01   1.079909e-02
  3.968874e+00    5.195904e-01   1.089910e-02
  3.971085e+00    4.952351e-01   1.066271e-02
  3.973295e+00    5.024943e-01   1.076245e-02
  3.975506e+00    4.806874e-01   1.054776e-02
  3.977716e+00    5.058466e-01   1.084272e-02
  3.979927e+00    4.925295e-01   1.072145e-02
  3.982137e+00    4.794624e-01   1.060034e-02
  3.984348e+00    5.037189e-01   1.088813e-02
  3.986558e+00    5.072448e-01   1.094911e-02
  3.988768e+00    4.805684e-01   1.068008e-02
  3.990979e+00    4.816617e-01   1.071496e-02
  3.993189e+00    4.863595e-01   1.079018e-02
  3.995400e+00    4.847793e-01   1.079615e-02
  3.997610e+00    4.981465e-01   1.097419e-02
  3.999821e+00    5.054064e-01   1.109214e-02
  4.002031e+00    5.266122e-01   1.136260e-02
  4.004242e+00    4.890431e-01   1.098839e-02
  4.006452e+00    4.803872e-01   1.092993e-02
  4.008663e+00    4.841078e-01   1.101203e-02
  4.010873e+00    4.834273e-01   1.104436e-02
  4.013084e+00    5.174818e-01   1.146896e-02
  4.015294e+00    4.887208e-01   1.118689e-02
  4.017504e+00    5.007600e-01   1.136641e-02
  4.019715e+00    4.866497e-01   1.124771e-02
  4.021925e+00    5.030141e-01   1.147906e-02
  4.024136e+00    4.943083e-01   1.142345e-02
  4.026346e+00    5.053259e-01   1.159522e-02
  4.028557e+00    4.791210e-01   1.133461e-02
  4.030767e+00    4.541603e-01   1.107965e-02
  4.032978e+00    4.723439e-01   1.134496e-02
  4.035188e+00    5.043563e-01   1.177033e-02
  4.037399e+00    4.990706e-01   1.175676e-02
  4.039609e+00    4.945222e-01   1.175150e-02
  4.041819e+00    4.891542e-01   1.173645e-02
  4.044030e+00    5.006883e-01   1.192486e-02
  4.046240e+00    4.886303e-01   1.183058e-02
  4.048451e+00    5.080227e-01   1.211523e-02
  4.050661e+00    5.020815e-01   1.209665e-02
  4.052872e+00    4.763204e-01   1.183456e-02
  4.055082e+00    5.004155e-01   1.218481e-02
  4.057293e+00    5.115941e-01   1.237548e-02
  4.059503e+00    4.538672e-01   1.170934e-02
  4.061714e+00    4.671294e-01   1.193478e-02
  4.063924e+00    5.290291e-01   1.276028e-02
  4.066134e+00    4.935282e-01   1.238307e-02
  4.068345e+00    4.812798e-01   1.228705e-02
  4.070555e+00    4.801067e-01   1.233139e-02
  4.072766e+00    4.891740e-01   1.250855e-02
  4.074976e+00    4.836586e-01   1.249985e-02
  4.077187e+00    4.842527e-01   1.256971e-02
  4.079397e+00    4.872488e-01   1.267292e-02
  4.081608e+00    4.856577e-01   1.271810e-02
  4.083818e+00    4.788728e-01   1.269444e-02
  4.086029e+00    5.144938e-01   1.322760e-02
  4.088239e+00    5.127912e-01   1.327682e-02
  4.090449e+00    4.918603e-01   1.307351e-02
  4.092660e+00    4.884546e-01   1.309989e-02
  4.094870e+00    4.905328e-01   1.320067e-02
  4.097081e+00    4.529096e-01   1.275397e-02
  4.099291e+00    4.849591e-01   1.325192e-02
  4.101502e+00    4.924592e-01   1.340396e-02
  4.103712e+00    5.080101e-01   1.366456e-02
  4.105923e+00    5.223629e-01   1.391004e-02
  4.108133e+00    5.119796e-01   1.382405e-02
  4.110344e+00    5.120049e-01   1.387734e-02
  4.112554e+00    4.892676e-01   1.361938e-02
  4.114764e+00    4.566290e-01   1.321014e-02
  4.116975e+00    4.662943e-01   1.340177e-02
  4.119185e+00    4.377579e-01   1.303791e-02
  4.121396e+00    4.906196e-01   1.385977e-02
  4.123606e+00    4.680329e-01   1.359233e-02
  4.125817e+00    4.790409e-01   1.380915e-02
  4.128027e+00    4.749044e-01   1.380700e-02
  4.130238e+00    4.860313e-01   1.402797e-02
  4.132448e+00    4.285392e-01   1.322926e-02
  4.134659e+00    5.006244e-01   1.436017e-02
  4.136869e+00    5.199381e-01   1.469979e-02
  4.139080e+00    5.032104e-01   1.452668e-02
  4.141290e+00    4.905933e-01   1.440694e-02
  4.143500e+00    4.832114e-01   1.436401e-02
  4.145711e+00    5.024284e-01   1.471524e-02
  4.147921e+00    4.779447e-01   1.441814e-02
  4.150132e+00    5.688563e-01   1.580472e-02
  4.152342e+00    5.217763e-01   1.521014e-02
  4.154553e+00    4.857352e-01   1.474508e-02
  4.156763e+00    4.611132e-01   1.443767e-02
  4.158974e+00    5.234660e-01   1.545990e-02
  4.161184e+00    5.133687e-01   1.538637e-02
  4.163395e+00    5.241772e-01   1.562664e-02
  4.165605e+00    4.642790e-01   1.478332e-02
  4.167815e+00    4.698910e-01   1.495004e-02
  4.170026e+00    4.304446e-01   1.438406e-02
  4.172236e+00    5.052504e-01   1.566803e-02
  4.174447e+00    4.989591e-01   1.565517e-02
  4.176657e+00    4.831791e-01   1.548976e-02
  4.178868e+00    4.859999e-01   1.562274e-02
  4.181078e+00    5.284795e-01   1.638299e-02
  4.183289e+00    4.924632e-01   1.590566e-02
  4.185499e+00    4.657319e-01   1.555892e-02
  4.187710e+00    5.141568e-01   1.644373e-02
  4.189920e+00    5.242504e-01   1.670392e-02
  4.192130e+00    5.295961e-01   1.689206e-02
  4.194341e+00    4.924349e-01   1.638831e-02
  4.196551e+00    4.895132e-01   1.644301e-02
  4.198762e+00    5.088031e-01   1.687036e-02
  4.200972e+00    4.570765e-01   1.609339e-02
  4.203183e+00    4.344655e-01   1.579360e-02
  4.205393e+00    4.056831e-01   1.536304e-02
  4.207604e+00    4.964026e-01   1.711017e-02
  4.209814e+00    4.976142e-01   1.724846e-02
  4.212025e+00    4.948772e-01   1.732297e-02
  4.214235e+00    5.545351e-01   1.846725e-02
  4.216445e+00    5.249759e-01   1.809854e-02
  4.218656e+00    5.160343e-01   1.807808e-02
  4.220866e+00    5.311621e-01   1.847694e-02
  4.223077e+00    4.633349e-01   1.738993e-02
  4.225287e+00    4.389183e-01   1.705833e-02
  4.227498e+00    4.915651e-01   1.819380e-02
  4.229708e+00    4.944706e-01   1.839655e-02
  4.231919e+00    4.784653e-01   1.824567e-02
  4.234129e+00    5.384658e-01   1.951832e-02
  4.236340e+00    4.746321e-01   1.848158e-02
  4.238550e+00    5.335286e-01   1.976789e-02
  4.240761e+00    4.329937e-01   1.796540e-02
  4.242971e+00    4.864826e-01   1.921749e-02
  4.245181e+00    4.922734e-01   1.951276e-02
  4.247392e+00    5.196953e-01   2.023653e-02
  4.249602e+00    4.947819e-01   1.994160e-02
  4.251813e+00    4.681158e-01   1.958822e-02
  4.254023e+00    4.282475e-01   1.892377e-02
  4.256234e+00    4.645753e-01   1.992120e-02
  4.258444e+00    4.339399e-01   1.945429e-02
  4.260655e+00    5.313529e-01   2.176411e-02
  4.262865e+00    5.189011e-01   2.175190e-02
  4.265076e+00    4.869415e-01   2.131090e-02
  4.267286e+00    5.026881e-01   2.190921e-02
  4.269496e+00    4.411264e-01   2.077481e-02
  4.271707e+00    5.085221e-01   2.258025e-02
  4.273917e+00    5.637700e-01   2.408308e-02
  4.276128e+00    4.617040e-01   2.208438e-02
  4.278338e+00    3.908301e-01   2.058955e-02
  4.280549e+00    4.783753e-01   2.310550e-02
  4.282759e+00    4.930628e-01   2.379492e-02
  4.284970e+00    5.072283e-01   2.449152e-02
  4.287180e+00    4.783704e-01   2.406976e-02
  4.289391e+00    5.046474e-01   2.490755e-02
  4.291601e+00    4.983584e-01   2.494908e-02
  4.293811e+00    4.882617e-01   2.488910e-02
  4.296022e+00    4.516291e-01   2.412920e-02
  4.298232e+00    4.167666e-01   2.337324e-02
  4.300443e+00    5.200980e-01   2.632584e-02
  4.302653e+00    5.038232e-01   2.613484e-02
  4.304864e+00    5.417631e-01   2.733583e-02
  4.307074e+00    5.447797e-01   2.765819e-02
  4.309285e+00    5.248802e-01   2.739613e-02
  4.311495e+00    4.015907e-01   2.418625e-02
  4.313706e+00    4.951797e-01   2.710987e-02
  4.315916e+00    5.148866e-01   2.791642e-02
  4.318126e+00    4.682784e-01   2.688641e-02
  4.320337e+00    4.911261e-01   2.781246e-02
  4.322547e+00    5.801579e-01   3.054902e-02
  4.324758e+00    5.466824e-01   2.996393e-02
  4.326968e+00    4.882856e-01   2.863567e-02
  4.329179e+00    5.245589e-01   3.000920e-02
  4.331389e+00    4.779579e-01   2.897467e-02
  4.333600e+00    4.000235e-01   2.682436e-02
  4.335810e+00    4.017358e-01   2.720001e-02
  4.338021e+00    4.277054e-01   2.842562e-02
  4.340231e+00    4.914123e-01   3.085129e-02
  4.342442e+00    6.425345e-01   3.575066e-02
  4.344652e+00    4.297465e-01   2.963559e-02
  4.346862e+00    4.197299e-01   2.969857e-02
  4.349073e+00    4.225023e-01   3.022894e-02
  4.351283e+00    4.289119e-01   3.091261e-02
  4.353494e+00    3.776263e-01   2.945329e-02
  4.355704e+00    4.287761e-01   3.189123e-02
  4.357915e+00    4.498800e-01   3.320951e-02
  4.360125e+00    3.825321e-01   3.114560e-02
  4.362336e+00    5.189130e-01   3.693716e-02
  4.364546e+00    4.156856e-01   3.366138e-02
  4.366757e+00    4.358617e-01   3.515406e-02
  4.368967e+00    2.685501e-01   2.814525e-02
  4.371177e+00    4.274770e-01   3.626311e-02
  4.373388e+00    4.444945e-01   3.780441e-02
  4.375598e+00    4.386159e-01   3.841127e-02
  4.377809e+00    5.010089e-01   4.209006e-02
  4.380019e+00    4.112020e-01   3.909275e-02
  4.382230e+00    5.050600e-01   4.453376e-02
  4.384440e+00    2.563261e-01   3.263895e-02
  4.386651e+00    3.657108e-01   4.018836e-02
  4.388861e+00    2.557706e-01   3.473659e-02
  4.391072e+00    2.630587e-01   3.646382e-02
  4.393282e+00    3.610252e-01   4.436968e-02
  4.395492e+00    4.586158e-01   5.208527e-02
  4.397703e+00    4.668638e-01   5.495744e-02
  4.399913e+00    2.428139e-01   4.164194e-02
  4.402124e+00    3.294766e-01   5.124680e-02
  4.404334e+00    4.647668e-01   6.471001e-02
  4.406545e+00    3.252181e-01   5.815697e-02
  4.408755e+00    6.454861e-01   8.885305e-02
  4.410966e+00    5.968600e-01   9.457188e-02
  4.413176e+00    3.089833e-01   7.702535e-02
  4.415387e+00   -6.450636e-01            nan
  4.417597e+00   -2.029266e+00            nan
  4.419807e+00   -3.766224e-01            nan
