# == pyFAI calibration ==
# Distance Sample to Detector: 0.216 m
# PONI: 1.166e-01, 1.308e-01 m
# Rotations: 0.000000 0.000000 0.000000 rad
# 
# == Fit2d calibration ==
# Distance Sample-beamCenter: 216.000 mm
# Center: x=1744.293, y=1555.000 pix
# Tilt: 0.000 deg  TiltPlanRot: 0.000 deg
# 
# Detector Eiger 9M	 PixelSize= 7.500e-05, 7.500e-05 m
#    Detector has a mask: True 
#    Detector has a dark current: False 
#    detector has a flat field: False 
# 
# Wavelength: 9.8e-11 m
# Mask applied: from detector
# Dark current applied: False
# Flat field applied: False
# Polarization factor: None
# Normalization factor: 1.0
# 
# Headers of the input frame:
# {
# "_array_data.header_convention": "SLS_1.0",
# "_array_data.header_contents": "# Detector: Dectris Eiger 9M, S/N E-18-0102\r\n# Pixel_size 75e-6 m x 75e-6 m\r\n# Silicon sensor, thickness 0.000450 m\r\n# Exposure_time 0.024997 s\r\n# Exposure_period 0.025000 s\r\n# Count_cutoff 62318 counts\r\n# Wavelength 0.980106 A\r\n# Detector_distance 0.215992 m\r\n# Beam_xy (1555, 1744) pixels\r\n# Start_angle 0.000000 deg.\r\n# Angle_increment 0.000000 deg.",
# "Content-Type": "application/octet-stream;",
# "conversions": "x-CBF_BYTE_OFFSET",
# "Content-Transfer-Encoding": "BINARY",
# "X-Binary-Size": "10166610",
# "X-Binary-ID": "1",
# "X-Binary-Element-Type": "signed 32-bit integer",
# "X-Binary-Element-Byte-Order": "LITTLE_ENDIAN",
# "Content-MD5": "yrry2e+yhgzZIFFW2ZGZuQ==",
# "X-Binary-Number-of-Elements": "10166590",
# "X-Binary-Size-Fastest-Dimension": "3110",
# "X-Binary-Size-Second-Dimension": "3269",
# "X-Binary-Size-Padding": "4095"
# }
# --> H:/Proxima2a_2019-04-05/RAW_DATA/C5_gel17_position5/C5_mesh_1_data.cbf/C5_mesh_1_data.cbf000040.dat
#        q_A^-1              I           sigma 
  1.105228e-03    1.526070e+00   6.684582e-01
  3.315685e-03    2.135059e+00   4.806736e-01
  5.526141e-03    1.698020e+00   3.314695e-01
  7.736597e-03    1.307600e+00   2.457297e-01
  9.947054e-03    1.405653e+00   2.246030e-01
  1.215751e-02    1.739274e+00   2.259189e-01
  1.436797e-02    1.519589e+00   1.942401e-01
  1.657842e-02    1.466985e+00   1.776468e-01
  1.878888e-02    1.560707e+00   1.721172e-01
  2.099934e-02    1.472656e+00   1.581804e-01
  2.320979e-02    1.400509e+00   1.467154e-01
  2.542025e-02    1.461873e+00   1.432400e-01
  2.763070e-02    1.347484e+00   1.319022e-01
  2.984116e-02    1.366859e+00   1.278317e-01
  3.205162e-02    1.410616e+00   1.253114e-01
  3.426207e-02    1.363752e+00   1.191633e-01
  3.647253e-02    1.381882e+00   1.162586e-01
  3.868299e-02    1.443169e+00   1.153730e-01
  4.089344e-02    1.501481e+00   1.144565e-01
  4.310390e-02    1.631502e+00   1.162031e-01
  4.531436e-02    1.520770e+00   1.094202e-01
  4.752481e-02    1.538649e+00   1.074704e-01
  4.973527e-02    1.498004e+00   1.036593e-01
  5.194572e-02    1.483603e+00   1.009397e-01
  5.415618e-02    1.468528e+00   9.835126e-02
  5.636664e-02    1.501946e+00   9.749725e-02
  5.857709e-02    1.399618e+00   9.232500e-02
  6.078755e-02    1.534667e+00   9.489959e-02
  6.299801e-02    1.563563e+00   9.409235e-02
  6.520846e-02    1.405273e+00   8.767809e-02
  6.741892e-02    1.323998e+00   8.369384e-02
  6.962938e-02    1.329958e+00   8.254395e-02
  7.183983e-02    1.489275e+00   8.599228e-02
  7.405029e-02    1.579202e+00   8.721679e-02
  7.626074e-02    1.452678e+00   8.242806e-02
  7.847120e-02    1.364444e+00   7.875024e-02
  8.068166e-02    1.573980e+00   8.341378e-02
  8.289211e-02    1.578205e+00   8.240405e-02
  8.510257e-02    1.441146e+00   7.771475e-02
  8.731303e-02    1.513343e+00   7.862006e-02
  8.952348e-02    1.497258e+00   7.723175e-02
  9.173394e-02    1.527865e+00   7.706840e-02
  9.394439e-02    1.522891e+00   7.602977e-02
  9.615485e-02    1.520484e+00   7.508977e-02
  9.836531e-02    1.481707e+00   7.328642e-02
  1.005758e-01    1.554561e+00   7.423749e-02
  1.027862e-01    1.719984e+00   7.724138e-02
  1.049967e-01    1.611633e+00   7.397638e-02
  1.072071e-01    1.559577e+00   7.201686e-02
  1.094176e-01    1.497762e+00   6.985762e-02
  1.116280e-01    1.589133e+00   7.123931e-02
  1.138385e-01    1.552700e+00   6.972959e-02
  1.160490e-01    1.557593e+00   6.917017e-02
  1.182594e-01    1.609281e+00   6.964684e-02
  1.204699e-01    1.615914e+00   6.914641e-02
  1.226803e-01    1.571720e+00   6.757440e-02
  1.248908e-01    1.486484e+00   6.513158e-02
  1.271012e-01    1.482320e+00   6.447098e-02
  1.293117e-01    1.564149e+00   6.565726e-02
  1.315222e-01    1.637992e+00   6.662069e-02
  1.337326e-01    1.542157e+00   6.410471e-02
  1.359431e-01    1.534013e+00   6.397264e-02
  1.381535e-01    1.548108e+00   6.512851e-02
  1.403640e-01    1.588620e+00   6.626004e-02
  1.425744e-01    1.648191e+00   6.759876e-02
  1.447849e-01    1.618766e+00   6.700804e-02
  1.469953e-01    1.544125e+00   6.540398e-02
  1.492058e-01    1.460488e+00   6.353408e-02
  1.514163e-01    1.545859e+00   6.525608e-02
  1.536267e-01    1.552017e+00   6.525829e-02
  1.558372e-01    1.581991e+00   6.573996e-02
  1.580476e-01    1.651402e+00   6.700369e-02
  1.602581e-01    1.708868e+00   6.798642e-02
  1.624685e-01    1.713941e+00   6.790085e-02
  1.646790e-01    1.669247e+00   6.681728e-02
  1.668895e-01    1.732779e+00   6.788033e-02
  1.690999e-01    1.750580e+00   6.802322e-02
  1.713104e-01    1.752107e+00   6.784170e-02
  1.735208e-01    1.781945e+00   6.820416e-02
  1.757313e-01    1.841939e+00   6.912547e-02
  1.779417e-01    1.939407e+00   7.069951e-02
  1.801522e-01    1.900592e+00   6.976553e-02
  1.823626e-01    1.914317e+00   6.978389e-02
  1.845731e-01    1.926523e+00   6.977927e-02
  1.867836e-01    1.954473e+00   7.004640e-02
  1.889940e-01    2.030398e+00   7.116070e-02
  1.912045e-01    1.987658e+00   7.017263e-02
  1.934149e-01    2.007946e+00   7.029378e-02
  1.956254e-01    1.972232e+00   6.943607e-02
  1.978358e-01    2.111701e+00   7.160304e-02
  2.000463e-01    2.125665e+00   7.160135e-02
  2.022568e-01    2.100182e+00   7.093727e-02
  2.044672e-01    2.031404e+00   6.952704e-02
  2.066777e-01    2.035510e+00   6.936626e-02
  2.088881e-01    2.017554e+00   6.883371e-02
  2.110986e-01    1.948522e+00   6.741390e-02
  2.133090e-01    1.945637e+00   6.714495e-02
  2.155195e-01    2.025645e+00   6.828436e-02
  2.177300e-01    2.072235e+00   6.852258e-02
  2.199404e-01    1.994984e+00   6.546166e-02
  2.221509e-01    1.953093e+00   6.370714e-02
  2.243613e-01    2.006087e+00   6.374712e-02
  2.265718e-01    2.033497e+00   6.347375e-02
  2.287822e-01    2.116566e+00   6.411628e-02
  2.309927e-01    2.145744e+00   6.396861e-02
  2.332031e-01    2.204586e+00   6.428482e-02
  2.354136e-01    2.214744e+00   6.391053e-02
  2.376241e-01    2.276958e+00   6.429897e-02
  2.398345e-01    2.247839e+00   6.341372e-02
  2.420450e-01    2.211112e+00   6.244403e-02
  2.442554e-01    2.159715e+00   6.128886e-02
  2.464659e-01    2.109838e+00   6.017030e-02
  2.486763e-01    2.109348e+00   5.976785e-02
  2.508868e-01    2.089284e+00   5.910765e-02
  2.530973e-01    2.193001e+00   6.018159e-02
  2.553077e-01    2.074395e+00   5.817651e-02
  2.575182e-01    2.078584e+00   5.789065e-02
  2.597286e-01    2.110918e+00   5.800008e-02
  2.619391e-01    1.997035e+00   5.608905e-02
  2.641495e-01    2.064528e+00   5.671334e-02
  2.663600e-01    2.111983e+00   5.704601e-02
  2.685704e-01    2.116333e+00   5.679518e-02
  2.707809e-01    2.122934e+00   5.658175e-02
  2.729914e-01    2.050145e+00   5.531351e-02
  2.752018e-01    2.102289e+00   5.572098e-02
  2.774123e-01    2.051028e+00   5.475632e-02
  2.796227e-01    2.036129e+00   5.428720e-02
  2.818332e-01    2.062021e+00   5.435876e-02
  2.840436e-01    2.071237e+00   5.421603e-02
  2.862541e-01    2.009872e+00   5.315010e-02
  2.884646e-01    2.001563e+00   5.278843e-02
  2.906750e-01    1.948849e+00   5.184167e-02
  2.928855e-01    1.979194e+00   5.200164e-02
  2.950959e-01    1.958287e+00   5.148864e-02
  2.973064e-01    1.918360e+00   5.073201e-02
  2.995168e-01    1.925507e+00   5.059622e-02
  3.017273e-01    1.933789e+00   5.048138e-02
  3.039377e-01    1.984390e+00   5.091365e-02
  3.061482e-01    1.927768e+00   4.996495e-02
  3.083587e-01    1.928398e+00   4.975680e-02
  3.105691e-01    1.897921e+00   4.915120e-02
  3.127796e-01    1.975974e+00   4.994085e-02
  3.149900e-01    1.974502e+00   4.971425e-02
  3.172005e-01    1.918026e+00   4.879777e-02
  3.194109e-01    1.918023e+00   4.859626e-02
  3.216214e-01    1.983844e+00   4.922142e-02
  3.238319e-01    1.973125e+00   4.889378e-02
  3.260423e-01    1.921644e+00   4.805954e-02
  3.282528e-01    1.933345e+00   4.801371e-02
  3.304632e-01    1.899146e+00   4.740283e-02
  3.326737e-01    1.870292e+00   4.685778e-02
  3.348841e-01    1.896542e+00   4.700251e-02
  3.370946e-01    1.807217e+00   4.570964e-02
  3.393050e-01    1.813065e+00   4.561009e-02
  3.415155e-01    1.882008e+00   4.629448e-02
  3.437260e-01    1.803498e+00   4.515061e-02
  3.459364e-01    1.816209e+00   4.514181e-02
  3.481469e-01    1.899821e+00   4.600069e-02
  3.503573e-01    1.896691e+00   4.579535e-02
  3.525678e-01    1.878702e+00   4.541524e-02
  3.547782e-01    1.851902e+00   4.492717e-02
  3.569887e-01    1.793075e+00   4.405122e-02
  3.591992e-01    1.818036e+00   4.419979e-02
  3.614096e-01    1.846874e+00   4.439452e-02
  3.636201e-01    1.849937e+00   4.427518e-02
  3.658305e-01    1.853553e+00   4.416726e-02
  3.680410e-01    1.863932e+00   4.413841e-02
  3.702514e-01    1.866445e+00   4.401962e-02
  3.724619e-01    1.876258e+00   4.398489e-02
  3.746724e-01    1.831668e+00   4.331410e-02
  3.768828e-01    1.841520e+00   4.328427e-02
  3.790933e-01    1.864306e+00   4.340933e-02
  3.813037e-01    1.843652e+00   4.302697e-02
  3.835142e-01    1.772874e+00   4.205441e-02
  3.857246e-01    1.821809e+00   4.249286e-02
  3.879351e-01    1.848855e+00   4.266858e-02
  3.901455e-01    1.813917e+00   4.212895e-02
  3.923560e-01    1.752212e+00   4.127459e-02
  3.945665e-01    1.815964e+00   4.188548e-02
  3.967769e-01    1.840140e+00   4.203133e-02
  3.989874e-01    1.841318e+00   4.191350e-02
  4.011978e-01    1.830384e+00   4.166036e-02
  4.034083e-01    1.864406e+00   4.191667e-02
  4.056187e-01    1.802210e+00   4.108465e-02
  4.078292e-01    1.783573e+00   4.074794e-02
  4.100397e-01    1.801357e+00   4.082557e-02
  4.122501e-01    1.801379e+00   4.070368e-02
  4.144606e-01    1.843678e+00   4.105669e-02
  4.166710e-01    1.823801e+00   4.071336e-02
  4.188815e-01    1.809188e+00   4.043013e-02
  4.210919e-01    1.842554e+00   4.068167e-02
  4.233024e-01    1.839767e+00   4.053131e-02
  4.255128e-01    1.858653e+00   4.062108e-02
  4.277233e-01    1.798631e+00   3.984497e-02
  4.299338e-01    1.788184e+00   3.961477e-02
  4.321442e-01    1.801460e+00   3.964779e-02
  4.343547e-01    1.781451e+00   3.931550e-02
  4.365651e-01    1.770603e+00   3.908426e-02
  4.387756e-01    1.783542e+00   3.911695e-02
  4.409860e-01    1.822924e+00   3.943691e-02
  4.431965e-01    1.807998e+00   3.916651e-02
  4.454070e-01    1.834225e+00   3.933982e-02
  4.476174e-01    1.815268e+00   3.902855e-02
  4.498279e-01    1.760115e+00   3.832651e-02
  4.520383e-01    1.769193e+00   3.831977e-02
  4.542488e-01    1.731849e+00   3.781096e-02
  4.564592e-01    1.754822e+00   3.795879e-02
  4.586697e-01    1.726599e+00   3.755239e-02
  4.608801e-01    1.735133e+00   3.754424e-02
  4.630906e-01    1.708101e+00   3.715199e-02
  4.653011e-01    1.729613e+00   3.728691e-02
  4.675115e-01    1.755750e+00   3.746862e-02
  4.697220e-01    1.763005e+00   3.744767e-02
  4.719324e-01    1.761023e+00   3.732980e-02
  4.741429e-01    1.731087e+00   3.691578e-02
  4.763533e-01    1.740952e+00   3.692592e-02
  4.785638e-01    1.709936e+00   3.650098e-02
  4.807743e-01    1.688729e+00   3.618167e-02
  4.829847e-01    1.728683e+00   3.651470e-02
  4.851952e-01    1.748638e+00   3.663192e-02
  4.874056e-01    1.756526e+00   3.662187e-02
  4.896161e-01    1.729824e+00   3.625233e-02
  4.918265e-01    1.758000e+00   3.645563e-02
  4.940370e-01    1.689433e+00   3.564938e-02
  4.962475e-01    1.735844e+00   3.604650e-02
  4.984579e-01    1.671320e+00   3.528304e-02
  5.006684e-01    1.696061e+00   3.545655e-02
  5.028788e-01    1.737075e+00   3.579576e-02
  5.050893e-01    1.720759e+00   3.554060e-02
  5.072997e-01    1.726266e+00   3.551146e-02
  5.095102e-01    1.700596e+00   3.516202e-02
  5.117206e-01    1.686089e+00   3.492847e-02
  5.139311e-01    1.659806e+00   3.457315e-02
  5.161416e-01    1.681056e+00   3.471153e-02
  5.183520e-01    1.692085e+00   3.474246e-02
  5.205625e-01    1.643888e+00   3.416387e-02
  5.227729e-01    1.716588e+00   3.482969e-02
  5.249834e-01    1.715612e+00   3.473898e-02
  5.271938e-01    1.728197e+00   3.478479e-02
  5.294043e-01    1.760943e+00   3.503178e-02
  5.316148e-01    1.754699e+00   3.488952e-02
  5.338252e-01    1.754269e+00   3.480551e-02
  5.360357e-01    1.796531e+00   3.514207e-02
  5.382461e-01    1.822683e+00   3.531693e-02
  5.404566e-01    1.789627e+00   3.491557e-02
  5.426670e-01    1.752046e+00   3.446918e-02
  5.448775e-01    1.776695e+00   3.463325e-02
  5.470879e-01    1.795766e+00   3.474099e-02
  5.492984e-01    1.787048e+00   3.457948e-02
  5.515089e-01    1.805012e+00   3.467578e-02
  5.537193e-01    1.803110e+00   3.458115e-02
  5.559298e-01    1.801276e+00   3.448775e-02
  5.581402e-01    1.805958e+00   3.445707e-02
  5.603507e-01    1.797653e+00   3.430295e-02
  5.625611e-01    1.787117e+00   3.412804e-02
  5.647716e-01    1.749203e+00   3.369080e-02
  5.669821e-01    1.768324e+00   3.380139e-02
  5.691925e-01    1.797905e+00   3.400979e-02
  5.714030e-01    1.768451e+00   3.365813e-02
  5.736134e-01    1.767844e+00   3.358080e-02
  5.758239e-01    1.721719e+00   3.306908e-02
  5.780343e-01    1.739788e+00   3.317183e-02
  5.802448e-01    1.709992e+00   3.281772e-02
  5.824552e-01    1.673541e+00   3.239793e-02
  5.846657e-01    1.651385e+00   3.211566e-02
  5.868762e-01    1.606055e+00   3.160589e-02
  5.890866e-01    1.628818e+00   3.176301e-02
  5.912971e-01    1.652887e+00   3.193062e-02
  5.935075e-01    1.635606e+00   3.169760e-02
  5.957180e-01    1.641094e+00   3.168559e-02
  5.979284e-01    1.688414e+00   3.207354e-02
  6.001389e-01    1.693797e+00   3.205924e-02
  6.023494e-01    1.707193e+00   3.212041e-02
  6.045598e-01    1.693849e+00   3.192949e-02
  6.067703e-01    1.711188e+00   3.202796e-02
  6.089807e-01    1.693509e+00   3.179802e-02
  6.111912e-01    1.702008e+00   3.181406e-02
  6.134016e-01    1.685809e+00   3.159914e-02
  6.156121e-01    1.660887e+00   3.130237e-02
  6.178226e-01    1.694123e+00   3.155140e-02
  6.200330e-01    1.766877e+00   3.215822e-02
  6.222435e-01    1.752024e+00   3.195934e-02
  6.244539e-01    1.719476e+00   3.159910e-02
  6.266644e-01    1.712187e+00   3.147053e-02
  6.288748e-01    1.716524e+00   3.144903e-02
  6.310853e-01    1.713535e+00   3.136063e-02
  6.332957e-01    1.756790e+00   3.169267e-02
  6.355062e-01    1.729089e+00   3.138076e-02
  6.377167e-01    1.725077e+00   3.128416e-02
  6.399271e-01    1.738657e+00   3.134689e-02
  6.421376e-01    1.764666e+00   3.152021e-02
  6.443480e-01    1.710998e+00   3.097817e-02
  6.465585e-01    1.708228e+00   3.089443e-02
  6.487689e-01    1.665413e+00   3.044722e-02
  6.509794e-01    1.678651e+00   3.051031e-02
  6.531899e-01    1.671240e+00   3.038567e-02
  6.554003e-01    1.660950e+00   3.023500e-02
  6.576108e-01    1.694757e+00   3.048429e-02
  6.598212e-01    1.628668e+00   2.982850e-02
  6.620317e-01    1.583883e+00   2.936099e-02
  6.642421e-01    1.610421e+00   2.955113e-02
  6.664526e-01    1.651715e+00   2.987250e-02
  6.686630e-01    1.669039e+00   2.997322e-02
  6.708735e-01    1.653017e+00   2.977429e-02
  6.730840e-01    1.654704e+00   2.973519e-02
  6.752944e-01    1.590881e+00   2.910306e-02
  6.775049e-01    1.588884e+00   2.903198e-02
  6.797153e-01    1.635553e+00   2.940191e-02
  6.819258e-01    1.638745e+00   2.937754e-02
  6.841362e-01    1.623343e+00   2.918654e-02
  6.863467e-01    1.641736e+00   2.929887e-02
  6.885572e-01    1.625956e+00   2.910548e-02
  6.907676e-01    1.606176e+00   2.887607e-02
  6.929781e-01    1.607662e+00   2.883807e-02
  6.951885e-01    1.660016e+00   2.925196e-02
  6.973990e-01    1.629795e+00   2.893324e-02
  6.996094e-01    1.602194e+00   2.863671e-02
  7.018199e-01    1.658996e+00   2.908877e-02
  7.040303e-01    1.612416e+00   2.862713e-02
  7.062408e-01    1.608860e+00   2.854545e-02
  7.084513e-01    1.588949e+00   2.831892e-02
  7.106617e-01    1.646011e+00   2.877282e-02
  7.128722e-01    1.621722e+00   2.851036e-02
  7.150826e-01    1.612451e+00   2.837975e-02
  7.172931e-01    1.580686e+00   2.805036e-02
  7.195035e-01    1.587420e+00   2.806174e-02
  7.217140e-01    1.602441e+00   2.824407e-02
  7.239245e-01    1.615195e+00   2.858589e-02
  7.261349e-01    1.600355e+00   2.856377e-02
  7.283454e-01    1.592578e+00   2.856708e-02
  7.305558e-01    1.632989e+00   2.898223e-02
  7.327663e-01    1.618341e+00   2.889506e-02
  7.349767e-01    1.574028e+00   2.851307e-02
  7.371872e-01    1.566328e+00   2.843208e-02
  7.393976e-01    1.633575e+00   2.902147e-02
  7.416081e-01    1.642770e+00   2.908656e-02
  7.438186e-01    1.609632e+00   2.864575e-02
  7.460290e-01    1.587576e+00   2.815339e-02
  7.482395e-01    1.562976e+00   2.776387e-02
  7.504499e-01    1.585718e+00   2.782837e-02
  7.526604e-01    1.618289e+00   2.799457e-02
  7.548708e-01    1.638210e+00   2.807514e-02
  7.570813e-01    1.635535e+00   2.800028e-02
  7.592918e-01    1.585328e+00   2.753185e-02
  7.615022e-01    1.580202e+00   2.745344e-02
  7.637127e-01    1.598500e+00   2.757891e-02
  7.659231e-01    1.567332e+00   2.727679e-02
  7.681336e-01    1.605953e+00   2.757888e-02
  7.703440e-01    1.593609e+00   2.744129e-02
  7.725545e-01    1.601793e+00   2.748050e-02
  7.747650e-01    1.619530e+00   2.759350e-02
  7.769754e-01    1.634155e+00   2.766413e-02
  7.791859e-01    1.601018e+00   2.732830e-02
  7.813963e-01    1.618833e+00   2.742666e-02
  7.836068e-01    1.657796e+00   2.770157e-02
  7.858172e-01    1.640791e+00   2.750761e-02
  7.880277e-01    1.622149e+00   2.729888e-02
  7.902381e-01    1.610580e+00   2.715192e-02
  7.924486e-01    1.607030e+00   2.707177e-02
  7.946591e-01    1.609601e+00   2.704494e-02
  7.968695e-01    1.642529e+00   2.727133e-02
  7.990800e-01    1.640283e+00   2.720395e-02
  8.012904e-01    1.640015e+00   2.715468e-02
  8.035009e-01    1.650406e+00   2.719210e-02
  8.057113e-01    1.666111e+00   2.727391e-02
  8.079218e-01    1.688090e+00   2.740586e-02
  8.101323e-01    1.664530e+00   2.716774e-02
  8.123427e-01    1.640821e+00   2.692756e-02
  8.145532e-01    1.663042e+00   2.706290e-02
  8.167636e-01    1.677109e+00   2.713143e-02
  8.189741e-01    1.677041e+00   2.708564e-02
  8.211845e-01    1.670009e+00   2.698351e-02
  8.233950e-01    1.679221e+00   2.701380e-02
  8.256054e-01    1.765605e+00   2.765401e-02
  8.278159e-01    1.746867e+00   2.746152e-02
  8.300264e-01    1.721316e+00   2.721574e-02
  8.322368e-01    1.688394e+00   2.691047e-02
  8.344473e-01    1.648220e+00   2.654487e-02
  8.366577e-01    1.634827e+00   2.639428e-02
  8.388682e-01    1.665651e+00   2.659934e-02
  8.410786e-01    1.668396e+00   2.657883e-02
  8.432891e-01    1.691180e+00   2.671719e-02
  8.454996e-01    1.683743e+00   2.661620e-02
  8.477100e-01    1.684268e+00   2.657809e-02
  8.499205e-01    1.668777e+00   2.641405e-02
  8.521309e-01    1.638289e+00   2.613083e-02
  8.543414e-01    1.661587e+00   2.627490e-02
  8.565518e-01    1.663888e+00   2.625219e-02
  8.587623e-01    1.645504e+00   2.606609e-02
  8.609727e-01    1.615560e+00   2.578778e-02
  8.631832e-01    1.625591e+00   2.582784e-02
  8.653937e-01    1.596819e+00   2.555892e-02
  8.676041e-01    1.617705e+00   2.568669e-02
  8.698146e-01    1.640255e+00   2.582559e-02
  8.720250e-01    1.602086e+00   2.548442e-02
  8.742355e-01    1.639392e+00   2.574019e-02
  8.764459e-01    1.633761e+00   2.565675e-02
  8.786564e-01    1.622814e+00   2.553253e-02
  8.808669e-01    1.612829e+00   2.541527e-02
  8.830773e-01    1.623597e+00   2.546158e-02
  8.852878e-01    1.621192e+00   2.540456e-02
  8.874982e-01    1.633493e+00   2.546376e-02
  8.897087e-01    1.639869e+00   2.547527e-02
  8.919191e-01    1.605586e+00   2.516977e-02
  8.941296e-01    1.614568e+00   2.520260e-02
  8.963401e-01    1.636297e+00   2.533479e-02
  8.985505e-01    1.655953e+00   2.544891e-02
  9.007610e-01    1.620535e+00   2.513831e-02
  9.029714e-01    1.620630e+00   2.510297e-02
  9.051819e-01    1.597948e+00   2.488949e-02
  9.073923e-01    1.618206e+00   2.500997e-02
  9.096028e-01    1.618209e+00   2.497489e-02
  9.118132e-01    1.606715e+00   2.484973e-02
  9.140237e-01    1.623659e+00   2.494353e-02
  9.162342e-01    1.622622e+00   2.490076e-02
  9.184446e-01    1.619739e+00   2.484265e-02
  9.206551e-01    1.607918e+00   2.471616e-02
  9.228655e-01    1.611228e+00   2.470622e-02
  9.250760e-01    1.596600e+00   2.455851e-02
  9.272864e-01    1.609022e+00   2.461953e-02
  9.294969e-01    1.608059e+00   2.457631e-02
  9.317074e-01    1.593257e+00   2.442835e-02
  9.339178e-01    1.617496e+00   2.457985e-02
  9.361283e-01    1.637572e+00   2.469546e-02
  9.383387e-01    1.688170e+00   2.503997e-02
  9.405492e-01    1.682965e+00   2.496645e-02
  9.427596e-01    1.647766e+00   2.466842e-02
  9.449701e-01    1.668160e+00   2.478686e-02
  9.471805e-01    1.685284e+00   2.487849e-02
  9.493910e-01    1.695949e+00   2.492283e-02
  9.516015e-01    1.712742e+00   2.501094e-02
  9.538119e-01    1.697025e+00   2.486181e-02
  9.560224e-01    1.744445e+00   2.517127e-02
  9.582328e-01    1.753475e+00   2.520250e-02
  9.604433e-01    1.793750e+00   2.545419e-02
  9.626537e-01    1.809728e+00   2.553294e-02
  9.648642e-01    1.843628e+00   2.573565e-02
  9.670747e-01    1.853922e+00   2.577186e-02
  9.692851e-01    1.793054e+00   2.531154e-02
  9.714956e-01    1.806813e+00   2.537263e-02
  9.737060e-01    1.816728e+00   2.540875e-02
  9.759165e-01    1.819519e+00   2.539239e-02
  9.781269e-01    1.820371e+00   2.536511e-02
  9.803374e-01    1.842953e+00   2.548666e-02
  9.825478e-01    1.830281e+00   2.536539e-02
  9.847583e-01    1.810896e+00   2.519644e-02
  9.869688e-01    1.816075e+00   2.519867e-02
  9.891792e-01    1.803258e+00   2.507621e-02
  9.913897e-01    1.816010e+00   2.513076e-02
  9.936001e-01    1.893675e+00   2.562890e-02
  9.958106e-01    1.922313e+00   2.578692e-02
  9.980210e-01    1.794532e+00   2.488278e-02
  1.000231e+00    1.716938e+00   2.447221e-02
  1.002442e+00    1.659458e+00   2.418691e-02
  1.004652e+00    1.678846e+00   2.439565e-02
  1.006863e+00    1.653825e+00   2.426343e-02
  1.009073e+00    1.637296e+00   2.417882e-02
  1.011284e+00    1.581234e+00   2.379304e-02
  1.013494e+00    1.601075e+00   2.396557e-02
  1.015705e+00    1.590492e+00   2.390882e-02
  1.017915e+00    1.560892e+00   2.370162e-02
  1.020126e+00    1.560863e+00   2.371742e-02
  1.022336e+00    1.561677e+00   2.373529e-02
  1.024547e+00    1.579807e+00   2.388399e-02
  1.026757e+00    1.577713e+00   2.387660e-02
  1.028967e+00    1.576516e+00   2.387531e-02
  1.031178e+00    1.552481e+00   2.369882e-02
  1.033388e+00    1.558321e+00   2.374844e-02
  1.035599e+00    1.541714e+00   2.362501e-02
  1.037809e+00    1.552063e+00   2.370743e-02
  1.040020e+00    1.712289e+00   2.490240e-02
  1.042230e+00    1.716675e+00   2.493642e-02
  1.044441e+00    1.590077e+00   2.399911e-02
  1.046651e+00    1.534065e+00   2.357277e-02
  1.048862e+00    1.531790e+00   2.355447e-02
  1.051072e+00    1.514626e+00   2.341978e-02
  1.053282e+00    1.513310e+00   2.340863e-02
  1.055493e+00    1.515120e+00   2.341831e-02
  1.057703e+00    1.531291e+00   2.354139e-02
  1.059914e+00    1.608237e+00   2.412116e-02
  1.062124e+00    1.804651e+00   2.554721e-02
  1.064335e+00    1.971931e+00   2.670112e-02
  1.066545e+00    1.920820e+00   2.634599e-02
  1.068756e+00    1.767731e+00   2.527030e-02
  1.070966e+00    1.583517e+00   2.391056e-02
  1.073177e+00    1.533361e+00   2.352265e-02
  1.075387e+00    1.509038e+00   2.333005e-02
  1.077597e+00    1.521127e+00   2.341591e-02
  1.079808e+00    1.481536e+00   2.297567e-02
  1.082018e+00    1.462371e+00   2.263753e-02
  1.084229e+00    1.461564e+00   2.252121e-02
  1.086439e+00    1.430722e+00   2.219561e-02
  1.088650e+00    1.456382e+00   2.231804e-02
  1.090860e+00    1.449781e+00   2.219990e-02
  1.093071e+00    1.464114e+00   2.224687e-02
  1.095281e+00    1.449007e+00   2.207451e-02
  1.097492e+00    1.433405e+00   2.190066e-02
  1.099702e+00    1.406590e+00   2.164404e-02
  1.101912e+00    1.428246e+00   2.176137e-02
  1.104123e+00    1.428707e+00   2.171678e-02
  1.106333e+00    1.417002e+00   2.158346e-02
  1.108544e+00    1.444727e+00   2.174911e-02
  1.110754e+00    1.415198e+00   2.148284e-02
  1.112965e+00    1.395642e+00   2.129375e-02
  1.115175e+00    1.398709e+00   2.127625e-02
  1.117386e+00    1.424860e+00   2.143483e-02
  1.119596e+00    1.399939e+00   2.120885e-02
  1.121807e+00    1.434901e+00   2.143288e-02
  1.124017e+00    1.431764e+00   2.137248e-02
  1.126228e+00    1.424924e+00   2.128535e-02
  1.128438e+00    1.423177e+00   2.123524e-02
  1.130648e+00    1.429347e+00   2.124654e-02
  1.132859e+00    1.422670e+00   2.116218e-02
  1.135069e+00    1.404727e+00   2.099342e-02
  1.137280e+00    1.414721e+00   2.103469e-02
  1.139490e+00    1.376680e+00   2.071702e-02
  1.141701e+00    1.384585e+00   2.074328e-02
  1.143911e+00    1.396425e+00   2.079978e-02
  1.146122e+00    1.383628e+00   2.067221e-02
  1.148332e+00    1.406531e+00   2.081041e-02
  1.150543e+00    1.351900e+00   2.037171e-02
  1.152753e+00    1.371492e+00   2.048800e-02
  1.154963e+00    1.383592e+00   2.054702e-02
  1.157174e+00    1.394881e+00   2.060029e-02
  1.159384e+00    1.377383e+00   2.044076e-02
  1.161595e+00    1.424861e+00   2.075962e-02
  1.163805e+00    1.461985e+00   2.099809e-02
  1.166016e+00    1.472059e+00   2.103979e-02
  1.168226e+00    1.453732e+00   2.087855e-02
  1.170437e+00    1.437808e+00   2.073450e-02
  1.172647e+00    1.441680e+00   2.073272e-02
  1.174858e+00    1.444494e+00   2.072403e-02
  1.177068e+00    1.406041e+00   2.041764e-02
  1.179278e+00    1.398416e+00   2.033323e-02
  1.181489e+00    1.405743e+00   2.035896e-02
  1.183699e+00    1.404242e+00   2.032006e-02
  1.185910e+00    1.411442e+00   2.034377e-02
  1.188120e+00    1.373198e+00   2.003944e-02
  1.190331e+00    1.383897e+00   2.009028e-02
  1.192541e+00    1.363791e+00   1.991636e-02
  1.194752e+00    1.344880e+00   1.975080e-02
  1.196962e+00    1.362112e+00   1.985111e-02
  1.199173e+00    1.341405e+00   1.967322e-02
  1.201383e+00    1.344860e+00   1.967143e-02
  1.203593e+00    1.364745e+00   1.979137e-02
  1.205804e+00    1.360392e+00   1.973378e-02
  1.208014e+00    1.331700e+00   1.949789e-02
  1.210225e+00    1.365018e+00   1.971481e-02
  1.212435e+00    1.357081e+00   1.963258e-02
  1.214646e+00    1.355222e+00   1.959295e-02
  1.216856e+00    1.360658e+00   1.960664e-02
  1.219067e+00    1.355423e+00   1.954437e-02
  1.221277e+00    1.361767e+00   1.956490e-02
  1.223488e+00    1.359197e+00   1.952062e-02
  1.225698e+00    1.344757e+00   1.938980e-02
  1.227909e+00    1.345212e+00   1.936295e-02
  1.230119e+00    1.376797e+00   1.955678e-02
  1.232329e+00    1.345567e+00   1.930306e-02
  1.234540e+00    1.371816e+00   1.945988e-02
  1.236750e+00    1.360265e+00   1.934741e-02
  1.238961e+00    1.360874e+00   1.932466e-02
  1.241171e+00    1.352778e+00   1.924288e-02
  1.243382e+00    1.364303e+00   1.930103e-02
  1.245592e+00    1.355193e+00   1.921235e-02
  1.247803e+00    1.366438e+00   1.926809e-02
  1.250013e+00    1.386943e+00   1.938824e-02
  1.252224e+00    1.458169e+00   1.985566e-02
  1.254434e+00    1.543762e+00   2.040476e-02
  1.256644e+00    1.458932e+00   1.981214e-02
  1.258855e+00    1.386334e+00   1.928929e-02
  1.261065e+00    1.370939e+00   1.915834e-02
  1.263276e+00    1.371556e+00   1.913952e-02
  1.265486e+00    1.416168e+00   1.942485e-02
  1.267697e+00    1.442197e+00   1.957878e-02
  1.269907e+00    1.398492e+00   1.925675e-02
  1.272118e+00    1.357714e+00   1.895127e-02
  1.274328e+00    1.354905e+00   1.890889e-02
  1.276539e+00    1.360570e+00   1.892548e-02
  1.278749e+00    1.351817e+00   1.884223e-02
  1.280959e+00    1.364812e+00   1.890990e-02
  1.283170e+00    1.350887e+00   1.879076e-02
  1.285380e+00    1.358780e+00   1.882305e-02
  1.287591e+00    1.349186e+00   1.873445e-02
  1.289801e+00    1.366785e+00   1.883489e-02
  1.292012e+00    1.367757e+00   1.882439e-02
  1.294222e+00    1.353096e+00   1.870696e-02
  1.296433e+00    1.342658e+00   1.861911e-02
  1.298643e+00    1.346432e+00   1.862881e-02
  1.300854e+00    1.355629e+00   1.867587e-02
  1.303064e+00    1.383251e+00   1.884572e-02
  1.305274e+00    1.369700e+00   1.873160e-02
  1.307485e+00    1.383726e+00   1.880543e-02
  1.309695e+00    1.393199e+00   1.884711e-02
  1.311906e+00    1.376651e+00   1.871294e-02
  1.314116e+00    1.362716e+00   1.859708e-02
  1.316327e+00    1.339412e+00   1.841579e-02
  1.318537e+00    1.374367e+00   1.863243e-02
  1.320748e+00    1.371305e+00   1.858997e-02
  1.322958e+00    1.378143e+00   1.861552e-02
  1.325169e+00    1.364273e+00   1.850048e-02
  1.327379e+00    1.375862e+00   1.855686e-02
  1.329589e+00    1.377974e+00   1.854983e-02
  1.331800e+00    1.379486e+00   1.853907e-02
  1.334010e+00    1.402735e+00   1.867359e-02
  1.336221e+00    1.373113e+00   1.845345e-02
  1.338431e+00    1.363999e+00   1.837111e-02
  1.340642e+00    1.358318e+00   1.839719e-02
  1.342852e+00    1.365585e+00   1.854758e-02
  1.345063e+00    1.359530e+00   1.855608e-02
  1.347273e+00    1.358423e+00   1.858388e-02
  1.349484e+00    1.352160e+00   1.856867e-02
  1.351694e+00    1.372045e+00   1.872761e-02
  1.353905e+00    1.352351e+00   1.861075e-02
  1.356115e+00    1.338226e+00   1.852826e-02
  1.358325e+00    1.341647e+00   1.856521e-02
  1.360536e+00    1.352924e+00   1.865471e-02
  1.362746e+00    1.343278e+00   1.859762e-02
  1.364957e+00    1.343209e+00   1.860481e-02
  1.367167e+00    1.333658e+00   1.854563e-02
  1.369378e+00    1.344796e+00   1.862895e-02
  1.371588e+00    1.327999e+00   1.851733e-02
  1.373799e+00    1.344668e+00   1.863688e-02
  1.376009e+00    1.331582e+00   1.854934e-02
  1.378220e+00    1.347401e+00   1.866175e-02
  1.380430e+00    1.323053e+00   1.849508e-02
  1.382640e+00    1.302646e+00   1.835276e-02
  1.384851e+00    1.305216e+00   1.837175e-02
  1.387061e+00    1.288145e+00   1.825149e-02
  1.389272e+00    1.308338e+00   1.839420e-02
  1.391482e+00    1.303986e+00   1.836290e-02
  1.393693e+00    1.288677e+00   1.825393e-02
  1.395903e+00    1.303846e+00   1.835953e-02
  1.398114e+00    1.292110e+00   1.827534e-02
  1.400324e+00    1.289168e+00   1.825239e-02
  1.402535e+00    1.271508e+00   1.812462e-02
  1.404745e+00    1.282999e+00   1.820396e-02
  1.406955e+00    1.300870e+00   1.832758e-02
  1.409166e+00    1.273384e+00   1.812964e-02
  1.411376e+00    1.269852e+00   1.810133e-02
  1.413587e+00    1.269629e+00   1.809595e-02
  1.415797e+00    1.276263e+00   1.813961e-02
  1.418008e+00    1.274264e+00   1.808346e-02
  1.420218e+00    1.278688e+00   1.796458e-02
  1.422429e+00    1.282727e+00   1.790719e-02
  1.424639e+00    1.274773e+00   1.778678e-02
  1.426850e+00    1.288677e+00   1.782841e-02
  1.429060e+00    1.269323e+00   1.764507e-02
  1.431270e+00    1.252775e+00   1.748565e-02
  1.433481e+00    1.267348e+00   1.754615e-02
  1.435691e+00    1.288931e+00   1.765621e-02
  1.437902e+00    1.265551e+00   1.745895e-02
  1.440112e+00    1.305500e+00   1.769651e-02
  1.442323e+00    1.300126e+00   1.762665e-02
  1.444533e+00    1.279578e+00   1.745411e-02
  1.446744e+00    1.277399e+00   1.740804e-02
  1.448954e+00    1.266159e+00   1.730111e-02
  1.451165e+00    1.273099e+00   1.731868e-02
  1.453375e+00    1.289334e+00   1.740048e-02
  1.455586e+00    1.289111e+00   1.737063e-02
  1.457796e+00    1.263322e+00   1.716854e-02
  1.460006e+00    1.277927e+00   1.724016e-02
  1.462217e+00    1.272007e+00   1.717395e-02
  1.464427e+00    1.263667e+00   1.709199e-02
  1.466638e+00    1.282208e+00   1.719149e-02
  1.468848e+00    1.291801e+00   1.723011e-02
  1.471059e+00    1.277392e+00   1.710860e-02
  1.473269e+00    1.276268e+00   1.707660e-02
  1.475480e+00    1.283213e+00   1.709911e-02
  1.477690e+00    1.263266e+00   1.694190e-02
  1.479901e+00    1.266157e+00   1.693745e-02
  1.482111e+00    1.257220e+00   1.685434e-02
  1.484321e+00    1.250618e+00   1.678706e-02
  1.486532e+00    1.282858e+00   1.697959e-02
  1.488742e+00    1.246423e+00   1.671425e-02
  1.490953e+00    1.266878e+00   1.682821e-02
  1.493163e+00    1.286170e+00   1.693336e-02
  1.495374e+00    1.266053e+00   1.677893e-02
  1.497584e+00    1.283684e+00   1.687348e-02
  1.499795e+00    1.262368e+00   1.671118e-02
  1.502005e+00    1.245528e+00   1.657774e-02
  1.504216e+00    1.274358e+00   1.674734e-02
  1.506426e+00    1.270761e+00   1.670279e-02
  1.508636e+00    1.266042e+00   1.665122e-02
  1.510847e+00    1.297169e+00   1.683250e-02
  1.513057e+00    1.281291e+00   1.670384e-02
  1.515268e+00    1.248748e+00   1.646470e-02
  1.517478e+00    1.258893e+00   1.650622e-02
  1.519689e+00    1.269931e+00   1.655332e-02
  1.521899e+00    1.256941e+00   1.644531e-02
  1.524110e+00    1.264835e+00   1.647642e-02
  1.526320e+00    1.291024e+00   1.662623e-02
  1.528531e+00    1.302322e+00   1.667867e-02
  1.530741e+00    1.261172e+00   1.639385e-02
  1.532951e+00    1.229379e+00   1.616643e-02
  1.535162e+00    1.250976e+00   1.639447e-02
  1.537372e+00    1.240179e+00   1.639025e-02
  1.539583e+00    1.218262e+00   1.627858e-02
  1.541793e+00    1.210329e+00   1.623233e-02
  1.544004e+00    1.241374e+00   1.643945e-02
  1.546214e+00    1.250973e+00   1.650139e-02
  1.548425e+00    1.237979e+00   1.641571e-02
  1.550635e+00    1.238013e+00   1.642559e-02
  1.552846e+00    1.252399e+00   1.653044e-02
  1.555056e+00    1.269204e+00   1.659909e-02
  1.557266e+00    1.253565e+00   1.638566e-02
  1.559477e+00    1.248311e+00   1.629206e-02
  1.561687e+00    1.254793e+00   1.630352e-02
  1.563898e+00    1.260640e+00   1.632420e-02
  1.566108e+00    1.263593e+00   1.632722e-02
  1.568319e+00    1.263426e+00   1.631040e-02
  1.570529e+00    1.278682e+00   1.638310e-02
  1.572740e+00    1.275118e+00   1.633230e-02
  1.574950e+00    1.263005e+00   1.622803e-02
  1.577161e+00    1.263988e+00   1.620868e-02
  1.579371e+00    1.260421e+00   1.616197e-02
  1.581582e+00    1.233621e+00   1.596955e-02
  1.583792e+00    1.235549e+00   1.596405e-02
  1.586002e+00    1.249106e+00   1.603375e-02
  1.588213e+00    1.234413e+00   1.592200e-02
  1.590423e+00    1.242634e+00   1.595487e-02
  1.592634e+00    1.247491e+00   1.596435e-02
  1.594844e+00    1.243549e+00   1.591773e-02
  1.597055e+00    1.225802e+00   1.578337e-02
  1.599265e+00    1.230908e+00   1.579557e-02
  1.601476e+00    1.238166e+00   1.582179e-02
  1.603686e+00    1.235058e+00   1.578220e-02
  1.605897e+00    1.222697e+00   1.568300e-02
  1.608107e+00    1.253393e+00   1.585895e-02
  1.610317e+00    1.255559e+00   1.585320e-02
  1.612528e+00    1.245145e+00   1.576808e-02
  1.614738e+00    1.252467e+00   1.579524e-02
  1.616949e+00    1.236277e+00   1.567380e-02
  1.619159e+00    1.223876e+00   1.557623e-02
  1.621370e+00    1.237666e+00   1.564515e-02
  1.623580e+00    1.204321e+00   1.541471e-02
  1.625791e+00    1.191326e+00   1.531317e-02
  1.628001e+00    1.192750e+00   1.530413e-02
  1.630212e+00    1.182133e+00   1.521821e-02
  1.632422e+00    1.182623e+00   1.520349e-02
  1.634632e+00    1.171727e+00   1.511605e-02
  1.636843e+00    1.172605e+00   1.510421e-02
  1.639053e+00    1.164956e+00   1.503765e-02
  1.641264e+00    1.170312e+00   1.505506e-02
  1.643474e+00    1.167224e+00   1.501777e-02
  1.645685e+00    1.163701e+00   1.497838e-02
  1.647895e+00    1.147839e+00   1.485943e-02
  1.650106e+00    1.128778e+00   1.471868e-02
  1.652316e+00    1.150398e+00   1.484247e-02
  1.654527e+00    1.147444e+00   1.480669e-02
  1.656737e+00    1.124500e+00   1.464145e-02
  1.658947e+00    1.110823e+00   1.453600e-02
  1.661158e+00    1.123402e+00   1.460183e-02
  1.663368e+00    1.115269e+00   1.453292e-02
  1.665579e+00    1.100233e+00   1.441860e-02
  1.667789e+00    1.106780e+00   1.444526e-02
  1.670000e+00    1.116769e+00   1.449480e-02
  1.672210e+00    1.100512e+00   1.437309e-02
  1.674421e+00    1.111947e+00   1.443218e-02
  1.676631e+00    1.128454e+00   1.452286e-02
  1.678842e+00    1.127664e+00   1.450180e-02
  1.681052e+00    1.094148e+00   1.426929e-02
  1.683263e+00    1.079090e+00   1.415567e-02
  1.685473e+00    1.109175e+00   1.433634e-02
  1.687683e+00    1.087080e+00   1.417738e-02
  1.689894e+00    1.112790e+00   1.432804e-02
  1.692104e+00    1.090275e+00   1.416736e-02
  1.694315e+00    1.085623e+00   1.412249e-02
  1.696525e+00    1.060764e+00   1.394479e-02
  1.698736e+00    1.036617e+00   1.377053e-02
  1.700946e+00    1.048644e+00   1.383511e-02
  1.703157e+00    1.052129e+00   1.384350e-02
  1.705367e+00    1.035709e+00   1.372065e-02
  1.707578e+00    1.051189e+00   1.380822e-02
  1.709788e+00    1.045657e+00   1.375775e-02
  1.711998e+00    1.016500e+00   1.354974e-02
  1.714209e+00    1.026729e+00   1.360341e-02
  1.716419e+00    1.023233e+00   1.356603e-02
  1.718630e+00    1.001502e+00   1.340715e-02
  1.720840e+00    9.838114e-01   1.327433e-02
  1.723051e+00    1.017615e+00   1.348662e-02
  1.725261e+00    1.033787e+00   1.357861e-02
  1.727472e+00    1.016488e+00   1.345038e-02
  1.729682e+00    1.006314e+00   1.336948e-02
  1.731893e+00    9.999629e-01   1.331339e-02
  1.734103e+00    1.009318e+00   1.336173e-02
  1.736313e+00    1.008283e+00   1.334086e-02
  1.738524e+00    1.000914e+00   1.327820e-02
  1.740734e+00    1.007793e+00   1.330999e-02
  1.742945e+00    9.781860e-01   1.309970e-02
  1.745155e+00    9.676514e-01   1.301569e-02
  1.747366e+00    9.800814e-01   1.308525e-02
  1.749576e+00    9.715103e-01   1.301435e-02
  1.751787e+00    9.557247e-01   1.289502e-02
  1.753997e+00    9.763448e-01   1.302002e-02
  1.756208e+00    9.857762e-01   1.306950e-02
  1.758418e+00    9.620968e-01   1.289852e-02
  1.760628e+00    9.429420e-01   1.275632e-02
  1.762839e+00    9.432452e-01   1.274527e-02
  1.765049e+00    9.479181e-01   1.276380e-02
  1.767260e+00    9.547271e-01   1.279678e-02
  1.769470e+00    9.413680e-01   1.269405e-02
  1.771681e+00    9.466161e-01   1.271628e-02
  1.773891e+00    9.316108e-01   1.260218e-02
  1.776102e+00    9.223281e-01   1.252651e-02
  1.778312e+00    9.401851e-01   1.263450e-02
  1.780523e+00    9.247777e-01   1.251795e-02
  1.782733e+00    9.171927e-01   1.245394e-02
  1.784944e+00    9.282895e-01   1.251624e-02
  1.787154e+00    9.250317e-01   1.248175e-02
  1.789364e+00    9.294276e-01   1.249892e-02
  1.791575e+00    9.089531e-01   1.234806e-02
  1.793785e+00    9.227304e-01   1.242888e-02
  1.795996e+00    9.375626e-01   1.251575e-02
  1.798206e+00    9.346889e-01   1.248393e-02
  1.800417e+00    9.317321e-01   1.245139e-02
  1.802627e+00    9.198946e-01   1.236006e-02
  1.804838e+00    9.262425e-01   1.239042e-02
  1.807048e+00    9.560140e-01   1.257479e-02
  1.809259e+00    1.120040e+00   1.359571e-02
  1.811469e+00    1.262198e+00   1.441514e-02
  1.813679e+00    1.063146e+00   1.321356e-02
  1.815890e+00    9.862497e-01   1.271119e-02
  1.818100e+00    9.855965e-01   1.269117e-02
  1.820311e+00    9.324719e-01   1.232932e-02
  1.822521e+00    8.992193e-01   1.209255e-02
  1.824732e+00    8.877410e-01   1.200034e-02
  1.826942e+00    9.125984e-01   1.215464e-02
  1.829153e+00    9.021900e-01   1.207337e-02
  1.831363e+00    8.800853e-01   1.191252e-02
  1.833574e+00    8.759231e-01   1.187267e-02
  1.835784e+00    8.890281e-01   1.194967e-02
  1.837994e+00    8.890885e-01   1.193829e-02
  1.840205e+00    8.619972e-01   1.174391e-02
  1.842415e+00    8.953186e-01   1.195679e-02
  1.844626e+00    9.700893e-01   1.243386e-02
  1.846836e+00    9.431102e-01   1.224788e-02
  1.849047e+00    8.733730e-01   1.177468e-02
  1.851257e+00    8.614796e-01   1.168468e-02
  1.853468e+00    8.500922e-01   1.159844e-02
  1.855678e+00    8.419491e-01   1.153397e-02
  1.857889e+00    8.727378e-01   1.173439e-02
  1.860099e+00    8.534967e-01   1.159572e-02
  1.862309e+00    8.492985e-01   1.155867e-02
  1.864520e+00    8.462133e-01   1.152914e-02
  1.866730e+00    8.737237e-01   1.170555e-02
  1.868941e+00    8.633150e-01   1.162464e-02
  1.871151e+00    8.401105e-01   1.145601e-02
  1.873362e+00    8.406203e-01   1.144821e-02
  1.875572e+00    8.557046e-01   1.153948e-02
  1.877783e+00    8.481143e-01   1.147678e-02
  1.879993e+00    8.542780e-01   1.150718e-02
  1.882204e+00    8.643075e-01   1.156353e-02
  1.884414e+00    8.562611e-01   1.149841e-02
  1.886624e+00    8.702396e-01   1.158064e-02
  1.888835e+00    8.890722e-01   1.169400e-02
  1.891045e+00    8.982246e-01   1.174279e-02
  1.893256e+00    8.757017e-01   1.158330e-02
  1.895466e+00    8.532528e-01   1.142259e-02
  1.897677e+00    8.624169e-01   1.147267e-02
  1.899887e+00    8.362441e-01   1.128625e-02
  1.902098e+00    8.322338e-01   1.124829e-02
  1.904308e+00    8.306518e-01   1.122703e-02
  1.906519e+00    8.353708e-01   1.124798e-02
  1.908729e+00    8.809580e-01   1.153987e-02
  1.910940e+00    9.154181e-01   1.175173e-02
  1.913150e+00    8.687127e-01   1.143718e-02
  1.915360e+00    8.276929e-01   1.115322e-02
  1.917571e+00    8.203937e-01   1.109308e-02
  1.919781e+00    8.168025e-01   1.105811e-02
  1.921992e+00    7.946513e-01   1.089670e-02
  1.924202e+00    7.879627e-01   1.084015e-02
  1.926413e+00    8.166315e-01   1.102529e-02
  1.928623e+00    8.329376e-01   1.112416e-02
  1.930834e+00    8.215077e-01   1.103710e-02
  1.933044e+00    8.091772e-01   1.094329e-02
  1.935255e+00    8.128619e-01   1.095783e-02
  1.937465e+00    8.257680e-01   1.103397e-02
  1.939675e+00    8.212633e-01   1.099290e-02
  1.941886e+00    8.178155e-01   1.095943e-02
  1.944096e+00    8.111650e-01   1.090456e-02
  1.946307e+00    8.094583e-01   1.088268e-02
  1.948517e+00    8.039281e-01   1.083498e-02
  1.950728e+00    8.028946e-01   1.081773e-02
  1.952938e+00    7.905053e-01   1.072391e-02
  1.955149e+00    7.883986e-01   1.069942e-02
  1.957359e+00    8.064941e-01   1.081140e-02
  1.959570e+00    8.032143e-01   1.077848e-02
  1.961780e+00    7.729415e-01   1.056362e-02
  1.963990e+00    7.835514e-01   1.062580e-02
  1.966201e+00    7.829627e-01   1.061180e-02
  1.968411e+00    7.843079e-01   1.061080e-02
  1.970622e+00    7.767896e-01   1.054979e-02
  1.972832e+00    7.879178e-01   1.061510e-02
  1.975043e+00    7.846847e-01   1.058329e-02
  1.977253e+00    7.704189e-01   1.047678e-02
  1.979464e+00    7.768542e-01   1.051044e-02
  1.981674e+00    7.934997e-01   1.061213e-02
  1.983885e+00    7.802449e-01   1.051312e-02
  1.986095e+00    7.928780e-01   1.058809e-02
  1.988305e+00    7.842045e-01   1.052011e-02
  1.990516e+00    7.848254e-01   1.051430e-02
  1.992726e+00    7.883040e-01   1.052785e-02
  1.994937e+00    7.863961e-01   1.050491e-02
  1.997147e+00    7.805682e-01   1.045615e-02
  1.999358e+00    7.907988e-01   1.051450e-02
  2.001568e+00    7.830700e-01   1.045211e-02
  2.003779e+00    7.919767e-01   1.049932e-02
  2.005989e+00    7.794830e-01   1.040410e-02
  2.008200e+00    7.811688e-01   1.040373e-02
  2.010410e+00    7.837188e-01   1.040883e-02
  2.012621e+00    8.026578e-01   1.052190e-02
  2.014831e+00    7.946272e-01   1.045746e-02
  2.017041e+00    7.758014e-01   1.032241e-02
  2.019252e+00    7.915388e-01   1.041642e-02
  2.021462e+00    7.871912e-01   1.037814e-02
  2.023673e+00    7.934456e-01   1.040974e-02
  2.025883e+00    7.683047e-01   1.023393e-02
  2.028094e+00    7.814416e-01   1.031129e-02
  2.030304e+00    7.921846e-01   1.037219e-02
  2.032515e+00    7.951272e-01   1.038194e-02
  2.034725e+00    7.751662e-01   1.024127e-02
  2.036936e+00    7.545248e-01   1.009467e-02
  2.039146e+00    7.575287e-01   1.010516e-02
  2.041356e+00    7.863781e-01   1.028595e-02
  2.043567e+00    7.704874e-01   1.017211e-02
  2.045777e+00    7.643605e-01   1.012229e-02
  2.047988e+00    7.648606e-01   1.011616e-02
  2.050198e+00    7.570525e-01   1.005594e-02
  2.052409e+00    7.594497e-01   1.006415e-02
  2.054619e+00    7.750376e-01   1.015943e-02
  2.056830e+00    7.558121e-01   1.002544e-02
  2.059040e+00    7.562003e-01   1.002047e-02
  2.061251e+00    7.654145e-01   1.007400e-02
  2.063461e+00    7.602908e-01   1.003260e-02
  2.065671e+00    7.545199e-01   9.985680e-03
  2.067882e+00    7.468672e-01   9.925921e-03
  2.070092e+00    7.669897e-01   1.004942e-02
  2.072303e+00    7.642273e-01   1.002209e-02
  2.074513e+00    7.399369e-01   9.852233e-03
  2.076724e+00    7.449312e-01   9.875952e-03
  2.078934e+00    7.313935e-01   9.776882e-03
  2.081145e+00    7.399003e-01   9.824493e-03
  2.083355e+00    7.617733e-01   9.959370e-03
  2.085566e+00    7.456670e-01   9.844578e-03
  2.087776e+00    7.567756e-01   9.908026e-03
  2.089986e+00    7.521940e-01   9.869126e-03
  2.092197e+00    7.561045e-01   9.885665e-03
  2.094407e+00    7.327933e-01   9.722895e-03
  2.096618e+00    7.374526e-01   9.744826e-03
  2.098828e+00    7.364760e-01   9.729054e-03
  2.101039e+00    7.458057e-01   9.781423e-03
  2.103249e+00    7.312507e-01   9.676854e-03
  2.105460e+00    7.086809e-01   9.517458e-03
  2.107670e+00    7.059556e-01   9.490526e-03
  2.109881e+00    7.119781e-01   9.521871e-03
  2.112091e+00    7.024471e-01   9.449073e-03
  2.114301e+00    7.131919e-01   9.512359e-03
  2.116512e+00    6.992846e-01   9.410505e-03
  2.118722e+00    7.108518e-01   9.479262e-03
  2.120933e+00    7.095516e-01   9.461794e-03
  2.123143e+00    7.016883e-01   9.400430e-03
  2.125354e+00    6.927496e-01   9.331968e-03
  2.127564e+00    6.974437e-01   9.354920e-03
  2.129775e+00    6.993780e-01   9.359257e-03
  2.131985e+00    7.110594e-01   9.428057e-03
  2.134196e+00    7.058223e-01   9.384739e-03
  2.136406e+00    7.072161e-01   9.385277e-03
  2.138617e+00    7.279722e-01   9.513443e-03
  2.140827e+00    7.232093e-01   9.498511e-03
  2.143037e+00    7.050111e-01   9.423635e-03
  2.145248e+00    7.178550e-01   9.531286e-03
  2.147458e+00    7.119462e-01   9.507202e-03
  2.149669e+00    6.970713e-01   9.419149e-03
  2.151879e+00    6.996562e-01   9.445810e-03
  2.154090e+00    7.081154e-01   9.510078e-03
  2.156300e+00    7.180380e-01   9.583178e-03
  2.158511e+00    7.146272e-01   9.565750e-03
  2.160721e+00    7.061470e-01   9.513669e-03
  2.162932e+00    7.147549e-01   9.575258e-03
  2.165142e+00    6.967539e-01   9.456935e-03
  2.167352e+00    7.108341e-01   9.554951e-03
  2.169563e+00    7.103779e-01   9.553869e-03
  2.171773e+00    6.902570e-01   9.420033e-03
  2.173984e+00    6.850038e-01   9.385524e-03
  2.176194e+00    7.018376e-01   9.501337e-03
  2.178405e+00    7.002226e-01   9.491128e-03
  2.180615e+00    7.163060e-01   9.600158e-03
  2.182826e+00    7.179409e-01   9.611856e-03
  2.185036e+00    6.969376e-01   9.470243e-03
  2.187247e+00    6.920933e-01   9.437223e-03
  2.189457e+00    6.912737e-01   9.431221e-03
  2.191667e+00    6.992195e-01   9.485085e-03
  2.193878e+00    7.105061e-01   9.560775e-03
  2.196088e+00    7.010828e-01   9.496467e-03
  2.198299e+00    6.932971e-01   9.442479e-03
  2.200509e+00    6.901827e-01   9.420203e-03
  2.202720e+00    6.870623e-01   9.397711e-03
  2.204930e+00    6.881341e-01   9.403803e-03
  2.207141e+00    6.719361e-01   9.291363e-03
  2.209351e+00    6.755595e-01   9.314489e-03
  2.211562e+00    6.766995e-01   9.320729e-03
  2.213772e+00    6.855230e-01   9.325460e-03
  2.215982e+00    6.993516e-01   9.374087e-03
  2.218193e+00    6.876075e-01   9.265146e-03
  2.220403e+00    6.864129e-01   9.232312e-03
  2.222614e+00    6.830813e-01   9.188772e-03
  2.224824e+00    6.762635e-01   9.123385e-03
  2.227035e+00    6.765033e-01   9.107507e-03
  2.229245e+00    6.854111e-01   9.150128e-03
  2.231456e+00    6.843289e-01   9.127142e-03
  2.233666e+00    6.840753e-01   9.110211e-03
  2.235877e+00    6.641742e-01   8.962524e-03
  2.238087e+00    6.580829e-01   8.907957e-03
  2.240298e+00    6.839926e-01   9.067697e-03
  2.242508e+00    6.822730e-01   9.041026e-03
  2.244718e+00    6.657560e-01   8.915157e-03
  2.246929e+00    6.604458e-01   8.865183e-03
  2.249139e+00    6.632687e-01   8.871759e-03
  2.251350e+00    6.672826e-01   8.886850e-03
  2.253560e+00    6.842486e-01   8.987409e-03
  2.255771e+00    6.863930e-01   8.989898e-03
  2.257981e+00    6.709892e-01   8.877224e-03
  2.260192e+00    6.814853e-01   8.935126e-03
  2.262402e+00    6.838040e-01   8.939312e-03
  2.264613e+00    6.866723e-01   8.947015e-03
  2.266823e+00    6.856824e-01   8.929992e-03
  2.269033e+00    6.939138e-01   8.972815e-03
  2.271244e+00    6.936627e-01   8.960535e-03
  2.273454e+00    7.364833e-01   9.222164e-03
  2.275665e+00    7.409081e-01   9.238925e-03
  2.277875e+00    7.282821e-01   9.149466e-03
  2.280086e+00    7.033615e-01   8.981192e-03
  2.282296e+00    6.618479e-01   8.702704e-03
  2.284507e+00    6.780723e-01   8.798417e-03
  2.286717e+00    6.783032e-01   8.790322e-03
  2.288928e+00    6.537930e-01   8.620203e-03
  2.291138e+00    6.609203e-01   8.657589e-03
  2.293348e+00    6.750035e-01   8.739678e-03
  2.295559e+00    6.635855e-01   8.656080e-03
  2.297769e+00    6.613165e-01   8.631953e-03
  2.299980e+00    6.768628e-01   8.723341e-03
  2.302190e+00    6.557876e-01   8.577319e-03
  2.304401e+00    6.498094e-01   8.528821e-03
  2.306611e+00    6.469677e-01   8.500987e-03
  2.308822e+00    6.625863e-01   8.594529e-03
  2.311032e+00    6.601272e-01   8.572073e-03
  2.313243e+00    6.547481e-01   8.530778e-03
  2.315453e+00    6.521952e-01   8.506548e-03
  2.317663e+00    6.383197e-01   8.406505e-03
  2.319874e+00    6.553115e-01   8.508859e-03
  2.322084e+00    6.513839e-01   8.474341e-03
  2.324295e+00    6.494019e-01   8.453164e-03
  2.326505e+00    6.653094e-01   8.546888e-03
  2.328716e+00    6.492758e-01   8.434688e-03
  2.330926e+00    6.432054e-01   8.386358e-03
  2.333137e+00    6.390666e-01   8.350984e-03
  2.335347e+00    6.230690e-01   8.237051e-03
  2.337558e+00    6.551216e-01   8.437927e-03
  2.339768e+00    6.518906e-01   8.408459e-03
  2.341979e+00    6.630750e-01   8.471741e-03
  2.344189e+00    6.622607e-01   8.458005e-03
  2.346399e+00    6.403654e-01   8.308485e-03
  2.348610e+00    6.395678e-01   8.294816e-03
  2.350820e+00    6.376415e-01   8.274131e-03
  2.353031e+00    6.327195e-01   8.233844e-03
  2.355241e+00    6.341938e-01   8.235376e-03
  2.357452e+00    6.444792e-01   8.293387e-03
  2.359662e+00    6.405758e-01   8.259951e-03
  2.361873e+00    6.379666e-01   8.234839e-03
  2.364083e+00    6.446150e-01   8.269541e-03
  2.366294e+00    6.284720e-01   8.157244e-03
  2.368504e+00    6.217114e-01   8.105185e-03
  2.370714e+00    6.429453e-01   8.234271e-03
  2.372925e+00    6.253078e-01   8.112502e-03
  2.375135e+00    6.195257e-01   8.066867e-03
  2.377346e+00    6.307669e-01   8.131744e-03
  2.379556e+00    6.254324e-01   8.089362e-03
  2.381767e+00    6.260079e-01   8.085190e-03
  2.383977e+00    6.395003e-01   8.163810e-03
  2.386188e+00    6.281091e-01   8.082805e-03
  2.388398e+00    6.274929e-01   8.070832e-03
  2.390609e+00    6.132333e-01   7.970893e-03
  2.392819e+00    6.108096e-01   7.947380e-03
  2.395029e+00    6.124812e-01   7.950616e-03
  2.397240e+00    6.075402e-01   7.910651e-03
  2.399450e+00    6.236431e-01   8.006929e-03
  2.401661e+00    6.192992e-01   7.971275e-03
  2.403871e+00    6.014626e-01   7.847964e-03
  2.406082e+00    6.034564e-01   7.853530e-03
  2.408292e+00    6.099536e-01   7.887915e-03
  2.410503e+00    6.168859e-01   7.925080e-03
  2.412713e+00    6.085165e-01   7.863321e-03
  2.414924e+00    6.010023e-01   7.807182e-03
  2.417134e+00    5.924572e-01   7.743914e-03
  2.419344e+00    5.873696e-01   7.703272e-03
  2.421555e+00    6.106105e-01   7.846641e-03
  2.423765e+00    6.074848e-01   7.819084e-03
  2.425976e+00    5.946306e-01   7.728157e-03
  2.428186e+00    5.908483e-01   7.696347e-03
  2.430397e+00    6.033241e-01   7.769666e-03
  2.432607e+00    5.967694e-01   7.720067e-03
  2.434818e+00    5.992920e-01   7.728791e-03
  2.437028e+00    6.003634e-01   7.728515e-03
  2.439239e+00    6.037629e-01   7.742639e-03
  2.441449e+00    6.134078e-01   7.796916e-03
  2.443659e+00    6.035994e-01   7.726913e-03
  2.445870e+00    5.929139e-01   7.670487e-03
  2.448080e+00    5.826144e-01   7.638369e-03
  2.450291e+00    5.868000e-01   7.682498e-03
  2.452501e+00    5.776652e-01   7.633646e-03
  2.454712e+00    5.661581e-01   7.565610e-03
  2.456922e+00    5.592130e-01   7.525614e-03
  2.459133e+00    5.590186e-01   7.529693e-03
  2.461343e+00    5.685199e-01   7.597767e-03
  2.463554e+00    5.682452e-01   7.599420e-03
  2.465764e+00    5.694415e-01   7.610562e-03
  2.467975e+00    5.610245e-01   7.556407e-03
  2.470185e+00    5.491298e-01   7.478110e-03
  2.472395e+00    5.486975e-01   7.476358e-03
  2.474606e+00    5.436433e-01   7.443415e-03
  2.476816e+00    5.388669e-01   7.411353e-03
  2.479027e+00    5.487244e-01   7.479693e-03
  2.481237e+00    5.521957e-01   7.503591e-03
  2.483448e+00    5.470405e-01   7.468782e-03
  2.485658e+00    5.551510e-01   7.523797e-03
  2.487869e+00    5.633936e-01   7.579495e-03
  2.490079e+00    5.503690e-01   7.490850e-03
  2.492290e+00    5.428944e-01   7.439375e-03
  2.494500e+00    5.196216e-01   7.277444e-03
  2.496710e+00    5.369767e-01   7.397276e-03
  2.498921e+00    5.329926e-01   7.368811e-03
  2.501131e+00    5.195165e-01   7.274107e-03
  2.503342e+00    5.324076e-01   7.362547e-03
  2.505552e+00    5.433221e-01   7.436469e-03
  2.507763e+00    5.246064e-01   7.305899e-03
  2.509973e+00    5.115782e-01   7.213206e-03
  2.512184e+00    5.285382e-01   7.330179e-03
  2.514394e+00    5.357479e-01   7.370580e-03
  2.516605e+00    5.341529e-01   7.312198e-03
  2.518815e+00    5.274927e-01   7.238090e-03
  2.521025e+00    5.371253e-01   7.282695e-03
  2.523236e+00    5.345728e-01   7.247232e-03
  2.525446e+00    5.338113e-01   7.226336e-03
  2.527657e+00    5.394341e-01   7.249505e-03
  2.529867e+00    5.316188e-01   7.182528e-03
  2.532078e+00    5.279510e-01   7.142621e-03
  2.534288e+00    5.382289e-01   7.197745e-03
  2.536499e+00    5.509451e-01   7.270064e-03
  2.538709e+00    5.329639e-01   7.139334e-03
  2.540920e+00    5.325522e-01   7.125863e-03
  2.543130e+00    5.358559e-01   7.137433e-03
  2.545340e+00    5.362678e-01   7.130006e-03
  2.547551e+00    5.258470e-01   7.050420e-03
  2.549761e+00    5.185950e-01   6.992089e-03
  2.551972e+00    5.299489e-01   7.058771e-03
  2.554182e+00    5.444288e-01   7.145183e-03
  2.556393e+00    5.368842e-01   7.086289e-03
  2.558603e+00    5.197284e-01   6.963079e-03
  2.560814e+00    5.304419e-01   7.025678e-03
  2.563024e+00    5.353005e-01   7.049065e-03
  2.565235e+00    5.222554e-01   6.953142e-03
  2.567445e+00    5.192161e-01   6.923283e-03
  2.569656e+00    5.208212e-01   6.924231e-03
  2.571866e+00    5.135285e-01   6.866250e-03
  2.574076e+00    5.158845e-01   6.872730e-03
  2.576287e+00    5.250273e-01   6.924960e-03
  2.578497e+00    5.136278e-01   6.841549e-03
  2.580708e+00    5.119016e-01   6.821980e-03
  2.582918e+00    5.131921e-01   6.822827e-03
  2.585129e+00    5.132658e-01   6.815583e-03
  2.587339e+00    5.058222e-01   6.758361e-03
  2.589550e+00    5.040330e-01   6.738906e-03
  2.591760e+00    5.091068e-01   6.765012e-03
  2.593971e+00    5.148144e-01   6.795314e-03
  2.596181e+00    4.996810e-01   6.688503e-03
  2.598391e+00    5.161512e-01   6.792640e-03
  2.600602e+00    5.164960e-01   6.788956e-03
  2.602812e+00    5.161500e-01   6.779088e-03
  2.605023e+00    5.148141e-01   6.763129e-03
  2.607233e+00    5.071111e-01   6.705170e-03
  2.609444e+00    5.146064e-01   6.747288e-03
  2.611654e+00    5.097933e-01   6.708303e-03
  2.613865e+00    5.021675e-01   6.650940e-03
  2.616075e+00    5.058673e-01   6.668259e-03
  2.618286e+00    4.915287e-01   6.566162e-03
  2.620496e+00    5.250312e-01   6.779420e-03
  2.622706e+00    5.205703e-01   6.744755e-03
  2.624917e+00    5.012146e-01   6.612331e-03
  2.627127e+00    5.072979e-01   6.646577e-03
  2.629338e+00    5.043310e-01   6.621127e-03
  2.631548e+00    5.072511e-01   6.634085e-03
  2.633759e+00    4.951415e-01   6.547322e-03
  2.635969e+00    4.936835e-01   6.531032e-03
  2.638180e+00    5.025972e-01   6.582741e-03
  2.640390e+00    4.940301e-01   6.519848e-03
  2.642601e+00    5.011762e-01   6.560148e-03
  2.644811e+00    5.118623e-01   6.622580e-03
  2.647021e+00    5.032859e-01   6.560266e-03
  2.649232e+00    5.018209e-01   6.543980e-03
  2.651442e+00    4.969272e-01   6.505512e-03
  2.653653e+00    5.006146e-01   6.522793e-03
  2.655863e+00    5.015842e-01   6.522414e-03
  2.658074e+00    4.943976e-01   6.468919e-03
  2.660284e+00    4.906557e-01   6.438090e-03
  2.662495e+00    4.961522e-01   6.467284e-03
  2.664705e+00    5.082282e-01   6.538886e-03
  2.666916e+00    5.049991e-01   6.511574e-03
  2.669126e+00    4.979790e-01   6.459672e-03
  2.671337e+00    4.879175e-01   6.387558e-03
  2.673547e+00    5.037335e-01   6.483810e-03
  2.675757e+00    4.935466e-01   6.411497e-03
  2.677968e+00    5.055409e-01   6.482310e-03
  2.680178e+00    5.081581e-01   6.492594e-03
  2.682389e+00    5.051916e-01   6.467144e-03
  2.684599e+00    4.905675e-01   6.366671e-03
  2.686810e+00    4.937969e-01   6.380979e-03
  2.689020e+00    4.925790e-01   6.366808e-03
  2.691231e+00    5.025160e-01   6.424345e-03
  2.693441e+00    4.967710e-01   6.381331e-03
  2.695652e+00    5.017040e-01   6.406344e-03
  2.697862e+00    5.025342e-01   6.405226e-03
  2.700072e+00    4.879257e-01   6.305371e-03
  2.702283e+00    4.885884e-01   6.303426e-03
  2.704493e+00    4.932233e-01   6.326951e-03
  2.706704e+00    5.015698e-01   6.373749e-03
  2.708914e+00    4.956646e-01   6.330139e-03
  2.711125e+00    4.855917e-01   6.259231e-03
  2.713335e+00    4.904205e-01   6.284176e-03
  2.715546e+00    5.030913e-01   6.358259e-03
  2.717756e+00    4.924812e-01   6.284949e-03
  2.719967e+00    4.940965e-01   6.288984e-03
  2.722177e+00    4.913303e-01   6.265183e-03
  2.724387e+00    4.807175e-01   6.191094e-03
  2.726598e+00    4.813359e-01   6.189012e-03
  2.728808e+00    4.805684e-01   6.177989e-03
  2.731019e+00    4.626016e-01   6.055395e-03
  2.733229e+00    4.666116e-01   6.075892e-03
  2.735440e+00    4.724171e-01   6.107379e-03
  2.737650e+00    4.758708e-01   6.123695e-03
  2.739861e+00    4.732961e-01   6.101098e-03
  2.742071e+00    4.838523e-01   6.163011e-03
  2.744282e+00    5.008373e-01   6.263878e-03
  2.746492e+00    4.909062e-01   6.195411e-03
  2.748702e+00    4.721157e-01   6.069805e-03
  2.750913e+00    4.929866e-01   6.196668e-03
  2.753123e+00    4.880885e-01   6.159655e-03
  2.755334e+00    4.733919e-01   6.060190e-03
  2.757544e+00    4.689095e-01   6.025747e-03
  2.759755e+00    4.901329e-01   6.154650e-03
  2.761965e+00    4.836730e-01   6.107977e-03
  2.764176e+00    4.758680e-01   6.052529e-03
  2.766386e+00    4.686927e-01   6.001003e-03
  2.768597e+00    4.717805e-01   6.014911e-03
  2.770807e+00    4.786187e-01   6.052474e-03
  2.773017e+00    4.879115e-01   6.104932e-03
  2.775228e+00    4.853669e-01   6.083160e-03
  2.777438e+00    4.933294e-01   6.126959e-03
  2.779649e+00    4.839921e-01   6.062788e-03
  2.781859e+00    4.867218e-01   6.074023e-03
  2.784070e+00    4.834286e-01   6.047552e-03
  2.786280e+00    4.751962e-01   5.990082e-03
  2.788491e+00    4.730365e-01   5.970635e-03
  2.790701e+00    4.847935e-01   6.038682e-03
  2.792912e+00    4.853167e-01   6.035923e-03
  2.795122e+00    4.942034e-01   6.085097e-03
  2.797333e+00    4.785433e-01   5.982337e-03
  2.799543e+00    4.730411e-01   5.941988e-03
  2.801753e+00    4.808675e-01   5.985058e-03
  2.803964e+00    4.767755e-01   5.953864e-03
  2.806174e+00    4.815776e-01   5.977582e-03
  2.808385e+00    4.818518e-01   5.972444e-03
  2.810595e+00    4.755320e-01   5.926281e-03
  2.812806e+00    4.720715e-01   5.898072e-03
  2.815016e+00    4.772565e-01   5.925614e-03
  2.817227e+00    4.821206e-01   5.981889e-03
  2.819437e+00    4.708107e-01   5.922375e-03
  2.821648e+00    4.624388e-01   5.871713e-03
  2.823858e+00    4.749304e-01   5.955841e-03
  2.826068e+00    4.767303e-01   5.972134e-03
  2.828279e+00    4.731364e-01   5.953603e-03
  2.830489e+00    4.819650e-01   6.012281e-03
  2.832700e+00    4.781191e-01   5.990813e-03
  2.834910e+00    4.700708e-01   5.942236e-03
  2.837121e+00    4.709188e-01   5.949305e-03
  2.839331e+00    4.739946e-01   5.969936e-03
  2.841542e+00    4.811586e-01   6.015893e-03
  2.843752e+00    4.864174e-01   6.049498e-03
  2.845963e+00    4.786917e-01   6.001656e-03
  2.848173e+00    4.859884e-01   6.047312e-03
  2.850383e+00    4.732515e-01   5.967853e-03
  2.852594e+00    4.646720e-01   5.913415e-03
  2.854804e+00    4.672862e-01   5.929516e-03
  2.857015e+00    4.720354e-01   5.959154e-03
  2.859225e+00    4.633765e-01   5.903983e-03
  2.861436e+00    4.724076e-01   5.960584e-03
  2.863646e+00    4.641738e-01   5.908454e-03
  2.865857e+00    4.560719e-01   5.856993e-03
  2.868067e+00    4.694140e-01   5.942261e-03
  2.870278e+00    4.655633e-01   5.917503e-03
  2.872488e+00    4.614000e-01   5.889814e-03
  2.874698e+00    4.730634e-01   5.962742e-03
  2.876909e+00    4.551721e-01   5.847580e-03
  2.879119e+00    4.764803e-01   5.981244e-03
  2.881330e+00    4.623823e-01   5.890625e-03
  2.883540e+00    4.605152e-01   5.877336e-03
  2.885751e+00    4.535501e-01   5.831087e-03
  2.887961e+00    4.651558e-01   5.903332e-03
  2.890172e+00    4.639232e-01   5.893884e-03
  2.892382e+00    4.711799e-01   5.937993e-03
  2.894593e+00    4.635029e-01   5.887596e-03
  2.896803e+00    4.684616e-01   5.916997e-03
  2.899014e+00    4.737391e-01   5.948312e-03
  2.901224e+00    4.713634e-01   5.931349e-03
  2.903434e+00    4.741262e-01   5.946738e-03
  2.905645e+00    4.807476e-01   5.985845e-03
  2.907855e+00    4.673730e-01   5.899887e-03
  2.910066e+00    4.623144e-01   5.865760e-03
  2.912276e+00    4.653231e-01   5.882705e-03
  2.914487e+00    4.699861e-01   5.909608e-03
  2.916697e+00    4.632361e-01   5.864786e-03
  2.918908e+00    4.659998e-01   5.880230e-03
  2.921118e+00    4.706478e-01   5.906743e-03
  2.923329e+00    4.662917e-01   5.877023e-03
  2.925539e+00    4.707655e-01   5.902841e-03
  2.927749e+00    4.553625e-01   5.803144e-03
  2.929960e+00    4.635785e-01   5.852472e-03
  2.932170e+00    4.725412e-01   5.906404e-03
  2.934381e+00    4.649049e-01   5.856039e-03
  2.936591e+00    4.462247e-01   5.734628e-03
  2.938802e+00    4.442214e-01   5.719073e-03
  2.941012e+00    4.505229e-01   5.757145e-03
  2.943223e+00    4.650199e-01   5.846330e-03
  2.945433e+00    4.706205e-01   5.877636e-03
  2.947644e+00    4.501554e-01   5.744327e-03
  2.949854e+00    4.532311e-01   5.759625e-03
  2.952064e+00    4.687541e-01   5.853157e-03
  2.954275e+00    4.621982e-01   5.807648e-03
  2.956485e+00    4.619520e-01   5.801870e-03
  2.958696e+00    4.649254e-01   5.816089e-03
  2.960906e+00    4.628370e-01   5.798804e-03
  2.963117e+00    4.555459e-01   5.748458e-03
  2.965327e+00    4.642480e-01   5.799148e-03
  2.967538e+00    4.638921e-01   5.793991e-03
  2.969748e+00    4.469366e-01   5.684339e-03
  2.971959e+00    4.560490e-01   5.738823e-03
  2.974169e+00    4.617842e-01   5.772201e-03
  2.976379e+00    4.708118e-01   5.825378e-03
  2.978590e+00    4.678864e-01   5.804079e-03
  2.980800e+00    4.618113e-01   5.763445e-03
  2.983011e+00    4.630301e-01   5.768224e-03
  2.985221e+00    4.544907e-01   5.711643e-03
  2.987432e+00    4.542063e-01   5.706724e-03
  2.989642e+00    4.605853e-01   5.744021e-03
  2.991853e+00    4.703518e-01   5.801262e-03
  2.994063e+00    4.541418e-01   5.697517e-03
  2.996274e+00    4.566520e-01   5.710034e-03
  2.998484e+00    4.645501e-01   5.756491e-03
  3.000694e+00    4.630411e-01   5.743626e-03
  3.002905e+00    4.569773e-01   5.702965e-03
  3.005115e+00    4.546905e-01   5.685672e-03
  3.007326e+00    4.598266e-01   5.714532e-03
  3.009536e+00    4.551493e-01   5.682127e-03
  3.011747e+00    4.590350e-01   5.703398e-03
  3.013957e+00    4.574459e-01   5.690327e-03
  3.016168e+00    4.575355e-01   5.687605e-03
  3.018378e+00    4.535530e-01   5.659754e-03
  3.020589e+00    4.561282e-01   5.672567e-03
  3.022799e+00    4.546832e-01   5.660422e-03
  3.025010e+00    4.520549e-01   5.640788e-03
  3.027220e+00    4.508056e-01   5.629886e-03
  3.029430e+00    4.659422e-01   5.720325e-03
  3.031641e+00    4.561947e-01   5.657023e-03
  3.033851e+00    4.636986e-01   5.699790e-03
  3.036062e+00    4.677604e-01   5.721888e-03
  3.038272e+00    4.589099e-01   5.663887e-03
  3.040483e+00    4.584359e-01   5.657712e-03
  3.042693e+00    4.595242e-01   5.661125e-03
  3.044904e+00    4.546911e-01   5.627238e-03
  3.047114e+00    4.624494e-01   5.670176e-03
  3.049325e+00    4.522740e-01   5.603050e-03
  3.051535e+00    4.588399e-01   5.639133e-03
  3.053745e+00    4.569169e-01   5.622523e-03
  3.055956e+00    4.679071e-01   5.685086e-03
  3.058166e+00    4.550833e-01   5.602362e-03
  3.060377e+00    4.557137e-01   5.601436e-03
  3.062587e+00    4.367062e-01   5.478823e-03
  3.064798e+00    4.489078e-01   5.550575e-03
  3.067008e+00    4.501439e-01   5.553470e-03
  3.069219e+00    4.601449e-01   5.610272e-03
  3.071429e+00    4.540297e-01   5.569340e-03
  3.073640e+00    4.510408e-01   5.547641e-03
  3.075850e+00    4.587086e-01   5.590966e-03
  3.078060e+00    4.642503e-01   5.621493e-03
  3.080271e+00    4.543499e-01   5.557735e-03
  3.082481e+00    4.495599e-01   5.524902e-03
  3.084692e+00    4.528710e-01   5.541822e-03
  3.086902e+00    4.470701e-01   5.502972e-03
  3.089113e+00    4.456841e-01   5.490881e-03
  3.091323e+00    4.457821e-01   5.488107e-03
  3.093534e+00    4.375925e-01   5.434136e-03
  3.095744e+00    4.393755e-01   5.441834e-03
  3.097955e+00    4.597438e-01   5.562968e-03
  3.100165e+00    4.544616e-01   5.527541e-03
  3.102375e+00    4.557503e-01   5.531933e-03
  3.104586e+00    4.515156e-01   5.502651e-03
  3.106796e+00    4.577321e-01   5.536835e-03
  3.109007e+00    4.722040e-01   5.620390e-03
  3.111217e+00    4.391039e-01   5.416164e-03
  3.113428e+00    4.363010e-01   5.395456e-03
  3.115638e+00    4.362929e-01   5.392212e-03
  3.117849e+00    4.453075e-01   5.443899e-03
  3.120059e+00    4.471758e-01   5.451840e-03
  3.122270e+00    4.339449e-01   5.367387e-03
  3.124480e+00    4.449630e-01   5.431381e-03
  3.126691e+00    4.537013e-01   5.480859e-03
  3.128901e+00    4.611331e-01   5.522390e-03
  3.131111e+00    4.627198e-01   5.527959e-03
  3.133322e+00    4.613259e-01   5.516142e-03
  3.135532e+00    4.579841e-01   5.492643e-03
  3.137743e+00    4.580031e-01   5.489244e-03
  3.139953e+00    4.500909e-01   5.437908e-03
  3.142164e+00    4.439221e-01   5.412539e-03
  3.144374e+00    4.480978e-01   5.466514e-03
  3.146585e+00    4.453848e-01   5.464573e-03
  3.148795e+00    4.516647e-01   5.513835e-03
  3.151006e+00    4.441940e-01   5.476616e-03
  3.153216e+00    4.445679e-01   5.486088e-03
  3.155426e+00    4.431230e-01   5.483488e-03
  3.157637e+00    4.404773e-01   5.472611e-03
  3.159847e+00    4.375337e-01   5.459154e-03
  3.162058e+00    4.325196e-01   5.432182e-03
  3.164268e+00    4.276556e-01   5.405551e-03
  3.166479e+00    4.336008e-01   5.446614e-03
  3.168689e+00    4.366944e-01   5.469376e-03
  3.170900e+00    4.490535e-01   5.549421e-03
  3.173110e+00    4.508931e-01   5.563699e-03
  3.175321e+00    4.372177e-01   5.481191e-03
  3.177531e+00    4.350378e-01   5.470212e-03
  3.179741e+00    4.391046e-01   5.497802e-03
  3.181952e+00    4.423459e-01   5.520184e-03
  3.184162e+00    4.384195e-01   5.497825e-03
  3.186373e+00    4.208995e-01   5.388414e-03
  3.188583e+00    4.279506e-01   5.435139e-03
  3.190794e+00    4.259460e-01   5.424122e-03
  3.193004e+00    4.392101e-01   5.509160e-03
  3.195215e+00    4.563953e-01   5.617459e-03
  3.197425e+00    4.464145e-01   5.556932e-03
  3.199636e+00    4.281558e-01   5.441334e-03
  3.201846e+00    4.227193e-01   5.406086e-03
  3.204056e+00    4.396009e-01   5.513856e-03
  3.206267e+00    4.251119e-01   5.423093e-03
  3.208477e+00    4.260507e-01   5.429959e-03
  3.210688e+00    4.385397e-01   5.509842e-03
  3.212898e+00    4.287716e-01   5.448697e-03
  3.215109e+00    4.339832e-01   5.482474e-03
  3.217319e+00    4.303333e-01   5.460000e-03
  3.219530e+00    4.278475e-01   5.444592e-03
  3.221740e+00    4.405901e-01   5.525650e-03
  3.223951e+00    4.299421e-01   5.458960e-03
  3.226161e+00    4.227781e-01   5.413446e-03
  3.228372e+00    4.289666e-01   5.453460e-03
  3.230582e+00    4.317763e-01   5.471427e-03
  3.232792e+00    4.344746e-01   5.488743e-03
  3.235003e+00    4.294834e-01   5.457345e-03
  3.237213e+00    4.396788e-01   5.521848e-03
  3.239424e+00    4.321431e-01   5.474335e-03
  3.241634e+00    4.385450e-01   5.514858e-03
  3.243845e+00    4.274413e-01   5.444668e-03
  3.246055e+00    4.298824e-01   5.459909e-03
  3.248266e+00    4.322615e-01   5.475203e-03
  3.250476e+00    4.359505e-01   5.498204e-03
  3.252687e+00    4.268000e-01   5.440130e-03
  3.254897e+00    4.189068e-01   5.389461e-03
  3.257107e+00    4.369609e-01   5.504058e-03
  3.259318e+00    4.260990e-01   5.434989e-03
  3.261528e+00    4.327820e-01   5.477296e-03
  3.263739e+00    4.392223e-01   5.517348e-03
  3.265949e+00    4.189685e-01   5.388512e-03
  3.268160e+00    4.293892e-01   5.454681e-03
  3.270370e+00    4.238223e-01   5.418709e-03
  3.272581e+00    4.068922e-01   5.309097e-03
  3.274791e+00    4.369625e-01   5.501233e-03
  3.277002e+00    4.387757e-01   5.512085e-03
  3.279212e+00    4.284413e-01   5.446407e-03
  3.281422e+00    4.327014e-01   5.472811e-03
  3.283633e+00    4.334161e-01   5.476661e-03
  3.285843e+00    4.370697e-01   5.499346e-03
  3.288054e+00    4.337412e-01   5.477417e-03
  3.290264e+00    4.302232e-01   5.454845e-03
  3.292475e+00    4.402713e-01   5.517319e-03
  3.294685e+00    4.395467e-01   5.512146e-03
  3.296896e+00    4.234985e-01   5.409829e-03
  3.299106e+00    4.190730e-01   5.380931e-03
  3.301317e+00    4.246498e-01   5.415575e-03
  3.303527e+00    4.312232e-01   5.456862e-03
  3.305737e+00    4.309462e-01   5.454070e-03
  3.307948e+00    4.202673e-01   5.385391e-03
  3.310158e+00    4.252992e-01   5.416694e-03
  3.312369e+00    4.202914e-01   5.383814e-03
  3.314579e+00    4.249457e-01   5.412631e-03
  3.316790e+00    4.280388e-01   5.431587e-03
  3.319000e+00    4.388325e-01   5.498427e-03
  3.321211e+00    4.312719e-01   5.450257e-03
  3.323421e+00    4.268712e-01   5.421170e-03
  3.325632e+00    4.236368e-01   5.399695e-03
  3.327842e+00    4.381505e-01   5.490459e-03
  3.330052e+00    4.396909e-01   5.499052e-03
  3.332263e+00    4.238779e-01   5.398228e-03
  3.334473e+00    4.213491e-01   5.381188e-03
  3.336684e+00    4.247073e-01   5.401302e-03
  3.338894e+00    4.341598e-01   5.460252e-03
  3.341105e+00    4.387536e-01   5.487802e-03
  3.343315e+00    4.092113e-01   5.298758e-03
  3.345526e+00    4.170914e-01   5.348571e-03
  3.347736e+00    4.280921e-01   5.417263e-03
  3.349947e+00    4.185628e-01   5.355681e-03
  3.352157e+00    4.274697e-01   5.411185e-03
  3.354368e+00    4.294319e-01   5.422288e-03
  3.356578e+00    4.254441e-01   5.396019e-03
  3.358788e+00    4.058601e-01   5.269064e-03
  3.360999e+00    4.163823e-01   5.335673e-03
  3.363209e+00    4.058565e-01   5.266792e-03
  3.365420e+00    4.317042e-01   5.430391e-03
  3.367630e+00    4.151593e-01   5.324305e-03
  3.369841e+00    4.210709e-01   5.360636e-03
  3.372051e+00    4.180186e-01   5.339183e-03
  3.374262e+00    4.309675e-01   5.418787e-03
  3.376472e+00    4.312574e-01   5.418116e-03
  3.378683e+00    4.139483e-01   5.305773e-03
  3.380893e+00    4.158476e-01   5.315583e-03
  3.383103e+00    4.091293e-01   5.269799e-03
  3.385314e+00    4.047470e-01   5.239296e-03
  3.387524e+00    4.116165e-01   5.280836e-03
  3.389735e+00    4.060663e-01   5.242527e-03
  3.391945e+00    4.247311e-01   5.357911e-03
  3.394156e+00    4.178932e-01   5.310378e-03
  3.396366e+00    4.237180e-01   5.343792e-03
  3.398577e+00    4.249443e-01   5.348430e-03
  3.400787e+00    4.070972e-01   5.246781e-03
  3.402998e+00    4.157209e-01   5.340375e-03
  3.405208e+00    3.970724e-01   5.239669e-03
  3.407418e+00    4.057232e-01   5.312319e-03
  3.409629e+00    3.984711e-01   5.278540e-03
  3.411839e+00    3.908347e-01   5.239370e-03
  3.414050e+00    4.048328e-01   5.343451e-03
  3.416260e+00    4.008129e-01   5.326588e-03
  3.418471e+00    4.089368e-01   5.389893e-03
  3.420681e+00    4.002319e-01   5.340819e-03
  3.422892e+00    4.004990e-01   5.350678e-03
  3.425102e+00    3.888555e-01   5.280147e-03
  3.427313e+00    3.809198e-01   5.233109e-03
  3.429523e+00    3.855077e-01   5.271556e-03
  3.431733e+00    3.947113e-01   5.340862e-03
  3.433944e+00    3.960020e-01   5.356170e-03
  3.436154e+00    4.005944e-01   5.393523e-03
  3.438365e+00    3.834639e-01   5.282891e-03
  3.440575e+00    3.779707e-01   5.250823e-03
  3.442786e+00    3.721131e-01   5.215523e-03
  3.444996e+00    3.811181e-01   5.283769e-03
  3.447207e+00    3.686546e-01   5.201938e-03
  3.449417e+00    3.634834e-01   5.205655e-03
  3.451628e+00    3.806261e-01   5.356912e-03
  3.453838e+00    3.691268e-01   5.296600e-03
  3.456049e+00    3.644544e-01   5.286775e-03
  3.458259e+00    3.714951e-01   5.359680e-03
  3.460469e+00    3.664500e-01   5.342952e-03
  3.462680e+00    3.717111e-01   5.400382e-03
  3.464890e+00    3.810471e-01   5.485894e-03
  3.467101e+00    3.802035e-01   5.497616e-03
  3.469311e+00    3.848303e-01   5.547822e-03
  3.471522e+00    3.880486e-01   5.587662e-03
  3.473732e+00    3.983957e-01   5.678013e-03
  3.475943e+00    3.994340e-01   5.701450e-03
  3.478153e+00    4.141759e-01   5.821663e-03
  3.480364e+00    4.326889e-01   5.966248e-03
  3.482574e+00    4.037385e-01   5.778545e-03
  3.484784e+00    4.251903e-01   5.945201e-03
  3.486995e+00    4.239574e-01   5.951813e-03
  3.489205e+00    4.397663e-01   6.076712e-03
  3.491416e+00    4.377058e-01   6.077565e-03
  3.493626e+00    4.533660e-01   6.200241e-03
  3.495837e+00    4.679927e-01   6.314637e-03
  3.498047e+00    4.627818e-01   6.294202e-03
  3.500258e+00    4.746715e-01   6.389455e-03
  3.502468e+00    4.679867e-01   6.358990e-03
  3.504679e+00    4.636863e-01   6.344183e-03
  3.506889e+00    4.826152e-01   6.487136e-03
  3.509099e+00    4.804875e-01   6.487275e-03
  3.511310e+00    5.024924e-01   6.649033e-03
  3.513520e+00    4.983429e-01   6.636187e-03
  3.515731e+00    5.079223e-01   6.714375e-03
  3.517941e+00    5.074322e-01   6.725718e-03
  3.520152e+00    5.152186e-01   6.791750e-03
  3.522362e+00    5.374056e-01   6.951464e-03
  3.524573e+00    5.139650e-01   6.812544e-03
  3.526783e+00    5.182775e-01   6.854527e-03
  3.528994e+00    5.197147e-01   6.876291e-03
  3.531204e+00    5.454912e-01   7.057472e-03
  3.533414e+00    5.544170e-01   7.127406e-03
  3.535625e+00    5.566453e-01   7.154437e-03
  3.537835e+00    5.395218e-01   7.055700e-03
  3.540046e+00    5.535116e-01   7.155703e-03
  3.542256e+00    5.275007e-01   6.992999e-03
  3.544467e+00    5.391091e-01   7.077170e-03
  3.546677e+00    5.404021e-01   7.093268e-03
  3.548888e+00    5.279986e-01   7.018837e-03
  3.551098e+00    5.283530e-01   7.028414e-03
  3.553309e+00    5.381093e-01   7.101183e-03
  3.555519e+00    5.369141e-01   7.104618e-03
  3.557729e+00    5.364596e-01   7.113335e-03
  3.559940e+00    5.514672e-01   7.223835e-03
  3.562150e+00    5.492595e-01   7.221250e-03
  3.564361e+00    5.465698e-01   7.216970e-03
  3.566571e+00    5.533226e-01   7.275483e-03
  3.568782e+00    5.420134e-01   7.214950e-03
  3.570992e+00    5.463638e-01   7.257720e-03
  3.573203e+00    5.560637e-01   7.336291e-03
  3.575413e+00    5.432732e-01   7.265268e-03
  3.577624e+00    5.485721e-01   7.314911e-03
  3.579834e+00    5.525510e-01   7.355487e-03
  3.582045e+00    5.442123e-01   7.313920e-03
  3.584255e+00    5.489792e-01   7.360086e-03
  3.586465e+00    5.496520e-01   7.378730e-03
  3.588676e+00    5.478874e-01   7.381223e-03
  3.590886e+00    5.436472e-01   7.366400e-03
  3.593097e+00    5.358856e-01   7.328139e-03
  3.595307e+00    5.447631e-01   7.402616e-03
  3.597518e+00    5.293199e-01   7.311086e-03
  3.599728e+00    5.500937e-01   7.467435e-03
  3.601939e+00    5.369081e-01   7.391505e-03
  3.604149e+00    5.461488e-01   7.469343e-03
  3.606360e+00    5.640836e-01   7.605551e-03
  3.608570e+00    5.484893e-01   7.514028e-03
  3.610780e+00    5.275334e-01   7.380072e-03
  3.612991e+00    5.344777e-01   7.438465e-03
  3.615201e+00    5.401319e-01   7.487575e-03
  3.617412e+00    5.391017e-01   7.487707e-03
  3.619622e+00    5.309614e-01   7.436944e-03
  3.621833e+00    5.162107e-01   7.339459e-03
  3.624043e+00    5.405380e-01   7.519987e-03
  3.626254e+00    5.479102e-01   7.580925e-03
  3.628464e+00    5.470912e-01   7.586379e-03
  3.630675e+00    5.300556e-01   7.481382e-03
  3.632885e+00    5.279375e-01   7.480793e-03
  3.635095e+00    5.366370e-01   7.556610e-03
  3.637306e+00    5.315322e-01   7.534913e-03
  3.639516e+00    5.369253e-01   7.587641e-03
  3.641727e+00    5.210950e-01   7.489357e-03
  3.643937e+00    5.287833e-01   7.558871e-03
  3.646148e+00    5.273443e-01   7.563106e-03
  3.648358e+00    5.452408e-01   7.705418e-03
  3.650569e+00    5.446604e-01   7.716178e-03
  3.652779e+00    5.492823e-01   7.763865e-03
  3.654990e+00    5.517816e-01   7.796688e-03
  3.657200e+00    5.433069e-01   7.751582e-03
  3.659410e+00    5.459141e-01   7.785365e-03
  3.661621e+00    5.464844e-01   7.804733e-03
  3.663831e+00    5.256477e-01   7.669512e-03
  3.666042e+00    5.630496e-01   7.953277e-03
  3.668252e+00    5.452048e-01   7.841709e-03
  3.670463e+00    5.438900e-01   7.847618e-03
  3.672673e+00    5.429130e-01   7.856190e-03
  3.674884e+00    5.431390e-01   7.873397e-03
  3.677094e+00    5.384018e-01   7.854596e-03
  3.679305e+00    5.428462e-01   7.902714e-03
  3.681515e+00    5.339128e-01   7.853096e-03
  3.683726e+00    5.294225e-01   7.835786e-03
  3.685936e+00    5.431763e-01   7.952805e-03
  3.688146e+00    5.524338e-01   8.036450e-03
  3.690357e+00    5.577500e-01   8.091416e-03
  3.692567e+00    5.430031e-01   8.000136e-03
  3.694778e+00    5.278162e-01   7.903513e-03
  3.696988e+00    5.336696e-01   7.963254e-03
  3.699199e+00    5.614659e-01   8.184849e-03
  3.701409e+00    5.381034e-01   8.029331e-03
  3.703620e+00    5.221520e-01   7.925713e-03
  3.705830e+00    5.292453e-01   7.995808e-03
  3.708041e+00    5.298221e-01   8.016864e-03
  3.710251e+00    5.354282e-01   8.076036e-03
  3.712461e+00    5.241809e-01   8.007566e-03
  3.714672e+00    5.348825e-01   8.105814e-03
  3.716882e+00    5.212712e-01   8.018733e-03
  3.719093e+00    5.230497e-01   8.049607e-03
  3.721303e+00    5.082251e-01   7.951459e-03
  3.723514e+00    5.178682e-01   8.043761e-03
  3.725724e+00    5.599905e-01   8.382376e-03
  3.727935e+00    5.119540e-01   8.032149e-03
  3.730145e+00    5.182325e-01   8.098572e-03
  3.732356e+00    5.114744e-01   8.063104e-03
  3.734566e+00    5.012402e-01   7.999243e-03
  3.736776e+00    5.201734e-01   8.166805e-03
  3.738987e+00    5.029279e-01   8.047855e-03
  3.741197e+00    5.135687e-01   8.150516e-03
  3.743408e+00    5.200710e-01   8.220138e-03
  3.745618e+00    5.232496e-01   8.263749e-03
  3.747829e+00    5.148324e-01   8.215126e-03
  3.750039e+00    5.124185e-01   8.214244e-03
  3.752250e+00    5.118704e-01   8.228337e-03
  3.754460e+00    5.086210e-01   8.220687e-03
  3.756671e+00    5.113744e-01   8.261757e-03
  3.758881e+00    4.981374e-01   8.172553e-03
  3.761091e+00    5.194034e-01   8.364543e-03
  3.763302e+00    5.164270e-01   8.359774e-03
  3.765512e+00    5.009080e-01   8.252320e-03
  3.767723e+00    5.172680e-01   8.405549e-03
  3.769933e+00    5.090240e-01   8.357693e-03
  3.772144e+00    4.994151e-01   8.297865e-03
  3.774354e+00    5.237713e-01   8.518001e-03
  3.776565e+00    5.191328e-01   8.500331e-03
  3.778775e+00    5.165022e-01   8.498967e-03
  3.780986e+00    4.903970e-01   8.301430e-03
  3.783196e+00    4.971218e-01   8.378246e-03
  3.785407e+00    5.044329e-01   8.460103e-03
  3.787617e+00    4.982047e-01   8.428368e-03
  3.789827e+00    5.320240e-01   8.730826e-03
  3.792038e+00    5.307102e-01   8.741514e-03
  3.794248e+00    5.119975e-01   8.607426e-03
  3.796459e+00    4.882422e-01   8.426400e-03
  3.798669e+00    5.064359e-01   8.603496e-03
  3.800880e+00    4.924822e-01   8.505402e-03
  3.803090e+00    5.109434e-01   8.685406e-03
  3.805301e+00    5.155373e-01   8.746769e-03
  3.807511e+00    5.103075e-01   8.724542e-03
  3.809722e+00    5.213848e-01   8.841428e-03
  3.811932e+00    4.980744e-01   8.663729e-03
  3.814142e+00    5.176867e-01   8.855920e-03
  3.816353e+00    5.120195e-01   8.830511e-03
  3.818563e+00    5.020556e-01   8.767297e-03
  3.820774e+00    5.070799e-01   8.834413e-03
  3.822984e+00    5.155655e-01   8.931804e-03
  3.825195e+00    5.279001e-01   9.062462e-03
  3.827405e+00    5.193953e-01   9.013623e-03
  3.829616e+00    4.997813e-01   8.865854e-03
  3.831826e+00    5.107611e-01   8.987200e-03
  3.834037e+00    5.057681e-01   8.967929e-03
  3.836247e+00    4.905222e-01   8.856205e-03
  3.838457e+00    4.942381e-01   8.914721e-03
  3.840668e+00    5.006744e-01   8.997775e-03
  3.842878e+00    5.149468e-01   9.151209e-03
  3.845089e+00    5.008338e-01   9.050593e-03
  3.847299e+00    5.287496e-01   9.326126e-03
  3.849510e+00    5.051954e-01   9.142054e-03
  3.851720e+00    4.870164e-01   8.997432e-03
  3.853931e+00    4.844926e-01   8.992755e-03
  3.856141e+00    5.039530e-01   9.190843e-03
  3.858352e+00    5.081819e-01   9.248760e-03
  3.860562e+00    5.200062e-01   9.375651e-03
  3.862772e+00    4.986292e-01   9.200550e-03
  3.864983e+00    4.959624e-01   9.195660e-03
  3.867193e+00    4.832700e-01   9.096772e-03
  3.869404e+00    4.846439e-01   9.129345e-03
  3.871614e+00    4.960270e-01   9.255914e-03
  3.873825e+00    5.083698e-01   9.391003e-03
  3.876035e+00    5.006900e-01   9.340600e-03
  3.878246e+00    4.983167e-01   9.344265e-03
  3.880456e+00    4.987558e-01   9.377665e-03
  3.882667e+00    4.885561e-01   9.310442e-03
  3.884877e+00    5.059978e-01   9.505373e-03
  3.887087e+00    4.962474e-01   9.443429e-03
  3.889298e+00    5.091580e-01   9.596368e-03
  3.891508e+00    4.733084e-01   9.282391e-03
  3.893719e+00    4.893182e-01   9.468985e-03
  3.895929e+00    5.084375e-01   9.684233e-03
  3.898140e+00    4.938166e-01   9.575761e-03
  3.900350e+00    4.636953e-01   9.310347e-03
  3.902561e+00    4.848396e-01   9.552446e-03
  3.904771e+00    4.972282e-01   9.706741e-03
  3.906982e+00    5.089676e-01   9.854504e-03
  3.909192e+00    5.252217e-01   1.004533e-02
  3.911403e+00    5.188362e-01   1.001907e-02
  3.913613e+00    5.039363e-01   9.909066e-03
  3.915823e+00    4.904726e-01   9.810586e-03
  3.918034e+00    4.728690e-01   9.667668e-03
  3.920244e+00    4.818233e-01   9.794242e-03
  3.922455e+00    4.750154e-01   9.760363e-03
  3.924665e+00    4.946891e-01   9.997117e-03
  3.926876e+00    5.101159e-01   1.018977e-02
  3.929086e+00    4.883720e-01   1.000760e-02
  3.931297e+00    4.856699e-01   1.001462e-02
  3.933507e+00    4.914711e-01   1.010332e-02
  3.935718e+00    4.932598e-01   1.015061e-02
  3.937928e+00    4.843534e-01   1.008793e-02
  3.940138e+00    5.254122e-01   1.053714e-02
  3.942349e+00    4.854836e-01   1.015879e-02
  3.944559e+00    4.910909e-01   1.024739e-02
  3.946770e+00    5.222194e-01   1.059839e-02
  3.948980e+00    4.965874e-01   1.036612e-02
  3.951191e+00    5.141033e-01   1.057898e-02
  3.953401e+00    4.863586e-01   1.032095e-02
  3.955612e+00    4.617803e-01   1.008769e-02
  3.957822e+00    4.949247e-01   1.047527e-02
  3.960033e+00    4.914485e-01   1.047133e-02
  3.962243e+00    4.653381e-01   1.022150e-02
  3.964453e+00    4.662086e-01   1.026349e-02
  3.966664e+00    4.811751e-01   1.046014e-02
  3.968874e+00    5.022764e-01   1.071594e-02
  3.971085e+00    4.969899e-01   1.068161e-02
  3.973295e+00    4.884897e-01   1.061141e-02
  3.975506e+00    4.898034e-01   1.064733e-02
  3.977716e+00    5.022320e-01   1.080390e-02
  3.979927e+00    5.176495e-01   1.099141e-02
  3.982137e+00    4.827022e-01   1.063611e-02
  3.984348e+00    4.893022e-01   1.073127e-02
  3.986558e+00    4.832119e-01   1.068643e-02
  3.988768e+00    5.029218e-01   1.092566e-02
  3.990979e+00    5.120504e-01   1.104783e-02
  3.993189e+00    5.018741e-01   1.096094e-02
  3.995400e+00    4.659701e-01   1.058469e-02
  3.997610e+00    4.945603e-01   1.093458e-02
  3.999821e+00    5.268702e-01   1.132528e-02
  4.002031e+00    5.097235e-01   1.117886e-02
  4.004242e+00    4.889808e-01   1.098770e-02
  4.006452e+00    4.822655e-01   1.095128e-02
  4.008663e+00    4.753024e-01   1.091152e-02
  4.010873e+00    4.933569e-01   1.115705e-02
  4.013084e+00    5.152757e-01   1.144454e-02
  4.015294e+00    4.900350e-01   1.120196e-02
  4.017504e+00    4.722842e-01   1.103851e-02
  4.019715e+00    4.401831e-01   1.069726e-02
  4.021925e+00    4.935407e-01   1.137039e-02
  4.024136e+00    5.121151e-01   1.162743e-02
  4.026346e+00    5.038780e-01   1.157857e-02
  4.028557e+00    5.050017e-01   1.163666e-02
  4.030767e+00    5.127517e-01   1.177273e-02
  4.032978e+00    4.693073e-01   1.130854e-02
  4.035188e+00    4.619908e-01   1.126517e-02
  4.037399e+00    4.799642e-01   1.152950e-02
  4.039609e+00    5.076491e-01   1.190635e-02
  4.041819e+00    4.534882e-01   1.130056e-02
  4.044030e+00    4.488729e-01   1.129094e-02
  4.046240e+00    4.928793e-01   1.188185e-02
  4.048451e+00    5.025021e-01   1.204926e-02
  4.050661e+00    4.785057e-01   1.180925e-02
  4.052872e+00    4.977958e-01   1.209845e-02
  4.055082e+00    5.143526e-01   1.235330e-02
  4.057293e+00    4.886034e-01   1.209420e-02
  4.059503e+00    4.791014e-01   1.203038e-02
  4.061714e+00    4.992422e-01   1.233819e-02
  4.063924e+00    5.147461e-01   1.258699e-02
  4.066134e+00    4.841861e-01   1.226507e-02
  4.068345e+00    4.877390e-01   1.236936e-02
  4.070555e+00    4.777435e-01   1.230100e-02
  4.072766e+00    4.868508e-01   1.247882e-02
  4.074976e+00    4.651001e-01   1.225765e-02
  4.077187e+00    5.032019e-01   1.281340e-02
  4.079397e+00    4.953616e-01   1.277800e-02
  4.081608e+00    4.951240e-01   1.284135e-02
  4.083818e+00    4.988798e-01   1.295700e-02
  4.086029e+00    5.083383e-01   1.314820e-02
  4.088239e+00    5.111839e-01   1.325605e-02
  4.090449e+00    5.016614e-01   1.320316e-02
  4.092660e+00    4.851032e-01   1.305497e-02
  4.094870e+00    4.841293e-01   1.311424e-02
  4.097081e+00    4.874100e-01   1.323064e-02
  4.099291e+00    4.865723e-01   1.327406e-02
  4.101502e+00    5.277411e-01   1.387578e-02
  4.103712e+00    4.773559e-01   1.324601e-02
  4.105923e+00    4.562917e-01   1.300053e-02
  4.108133e+00    5.155153e-01   1.387159e-02
  4.110344e+00    4.991049e-01   1.370154e-02
  4.112554e+00    5.217971e-01   1.406480e-02
  4.114764e+00    4.669714e-01   1.335891e-02
  4.116975e+00    4.766659e-01   1.354999e-02
  4.119185e+00    4.675588e-01   1.347437e-02
  4.121396e+00    5.482966e-01   1.465169e-02
  4.123606e+00    5.210170e-01   1.434129e-02
  4.125817e+00    4.773256e-01   1.378417e-02
  4.128027e+00    4.979388e-01   1.413818e-02
  4.130238e+00    4.402849e-01   1.335129e-02
  4.132448e+00    4.806941e-01   1.401134e-02
  4.134659e+00    5.091916e-01   1.448242e-02
  4.136869e+00    5.212826e-01   1.471888e-02
  4.139080e+00    5.329385e-01   1.494953e-02
  4.141290e+00    5.381392e-01   1.508898e-02
  4.143500e+00    5.071895e-01   1.471604e-02
  4.145711e+00    5.117047e-01   1.485055e-02
  4.147921e+00    4.672624e-01   1.425612e-02
  4.150132e+00    4.883390e-01   1.464365e-02
  4.152342e+00    4.645350e-01   1.435135e-02
  4.154553e+00    5.013046e-01   1.497946e-02
  4.156763e+00    4.600865e-01   1.442148e-02
  4.158974e+00    5.287924e-01   1.553846e-02
  4.161184e+00    5.490445e-01   1.591192e-02
  4.163395e+00    5.183487e-01   1.553964e-02
  4.165605e+00    5.038792e-01   1.540091e-02
  4.167815e+00    4.367795e-01   1.441361e-02
  4.170026e+00    5.080824e-01   1.562761e-02
  4.172236e+00    4.572817e-01   1.490592e-02
  4.174447e+00    4.397236e-01   1.469641e-02
  4.176657e+00    4.921855e-01   1.563339e-02
  4.178868e+00    4.771325e-01   1.547951e-02
  4.181078e+00    5.328357e-01   1.645044e-02
  4.183289e+00    4.928465e-01   1.591168e-02
  4.185499e+00    4.568814e-01   1.541051e-02
  4.187710e+00    4.751936e-01   1.580828e-02
  4.189920e+00    5.239049e-01   1.669890e-02
  4.192130e+00    5.236998e-01   1.679744e-02
  4.194341e+00    4.864635e-01   1.628877e-02
  4.196551e+00    4.673812e-01   1.606688e-02
  4.198762e+00    4.992961e-01   1.671204e-02
  4.200972e+00    4.580745e-01   1.611111e-02
  4.203183e+00    4.097401e-01   1.533766e-02
  4.205393e+00    4.686283e-01   1.651169e-02
  4.207604e+00    5.604120e-01   1.817984e-02
  4.209814e+00    5.279205e-01   1.776619e-02
  4.212025e+00    4.967082e-01   1.735500e-02
  4.214235e+00    5.229422e-01   1.793377e-02
  4.216445e+00    4.563067e-01   1.687318e-02
  4.218656e+00    4.700781e-01   1.725423e-02
  4.220866e+00    4.844340e-01   1.764543e-02
  4.223077e+00    5.204347e-01   1.842995e-02
  4.225287e+00    4.592100e-01   1.744851e-02
  4.227498e+00    4.951737e-01   1.826069e-02
  4.229708e+00    5.017381e-01   1.853103e-02
  4.231919e+00    4.403717e-01   1.750415e-02
  4.234129e+00    5.387481e-01   1.952346e-02
  4.236340e+00    4.574947e-01   1.814493e-02
  4.238550e+00    4.934678e-01   1.901125e-02
  4.240761e+00    4.808706e-01   1.893288e-02
  4.242971e+00    4.511834e-01   1.850695e-02
  4.245181e+00    4.426875e-01   1.850400e-02
  4.247392e+00    4.734035e-01   1.931426e-02
  4.249602e+00    4.762519e-01   1.956478e-02
  4.251813e+00    4.647839e-01   1.951822e-02
  4.254023e+00    3.815572e-01   1.786246e-02
  4.256234e+00    5.133919e-01   2.094150e-02
  4.258444e+00    5.089792e-01   2.106901e-02
  4.260655e+00    5.106357e-01   2.133603e-02
  4.262865e+00    5.442133e-01   2.227564e-02
  4.265076e+00    4.984832e-01   2.156173e-02
  4.267286e+00    4.924138e-01   2.168463e-02
  4.269496e+00    4.966581e-01   2.204338e-02
  4.271707e+00    5.352883e-01   2.316727e-02
  4.273917e+00    4.417746e-01   2.131887e-02
  4.276128e+00    5.094995e-01   2.319875e-02
  4.278338e+00    4.482450e-01   2.205015e-02
  4.280549e+00    4.591719e-01   2.263732e-02
  4.282759e+00    4.840721e-01   2.357630e-02
  4.284970e+00    5.037267e-01   2.440728e-02
  4.287180e+00    5.294050e-01   2.532111e-02
  4.289391e+00    4.929534e-01   2.461713e-02
  4.291601e+00    4.957196e-01   2.488290e-02
  4.293811e+00    5.752393e-01   2.701448e-02
  4.296022e+00    5.393949e-01   2.636990e-02
  4.298232e+00    5.056573e-01   2.574508e-02
  4.300443e+00    5.256065e-01   2.646528e-02
  4.302653e+00    4.753492e-01   2.538543e-02
  4.304864e+00    4.902047e-01   2.600263e-02
  4.307074e+00    4.333163e-01   2.466745e-02
  4.309285e+00    4.667764e-01   2.583398e-02
  4.311495e+00    4.566925e-01   2.579288e-02
  4.313706e+00    5.699577e-01   2.908508e-02
  4.315916e+00    4.904041e-01   2.724456e-02
  4.318126e+00    4.436834e-01   2.617038e-02
  4.320337e+00    3.973764e-01   2.501795e-02
  4.322547e+00    4.581810e-01   2.714825e-02
  4.324758e+00    4.761617e-01   2.796440e-02
  4.326968e+00    4.863088e-01   2.857812e-02
  4.329179e+00    5.017858e-01   2.934966e-02
  4.331389e+00    5.272635e-01   3.043231e-02
  4.333600e+00    5.218747e-01   3.063816e-02
  4.335810e+00    3.738371e-01   2.623926e-02
  4.338021e+00    5.788971e-01   3.307010e-02
  4.340231e+00    5.286828e-01   3.200040e-02
  4.342442e+00    4.115255e-01   2.861220e-02
  4.344652e+00    3.928627e-01   2.833447e-02
  4.346862e+00    3.694790e-01   2.786174e-02
  4.349073e+00    5.510773e-01   3.452506e-02
  4.351283e+00    3.686429e-01   2.865868e-02
  4.353494e+00    3.912376e-01   2.997950e-02
  4.355704e+00    4.838347e-01   3.387520e-02
  4.357915e+00    5.452976e-01   3.656332e-02
  4.360125e+00    5.401588e-01   3.701051e-02
  4.362336e+00    5.491524e-01   3.799743e-02
  4.364546e+00    4.999647e-01   3.691614e-02
  4.366757e+00    4.258015e-01   3.474657e-02
  4.368967e+00    4.275395e-01   3.551133e-02
  4.371177e+00    5.596256e-01   4.149140e-02
  4.373388e+00    6.292390e-01   4.498002e-02
  4.375598e+00    5.278149e-01   4.213694e-02
  4.377809e+00    4.142311e-01   3.827345e-02
  4.380019e+00    2.474062e-01   3.032211e-02
  4.382230e+00    3.448130e-01   3.679485e-02
  4.384440e+00    3.793017e-01   3.970236e-02
  4.386651e+00    4.348842e-01   4.382376e-02
  4.388861e+00    4.587516e-01   4.651807e-02
  4.391072e+00    5.942468e-01   5.480931e-02
  4.393282e+00    3.544029e-01   4.396210e-02
  4.395492e+00    2.835781e-01   4.095648e-02
  4.397703e+00    3.109217e-01   4.485051e-02
  4.399913e+00    4.279307e-01   5.527592e-02
  4.402124e+00    2.450038e-01   4.419720e-02
  4.404334e+00    5.292541e-01   6.904674e-02
  4.406545e+00    5.155175e-01   7.322451e-02
  4.408755e+00    2.539766e-01   5.573660e-02
  4.410966e+00    3.158287e-01   6.879316e-02
  4.413176e+00    2.026229e-01   6.237519e-02
  4.415387e+00   -3.295166e-01            nan
  4.417597e+00   -1.851674e+00            nan
  4.419807e+00   -3.766224e-01            nan
