# == pyFAI calibration ==
# Distance Sample to Detector: 0.216 m
# PONI: 1.166e-01, 1.308e-01 m
# Rotations: 0.000000 0.000000 0.000000 rad
# 
# == Fit2d calibration ==
# Distance Sample-beamCenter: 216.000 mm
# Center: x=1744.293, y=1555.000 pix
# Tilt: 0.000 deg  TiltPlanRot: 0.000 deg
# 
# Detector Eiger 9M	 PixelSize= 7.500e-05, 7.500e-05 m
#    Detector has a mask: True 
#    Detector has a dark current: False 
#    detector has a flat field: False 
# 
# Wavelength: 9.8e-11 m
# Mask applied: from detector
# Dark current applied: False
# Flat field applied: False
# Polarization factor: None
# Normalization factor: 1.0
# 
# Headers of the input frame:
# {
# "_array_data.header_convention": "SLS_1.0",
# "_array_data.header_contents": "# Detector: Dectris Eiger 9M, S/N E-18-0102\r\n# Pixel_size 75e-6 m x 75e-6 m\r\n# Silicon sensor, thickness 0.000450 m\r\n# Exposure_time 0.024997 s\r\n# Exposure_period 0.025000 s\r\n# Count_cutoff 62318 counts\r\n# Wavelength 0.980106 A\r\n# Detector_distance 0.215992 m\r\n# Beam_xy (1555, 1744) pixels\r\n# Start_angle 0.000000 deg.\r\n# Angle_increment 0.000000 deg.",
# "Content-Type": "application/octet-stream;",
# "conversions": "x-CBF_BYTE_OFFSET",
# "Content-Transfer-Encoding": "BINARY",
# "X-Binary-Size": "10166590",
# "X-Binary-ID": "1",
# "X-Binary-Element-Type": "signed 32-bit integer",
# "X-Binary-Element-Byte-Order": "LITTLE_ENDIAN",
# "Content-MD5": "cLovu82GvxletVci5E1KKA==",
# "X-Binary-Number-of-Elements": "10166590",
# "X-Binary-Size-Fastest-Dimension": "3110",
# "X-Binary-Size-Second-Dimension": "3269",
# "X-Binary-Size-Padding": "4095"
# }
# --> H:/Proxima2a_2019-04-05/RAW_DATA/C5_gel17_position5/C5_mesh_1_data.cbf/C5_mesh_1_data.cbf000024.dat
#        q_A^-1              I           sigma 
  1.105228e-03    6.993898e-01   4.525292e-01
  3.315685e-03    9.919703e-01   3.276384e-01
  5.526141e-03    7.743496e-01   2.238415e-01
  7.736597e-03    9.486787e-01   2.093051e-01
  9.947054e-03    1.062981e+00   1.953167e-01
  1.215751e-02    1.318803e+00   1.967246e-01
  1.436797e-02    1.322609e+00   1.812139e-01
  1.657842e-02    1.256763e+00   1.644263e-01
  1.878888e-02    1.197644e+00   1.507743e-01
  2.099934e-02    1.247200e+00   1.455694e-01
  2.320979e-02    1.340604e+00   1.435433e-01
  2.542025e-02    1.425577e+00   1.414506e-01
  2.763070e-02    1.325123e+00   1.308032e-01
  2.984116e-02    1.354541e+00   1.272543e-01
  3.205162e-02    1.248739e+00   1.179023e-01
  3.426207e-02    1.263785e+00   1.147127e-01
  3.647253e-02    1.321455e+00   1.136883e-01
  3.868299e-02    1.456275e+00   1.158957e-01
  4.089344e-02    1.389412e+00   1.101023e-01
  4.310390e-02    1.406897e+00   1.079083e-01
  4.531436e-02    1.396084e+00   1.048387e-01
  4.752481e-02    1.558749e+00   1.081700e-01
  4.973527e-02    1.506619e+00   1.039570e-01
  5.194572e-02    1.278470e+00   9.370185e-02
  5.415618e-02    1.268651e+00   9.141339e-02
  5.636664e-02    1.404788e+00   9.429108e-02
  5.857709e-02    1.381755e+00   9.173393e-02
  6.078755e-02    1.330747e+00   8.837004e-02
  6.299801e-02    1.556504e+00   9.387966e-02
  6.520846e-02    1.484528e+00   9.011662e-02
  6.741892e-02    1.451814e+00   8.764062e-02
  6.962938e-02    1.343142e+00   8.295210e-02
  7.183983e-02    1.296151e+00   8.022318e-02
  7.405029e-02    1.448534e+00   8.353058e-02
  7.626074e-02    1.467435e+00   8.284566e-02
  7.847120e-02    1.443287e+00   8.099356e-02
  8.068166e-02    1.406752e+00   7.885823e-02
  8.289211e-02    1.458794e+00   7.922525e-02
  8.510257e-02    1.405742e+00   7.675421e-02
  8.731303e-02    1.426252e+00   7.632428e-02
  8.952348e-02    1.465502e+00   7.640836e-02
  9.173394e-02    1.440932e+00   7.484376e-02
  9.394439e-02    1.489221e+00   7.518461e-02
  9.615485e-02    1.470008e+00   7.383284e-02
  9.836531e-02    1.453999e+00   7.259797e-02
  1.005758e-01    1.490611e+00   7.269450e-02
  1.027862e-01    1.447588e+00   7.086152e-02
  1.049967e-01    1.411133e+00   6.922197e-02
  1.072071e-01    1.389923e+00   6.798702e-02
  1.094176e-01    1.567327e+00   7.146150e-02
  1.116280e-01    1.589249e+00   7.124192e-02
  1.138385e-01    1.622523e+00   7.128018e-02
  1.160490e-01    1.546435e+00   6.892201e-02
  1.182594e-01    1.445627e+00   6.601057e-02
  1.204699e-01    1.471318e+00   6.598024e-02
  1.226803e-01    1.534451e+00   6.676838e-02
  1.248908e-01    1.573212e+00   6.700470e-02
  1.271012e-01    1.547212e+00   6.586706e-02
  1.293117e-01    1.531740e+00   6.497350e-02
  1.315222e-01    1.578203e+00   6.539351e-02
  1.337326e-01    1.553286e+00   6.433558e-02
  1.359431e-01    1.552092e+00   6.434853e-02
  1.381535e-01    1.593821e+00   6.608307e-02
  1.403640e-01    1.574703e+00   6.596917e-02
  1.425744e-01    1.529324e+00   6.511555e-02
  1.447849e-01    1.526311e+00   6.506635e-02
  1.469953e-01    1.531047e+00   6.512642e-02
  1.492058e-01    1.512380e+00   6.465295e-02
  1.514163e-01    1.533677e+00   6.499846e-02
  1.536267e-01    1.587042e+00   6.599052e-02
  1.558372e-01    1.560805e+00   6.529830e-02
  1.580476e-01    1.609797e+00   6.615426e-02
  1.602581e-01    1.594144e+00   6.566466e-02
  1.624685e-01    1.617754e+00   6.596803e-02
  1.646790e-01    1.663309e+00   6.669832e-02
  1.668895e-01    1.738084e+00   6.798416e-02
  1.690999e-01    1.728295e+00   6.758887e-02
  1.713104e-01    1.729699e+00   6.740648e-02
  1.735208e-01    1.784242e+00   6.824812e-02
  1.757313e-01    1.763772e+00   6.764283e-02
  1.779417e-01    1.827946e+00   6.863783e-02
  1.801522e-01    1.796693e+00   6.783181e-02
  1.823626e-01    1.856681e+00   6.872534e-02
  1.845731e-01    1.866102e+00   6.867630e-02
  1.867836e-01    1.850609e+00   6.815980e-02
  1.889940e-01    1.918589e+00   6.917360e-02
  1.912045e-01    2.024387e+00   7.081798e-02
  1.934149e-01    2.014609e+00   7.041031e-02
  1.956254e-01    2.010258e+00   7.010225e-02
  1.978358e-01    2.048240e+00   7.051894e-02
  2.000463e-01    1.999110e+00   6.943720e-02
  2.022568e-01    1.943259e+00   6.823565e-02
  2.044672e-01    1.976718e+00   6.858481e-02
  2.066777e-01    1.957778e+00   6.802889e-02
  2.088881e-01    1.986791e+00   6.830691e-02
  2.110986e-01    1.950184e+00   6.744262e-02
  2.133090e-01    1.906008e+00   6.645763e-02
  2.155195e-01    1.961733e+00   6.719849e-02
  2.177300e-01    1.888770e+00   6.541897e-02
  2.199404e-01    1.943141e+00   6.460547e-02
  2.221509e-01    1.963720e+00   6.388022e-02
  2.243613e-01    2.051098e+00   6.445830e-02
  2.265718e-01    2.051008e+00   6.374647e-02
  2.287822e-01    2.030881e+00   6.280504e-02
  2.309927e-01    2.100293e+00   6.328748e-02
  2.332031e-01    2.096462e+00   6.268857e-02
  2.354136e-01    2.105658e+00   6.231671e-02
  2.376241e-01    2.052833e+00   6.105248e-02
  2.398345e-01    2.100151e+00   6.129509e-02
  2.420450e-01    2.150910e+00   6.158807e-02
  2.442554e-01    2.153491e+00   6.120048e-02
  2.464659e-01    2.098386e+00   6.000678e-02
  2.486763e-01    2.120063e+00   5.991946e-02
  2.508868e-01    2.035212e+00   5.833780e-02
  2.530973e-01    2.058204e+00   5.830267e-02
  2.553077e-01    2.062250e+00   5.800595e-02
  2.575182e-01    2.080576e+00   5.791839e-02
  2.597286e-01    2.113108e+00   5.803013e-02
  2.619391e-01    2.156792e+00   5.828938e-02
  2.641495e-01    2.064682e+00   5.671547e-02
  2.663600e-01    2.070740e+00   5.648625e-02
  2.685704e-01    2.055876e+00   5.597807e-02
  2.707809e-01    1.994360e+00   5.484157e-02
  2.729914e-01    1.975329e+00   5.429483e-02
  2.752018e-01    1.955477e+00   5.374018e-02
  2.774123e-01    1.943194e+00   5.329745e-02
  2.796227e-01    1.996206e+00   5.375238e-02
  2.818332e-01    1.923353e+00   5.249917e-02
  2.840436e-01    1.929829e+00   5.233257e-02
  2.862541e-01    1.906310e+00   5.176267e-02
  2.884646e-01    1.899362e+00   5.142305e-02
  2.906750e-01    1.880011e+00   5.091785e-02
  2.928855e-01    1.834521e+00   5.006499e-02
  2.950959e-01    1.901011e+00   5.073008e-02
  2.973064e-01    1.900445e+00   5.049456e-02
  2.995168e-01    1.987722e+00   5.140712e-02
  3.017273e-01    1.980290e+00   5.108473e-02
  3.039377e-01    1.954108e+00   5.052369e-02
  3.061482e-01    1.883847e+00   4.939250e-02
  3.083587e-01    1.862777e+00   4.890288e-02
  3.105691e-01    1.921864e+00   4.946027e-02
  3.127796e-01    1.917050e+00   4.919061e-02
  3.149900e-01    1.851639e+00   4.814269e-02
  3.172005e-01    1.808283e+00   4.738117e-02
  3.194109e-01    1.864754e+00   4.791668e-02
  3.216214e-01    1.833577e+00   4.732057e-02
  3.238319e-01    1.866852e+00   4.755884e-02
  3.260423e-01    1.845957e+00   4.710358e-02
  3.282528e-01    1.820740e+00   4.659448e-02
  3.304632e-01    1.832042e+00   4.655783e-02
  3.326737e-01    1.820343e+00   4.622783e-02
  3.348841e-01    1.885045e+00   4.685982e-02
  3.370946e-01    1.803612e+00   4.566403e-02
  3.393050e-01    1.759560e+00   4.493207e-02
  3.415155e-01    1.821395e+00   4.554286e-02
  3.437260e-01    1.893958e+00   4.626908e-02
  3.459364e-01    1.823561e+00   4.523309e-02
  3.481469e-01    1.817546e+00   4.499361e-02
  3.503573e-01    1.774145e+00   4.429122e-02
  3.525678e-01    1.797905e+00   4.442792e-02
  3.547782e-01    1.728378e+00   4.340299e-02
  3.569887e-01    1.726980e+00   4.323169e-02
  3.591992e-01    1.781251e+00   4.375037e-02
  3.614096e-01    1.795310e+00   4.377040e-02
  3.636201e-01    1.758557e+00   4.316783e-02
  3.658305e-01    1.769748e+00   4.315723e-02
  3.680410e-01    1.758092e+00   4.286693e-02
  3.702514e-01    1.793879e+00   4.315541e-02
  3.724619e-01    1.816484e+00   4.327857e-02
  3.746724e-01    1.792367e+00   4.284690e-02
  3.768828e-01    1.754805e+00   4.225288e-02
  3.790933e-01    1.778733e+00   4.240137e-02
  3.813037e-01    1.785442e+00   4.234226e-02
  3.835142e-01    1.755063e+00   4.184263e-02
  3.857246e-01    1.777020e+00   4.196727e-02
  3.879351e-01    1.812969e+00   4.225244e-02
  3.901455e-01    1.779182e+00   4.172364e-02
  3.923560e-01    1.724266e+00   4.094413e-02
  3.945665e-01    1.703874e+00   4.057220e-02
  3.967769e-01    1.756844e+00   4.106901e-02
  3.989874e-01    1.788721e+00   4.131054e-02
  4.011978e-01    1.773738e+00   4.101064e-02
  4.034083e-01    1.752469e+00   4.063889e-02
  4.056187e-01    1.756680e+00   4.056235e-02
  4.078292e-01    1.753063e+00   4.039794e-02
  4.100397e-01    1.758689e+00   4.033915e-02
  4.122501e-01    1.745358e+00   4.006578e-02
  4.144606e-01    1.800543e+00   4.057354e-02
  4.166710e-01    1.797303e+00   4.041651e-02
  4.188815e-01    1.818611e+00   4.053528e-02
  4.210919e-01    1.805469e+00   4.027019e-02
  4.233024e-01    1.740615e+00   3.942401e-02
  4.255128e-01    1.788721e+00   3.984955e-02
  4.277233e-01    1.783809e+00   3.968046e-02
  4.299338e-01    1.804960e+00   3.980018e-02
  4.321442e-01    1.760077e+00   3.918974e-02
  4.343547e-01    1.772439e+00   3.921592e-02
  4.365651e-01    1.760506e+00   3.897266e-02
  4.387756e-01    1.758913e+00   3.884593e-02
  4.409860e-01    1.721102e+00   3.831968e-02
  4.431965e-01    1.735568e+00   3.837397e-02
  4.454070e-01    1.724691e+00   3.814713e-02
  4.476174e-01    1.678927e+00   3.753425e-02
  4.498279e-01    1.704213e+00   3.771298e-02
  4.520383e-01    1.709868e+00   3.767182e-02
  4.542488e-01    1.727538e+00   3.776386e-02
  4.564592e-01    1.710947e+00   3.748127e-02
  4.586697e-01    1.674650e+00   3.698312e-02
  4.608801e-01    1.705700e+00   3.722444e-02
  4.630906e-01    1.651872e+00   3.653539e-02
  4.653011e-01    1.658042e+00   3.650728e-02
  4.675115e-01    1.674875e+00   3.659551e-02
  4.697220e-01    1.670164e+00   3.644831e-02
  4.719324e-01    1.697327e+00   3.664848e-02
  4.741429e-01    1.665187e+00   3.620629e-02
  4.763533e-01    1.693054e+00   3.641442e-02
  4.785638e-01    1.673367e+00   3.610856e-02
  4.807743e-01    1.662977e+00   3.590474e-02
  4.829847e-01    1.680387e+00   3.600102e-02
  4.851952e-01    1.642636e+00   3.550426e-02
  4.874056e-01    1.681018e+00   3.582609e-02
  4.896161e-01    1.631738e+00   3.520953e-02
  4.918265e-01    1.671236e+00   3.554462e-02
  4.940370e-01    1.670801e+00   3.545227e-02
  4.962475e-01    1.669480e+00   3.535073e-02
  4.984579e-01    1.671408e+00   3.528397e-02
  5.006684e-01    1.667816e+00   3.516009e-02
  5.028788e-01    1.699518e+00   3.540668e-02
  5.050893e-01    1.682034e+00   3.513842e-02
  5.072997e-01    1.689565e+00   3.513194e-02
  5.095102e-01    1.674812e+00   3.489444e-02
  5.117206e-01    1.701180e+00   3.508442e-02
  5.139311e-01    1.669070e+00   3.466951e-02
  5.161416e-01    1.697691e+00   3.488286e-02
  5.183520e-01    1.676876e+00   3.458597e-02
  5.205625e-01    1.648006e+00   3.420664e-02
  5.227729e-01    1.711579e+00   3.477883e-02
  5.249834e-01    1.683164e+00   3.440890e-02
  5.271938e-01    1.629316e+00   3.377502e-02
  5.294043e-01    1.690969e+00   3.432867e-02
  5.316148e-01    1.747395e+00   3.481682e-02
  5.338252e-01    1.731688e+00   3.458079e-02
  5.360357e-01    1.697759e+00   3.416238e-02
  5.382461e-01    1.699676e+00   3.410439e-02
  5.404566e-01    1.752078e+00   3.454733e-02
  5.426670e-01    1.734269e+00   3.429387e-02
  5.448775e-01    1.702815e+00   3.390554e-02
  5.470879e-01    1.720639e+00   3.400651e-02
  5.492984e-01    1.768222e+00   3.439686e-02
  5.515089e-01    1.755428e+00   3.419619e-02
  5.537193e-01    1.750427e+00   3.407220e-02
  5.559298e-01    1.765693e+00   3.414541e-02
  5.581402e-01    1.751483e+00   3.393342e-02
  5.603507e-01    1.760211e+00   3.394383e-02
  5.625611e-01    1.728783e+00   3.356644e-02
  5.647716e-01    1.748434e+00   3.368337e-02
  5.669821e-01    1.742114e+00   3.354997e-02
  5.691925e-01    1.763649e+00   3.368421e-02
  5.714030e-01    1.758180e+00   3.356028e-02
  5.736134e-01    1.665986e+00   3.259902e-02
  5.758239e-01    1.730466e+00   3.315298e-02
  5.780343e-01    1.682485e+00   3.262098e-02
  5.802448e-01    1.685597e+00   3.258279e-02
  5.824552e-01    1.608215e+00   3.175931e-02
  5.846657e-01    1.629677e+00   3.190388e-02
  5.868762e-01    1.630230e+00   3.184286e-02
  5.890866e-01    1.650247e+00   3.197129e-02
  5.912971e-01    1.658437e+00   3.198417e-02
  5.935075e-01    1.652404e+00   3.185996e-02
  5.957180e-01    1.639012e+00   3.166549e-02
  5.979284e-01    1.661270e+00   3.181471e-02
  6.001389e-01    1.607378e+00   3.123067e-02
  6.023494e-01    1.627528e+00   3.136202e-02
  6.045598e-01    1.605012e+00   3.108090e-02
  6.067703e-01    1.622322e+00   3.118522e-02
  6.089807e-01    1.641177e+00   3.130286e-02
  6.111912e-01    1.664520e+00   3.146173e-02
  6.134016e-01    1.693411e+00   3.167033e-02
  6.156121e-01    1.670890e+00   3.139648e-02
  6.178226e-01    1.697172e+00   3.157979e-02
  6.200330e-01    1.670731e+00   3.127103e-02
  6.222435e-01    1.697480e+00   3.145791e-02
  6.244539e-01    1.684109e+00   3.127244e-02
  6.266644e-01    1.696587e+00   3.132683e-02
  6.288748e-01    1.694343e+00   3.124519e-02
  6.310853e-01    1.685290e+00   3.110110e-02
  6.332957e-01    1.685344e+00   3.104155e-02
  6.355062e-01    1.680630e+00   3.093790e-02
  6.377167e-01    1.679445e+00   3.086763e-02
  6.399271e-01    1.690890e+00   3.091329e-02
  6.421376e-01    1.681260e+00   3.076629e-02
  6.443480e-01    1.676694e+00   3.066605e-02
  6.465585e-01    1.645762e+00   3.032430e-02
  6.487689e-01    1.641096e+00   3.022411e-02
  6.509794e-01    1.613311e+00   2.991064e-02
  6.531899e-01    1.632602e+00   3.003234e-02
  6.554003e-01    1.610462e+00   2.977194e-02
  6.576108e-01    1.592341e+00   2.954884e-02
  6.598212e-01    1.619140e+00   2.974110e-02
  6.620317e-01    1.594039e+00   2.945497e-02
  6.642421e-01    1.568908e+00   2.916779e-02
  6.664526e-01    1.584960e+00   2.926262e-02
  6.686630e-01    1.551321e+00   2.889688e-02
  6.708735e-01    1.586771e+00   2.917157e-02
  6.730840e-01    1.586515e+00   2.911605e-02
  6.752944e-01    1.567849e+00   2.889162e-02
  6.775049e-01    1.574889e+00   2.890384e-02
  6.797153e-01    1.590204e+00   2.899145e-02
  6.819258e-01    1.602528e+00   2.905107e-02
  6.841362e-01    1.612499e+00   2.908891e-02
  6.863467e-01    1.598382e+00   2.890944e-02
  6.885572e-01    1.620910e+00   2.906027e-02
  6.907676e-01    1.589150e+00   2.872261e-02
  6.929781e-01    1.562300e+00   2.842831e-02
  6.951885e-01    1.572128e+00   2.846708e-02
  6.973990e-01    1.577005e+00   2.846079e-02
  6.996094e-01    1.577764e+00   2.841756e-02
  7.018199e-01    1.588221e+00   2.846153e-02
  7.040303e-01    1.591156e+00   2.843777e-02
  7.062408e-01    1.574271e+00   2.823694e-02
  7.084513e-01    1.642859e+00   2.879531e-02
  7.106617e-01    1.631861e+00   2.864891e-02
  7.128722e-01    1.591001e+00   2.823904e-02
  7.150826e-01    1.594086e+00   2.821766e-02
  7.172931e-01    1.601254e+00   2.823229e-02
  7.195035e-01    1.573781e+00   2.794092e-02
  7.217140e-01    1.599175e+00   2.821528e-02
  7.239245e-01    1.586754e+00   2.833311e-02
  7.261349e-01    1.550158e+00   2.811223e-02
  7.283454e-01    1.555850e+00   2.823576e-02
  7.305558e-01    1.538584e+00   2.813203e-02
  7.327663e-01    1.522141e+00   2.802306e-02
  7.349767e-01    1.539079e+00   2.819476e-02
  7.371872e-01    1.531104e+00   2.811057e-02
  7.393976e-01    1.529564e+00   2.808239e-02
  7.416081e-01    1.522358e+00   2.800024e-02
  7.438186e-01    1.578126e+00   2.836402e-02
  7.460290e-01    1.606210e+00   2.831812e-02
  7.482395e-01    1.534832e+00   2.751277e-02
  7.504499e-01    1.538677e+00   2.741249e-02
  7.526604e-01    1.568328e+00   2.755904e-02
  7.548708e-01    1.582566e+00   2.759422e-02
  7.570813e-01    1.587440e+00   2.758551e-02
  7.592918e-01    1.540378e+00   2.713873e-02
  7.615022e-01    1.528690e+00   2.700225e-02
  7.637127e-01    1.562904e+00   2.727010e-02
  7.659231e-01    1.574459e+00   2.733874e-02
  7.681336e-01    1.553527e+00   2.712500e-02
  7.703440e-01    1.534562e+00   2.692811e-02
  7.725545e-01    1.553934e+00   2.706685e-02
  7.747650e-01    1.584310e+00   2.729182e-02
  7.769754e-01    1.563109e+00   2.705608e-02
  7.791859e-01    1.577463e+00   2.712652e-02
  7.813963e-01    1.557417e+00   2.690138e-02
  7.836068e-01    1.542092e+00   2.671740e-02
  7.858172e-01    1.582785e+00   2.701699e-02
  7.880277e-01    1.588159e+00   2.701136e-02
  7.902381e-01    1.570082e+00   2.680839e-02
  7.924486e-01    1.586684e+00   2.689982e-02
  7.946591e-01    1.621357e+00   2.714354e-02
  7.968695e-01    1.614793e+00   2.704009e-02
  7.990800e-01    1.580961e+00   2.670751e-02
  8.012904e-01    1.582872e+00   2.667741e-02
  8.035009e-01    1.600302e+00   2.677615e-02
  8.057113e-01    1.656979e+00   2.719907e-02
  8.079218e-01    1.683608e+00   2.736945e-02
  8.101323e-01    1.685567e+00   2.733887e-02
  8.123427e-01    1.706492e+00   2.746113e-02
  8.145532e-01    1.710122e+00   2.744330e-02
  8.167636e-01    1.746206e+00   2.768468e-02
  8.189741e-01    1.765406e+00   2.779007e-02
  8.211845e-01    1.760704e+00   2.770652e-02
  8.233950e-01    1.799888e+00   2.796756e-02
  8.256054e-01    1.796642e+00   2.789604e-02
  8.278159e-01    1.772947e+00   2.766574e-02
  8.300264e-01    1.728099e+00   2.726931e-02
  8.322368e-01    1.735174e+00   2.728071e-02
  8.344473e-01    1.702720e+00   2.698016e-02
  8.366577e-01    1.752815e+00   2.733012e-02
  8.388682e-01    1.780789e+00   2.750333e-02
  8.410786e-01    1.747656e+00   2.720286e-02
  8.432891e-01    1.645856e+00   2.635675e-02
  8.454996e-01    1.667414e+00   2.648680e-02
  8.477100e-01    1.639664e+00   2.622380e-02
  8.499205e-01    1.659784e+00   2.634278e-02
  8.521309e-01    1.660819e+00   2.630988e-02
  8.543414e-01    1.652691e+00   2.620448e-02
  8.565518e-01    1.601571e+00   2.575589e-02
  8.587623e-01    1.587610e+00   2.560343e-02
  8.609727e-01    1.619294e+00   2.581757e-02
  8.631832e-01    1.583213e+00   2.548897e-02
  8.653937e-01    1.590915e+00   2.551161e-02
  8.676041e-01    1.594494e+00   2.550176e-02
  8.698146e-01    1.580922e+00   2.535419e-02
  8.720250e-01    1.566256e+00   2.519784e-02
  8.742355e-01    1.566899e+00   2.516465e-02
  8.764459e-01    1.584026e+00   2.526321e-02
  8.786564e-01    1.581138e+00   2.520253e-02
  8.808669e-01    1.609695e+00   2.539057e-02
  8.830773e-01    1.578244e+00   2.510345e-02
  8.852878e-01    1.563238e+00   2.494636e-02
  8.874982e-01    1.551380e+00   2.481548e-02
  8.897087e-01    1.601092e+00   2.517227e-02
  8.919191e-01    1.600992e+00   2.513371e-02
  8.941296e-01    1.625808e+00   2.529018e-02
  8.963401e-01    1.599440e+00   2.504785e-02
  8.985505e-01    1.591971e+00   2.495242e-02
  9.007610e-01    1.577861e+00   2.480511e-02
  9.029714e-01    1.573504e+00   2.473530e-02
  9.051819e-01    1.597544e+00   2.488633e-02
  9.073923e-01    1.607159e+00   2.492447e-02
  9.096028e-01    1.578225e+00   2.466440e-02
  9.118132e-01    1.590593e+00   2.472475e-02
  9.140237e-01    1.602072e+00   2.477715e-02
  9.162342e-01    1.579948e+00   2.457115e-02
  9.184446e-01    1.585555e+00   2.457909e-02
  9.206551e-01    1.609544e+00   2.472866e-02
  9.228655e-01    1.580160e+00   2.446686e-02
  9.250760e-01    1.596434e+00   2.455724e-02
  9.272864e-01    1.587331e+00   2.445302e-02
  9.294969e-01    1.604215e+00   2.454690e-02
  9.317074e-01    1.623631e+00   2.466010e-02
  9.339178e-01    1.602598e+00   2.446642e-02
  9.361283e-01    1.593499e+00   2.436087e-02
  9.383387e-01    1.627121e+00   2.458305e-02
  9.405492e-01    1.619057e+00   2.448783e-02
  9.427596e-01    1.643349e+00   2.463531e-02
  9.449701e-01    1.661390e+00   2.473653e-02
  9.471805e-01    1.656375e+00   2.466417e-02
  9.493910e-01    1.706314e+00   2.499886e-02
  9.516015e-01    1.681000e+00   2.477811e-02
  9.538119e-01    1.686401e+00   2.478386e-02
  9.560224e-01    1.687290e+00   2.475551e-02
  9.582328e-01    1.695236e+00   2.478042e-02
  9.604433e-01    1.756229e+00   2.518656e-02
  9.626537e-01    1.766462e+00   2.522588e-02
  9.648642e-01    1.733164e+00   2.495277e-02
  9.670747e-01    1.779876e+00   2.525190e-02
  9.692851e-01    1.847766e+00   2.569481e-02
  9.714956e-01    1.845223e+00   2.564091e-02
  9.737060e-01    1.839589e+00   2.556811e-02
  9.759165e-01    1.827785e+00   2.545001e-02
  9.781269e-01    1.829602e+00   2.542935e-02
  9.803374e-01    1.798139e+00   2.517489e-02
  9.825478e-01    1.794056e+00   2.511310e-02
  9.847583e-01    1.812564e+00   2.520804e-02
  9.869688e-01    1.777260e+00   2.492793e-02
  9.891792e-01    1.784677e+00   2.494668e-02
  9.913897e-01    1.799529e+00   2.501647e-02
  9.936001e-01    1.762698e+00   2.472675e-02
  9.958106e-01    1.720531e+00   2.439599e-02
  9.980210e-01    1.667786e+00   2.398797e-02
  1.000231e+00    1.651634e+00   2.400229e-02
  1.002442e+00    1.646885e+00   2.409510e-02
  1.004652e+00    1.662396e+00   2.427584e-02
  1.006863e+00    1.621466e+00   2.402489e-02
  1.009073e+00    1.623797e+00   2.407892e-02
  1.011284e+00    1.617966e+00   2.406781e-02
  1.013494e+00    1.605276e+00   2.399700e-02
  1.015705e+00    1.576937e+00   2.380673e-02
  1.017915e+00    1.523469e+00   2.341578e-02
  1.020126e+00    1.514781e+00   2.336467e-02
  1.022336e+00    1.531985e+00   2.350857e-02
  1.024547e+00    1.484823e+00   2.315487e-02
  1.026757e+00    1.480679e+00   2.313070e-02
  1.028967e+00    1.523955e+00   2.347393e-02
  1.031178e+00    1.491095e+00   2.322556e-02
  1.033388e+00    1.496259e+00   2.327072e-02
  1.035599e+00    1.501319e+00   2.331346e-02
  1.037809e+00    1.457266e+00   2.297204e-02
  1.040020e+00    1.467626e+00   2.305479e-02
  1.042230e+00    1.483130e+00   2.317815e-02
  1.044441e+00    1.509063e+00   2.337971e-02
  1.046651e+00    1.513588e+00   2.341491e-02
  1.048862e+00    1.490109e+00   2.323181e-02
  1.051072e+00    1.475220e+00   2.311311e-02
  1.053282e+00    1.480621e+00   2.315443e-02
  1.055493e+00    1.487593e+00   2.320460e-02
  1.057703e+00    1.525830e+00   2.349938e-02
  1.059914e+00    1.543340e+00   2.362952e-02
  1.062124e+00    1.511905e+00   2.338355e-02
  1.064335e+00    1.525521e+00   2.348511e-02
  1.066545e+00    1.556000e+00   2.371242e-02
  1.068756e+00    1.534558e+00   2.354468e-02
  1.070966e+00    1.510847e+00   2.335547e-02
  1.073177e+00    1.447340e+00   2.285332e-02
  1.075387e+00    1.446892e+00   2.284457e-02
  1.077597e+00    1.522135e+00   2.342366e-02
  1.079808e+00    1.535645e+00   2.339147e-02
  1.082018e+00    1.422293e+00   2.232521e-02
  1.084229e+00    1.407107e+00   2.209763e-02
  1.086439e+00    1.460930e+00   2.242870e-02
  1.088650e+00    1.463894e+00   2.237553e-02
  1.090860e+00    1.466806e+00   2.232986e-02
  1.093071e+00    1.451127e+00   2.214800e-02
  1.095281e+00    1.477053e+00   2.228712e-02
  1.097492e+00    1.425149e+00   2.183751e-02
  1.099702e+00    1.410219e+00   2.167194e-02
  1.101912e+00    1.446560e+00   2.190044e-02
  1.104123e+00    1.484234e+00   2.213475e-02
  1.106333e+00    1.476570e+00   2.203248e-02
  1.108544e+00    1.441831e+00   2.172730e-02
  1.110754e+00    1.465801e+00   2.186355e-02
  1.112965e+00    1.417856e+00   2.146255e-02
  1.115175e+00    1.360145e+00   2.098091e-02
  1.117386e+00    1.396621e+00   2.122134e-02
  1.119596e+00    1.386362e+00   2.110576e-02
  1.121807e+00    1.405953e+00   2.121557e-02
  1.124017e+00    1.405058e+00   2.117223e-02
  1.126228e+00    1.379471e+00   2.094310e-02
  1.128438e+00    1.416876e+00   2.118818e-02
  1.130648e+00    1.393119e+00   2.097556e-02
  1.132859e+00    1.363559e+00   2.071788e-02
  1.135069e+00    1.362301e+00   2.067396e-02
  1.137280e+00    1.368982e+00   2.069185e-02
  1.139490e+00    1.366183e+00   2.063788e-02
  1.141701e+00    1.354892e+00   2.051965e-02
  1.143911e+00    1.373177e+00   2.062591e-02
  1.146122e+00    1.370207e+00   2.057172e-02
  1.148332e+00    1.329113e+00   2.022958e-02
  1.150543e+00    1.340145e+00   2.028295e-02
  1.152753e+00    1.352730e+00   2.034738e-02
  1.154963e+00    1.355003e+00   2.033363e-02
  1.157174e+00    1.359174e+00   2.033493e-02
  1.159384e+00    1.327438e+00   2.006673e-02
  1.161595e+00    1.346488e+00   2.018063e-02
  1.163805e+00    1.343715e+00   2.013084e-02
  1.166016e+00    1.346557e+00   2.012293e-02
  1.168226e+00    1.344566e+00   2.007932e-02
  1.170437e+00    1.320790e+00   1.987284e-02
  1.172647e+00    1.336319e+00   1.996074e-02
  1.174858e+00    1.359808e+00   2.010737e-02
  1.177068e+00    1.369316e+00   2.014922e-02
  1.179278e+00    1.340369e+00   1.990676e-02
  1.181489e+00    1.340211e+00   1.987876e-02
  1.183699e+00    1.345364e+00   1.988951e-02
  1.185910e+00    1.340178e+00   1.982355e-02
  1.188120e+00    1.340735e+00   1.980113e-02
  1.190331e+00    1.354207e+00   1.987362e-02
  1.192541e+00    1.350826e+00   1.982145e-02
  1.194752e+00    1.371497e+00   1.994528e-02
  1.196962e+00    1.380877e+00   1.998738e-02
  1.199173e+00    1.356584e+00   1.978421e-02
  1.201383e+00    1.354488e+00   1.974173e-02
  1.203593e+00    1.318246e+00   1.945129e-02
  1.205804e+00    1.369357e+00   1.979867e-02
  1.208014e+00    1.370691e+00   1.978128e-02
  1.210225e+00    1.326334e+00   1.943346e-02
  1.212435e+00    1.342605e+00   1.952757e-02
  1.214646e+00    1.345473e+00   1.952236e-02
  1.216856e+00    1.358460e+00   1.959079e-02
  1.219067e+00    1.351485e+00   1.951596e-02
  1.221277e+00    1.315533e+00   1.922993e-02
  1.223488e+00    1.339363e+00   1.937765e-02
  1.225698e+00    1.316752e+00   1.918685e-02
  1.227909e+00    1.319217e+00   1.917495e-02
  1.230119e+00    1.337440e+00   1.927524e-02
  1.232329e+00    1.329191e+00   1.918522e-02
  1.234540e+00    1.357089e+00   1.935515e-02
  1.236750e+00    1.353840e+00   1.930166e-02
  1.238961e+00    1.325696e+00   1.907326e-02
  1.241171e+00    1.302484e+00   1.888178e-02
  1.243382e+00    1.343525e+00   1.915350e-02
  1.245592e+00    1.332226e+00   1.904885e-02
  1.247803e+00    1.325632e+00   1.897821e-02
  1.250013e+00    1.324229e+00   1.894485e-02
  1.252224e+00    1.338294e+00   1.902203e-02
  1.254434e+00    1.328877e+00   1.893146e-02
  1.256644e+00    1.311126e+00   1.878170e-02
  1.258855e+00    1.318455e+00   1.881114e-02
  1.261065e+00    1.320943e+00   1.880574e-02
  1.263276e+00    1.339354e+00   1.891350e-02
  1.265486e+00    1.334610e+00   1.885723e-02
  1.267697e+00    1.359632e+00   1.901007e-02
  1.269907e+00    1.405138e+00   1.930243e-02
  1.272118e+00    1.363166e+00   1.898930e-02
  1.274328e+00    1.354153e+00   1.890362e-02
  1.276539e+00    1.383900e+00   1.908707e-02
  1.278749e+00    1.345985e+00   1.880154e-02
  1.280959e+00    1.360007e+00   1.887659e-02
  1.283170e+00    1.373666e+00   1.894853e-02
  1.285380e+00    1.361741e+00   1.884354e-02
  1.287591e+00    1.369327e+00   1.887377e-02
  1.289801e+00    1.370685e+00   1.886174e-02
  1.292012e+00    1.367885e+00   1.882527e-02
  1.294222e+00    1.331790e+00   1.855910e-02
  1.296433e+00    1.337711e+00   1.858477e-02
  1.298643e+00    1.362209e+00   1.873763e-02
  1.300854e+00    1.346815e+00   1.861507e-02
  1.303064e+00    1.380558e+00   1.882735e-02
  1.305274e+00    1.381155e+00   1.880976e-02
  1.307485e+00    1.388385e+00   1.883707e-02
  1.309695e+00    1.389254e+00   1.882041e-02
  1.311906e+00    1.402202e+00   1.888579e-02
  1.314116e+00    1.450635e+00   1.918760e-02
  1.316327e+00    1.509061e+00   1.954728e-02
  1.318537e+00    1.488395e+00   1.939000e-02
  1.320748e+00    1.497881e+00   1.942898e-02
  1.322958e+00    1.472227e+00   1.924048e-02
  1.325169e+00    1.433233e+00   1.896229e-02
  1.327379e+00    1.416081e+00   1.882614e-02
  1.329589e+00    1.412660e+00   1.878184e-02
  1.331800e+00    1.412848e+00   1.876191e-02
  1.334010e+00    1.460439e+00   1.905378e-02
  1.336221e+00    1.511162e+00   1.935886e-02
  1.338431e+00    1.438419e+00   1.886566e-02
  1.340642e+00    1.392295e+00   1.862585e-02
  1.342852e+00    1.393564e+00   1.873663e-02
  1.345063e+00    1.380536e+00   1.869887e-02
  1.347273e+00    1.377995e+00   1.871727e-02
  1.349484e+00    1.376526e+00   1.873523e-02
  1.351694e+00    1.377749e+00   1.876650e-02
  1.353905e+00    1.386601e+00   1.884493e-02
  1.356115e+00    1.361095e+00   1.868593e-02
  1.358325e+00    1.323224e+00   1.843730e-02
  1.360536e+00    1.346969e+00   1.861359e-02
  1.362746e+00    1.354983e+00   1.867849e-02
  1.364957e+00    1.329289e+00   1.850814e-02
  1.367167e+00    1.339148e+00   1.858378e-02
  1.369378e+00    1.341413e+00   1.860549e-02
  1.371588e+00    1.358099e+00   1.872601e-02
  1.373799e+00    1.348280e+00   1.866189e-02
  1.376009e+00    1.339422e+00   1.860387e-02
  1.378220e+00    1.322485e+00   1.848841e-02
  1.380430e+00    1.300908e+00   1.833963e-02
  1.382640e+00    1.311893e+00   1.841778e-02
  1.384851e+00    1.303899e+00   1.836249e-02
  1.387061e+00    1.285290e+00   1.823124e-02
  1.389272e+00    1.276132e+00   1.816641e-02
  1.391482e+00    1.275933e+00   1.816431e-02
  1.393693e+00    1.268465e+00   1.811020e-02
  1.395903e+00    1.277981e+00   1.817652e-02
  1.398114e+00    1.303928e+00   1.835870e-02
  1.400324e+00    1.304517e+00   1.836073e-02
  1.402535e+00    1.272388e+00   1.813091e-02
  1.404745e+00    1.248335e+00   1.795637e-02
  1.406955e+00    1.249467e+00   1.796183e-02
  1.409166e+00    1.264994e+00   1.806979e-02
  1.411376e+00    1.275565e+00   1.814203e-02
  1.413587e+00    1.262395e+00   1.804431e-02
  1.415797e+00    1.249511e+00   1.794850e-02
  1.418008e+00    1.233235e+00   1.778996e-02
  1.420218e+00    1.252659e+00   1.778078e-02
  1.422429e+00    1.255308e+00   1.771477e-02
  1.424639e+00    1.272109e+00   1.776818e-02
  1.426850e+00    1.274990e+00   1.773348e-02
  1.429060e+00    1.310370e+00   1.792807e-02
  1.431270e+00    1.360173e+00   1.821973e-02
  1.433481e+00    1.366140e+00   1.821721e-02
  1.435691e+00    1.326375e+00   1.791084e-02
  1.437902e+00    1.280913e+00   1.756460e-02
  1.440112e+00    1.288007e+00   1.757756e-02
  1.442323e+00    1.277681e+00   1.747382e-02
  1.444533e+00    1.289905e+00   1.752440e-02
  1.446744e+00    1.288662e+00   1.748461e-02
  1.448954e+00    1.249795e+00   1.718896e-02
  1.451165e+00    1.272930e+00   1.731751e-02
  1.453375e+00    1.293203e+00   1.742660e-02
  1.455586e+00    1.274694e+00   1.727321e-02
  1.457796e+00    1.266575e+00   1.719064e-02
  1.460006e+00    1.267579e+00   1.717022e-02
  1.462217e+00    1.252765e+00   1.704355e-02
  1.464427e+00    1.245793e+00   1.697070e-02
  1.466638e+00    1.251388e+00   1.698360e-02
  1.468848e+00    1.264266e+00   1.704550e-02
  1.471059e+00    1.281079e+00   1.713325e-02
  1.473269e+00    1.286939e+00   1.714786e-02
  1.475480e+00    1.262807e+00   1.696261e-02
  1.477690e+00    1.265994e+00   1.696018e-02
  1.479901e+00    1.255724e+00   1.686753e-02
  1.482111e+00    1.234653e+00   1.670240e-02
  1.484321e+00    1.244925e+00   1.674879e-02
  1.486532e+00    1.268882e+00   1.688685e-02
  1.488742e+00    1.245675e+00   1.670923e-02
  1.490953e+00    1.270368e+00   1.685136e-02
  1.493163e+00    1.282714e+00   1.691061e-02
  1.495374e+00    1.287405e+00   1.691980e-02
  1.497584e+00    1.280414e+00   1.685200e-02
  1.499795e+00    1.240704e+00   1.656714e-02
  1.502005e+00    1.249988e+00   1.660741e-02
  1.504216e+00    1.255961e+00   1.662602e-02
  1.506426e+00    1.258334e+00   1.662091e-02
  1.508636e+00    1.270073e+00   1.667771e-02
  1.510847e+00    1.254093e+00   1.655066e-02
  1.513057e+00    1.271367e+00   1.663902e-02
  1.515268e+00    1.254755e+00   1.650424e-02
  1.517478e+00    1.271924e+00   1.659144e-02
  1.519689e+00    1.274412e+00   1.658250e-02
  1.521899e+00    1.252833e+00   1.641841e-02
  1.524110e+00    1.248447e+00   1.636935e-02
  1.526320e+00    1.230351e+00   1.623086e-02
  1.528531e+00    1.249674e+00   1.633805e-02
  1.530741e+00    1.227630e+00   1.617437e-02
  1.532951e+00    1.223290e+00   1.612635e-02
  1.535162e+00    1.241749e+00   1.633390e-02
  1.537372e+00    1.224780e+00   1.628817e-02
  1.539583e+00    1.220647e+00   1.629451e-02
  1.541793e+00    1.219690e+00   1.629498e-02
  1.544004e+00    1.245776e+00   1.646857e-02
  1.546214e+00    1.257258e+00   1.654279e-02
  1.548425e+00    1.243730e+00   1.645380e-02
  1.550635e+00    1.241411e+00   1.644813e-02
  1.552846e+00    1.225043e+00   1.634891e-02
  1.555056e+00    1.248968e+00   1.646623e-02
  1.557266e+00    1.244298e+00   1.632497e-02
  1.559477e+00    1.247619e+00   1.628755e-02
  1.561687e+00    1.251906e+00   1.628475e-02
  1.563898e+00    1.257460e+00   1.630360e-02
  1.566108e+00    1.249681e+00   1.623707e-02
  1.568319e+00    1.286106e+00   1.645614e-02
  1.570529e+00    1.267621e+00   1.631211e-02
  1.572740e+00    1.229818e+00   1.603957e-02
  1.574950e+00    1.252175e+00   1.615830e-02
  1.577161e+00    1.250431e+00   1.612152e-02
  1.579371e+00    1.266428e+00   1.620042e-02
  1.581582e+00    1.273474e+00   1.622546e-02
  1.583792e+00    1.255263e+00   1.609090e-02
  1.586002e+00    1.271109e+00   1.617436e-02
  1.588213e+00    1.223772e+00   1.585322e-02
  1.590423e+00    1.237480e+00   1.592174e-02
  1.592634e+00    1.224119e+00   1.581411e-02
  1.594844e+00    1.243529e+00   1.591758e-02
  1.597055e+00    1.239111e+00   1.586883e-02
  1.599265e+00    1.224237e+00   1.575271e-02
  1.601476e+00    1.247489e+00   1.588124e-02
  1.603686e+00    1.278887e+00   1.605978e-02
  1.605897e+00    1.287378e+00   1.609248e-02
  1.608107e+00    1.235565e+00   1.574578e-02
  1.610317e+00    1.237093e+00   1.573619e-02
  1.612528e+00    1.245523e+00   1.577045e-02
  1.614738e+00    1.243029e+00   1.573564e-02
  1.616949e+00    1.228673e+00   1.562549e-02
  1.619159e+00    1.247255e+00   1.572430e-02
  1.621370e+00    1.254420e+00   1.575068e-02
  1.623580e+00    1.250996e+00   1.571056e-02
  1.625791e+00    1.236251e+00   1.559924e-02
  1.628001e+00    1.211397e+00   1.542332e-02
  1.630212e+00    1.202431e+00   1.534830e-02
  1.632422e+00    1.154583e+00   1.502218e-02
  1.634632e+00    1.153875e+00   1.500046e-02
  1.636843e+00    1.145809e+00   1.493064e-02
  1.639053e+00    1.144322e+00   1.490387e-02
  1.641264e+00    1.127010e+00   1.477393e-02
  1.643474e+00    1.165073e+00   1.500392e-02
  1.645685e+00    1.150247e+00   1.489156e-02
  1.647895e+00    1.135395e+00   1.477865e-02
  1.650106e+00    1.117636e+00   1.464587e-02
  1.652316e+00    1.126168e+00   1.468533e-02
  1.654527e+00    1.142460e+00   1.477450e-02
  1.656737e+00    1.144174e+00   1.476897e-02
  1.658947e+00    1.116588e+00   1.457368e-02
  1.661158e+00    1.110761e+00   1.451944e-02
  1.663368e+00    1.114770e+00   1.452967e-02
  1.665579e+00    1.095642e+00   1.438849e-02
  1.667789e+00    1.092535e+00   1.435201e-02
  1.670000e+00    1.098577e+00   1.437624e-02
  1.672210e+00    1.110910e+00   1.444083e-02
  1.674421e+00    1.111608e+00   1.442999e-02
  1.676631e+00    1.124885e+00   1.449987e-02
  1.678842e+00    1.136262e+00   1.455698e-02
  1.681052e+00    1.106641e+00   1.435051e-02
  1.683263e+00    1.092227e+00   1.424158e-02
  1.685473e+00    1.107883e+00   1.432799e-02
  1.687683e+00    1.082935e+00   1.415034e-02
  1.689894e+00    1.065060e+00   1.401739e-02
  1.692104e+00    1.061405e+00   1.397852e-02
  1.694315e+00    1.055887e+00   1.392774e-02
  1.696525e+00    1.031640e+00   1.375201e-02
  1.698736e+00    1.039986e+00   1.379288e-02
  1.700946e+00    1.030635e+00   1.371581e-02
  1.703157e+00    1.039906e+00   1.376284e-02
  1.705367e+00    1.032148e+00   1.369705e-02
  1.707578e+00    1.031824e+00   1.368045e-02
  1.709788e+00    1.018115e+00   1.357534e-02
  1.711998e+00    1.027489e+00   1.362278e-02
  1.714209e+00    1.030583e+00   1.362892e-02
  1.716419e+00    1.005252e+00   1.344631e-02
  1.718630e+00    1.006706e+00   1.344194e-02
  1.720840e+00    9.933328e-01   1.333841e-02
  1.723051e+00    9.845670e-01   1.326583e-02
  1.725261e+00    9.948293e-01   1.332031e-02
  1.727472e+00    1.000719e+00   1.334562e-02
  1.729682e+00    9.972878e-01   1.330939e-02
  1.731893e+00    9.840746e-01   1.320721e-02
  1.734103e+00    9.811512e-01   1.317397e-02
  1.736313e+00    9.809068e-01   1.315851e-02
  1.738524e+00    9.728436e-01   1.309068e-02
  1.740734e+00    9.864515e-01   1.316830e-02
  1.742945e+00    9.751679e-01   1.307947e-02
  1.745155e+00    9.836748e-01   1.312300e-02
  1.747366e+00    1.003013e+00   1.323746e-02
  1.749576e+00    9.865243e-01   1.311451e-02
  1.751787e+00    9.665800e-01   1.296806e-02
  1.753997e+00    9.580363e-01   1.289737e-02
  1.756208e+00    9.615751e-01   1.290806e-02
  1.758418e+00    9.733559e-01   1.297378e-02
  1.760628e+00    9.503763e-01   1.280648e-02
  1.762839e+00    9.612576e-01   1.286640e-02
  1.765049e+00    9.618237e-01   1.285707e-02
  1.767260e+00    9.593571e-01   1.282779e-02
  1.769470e+00    9.448154e-01   1.271726e-02
  1.771681e+00    9.602224e-01   1.280733e-02
  1.773891e+00    9.651604e-01   1.282708e-02
  1.776102e+00    9.721240e-01   1.286022e-02
  1.778312e+00    9.852681e-01   1.293387e-02
  1.780523e+00    9.471880e-01   1.266871e-02
  1.782733e+00    9.364299e-01   1.258388e-02
  1.784944e+00    9.284856e-01   1.251757e-02
  1.787154e+00    9.062142e-01   1.235415e-02
  1.789364e+00    9.270149e-01   1.248267e-02
  1.791575e+00    9.306838e-01   1.249479e-02
  1.793785e+00    9.450257e-01   1.257814e-02
  1.795996e+00    9.317257e-01   1.247675e-02
  1.798206e+00    9.155716e-01   1.235561e-02
  1.800417e+00    8.931182e-01   1.219064e-02
  1.802627e+00    9.122111e-01   1.230833e-02
  1.804838e+00    8.805726e-01   1.208112e-02
  1.807048e+00    8.829513e-01   1.208475e-02
  1.809259e+00    9.087102e-01   1.224615e-02
  1.811469e+00    8.947788e-01   1.213705e-02
  1.813679e+00    8.962304e-01   1.213195e-02
  1.815890e+00    8.872396e-01   1.205628e-02
  1.818100e+00    9.045966e-01   1.215848e-02
  1.820311e+00    8.843377e-01   1.200686e-02
  1.822521e+00    8.788055e-01   1.195450e-02
  1.824732e+00    8.802407e-01   1.194952e-02
  1.826942e+00    8.701549e-01   1.186866e-02
  1.829153e+00    8.590432e-01   1.178111e-02
  1.831363e+00    8.603759e-01   1.177837e-02
  1.833574e+00    8.676603e-01   1.181653e-02
  1.835784e+00    8.818257e-01   1.190117e-02
  1.837994e+00    8.714288e-01   1.181913e-02
  1.840205e+00    8.585987e-01   1.172073e-02
  1.842415e+00    8.651258e-01   1.175348e-02
  1.844626e+00    8.479520e-01   1.162484e-02
  1.846836e+00    8.234304e-01   1.144438e-02
  1.849047e+00    8.267626e-01   1.145615e-02
  1.851257e+00    8.459687e-01   1.157899e-02
  1.853468e+00    8.642801e-01   1.169483e-02
  1.855678e+00    8.486620e-01   1.157986e-02
  1.857889e+00    8.582699e-01   1.163673e-02
  1.860099e+00    8.450225e-01   1.153800e-02
  1.862309e+00    8.600319e-01   1.163148e-02
  1.864520e+00    8.658831e-01   1.166236e-02
  1.866730e+00    8.686569e-01   1.167158e-02
  1.868941e+00    8.446808e-01   1.149848e-02
  1.871151e+00    8.344682e-01   1.141748e-02
  1.873362e+00    8.482159e-01   1.149980e-02
  1.875572e+00    8.496114e-01   1.149833e-02
  1.877783e+00    8.512782e-01   1.149816e-02
  1.879993e+00    8.464047e-01   1.145403e-02
  1.882204e+00    8.689929e-01   1.159482e-02
  1.884414e+00    8.407338e-01   1.139370e-02
  1.886624e+00    8.315809e-01   1.132049e-02
  1.888835e+00    8.522322e-01   1.144915e-02
  1.891045e+00    8.512816e-01   1.143183e-02
  1.893256e+00    8.591239e-01   1.147312e-02
  1.895466e+00    8.869979e-01   1.164626e-02
  1.897677e+00    8.754879e-01   1.155929e-02
  1.899887e+00    8.674247e-01   1.149472e-02
  1.902098e+00    8.690400e-01   1.149434e-02
  1.904308e+00    8.676109e-01   1.147407e-02
  1.906519e+00    8.745666e-01   1.150885e-02
  1.908729e+00    8.853768e-01   1.156879e-02
  1.910940e+00    8.825150e-01   1.153860e-02
  1.913150e+00    8.535008e-01   1.133659e-02
  1.915360e+00    8.369749e-01   1.121558e-02
  1.917571e+00    8.160176e-01   1.106345e-02
  1.919781e+00    8.349889e-01   1.118052e-02
  1.921992e+00    8.348263e-01   1.116875e-02
  1.924202e+00    8.289998e-01   1.111886e-02
  1.926413e+00    7.998148e-01   1.091120e-02
  1.928623e+00    7.994385e-01   1.089817e-02
  1.930834e+00    8.128303e-01   1.097865e-02
  1.933044e+00    8.118151e-01   1.096112e-02
  1.935255e+00    7.842777e-01   1.076346e-02
  1.937465e+00    7.787149e-01   1.071500e-02
  1.939675e+00    7.834145e-01   1.073660e-02
  1.941886e+00    7.773340e-01   1.068474e-02
  1.944096e+00    7.897843e-01   1.075987e-02
  1.946307e+00    7.971232e-01   1.079945e-02
  1.948517e+00    7.929880e-01   1.076099e-02
  1.950728e+00    7.921127e-01   1.074486e-02
  1.952938e+00    7.895395e-01   1.071735e-02
  1.955149e+00    7.775780e-01   1.062574e-02
  1.957359e+00    7.824844e-01   1.064926e-02
  1.959570e+00    7.940249e-01   1.071663e-02
  1.961780e+00    8.079923e-01   1.080047e-02
  1.963990e+00    8.086122e-01   1.079439e-02
  1.966201e+00    8.168008e-01   1.083868e-02
  1.968411e+00    8.186443e-01   1.084057e-02
  1.970622e+00    8.175012e-01   1.082272e-02
  1.972832e+00    8.071457e-01   1.074386e-02
  1.975043e+00    8.177028e-01   1.080365e-02
  1.977253e+00    8.202023e-01   1.080998e-02
  1.979464e+00    8.095399e-01   1.072930e-02
  1.981674e+00    7.970476e-01   1.063581e-02
  1.983885e+00    8.358984e-01   1.088158e-02
  1.986095e+00    8.416644e-01   1.090898e-02
  1.988305e+00    8.404138e-01   1.089061e-02
  1.990516e+00    8.269249e-01   1.079263e-02
  1.992726e+00    8.007324e-01   1.061052e-02
  1.994937e+00    7.870193e-01   1.050907e-02
  1.997147e+00    7.818421e-01   1.046469e-02
  1.999358e+00    7.881566e-01   1.049692e-02
  2.001568e+00    7.752991e-01   1.040012e-02
  2.003779e+00    7.794639e-01   1.041604e-02
  2.005989e+00    7.722968e-01   1.035603e-02
  2.008200e+00    7.693366e-01   1.032463e-02
  2.010410e+00    7.665314e-01   1.029407e-02
  2.012621e+00    7.683257e-01   1.029441e-02
  2.014831e+00    7.612379e-01   1.023539e-02
  2.017041e+00    7.640437e-01   1.024388e-02
  2.019252e+00    7.677365e-01   1.025862e-02
  2.021462e+00    7.777083e-01   1.031545e-02
  2.023673e+00    7.581814e-01   1.017578e-02
  2.025883e+00    7.665998e-01   1.022256e-02
  2.028094e+00    7.620607e-01   1.018262e-02
  2.030304e+00    7.699775e-01   1.022578e-02
  2.032515e+00    7.807944e-01   1.028795e-02
  2.034725e+00    7.618943e-01   1.015321e-02
  2.036936e+00    7.628141e-01   1.014996e-02
  2.039146e+00    7.855150e-01   1.029014e-02
  2.041356e+00    7.782018e-01   1.023235e-02
  2.043567e+00    7.913588e-01   1.030895e-02
  2.045777e+00    7.975256e-01   1.033954e-02
  2.047988e+00    7.752596e-01   1.018471e-02
  2.050198e+00    7.614812e-01   1.008530e-02
  2.052409e+00    7.660301e-01   1.010767e-02
  2.054619e+00    7.710606e-01   1.013332e-02
  2.056830e+00    7.708932e-01   1.012497e-02
  2.059040e+00    7.583543e-01   1.003473e-02
  2.061251e+00    7.688869e-01   1.009683e-02
  2.063461e+00    7.570114e-01   1.001093e-02
  2.065671e+00    7.609144e-01   1.002790e-02
  2.067882e+00    7.449731e-01   9.913336e-03
  2.070092e+00    7.678764e-01   1.005523e-02
  2.072303e+00    7.606659e-01   9.998690e-03
  2.074513e+00    7.524637e-01   9.935287e-03
  2.076724e+00    7.539498e-01   9.935549e-03
  2.078934e+00    7.507046e-01   9.905112e-03
  2.081145e+00    7.475258e-01   9.875000e-03
  2.083355e+00    7.536009e-01   9.905800e-03
  2.085566e+00    7.579974e-01   9.925642e-03
  2.087776e+00    7.480573e-01   9.850792e-03
  2.089986e+00    7.362896e-01   9.764234e-03
  2.092197e+00    7.419130e-01   9.792458e-03
  2.094407e+00    7.395029e-01   9.767291e-03
  2.096618e+00    7.455925e-01   9.798463e-03
  2.098828e+00    7.268857e-01   9.665511e-03
  2.101039e+00    7.354203e-01   9.713082e-03
  2.103249e+00    7.362677e-01   9.709969e-03
  2.105460e+00    7.377231e-01   9.710515e-03
  2.107670e+00    7.412432e-01   9.724831e-03
  2.109881e+00    7.305305e-01   9.645137e-03
  2.112091e+00    7.176651e-01   9.550880e-03
  2.114301e+00    7.180642e-01   9.544796e-03
  2.116512e+00    7.178535e-01   9.534630e-03
  2.118722e+00    7.057279e-01   9.445044e-03
  2.120933e+00    7.147431e-01   9.496341e-03
  2.123143e+00    7.216418e-01   9.533144e-03
  2.125354e+00    7.108378e-01   9.453019e-03
  2.127564e+00    7.192345e-01   9.499940e-03
  2.129775e+00    7.263098e-01   9.537756e-03
  2.131985e+00    7.130095e-01   9.440992e-03
  2.134196e+00    7.067091e-01   9.390621e-03
  2.136406e+00    7.173463e-01   9.452264e-03
  2.138617e+00    7.121724e-01   9.409639e-03
  2.140827e+00    7.148100e-01   9.443193e-03
  2.143037e+00    7.026991e-01   9.408174e-03
  2.145248e+00    7.025516e-01   9.429139e-03
  2.147458e+00    7.005522e-01   9.430816e-03
  2.149669e+00    7.040185e-01   9.465963e-03
  2.151879e+00    7.112008e-01   9.523420e-03
  2.154090e+00    7.018910e-01   9.468212e-03
  2.156300e+00    6.833072e-01   9.348536e-03
  2.158511e+00    6.958932e-01   9.439528e-03
  2.160721e+00    6.956103e-01   9.442412e-03
  2.162932e+00    6.964555e-01   9.451904e-03
  2.165142e+00    6.866952e-01   9.388420e-03
  2.167352e+00    6.884362e-01   9.403215e-03
  2.169563e+00    6.879461e-01   9.401808e-03
  2.171773e+00    6.922768e-01   9.433806e-03
  2.173984e+00    6.861002e-01   9.393024e-03
  2.176194e+00    6.934650e-01   9.444508e-03
  2.178405e+00    6.869597e-01   9.400797e-03
  2.180615e+00    6.960562e-01   9.463524e-03
  2.182826e+00    6.908208e-01   9.428529e-03
  2.185036e+00    6.974678e-01   9.473851e-03
  2.187247e+00    6.938069e-01   9.448903e-03
  2.189457e+00    6.722279e-01   9.300400e-03
  2.191667e+00    6.844813e-01   9.384579e-03
  2.193878e+00    7.011427e-01   9.497575e-03
  2.196088e+00    6.668969e-01   9.262039e-03
  2.198299e+00    6.694496e-01   9.278664e-03
  2.200509e+00    6.719807e-01   9.295143e-03
  2.202720e+00    6.639082e-01   9.238016e-03
  2.204930e+00    6.724292e-01   9.295862e-03
  2.207141e+00    6.655219e-01   9.246901e-03
  2.209351e+00    6.768726e-01   9.323543e-03
  2.211562e+00    6.713057e-01   9.283512e-03
  2.213772e+00    6.659683e-01   9.191488e-03
  2.215982e+00    6.784664e-01   9.233052e-03
  2.218193e+00    6.838077e-01   9.239518e-03
  2.220403e+00    6.643998e-01   9.083072e-03
  2.222614e+00    6.575098e-01   9.015135e-03
  2.224824e+00    6.767647e-01   9.126755e-03
  2.227035e+00    6.767921e-01   9.109455e-03
  2.229245e+00    6.769001e-01   9.093138e-03
  2.231456e+00    6.778189e-01   9.083627e-03
  2.233666e+00    6.818378e-01   9.095291e-03
  2.235877e+00    6.637209e-01   8.959472e-03
  2.238087e+00    6.719388e-01   9.001231e-03
  2.240298e+00    6.782938e-01   9.029864e-03
  2.242508e+00    6.889029e-01   9.084835e-03
  2.244718e+00    6.756620e-01   8.981241e-03
  2.246929e+00    6.764333e-01   8.971835e-03
  2.249139e+00    6.631338e-01   8.870877e-03
  2.251350e+00    6.585397e-01   8.828445e-03
  2.253560e+00    6.638458e-01   8.852391e-03
  2.255771e+00    6.635937e-01   8.839345e-03
  2.257981e+00    6.548766e-01   8.769984e-03
  2.260192e+00    6.591702e-01   8.787624e-03
  2.262402e+00    6.598409e-01   8.781282e-03
  2.264613e+00    6.587310e-01   8.763092e-03
  2.266823e+00    6.572241e-01   8.742726e-03
  2.269033e+00    6.551229e-01   8.718405e-03
  2.271244e+00    6.662583e-01   8.781764e-03
  2.273454e+00    6.610268e-01   8.736988e-03
  2.275665e+00    6.593859e-01   8.715836e-03
  2.277875e+00    6.640818e-01   8.736873e-03
  2.280086e+00    6.487691e-01   8.625606e-03
  2.282296e+00    6.512793e-01   8.632919e-03
  2.284507e+00    6.625236e-01   8.696965e-03
  2.286717e+00    6.571336e-01   8.652048e-03
  2.288928e+00    6.645424e-01   8.690772e-03
  2.291138e+00    6.569380e-01   8.631482e-03
  2.293348e+00    6.580516e-01   8.629237e-03
  2.295559e+00    6.652483e-01   8.666903e-03
  2.297769e+00    6.658273e-01   8.661357e-03
  2.299980e+00    6.502985e-01   8.550451e-03
  2.302190e+00    6.543989e-01   8.568222e-03
  2.304401e+00    6.373835e-01   8.446893e-03
  2.306611e+00    6.515214e-01   8.530843e-03
  2.308822e+00    6.439950e-01   8.473103e-03
  2.311032e+00    6.502361e-01   8.507607e-03
  2.313243e+00    6.482209e-01   8.488143e-03
  2.315453e+00    6.568356e-01   8.536758e-03
  2.317663e+00    6.287087e-01   8.342974e-03
  2.319874e+00    6.377954e-01   8.394381e-03
  2.322084e+00    6.420836e-01   8.413618e-03
  2.324295e+00    6.462181e-01   8.432416e-03
  2.326505e+00    6.370675e-01   8.363519e-03
  2.328716e+00    6.404846e-01   8.377380e-03
  2.330926e+00    6.464576e-01   8.407527e-03
  2.333137e+00    6.577229e-01   8.472007e-03
  2.335347e+00    6.377057e-01   8.333248e-03
  2.337558e+00    6.437216e-01   8.364186e-03
  2.339768e+00    6.461020e-01   8.371035e-03
  2.341979e+00    6.412909e-01   8.331442e-03
  2.344189e+00    6.270559e-01   8.230112e-03
  2.346399e+00    6.325654e-01   8.257734e-03
  2.348610e+00    6.232671e-01   8.188426e-03
  2.350820e+00    6.351846e-01   8.258159e-03
  2.353031e+00    6.515113e-01   8.355226e-03
  2.355241e+00    6.386976e-01   8.264570e-03
  2.357452e+00    6.358297e-01   8.237551e-03
  2.359662e+00    6.388786e-01   8.248999e-03
  2.361873e+00    6.405597e-01   8.251560e-03
  2.364083e+00    6.266550e-01   8.153533e-03
  2.366294e+00    6.246629e-01   8.132470e-03
  2.368504e+00    6.149915e-01   8.061272e-03
  2.370714e+00    6.104866e-01   8.023732e-03
  2.372925e+00    6.153647e-01   8.047725e-03
  2.375135e+00    6.205767e-01   8.073710e-03
  2.377346e+00    6.370213e-01   8.171949e-03
  2.379556e+00    6.357102e-01   8.155572e-03
  2.381767e+00    6.138439e-01   8.006268e-03
  2.383977e+00    6.113653e-01   7.982197e-03
  2.386188e+00    6.190965e-01   8.024608e-03
  2.388398e+00    6.201127e-01   8.023216e-03
  2.390609e+00    6.136723e-01   7.973748e-03
  2.392819e+00    6.177729e-01   7.992557e-03
  2.395029e+00    6.039060e-01   7.894756e-03
  2.397240e+00    6.222569e-01   8.005884e-03
  2.399450e+00    6.250096e-01   8.015701e-03
  2.401661e+00    6.117454e-01   7.922517e-03
  2.403871e+00    6.009297e-01   7.844474e-03
  2.406082e+00    6.069462e-01   7.876213e-03
  2.408292e+00    5.985731e-01   7.813995e-03
  2.410503e+00    6.062368e-01   7.856364e-03
  2.412713e+00    6.047846e-01   7.839171e-03
  2.414924e+00    6.121333e-01   7.879149e-03
  2.417134e+00    5.877537e-01   7.713111e-03
  2.419344e+00    6.004945e-01   7.788871e-03
  2.421555e+00    6.028415e-01   7.796557e-03
  2.423765e+00    6.102086e-01   7.836596e-03
  2.425976e+00    6.091764e-01   7.822094e-03
  2.428186e+00    5.973874e-01   7.738840e-03
  2.430397e+00    5.853405e-01   7.653000e-03
  2.432607e+00    5.863903e-01   7.652619e-03
  2.434818e+00    5.955105e-01   7.704382e-03
  2.437028e+00    5.936647e-01   7.685272e-03
  2.439239e+00    5.933778e-01   7.675773e-03
  2.441449e+00    5.864640e-01   7.623759e-03
  2.443659e+00    5.804561e-01   7.577329e-03
  2.445870e+00    5.765978e-01   7.564205e-03
  2.448080e+00    5.746716e-01   7.586124e-03
  2.450291e+00    5.602347e-01   7.506580e-03
  2.452501e+00    5.639905e-01   7.542752e-03
  2.454712e+00    5.686638e-01   7.582320e-03
  2.456922e+00    5.701410e-01   7.598793e-03
  2.459133e+00    5.650575e-01   7.570260e-03
  2.461343e+00    5.585031e-01   7.530540e-03
  2.463554e+00    5.578656e-01   7.529693e-03
  2.465764e+00    5.453231e-01   7.447663e-03
  2.467975e+00    5.414411e-01   7.423344e-03
  2.470185e+00    5.371265e-01   7.395912e-03
  2.472395e+00    5.675502e-01   7.603712e-03
  2.474606e+00    5.569044e-01   7.533653e-03
  2.476816e+00    5.586888e-01   7.546441e-03
  2.479027e+00    5.464461e-01   7.464146e-03
  2.481237e+00    5.514299e-01   7.498390e-03
  2.483448e+00    5.542219e-01   7.517643e-03
  2.485658e+00    5.489708e-01   7.481812e-03
  2.487869e+00    5.433559e-01   7.443488e-03
  2.490079e+00    5.266985e-01   7.327997e-03
  2.492290e+00    5.283342e-01   7.338916e-03
  2.494500e+00    5.477325e-01   7.471706e-03
  2.496710e+00    5.368639e-01   7.396503e-03
  2.498921e+00    5.327558e-01   7.367173e-03
  2.501131e+00    5.369908e-01   7.395429e-03
  2.503342e+00    5.338856e-01   7.372762e-03
  2.505552e+00    5.347875e-01   7.377842e-03
  2.507763e+00    5.285179e-01   7.333070e-03
  2.509973e+00    5.297108e-01   7.339920e-03
  2.512184e+00    5.294801e-01   7.336726e-03
  2.514394e+00    5.216313e-01   7.272823e-03
  2.516605e+00    5.176656e-01   7.198459e-03
  2.518815e+00    5.218858e-01   7.199525e-03
  2.521025e+00    5.346130e-01   7.265632e-03
  2.523236e+00    5.344208e-01   7.246205e-03
  2.525446e+00    5.294715e-01   7.196910e-03
  2.527657e+00    5.320218e-01   7.199515e-03
  2.529867e+00    5.189490e-01   7.096421e-03
  2.532078e+00    5.324625e-01   7.173079e-03
  2.534288e+00    5.236106e-01   7.099331e-03
  2.536499e+00    5.253376e-01   7.099088e-03
  2.538709e+00    5.169097e-01   7.031003e-03
  2.540920e+00    5.125332e-01   6.990624e-03
  2.543130e+00    5.299634e-01   7.098100e-03
  2.545340e+00    5.087771e-01   6.944851e-03
  2.547551e+00    5.140496e-01   6.970880e-03
  2.549761e+00    5.146428e-01   6.965379e-03
  2.551972e+00    5.246726e-01   7.023555e-03
  2.554182e+00    5.186155e-01   6.973755e-03
  2.556393e+00    5.249228e-01   7.006889e-03
  2.558603e+00    5.223175e-01   6.980395e-03
  2.560814e+00    5.238683e-01   6.982006e-03
  2.563024e+00    5.176846e-01   6.932119e-03
  2.565235e+00    5.151135e-01   6.905412e-03
  2.567445e+00    5.200726e-01   6.929009e-03
  2.569656e+00    5.215084e-01   6.928781e-03
  2.571866e+00    5.202365e-01   6.910958e-03
  2.574076e+00    5.176430e-01   6.884435e-03
  2.576287e+00    5.021262e-01   6.772253e-03
  2.578497e+00    5.114286e-01   6.826873e-03
  2.580708e+00    5.169709e-01   6.855685e-03
  2.582918e+00    5.102042e-01   6.802935e-03
  2.585129e+00    5.026324e-01   6.744612e-03
  2.587339e+00    5.089341e-01   6.779116e-03
  2.589550e+00    5.044404e-01   6.741622e-03
  2.591760e+00    5.039471e-01   6.730661e-03
  2.593971e+00    5.108522e-01   6.769092e-03
  2.596181e+00    5.091472e-01   6.751583e-03
  2.598391e+00    4.973261e-01   6.667621e-03
  2.600602e+00    5.118713e-01   6.758485e-03
  2.602812e+00    5.187886e-01   6.796403e-03
  2.605023e+00    5.065857e-01   6.708848e-03
  2.607233e+00    4.970531e-01   6.638355e-03
  2.609444e+00    5.064176e-01   6.693376e-03
  2.611654e+00    5.030073e-01   6.663511e-03
  2.613865e+00    4.956180e-01   6.607425e-03
  2.616075e+00    4.987042e-01   6.620865e-03
  2.618286e+00    5.079038e-01   6.674645e-03
  2.620496e+00    5.051103e-01   6.649588e-03
  2.622706e+00    5.067370e-01   6.654507e-03
  2.624917e+00    5.004779e-01   6.607477e-03
  2.627127e+00    5.106853e-01   6.668717e-03
  2.629338e+00    5.109879e-01   6.664699e-03
  2.631548e+00    5.075517e-01   6.636037e-03
  2.633759e+00    4.982488e-01   6.567832e-03
  2.635969e+00    5.052945e-01   6.607397e-03
  2.638180e+00    4.919302e-01   6.512519e-03
  2.640390e+00    4.888194e-01   6.485360e-03
  2.642601e+00    5.101254e-01   6.618464e-03
  2.644811e+00    5.067519e-01   6.589440e-03
  2.647021e+00    5.062688e-01   6.579672e-03
  2.649232e+00    4.988649e-01   6.524691e-03
  2.651442e+00    5.058398e-01   6.563582e-03
  2.653653e+00    4.923231e-01   6.468562e-03
  2.655863e+00    4.947684e-01   6.477933e-03
  2.658074e+00    4.972241e-01   6.487386e-03
  2.660284e+00    4.976260e-01   6.483658e-03
  2.662495e+00    4.857628e-01   6.399229e-03
  2.664705e+00    5.056376e-01   6.522187e-03
  2.666916e+00    5.056158e-01   6.515556e-03
  2.669126e+00    4.877257e-01   6.392819e-03
  2.671337e+00    4.974755e-01   6.449814e-03
  2.673547e+00    4.967448e-01   6.438681e-03
  2.675757e+00    5.009868e-01   6.459627e-03
  2.677968e+00    4.935509e-01   6.405000e-03
  2.680178e+00    4.933497e-01   6.397284e-03
  2.682389e+00    4.989291e-01   6.426930e-03
  2.684599e+00    4.964865e-01   6.404974e-03
  2.686810e+00    4.978072e-01   6.406832e-03
  2.689020e+00    4.919170e-01   6.362540e-03
  2.691231e+00    4.923706e-01   6.359158e-03
  2.693441e+00    4.854797e-01   6.308399e-03
  2.695652e+00    4.887226e-01   6.322920e-03
  2.697862e+00    4.901685e-01   6.325930e-03
  2.700072e+00    4.733228e-01   6.210298e-03
  2.702283e+00    4.824218e-01   6.263517e-03
  2.704493e+00    4.848031e-01   6.272715e-03
  2.706704e+00    4.740501e-01   6.196452e-03
  2.708914e+00    4.695623e-01   6.161182e-03
  2.711125e+00    4.750879e-01   6.191168e-03
  2.713335e+00    4.781905e-01   6.205326e-03
  2.715546e+00    4.845404e-01   6.239930e-03
  2.717756e+00    4.904766e-01   6.272143e-03
  2.719967e+00    4.910058e-01   6.269285e-03
  2.722177e+00    4.705400e-01   6.131205e-03
  2.724387e+00    4.775025e-01   6.170337e-03
  2.726598e+00    4.755314e-01   6.151598e-03
  2.728808e+00    4.675547e-01   6.093750e-03
  2.731019e+00    4.903841e-01   6.234567e-03
  2.733229e+00    4.845654e-01   6.191695e-03
  2.735440e+00    4.795208e-01   6.153121e-03
  2.737650e+00    4.749588e-01   6.117828e-03
  2.739861e+00    4.864359e-01   6.185208e-03
  2.742071e+00    4.806717e-01   6.142727e-03
  2.744282e+00    4.789519e-01   6.125496e-03
  2.746492e+00    4.824569e-01   6.141849e-03
  2.748702e+00    4.722997e-01   6.071001e-03
  2.750913e+00    4.664000e-01   6.027265e-03
  2.753123e+00    4.657298e-01   6.016913e-03
  2.755334e+00    4.752710e-01   6.072191e-03
  2.757544e+00    4.823537e-01   6.111516e-03
  2.759755e+00    4.887849e-01   6.146208e-03
  2.761965e+00    4.757366e-01   6.057638e-03
  2.764176e+00    4.889098e-01   6.134907e-03
  2.766386e+00    4.756114e-01   6.045142e-03
  2.768597e+00    4.645396e-01   5.968576e-03
  2.770807e+00    4.679400e-01   5.984577e-03
  2.773017e+00    4.789695e-01   6.048722e-03
  2.775228e+00    4.832754e-01   6.070046e-03
  2.777438e+00    4.706185e-01   5.984280e-03
  2.779649e+00    4.738251e-01   5.998751e-03
  2.781859e+00    4.748958e-01   5.999789e-03
  2.784070e+00    4.629121e-01   5.917822e-03
  2.786280e+00    4.747879e-01   5.987507e-03
  2.788491e+00    4.801624e-01   6.015439e-03
  2.790701e+00    4.735720e-01   5.968395e-03
  2.792912e+00    4.733435e-01   5.960997e-03
  2.795122e+00    4.726442e-01   5.950890e-03
  2.797333e+00    4.678607e-01   5.915178e-03
  2.799543e+00    4.712275e-01   5.930594e-03
  2.801753e+00    4.776730e-01   5.965138e-03
  2.803964e+00    4.639800e-01   5.873440e-03
  2.806174e+00    4.747669e-01   5.935154e-03
  2.808385e+00    4.887454e-01   6.015011e-03
  2.810595e+00    4.749672e-01   5.922757e-03
  2.812806e+00    4.722593e-01   5.899256e-03
  2.815016e+00    4.751814e-01   5.912720e-03
  2.817227e+00    4.714268e-01   5.915176e-03
  2.819437e+00    4.751776e-01   5.949760e-03
  2.821648e+00    4.767416e-01   5.961828e-03
  2.823858e+00    4.808621e-01   5.992935e-03
  2.826068e+00    4.709072e-01   5.935541e-03
  2.828279e+00    4.735331e-01   5.956109e-03
  2.830489e+00    4.696442e-01   5.934922e-03
  2.832700e+00    4.725577e-01   5.955872e-03
  2.834910e+00    4.748066e-01   5.972089e-03
  2.837121e+00    4.708640e-01   5.948965e-03
  2.839331e+00    4.625739e-01   5.897576e-03
  2.841542e+00    4.659437e-01   5.920017e-03
  2.843752e+00    4.687558e-01   5.938656e-03
  2.845963e+00    4.535444e-01   5.841896e-03
  2.848173e+00    4.625695e-01   5.899802e-03
  2.850383e+00    4.601878e-01   5.884899e-03
  2.852594e+00    4.557147e-01   5.856138e-03
  2.854804e+00    4.641216e-01   5.909416e-03
  2.857015e+00    4.486271e-01   5.809511e-03
  2.859225e+00    4.649282e-01   5.913855e-03
  2.861436e+00    4.744055e-01   5.973171e-03
  2.863646e+00    4.668304e-01   5.925335e-03
  2.865857e+00    4.531578e-01   5.838253e-03
  2.868067e+00    4.644856e-01   5.910996e-03
  2.870278e+00    4.464652e-01   5.794859e-03
  2.872488e+00    4.472885e-01   5.799044e-03
  2.874698e+00    4.612901e-01   5.888066e-03
  2.876909e+00    4.636424e-01   5.901741e-03
  2.879119e+00    4.717332e-01   5.951377e-03
  2.881330e+00    4.604056e-01   5.878022e-03
  2.883540e+00    4.579639e-01   5.861019e-03
  2.885751e+00    4.597351e-01   5.870718e-03
  2.887961e+00    4.633455e-01   5.891832e-03
  2.890172e+00    4.643434e-01   5.896565e-03
  2.892382e+00    4.661816e-01   5.906400e-03
  2.894593e+00    4.740125e-01   5.953964e-03
  2.896803e+00    4.660030e-01   5.901478e-03
  2.899014e+00    4.585650e-01   5.852265e-03
  2.901224e+00    4.508059e-01   5.800572e-03
  2.903434e+00    4.590321e-01   5.851311e-03
  2.905645e+00    4.638244e-01   5.879539e-03
  2.907855e+00    4.660790e-01   5.891696e-03
  2.910066e+00    4.775417e-01   5.961595e-03
  2.912276e+00    4.610341e-01   5.855533e-03
  2.914487e+00    4.599191e-01   5.845967e-03
  2.916697e+00    4.637305e-01   5.867915e-03
  2.918908e+00    4.594912e-01   5.839023e-03
  2.921118e+00    4.580189e-01   5.826965e-03
  2.923329e+00    4.571743e-01   5.819272e-03
  2.925539e+00    4.650143e-01   5.866665e-03
  2.927749e+00    4.598097e-01   5.831426e-03
  2.929960e+00    4.533436e-01   5.787509e-03
  2.932170e+00    4.555455e-01   5.799219e-03
  2.934381e+00    4.558267e-01   5.798578e-03
  2.936591e+00    4.546044e-01   5.788212e-03
  2.938802e+00    4.553720e-01   5.790402e-03
  2.941012e+00    4.518693e-01   5.765755e-03
  2.943223e+00    4.518704e-01   5.763079e-03
  2.945433e+00    4.555043e-01   5.782482e-03
  2.947644e+00    4.554712e-01   5.778112e-03
  2.949854e+00    4.668333e-01   5.845436e-03
  2.952064e+00    4.651100e-01   5.830359e-03
  2.954275e+00    4.573732e-01   5.777253e-03
  2.956485e+00    4.586927e-01   5.781373e-03
  2.958696e+00    4.403616e-01   5.660377e-03
  2.960906e+00    4.439241e-01   5.679081e-03
  2.963117e+00    4.495965e-01   5.710778e-03
  2.965327e+00    4.634491e-01   5.794169e-03
  2.967538e+00    4.464968e-01   5.684325e-03
  2.969748e+00    4.542454e-01   5.730605e-03
  2.971959e+00    4.690318e-01   5.819946e-03
  2.974169e+00    4.584582e-01   5.751389e-03
  2.976379e+00    4.492708e-01   5.690559e-03
  2.978590e+00    4.650100e-01   5.786201e-03
  2.980800e+00    4.483829e-01   5.679040e-03
  2.983011e+00    4.462872e-01   5.662979e-03
  2.985221e+00    4.493345e-01   5.679130e-03
  2.987432e+00    4.527680e-01   5.697700e-03
  2.989642e+00    4.554614e-01   5.711971e-03
  2.991853e+00    4.504736e-01   5.677357e-03
  2.994063e+00    4.500287e-01   5.671652e-03
  2.996274e+00    4.575629e-01   5.715737e-03
  2.998484e+00    4.535070e-01   5.687650e-03
  3.000694e+00    4.643171e-01   5.751537e-03
  3.002905e+00    4.704577e-01   5.786465e-03
  3.005115e+00    4.594859e-01   5.715583e-03
  3.007326e+00    4.565199e-01   5.693946e-03
  3.009536e+00    4.575657e-01   5.697188e-03
  3.011747e+00    4.689121e-01   5.764438e-03
  3.013957e+00    4.627492e-01   5.723211e-03
  3.016168e+00    4.518709e-01   5.652290e-03
  3.018378e+00    4.581956e-01   5.688638e-03
  3.020589e+00    4.587408e-01   5.688799e-03
  3.022799e+00    4.529980e-01   5.649924e-03
  3.025010e+00    4.465705e-01   5.606456e-03
  3.027220e+00    4.534710e-01   5.646505e-03
  3.029430e+00    4.511475e-01   5.628789e-03
  3.031641e+00    4.603782e-01   5.682898e-03
  3.033851e+00    4.481662e-01   5.603533e-03
  3.036062e+00    4.509550e-01   5.618148e-03
  3.038272e+00    4.435840e-01   5.568505e-03
  3.040483e+00    4.449633e-01   5.573957e-03
  3.042693e+00    4.532552e-01   5.622383e-03
  3.044904e+00    4.508680e-01   5.603517e-03
  3.047114e+00    4.595717e-01   5.652511e-03
  3.049325e+00    4.517391e-01   5.599739e-03
  3.051535e+00    4.419371e-01   5.534299e-03
  3.053745e+00    4.415501e-01   5.527162e-03
  3.055956e+00    4.622028e-01   5.650327e-03
  3.058166e+00    4.435995e-01   5.531219e-03
  3.060377e+00    4.613716e-01   5.636106e-03
  3.062587e+00    4.366908e-01   5.478717e-03
  3.064798e+00    4.464753e-01   5.535518e-03
  3.067008e+00    4.609374e-01   5.619657e-03
  3.069219e+00    4.565462e-01   5.588290e-03
  3.071429e+00    4.597104e-01   5.604073e-03
  3.073640e+00    4.597831e-01   5.601140e-03
  3.075850e+00    4.677306e-01   5.645693e-03
  3.078060e+00    4.523682e-01   5.549099e-03
  3.080271e+00    4.445547e-01   5.497479e-03
  3.082481e+00    4.633622e-01   5.609076e-03
  3.084692e+00    4.523559e-01   5.538678e-03
  3.086902e+00    4.433481e-01   5.480015e-03
  3.089113e+00    4.525789e-01   5.533177e-03
  3.091323e+00    4.465474e-01   5.492827e-03
  3.093534e+00    4.439269e-01   5.473319e-03
  3.095744e+00    4.378775e-01   5.432574e-03
  3.097955e+00    4.430411e-01   5.460969e-03
  3.100165e+00    4.445039e-01   5.466654e-03
  3.102375e+00    4.465767e-01   5.475977e-03
  3.104586e+00    4.372730e-01   5.415165e-03
  3.106796e+00    4.448963e-01   5.458654e-03
  3.109007e+00    4.458444e-01   5.461259e-03
  3.111217e+00    4.456193e-01   5.456191e-03
  3.113428e+00    4.550864e-01   5.510378e-03
  3.115638e+00    4.474510e-01   5.460736e-03
  3.117849e+00    4.391747e-01   5.406295e-03
  3.120059e+00    4.399815e-01   5.407798e-03
  3.122270e+00    4.425590e-01   5.420375e-03
  3.124480e+00    4.484306e-01   5.452515e-03
  3.126691e+00    4.493033e-01   5.454243e-03
  3.128901e+00    4.533210e-01   5.475414e-03
  3.131111e+00    4.490382e-01   5.445627e-03
  3.133322e+00    4.362701e-01   5.364249e-03
  3.135532e+00    4.388342e-01   5.376590e-03
  3.137743e+00    4.350420e-01   5.349870e-03
  3.139953e+00    4.446888e-01   5.405168e-03
  3.142164e+00    4.507475e-01   5.453977e-03
  3.144374e+00    4.413862e-01   5.425446e-03
  3.146585e+00    4.430720e-01   5.450353e-03
  3.148795e+00    4.463944e-01   5.481572e-03
  3.151006e+00    4.481946e-01   5.501232e-03
  3.153216e+00    4.474587e-01   5.503883e-03
  3.155426e+00    4.416460e-01   5.474342e-03
  3.157637e+00    4.489605e-01   5.525071e-03
  3.159847e+00    4.285724e-01   5.402955e-03
  3.162058e+00    4.491054e-01   5.535344e-03
  3.164268e+00    4.438349e-01   5.506852e-03
  3.166479e+00    4.270545e-01   5.405364e-03
  3.168689e+00    4.479395e-01   5.539324e-03
  3.170900e+00    4.401626e-01   5.494234e-03
  3.173110e+00    4.394862e-01   5.492871e-03
  3.175321e+00    4.494264e-01   5.557172e-03
  3.177531e+00    4.196329e-01   5.372501e-03
  3.179741e+00    4.465349e-01   5.544117e-03
  3.181952e+00    4.423819e-01   5.520409e-03
  3.184162e+00    4.324768e-01   5.460432e-03
  3.186373e+00    4.308577e-01   5.451798e-03
  3.188583e+00    4.367902e-01   5.490961e-03
  3.190794e+00    4.339854e-01   5.475085e-03
  3.193004e+00    4.377935e-01   5.500276e-03
  3.195215e+00    4.367011e-01   5.494928e-03
  3.197425e+00    4.447835e-01   5.546776e-03
  3.199636e+00    4.170880e-01   5.370534e-03
  3.201846e+00    4.310241e-01   5.458922e-03
  3.204056e+00    4.287023e-01   5.445090e-03
  3.206267e+00    4.245234e-01   5.419323e-03
  3.208477e+00    4.343337e-01   5.482494e-03
  3.210688e+00    4.339349e-01   5.480846e-03
  3.212898e+00    4.306163e-01   5.460393e-03
  3.215109e+00    4.367537e-01   5.499952e-03
  3.217319e+00    4.328960e-01   5.476237e-03
  3.219530e+00    4.297992e-01   5.457005e-03
  3.221740e+00    4.202550e-01   5.396616e-03
  3.223951e+00    4.374652e-01   5.506502e-03
  3.226161e+00    4.306936e-01   5.463890e-03
  3.228372e+00    4.426301e-01   5.539627e-03
  3.230582e+00    4.339733e-01   5.485343e-03
  3.232792e+00    4.318982e-01   5.472439e-03
  3.235003e+00    4.379579e-01   5.510923e-03
  3.237213e+00    4.174524e-01   5.380493e-03
  3.239424e+00    4.239027e-01   5.421868e-03
  3.241634e+00    4.163794e-01   5.373700e-03
  3.243845e+00    3.997943e-01   5.265633e-03
  3.246055e+00    4.215130e-01   5.406496e-03
  3.248266e+00    4.292842e-01   5.456306e-03
  3.250476e+00    4.242432e-01   5.423898e-03
  3.252687e+00    4.173174e-01   5.379339e-03
  3.254897e+00    4.424863e-01   5.539056e-03
  3.257107e+00    4.272975e-01   5.442873e-03
  3.259318e+00    4.172798e-01   5.378447e-03
  3.261528e+00    4.196282e-01   5.393413e-03
  3.263739e+00    4.249530e-01   5.426973e-03
  3.265949e+00    4.400197e-01   5.522222e-03
  3.268160e+00    4.219255e-01   5.407088e-03
  3.270370e+00    4.167018e-01   5.372987e-03
  3.272581e+00    4.185488e-01   5.384612e-03
  3.274791e+00    4.221314e-01   5.407083e-03
  3.277002e+00    4.214827e-01   5.402372e-03
  3.279212e+00    4.176560e-01   5.377413e-03
  3.281422e+00    4.188972e-01   5.384814e-03
  3.283633e+00    4.297348e-01   5.453335e-03
  3.285843e+00    4.364247e-01   5.495289e-03
  3.288054e+00    4.415124e-01   5.526275e-03
  3.290264e+00    4.244597e-01   5.418192e-03
  3.292475e+00    4.174972e-01   5.372731e-03
  3.294685e+00    4.237575e-01   5.412225e-03
  3.296896e+00    4.198102e-01   5.386223e-03
  3.299106e+00    4.140748e-01   5.348754e-03
  3.301317e+00    4.085923e-01   5.312204e-03
  3.303527e+00    4.288838e-01   5.442032e-03
  3.305737e+00    4.233040e-01   5.405496e-03
  3.307948e+00    4.230437e-01   5.403152e-03
  3.310158e+00    4.174711e-01   5.366603e-03
  3.312369e+00    4.255625e-01   5.417474e-03
  3.314579e+00    4.157627e-01   5.353836e-03
  3.316790e+00    4.141316e-01   5.342611e-03
  3.319000e+00    4.405583e-01   5.509241e-03
  3.321211e+00    4.217494e-01   5.389753e-03
  3.323421e+00    4.355789e-01   5.476169e-03
  3.325632e+00    4.189173e-01   5.369551e-03
  3.327842e+00    4.084837e-01   5.301340e-03
  3.330052e+00    4.193110e-01   5.370072e-03
  3.332263e+00    4.239995e-01   5.399009e-03
  3.334473e+00    4.171650e-01   5.354397e-03
  3.336684e+00    4.300939e-01   5.435457e-03
  3.338894e+00    4.317496e-01   5.445065e-03
  3.341105e+00    4.171699e-01   5.351135e-03
  3.343315e+00    4.137197e-01   5.327838e-03
  3.345526e+00    4.125176e-01   5.319179e-03
  3.347736e+00    4.231738e-01   5.386050e-03
  3.349947e+00    4.241087e-01   5.391046e-03
  3.352157e+00    4.262945e-01   5.403739e-03
  3.354368e+00    4.245207e-01   5.391207e-03
  3.356578e+00    4.097180e-01   5.295358e-03
  3.358788e+00    3.973897e-01   5.213784e-03
  3.360999e+00    4.185122e-01   5.349288e-03
  3.363209e+00    4.213497e-01   5.366395e-03
  3.365420e+00    4.186987e-01   5.347960e-03
  3.367630e+00    4.124183e-01   5.306698e-03
  3.369841e+00    4.075848e-01   5.274105e-03
  3.372051e+00    3.998562e-01   5.221911e-03
  3.374262e+00    4.115357e-01   5.295192e-03
  3.376472e+00    4.182988e-01   5.336097e-03
  3.378683e+00    4.120909e-01   5.293856e-03
  3.380893e+00    4.042586e-01   5.240993e-03
  3.383103e+00    4.114501e-01   5.284710e-03
  3.385314e+00    4.256068e-01   5.372613e-03
  3.387524e+00    4.207428e-01   5.339067e-03
  3.389735e+00    4.149871e-01   5.299802e-03
  3.391945e+00    4.060522e-01   5.238776e-03
  3.394156e+00    4.035746e-01   5.218610e-03
  3.396366e+00    4.020650e-01   5.205469e-03
  3.398577e+00    3.939347e-01   5.149586e-03
  3.400787e+00    4.000300e-01   5.201031e-03
  3.402998e+00    3.883331e-01   5.161478e-03
  3.405208e+00    3.934190e-01   5.215489e-03
  3.407418e+00    3.962902e-01   5.250210e-03
  3.409629e+00    3.864234e-01   5.198113e-03
  3.411839e+00    3.896348e-01   5.231330e-03
  3.414050e+00    3.906249e-01   5.248861e-03
  3.416260e+00    3.870847e-01   5.234567e-03
  3.418471e+00    3.865057e-01   5.239986e-03
  3.420681e+00    3.915587e-01   5.282626e-03
  3.422892e+00    3.920886e-01   5.294201e-03
  3.425102e+00    3.877267e-01   5.272474e-03
  3.427313e+00    3.856144e-01   5.265237e-03
  3.429523e+00    3.919465e-01   5.315404e-03
  3.431733e+00    3.932502e-01   5.330977e-03
  3.433944e+00    3.781356e-01   5.233965e-03
  3.436154e+00    3.799715e-01   5.252849e-03
  3.438365e+00    3.783084e-01   5.247245e-03
  3.440575e+00    3.654509e-01   5.163127e-03
  3.442786e+00    3.792486e-01   5.265280e-03
  3.444996e+00    3.710994e-01   5.213882e-03
  3.447207e+00    3.652718e-01   5.177990e-03
  3.449417e+00    3.709948e-01   5.259187e-03
  3.451628e+00    3.729926e-01   5.302924e-03
  3.453838e+00    3.706140e-01   5.307245e-03
  3.456049e+00    3.709644e-01   5.333786e-03
  3.458259e+00    3.743815e-01   5.380463e-03
  3.460469e+00    3.609223e-01   5.302527e-03
  3.462680e+00    3.371899e-01   5.143497e-03
  3.464890e+00    3.611080e-01   5.340429e-03
  3.467101e+00    3.773489e-01   5.476936e-03
  3.469311e+00    3.754530e-01   5.479810e-03
  3.471522e+00    3.823171e-01   5.546244e-03
  3.473732e+00    3.811915e-01   5.554070e-03
  3.475943e+00    3.886565e-01   5.624015e-03
  3.478153e+00    3.973595e-01   5.702249e-03
  3.480364e+00    4.120658e-01   5.822330e-03
  3.482574e+00    4.162672e-01   5.867505e-03
  3.484784e+00    4.047247e-01   5.800358e-03
  3.486995e+00    4.209435e-01   5.930612e-03
  3.489205e+00    4.399327e-01   6.077863e-03
  3.491416e+00    4.385981e-01   6.083760e-03
  3.493626e+00    4.273740e-01   6.019899e-03
  3.495837e+00    4.456740e-01   6.162218e-03
  3.498047e+00    4.560020e-01   6.247904e-03
  3.500258e+00    4.679345e-01   6.343976e-03
  3.502468e+00    4.648303e-01   6.337479e-03
  3.504679e+00    4.895322e-01   6.518629e-03
  3.506889e+00    4.633862e-01   6.356571e-03
  3.509099e+00    4.848900e-01   6.516926e-03
  3.511310e+00    4.853433e-01   6.534607e-03
  3.513520e+00    4.876061e-01   6.564308e-03
  3.515731e+00    4.871993e-01   6.575964e-03
  3.517941e+00    4.905262e-01   6.612749e-03
  3.520152e+00    5.048523e-01   6.723064e-03
  3.522362e+00    5.006356e-01   6.709436e-03
  3.524573e+00    5.116872e-01   6.797430e-03
  3.526783e+00    5.084131e-01   6.788987e-03
  3.528994e+00    5.082188e-01   6.799814e-03
  3.531204e+00    5.171511e-01   6.871721e-03
  3.533414e+00    5.260283e-01   6.942530e-03
  3.535625e+00    5.330238e-01   7.000969e-03
  3.537835e+00    5.275387e-01   6.976904e-03
  3.540046e+00    5.396187e-01   7.065302e-03
  3.542256e+00    5.454137e-01   7.110760e-03
  3.544467e+00    5.435289e-01   7.106128e-03
  3.546677e+00    5.210866e-01   6.965346e-03
  3.548888e+00    5.285506e-01   7.022496e-03
  3.551098e+00    5.344849e-01   7.069078e-03
  3.553309e+00    5.473486e-01   7.161896e-03
  3.555519e+00    5.442837e-01   7.153191e-03
  3.557729e+00    5.556474e-01   7.239433e-03
  3.559940e+00    5.284480e-01   7.071492e-03
  3.562150e+00    5.542862e-01   7.254193e-03
  3.564361e+00    5.529662e-01   7.259087e-03
  3.566571e+00    5.510690e-01   7.260660e-03
  3.568782e+00    5.445414e-01   7.231757e-03
  3.570992e+00    5.348442e-01   7.180816e-03
  3.573203e+00    5.262625e-01   7.136974e-03
  3.575413e+00    5.323250e-01   7.191701e-03
  3.577624e+00    5.336227e-01   7.214544e-03
  3.579834e+00    5.347629e-01   7.236132e-03
  3.582045e+00    5.526569e-01   7.370408e-03
  3.584255e+00    5.582374e-01   7.421914e-03
  3.586465e+00    5.660490e-01   7.487986e-03
  3.588676e+00    5.503804e-01   7.397973e-03
  3.590886e+00    5.523790e-01   7.425321e-03
  3.593097e+00    5.495582e-01   7.421040e-03
  3.595307e+00    5.299857e-01   7.301542e-03
  3.597518e+00    5.296223e-01   7.313168e-03
  3.599728e+00    5.375539e-01   7.381831e-03
  3.601939e+00    5.397417e-01   7.410967e-03
  3.604149e+00    5.384275e-01   7.416408e-03
  3.606360e+00    5.360644e-01   7.414232e-03
  3.608570e+00    5.470722e-01   7.504293e-03
  3.610780e+00    5.163620e-01   7.301532e-03
  3.612991e+00    5.257618e-01   7.377549e-03
  3.615201e+00    5.448340e-01   7.520094e-03
  3.617412e+00    5.356780e-01   7.463923e-03
  3.619622e+00    5.296135e-01   7.427455e-03
  3.621833e+00    5.376875e-01   7.490600e-03
  3.624043e+00    5.437379e-01   7.542224e-03
  3.626254e+00    5.515527e-01   7.606059e-03
  3.628464e+00    5.521272e-01   7.621224e-03
  3.630675e+00    5.424038e-01   7.568035e-03
  3.632885e+00    5.242522e-01   7.454637e-03
  3.635095e+00    5.276884e-01   7.493339e-03
  3.637306e+00    5.271528e-01   7.503813e-03
  3.639516e+00    5.377392e-01   7.593390e-03
  3.641727e+00    5.252442e-01   7.519089e-03
  3.643937e+00    5.284582e-01   7.556569e-03
  3.646148e+00    5.264360e-01   7.556589e-03
  3.648358e+00    5.269913e-01   7.575355e-03
  3.650569e+00    5.244572e-01   7.571751e-03
  3.652779e+00    5.263439e-01   7.600017e-03
  3.654990e+00    5.295557e-01   7.638028e-03
  3.657200e+00    5.411906e-01   7.736496e-03
  3.659410e+00    5.341254e-01   7.700845e-03
  3.661621e+00    5.123213e-01   7.556836e-03
  3.663831e+00    5.224671e-01   7.646262e-03
  3.666042e+00    5.338290e-01   7.744180e-03
  3.668252e+00    5.266948e-01   7.707391e-03
  3.670463e+00    5.399501e-01   7.819179e-03
  3.672673e+00    5.307179e-01   7.767440e-03
  3.674884e+00    5.306005e-01   7.781980e-03
  3.677094e+00    5.226958e-01   7.739216e-03
  3.679305e+00    5.269049e-01   7.785824e-03
  3.681515e+00    5.153856e-01   7.715612e-03
  3.683726e+00    5.106633e-01   7.695693e-03
  3.685936e+00    5.293529e-01   7.850992e-03
  3.688146e+00    5.329238e-01   7.893251e-03
  3.690357e+00    5.317306e-01   7.900462e-03
  3.692567e+00    5.178316e-01   7.812451e-03
  3.694778e+00    5.418738e-01   8.008056e-03
  3.696988e+00    5.253385e-01   7.900889e-03
  3.699199e+00    5.519711e-01   8.115354e-03
  3.701409e+00    5.371169e-01   8.021956e-03
  3.703620e+00    5.269094e-01   7.961730e-03
  3.705830e+00    5.114461e-01   7.860214e-03
  3.708041e+00    5.231810e-01   7.966448e-03
  3.710251e+00    5.154930e-01   7.924305e-03
  3.712461e+00    5.020993e-01   7.837073e-03
  3.714672e+00    5.148328e-01   7.952427e-03
  3.716882e+00    4.979401e-01   7.837277e-03
  3.719093e+00    5.196786e-01   8.023569e-03
  3.721303e+00    5.169654e-01   8.019561e-03
  3.723514e+00    5.258455e-01   8.105506e-03
  3.725724e+00    4.991879e-01   7.914220e-03
  3.727935e+00    5.144364e-01   8.051579e-03
  3.730145e+00    5.119592e-01   8.049406e-03
  3.732356e+00    5.171566e-01   8.107726e-03
  3.734566e+00    5.268890e-01   8.201393e-03
  3.736776e+00    5.192665e-01   8.159688e-03
  3.738987e+00    5.240109e-01   8.214786e-03
  3.741197e+00    5.196328e-01   8.198555e-03
  3.743408e+00    5.090657e-01   8.132673e-03
  3.745618e+00    5.142254e-01   8.192148e-03
  3.747829e+00    5.003445e-01   8.098753e-03
  3.750039e+00    5.217706e-01   8.288826e-03
  3.752250e+00    5.178187e-01   8.276007e-03
  3.754460e+00    5.160681e-01   8.280691e-03
  3.756671e+00    4.915937e-01   8.100356e-03
  3.758881e+00    5.202724e-01   8.352157e-03
  3.761091e+00    5.302697e-01   8.451598e-03
  3.763302e+00    4.918124e-01   8.158132e-03
  3.765512e+00    5.080366e-01   8.310819e-03
  3.767723e+00    5.170567e-01   8.403848e-03
  3.769933e+00    4.940342e-01   8.233723e-03
  3.772144e+00    5.075136e-01   8.364875e-03
  3.774354e+00    4.957673e-01   8.287149e-03
  3.776565e+00    4.925399e-01   8.279771e-03
  3.778775e+00    5.085391e-01   8.433139e-03
  3.780986e+00    5.177388e-01   8.529712e-03
  3.783196e+00    4.958669e-01   8.367687e-03
  3.785407e+00    5.011098e-01   8.432179e-03
  3.787617e+00    5.115581e-01   8.540575e-03
  3.789827e+00    4.940915e-01   8.413871e-03
  3.792038e+00    5.064319e-01   8.539208e-03
  3.794248e+00    5.015073e-01   8.518786e-03
  3.796459e+00    5.022131e-01   8.546114e-03
  3.798669e+00    5.029622e-01   8.573928e-03
  3.800880e+00    4.856032e-01   8.445819e-03
  3.803090e+00    4.919409e-01   8.522353e-03
  3.805301e+00    4.848778e-01   8.482711e-03
  3.807511e+00    5.275410e-01   8.870625e-03
  3.809722e+00    4.955628e-01   8.619724e-03
  3.811932e+00    5.019665e-01   8.697469e-03
  3.814142e+00    5.184335e-01   8.862332e-03
  3.816353e+00    5.073934e-01   8.790537e-03
  3.818563e+00    4.828788e-01   8.598253e-03
  3.820774e+00    5.000848e-01   8.773263e-03
  3.822984e+00    4.915662e-01   8.721484e-03
  3.825195e+00    4.984589e-01   8.806109e-03
  3.827405e+00    4.978444e-01   8.824615e-03
  3.829616e+00    4.994029e-01   8.862487e-03
  3.831826e+00    5.122673e-01   9.000443e-03
  3.834037e+00    5.191916e-01   9.086118e-03
  3.836247e+00    5.281121e-01   9.189327e-03
  3.838457e+00    4.962136e-01   8.932453e-03
  3.840668e+00    5.065176e-01   9.050190e-03
  3.842878e+00    5.213999e-01   9.208371e-03
  3.845089e+00    4.665260e-01   8.735159e-03
  3.847299e+00    5.021343e-01   9.088302e-03
  3.849510e+00    5.161117e-01   9.240340e-03
  3.851720e+00    5.074317e-01   9.183958e-03
  3.853931e+00    5.320063e-01   9.423447e-03
  3.856141e+00    5.060882e-01   9.210304e-03
  3.858352e+00    5.088428e-01   9.254850e-03
  3.860562e+00    4.871689e-01   9.074755e-03
  3.862772e+00    4.971290e-01   9.186687e-03
  3.864983e+00    4.711655e-01   8.962844e-03
  3.867193e+00    4.740059e-01   9.009124e-03
  3.869404e+00    5.014743e-01   9.286514e-03
  3.871614e+00    4.785116e-01   9.091069e-03
  3.873825e+00    5.012956e-01   9.325404e-03
  3.876035e+00    5.209681e-01   9.527881e-03
  3.878246e+00    5.119770e-01   9.471514e-03
  3.880456e+00    4.748853e-01   9.150499e-03
  3.882667e+00    4.894526e-01   9.318983e-03
  3.884877e+00    5.061719e-01   9.506990e-03
  3.887087e+00    4.966639e-01   9.447400e-03
  3.889298e+00    4.914473e-01   9.428009e-03
  3.891508e+00    4.953230e-01   9.495777e-03
  3.893719e+00    4.849883e-01   9.427008e-03
  3.895929e+00    4.730538e-01   9.341198e-03
  3.898140e+00    4.526860e-01   9.168284e-03
  3.900350e+00    4.875573e-01   9.546862e-03
  3.902561e+00    5.034180e-01   9.733739e-03
  3.904771e+00    4.979115e-01   9.713448e-03
  3.906982e+00    5.120183e-01   9.884004e-03
  3.909192e+00    4.886864e-01   9.689669e-03
  3.911403e+00    4.922862e-01   9.759421e-03
  3.913613e+00    4.872826e-01   9.743880e-03
  3.915823e+00    4.655827e-01   9.558461e-03
  3.918034e+00    4.650205e-01   9.587034e-03
  3.920244e+00    5.032522e-01   1.000962e-02
  3.922455e+00    4.798661e-01   9.810168e-03
  3.924665e+00    4.745824e-01   9.791813e-03
  3.926876e+00    4.885617e-01   9.972140e-03
  3.929086e+00    4.864928e-01   9.988376e-03
  3.931297e+00    4.912371e-01   1.007186e-02
  3.933507e+00    5.021959e-01   1.021294e-02
  3.935718e+00    4.921868e-01   1.013955e-02
  3.937928e+00    4.989272e-01   1.023856e-02
  3.940138e+00    4.914464e-01   1.019091e-02
  3.942349e+00    4.684768e-01   9.979313e-03
  3.944559e+00    4.688475e-01   1.001256e-02
  3.946770e+00    4.957634e-01   1.032645e-02
  3.948980e+00    4.797750e-01   1.018909e-02
  3.951191e+00    4.948078e-01   1.037858e-02
  3.953401e+00    4.935672e-01   1.039723e-02
  3.955612e+00    4.823419e-01   1.030972e-02
  3.957822e+00    5.040487e-01   1.057147e-02
  3.960033e+00    4.957470e-01   1.051701e-02
  3.962243e+00    4.744057e-01   1.032066e-02
  3.964453e+00    4.832623e-01   1.044950e-02
  3.966664e+00    4.688710e-01   1.032552e-02
  3.968874e+00    4.922988e-01   1.060896e-02
  3.971085e+00    5.003673e-01   1.071780e-02
  3.973295e+00    4.772125e-01   1.048824e-02
  3.975506e+00    4.823143e-01   1.056557e-02
  3.977716e+00    5.149192e-01   1.093962e-02
  3.979927e+00    4.609553e-01   1.037202e-02
  3.982137e+00    4.843257e-01   1.065395e-02
  3.984348e+00    5.088271e-01   1.094323e-02
  3.986558e+00    5.085349e-01   1.096295e-02
  3.988768e+00    4.662606e-01   1.052001e-02
  3.990979e+00    4.642820e-01   1.051983e-02
  3.993189e+00    5.222834e-01   1.118157e-02
  3.995400e+00    4.509152e-01   1.041235e-02
  3.997610e+00    4.632487e-01   1.058276e-02
  3.999821e+00    5.109209e-01   1.115247e-02
  4.002031e+00    5.231499e-01   1.132526e-02
  4.004242e+00    4.597252e-01   1.065388e-02
  4.006452e+00    4.897516e-01   1.103586e-02
  4.008663e+00    5.030660e-01   1.122573e-02
  4.010873e+00    4.536937e-01   1.069928e-02
  4.013084e+00    4.782709e-01   1.102587e-02
  4.015294e+00    4.927511e-01   1.123292e-02
  4.017504e+00    5.019102e-01   1.137942e-02
  4.019715e+00    4.891306e-01   1.127638e-02
  4.021925e+00    4.656170e-01   1.104415e-02
  4.024136e+00    4.595607e-01   1.101466e-02
  4.026346e+00    4.897113e-01   1.141461e-02
  4.028557e+00    4.575789e-01   1.107689e-02
  4.030767e+00    4.897779e-01   1.150585e-02
  4.032978e+00    4.794001e-01   1.142945e-02
  4.035188e+00    4.926114e-01   1.163250e-02
  4.037399e+00    5.041381e-01   1.181633e-02
  4.039609e+00    4.571093e-01   1.129822e-02
  4.041819e+00    4.461278e-01   1.120841e-02
  4.044030e+00    4.866242e-01   1.175617e-02
  4.046240e+00    4.694876e-01   1.159649e-02
  4.048451e+00    4.802671e-01   1.177963e-02
  4.050661e+00    4.565683e-01   1.153533e-02
  4.052872e+00    4.817520e-01   1.190200e-02
  4.055082e+00    4.725490e-01   1.184063e-02
  4.057293e+00    4.584685e-01   1.171522e-02
  4.059503e+00    4.966902e-01   1.224922e-02
  4.061714e+00    5.289398e-01   1.269989e-02
  4.063924e+00    4.828010e-01   1.219015e-02
  4.066134e+00    5.137196e-01   1.263357e-02
  4.068345e+00    5.107282e-01   1.265760e-02
  4.070555e+00    4.403268e-01   1.180953e-02
  4.072766e+00    5.066258e-01   1.272956e-02
  4.074976e+00    4.662270e-01   1.227267e-02
  4.077187e+00    4.686887e-01   1.236607e-02
  4.079397e+00    4.979795e-01   1.281161e-02
  4.081608e+00    4.855348e-01   1.271657e-02
  4.083818e+00    5.054469e-01   1.304191e-02
  4.086029e+00    4.661389e-01   1.259070e-02
  4.088239e+00    4.871083e-01   1.294009e-02
  4.090449e+00    5.042247e-01   1.323679e-02
  4.092660e+00    4.654691e-01   1.278802e-02
  4.094870e+00    4.679866e-01   1.289371e-02
  4.097081e+00    4.460559e-01   1.265701e-02
  4.099291e+00    4.812187e-01   1.320081e-02
  4.101502e+00    4.773671e-01   1.319697e-02
  4.103712e+00    4.659070e-01   1.308609e-02
  4.105923e+00    4.873219e-01   1.343533e-02
  4.108133e+00    4.600020e-01   1.310365e-02
  4.110344e+00    4.473858e-01   1.297217e-02
  4.112554e+00    4.792334e-01   1.347883e-02
  4.114764e+00    4.919838e-01   1.371194e-02
  4.116975e+00    4.903873e-01   1.374361e-02
  4.119185e+00    4.703584e-01   1.351465e-02
  4.121396e+00    4.689895e-01   1.355089e-02
  4.123606e+00    4.350227e-01   1.310431e-02
  4.125817e+00    4.674667e-01   1.364120e-02
  4.128027e+00    4.536862e-01   1.349521e-02
  4.130238e+00    4.624626e-01   1.368343e-02
  4.132448e+00    4.716623e-01   1.387900e-02
  4.134659e+00    4.822803e-01   1.409445e-02
  4.136869e+00    4.961248e-01   1.435942e-02
  4.139080e+00    4.644301e-01   1.395558e-02
  4.141290e+00    5.402606e-01   1.511866e-02
  4.143500e+00    5.198301e-01   1.489824e-02
  4.145711e+00    5.250286e-01   1.504277e-02
  4.147921e+00    4.780048e-01   1.441902e-02
  4.150132e+00    4.753894e-01   1.444829e-02
  4.152342e+00    5.055162e-01   1.497092e-02
  4.154553e+00    5.123527e-01   1.514383e-02
  4.156763e+00    4.924803e-01   1.492053e-02
  4.158974e+00    4.766997e-01   1.475339e-02
  4.161184e+00    4.630244e-01   1.461227e-02
  4.163395e+00    4.976701e-01   1.522637e-02
  4.165605e+00    4.960521e-01   1.528096e-02
  4.167815e+00    4.922496e-01   1.530153e-02
  4.170026e+00    4.859324e-01   1.528306e-02
  4.172236e+00    4.742884e-01   1.518056e-02
  4.174447e+00    4.570530e-01   1.498335e-02
  4.176657e+00    4.206406e-01   1.445267e-02
  4.178868e+00    4.865311e-01   1.563103e-02
  4.181078e+00    5.006234e-01   1.594544e-02
  4.183289e+00    4.884069e-01   1.583992e-02
  4.185499e+00    4.758308e-01   1.572677e-02
  4.187710e+00    4.614640e-01   1.557829e-02
  4.189920e+00    4.252179e-01   1.504402e-02
  4.192130e+00    4.803750e-01   1.608764e-02
  4.194341e+00    4.888481e-01   1.632860e-02
  4.196551e+00    5.029001e-01   1.666615e-02
  4.198762e+00    4.749627e-01   1.629992e-02
  4.200972e+00    5.132105e-01   1.705288e-02
  4.203183e+00    4.407464e-01   1.590734e-02
  4.205393e+00    5.255705e-01   1.748628e-02
  4.207604e+00    4.585654e-01   1.644542e-02
  4.209814e+00    4.715438e-01   1.679070e-02
  4.212025e+00    4.365261e-01   1.626968e-02
  4.214235e+00    4.779353e-01   1.714442e-02
  4.216445e+00    5.228281e-01   1.806142e-02
  4.218656e+00    4.219891e-01   1.634806e-02
  4.220866e+00    5.396804e-01   1.862453e-02
  4.223077e+00    4.976674e-01   1.802244e-02
  4.225287e+00    4.938546e-01   1.809457e-02
  4.227498e+00    4.623382e-01   1.764492e-02
  4.229708e+00    5.127415e-01   1.873293e-02
  4.231919e+00    5.372075e-01   1.933319e-02
  4.234129e+00    5.258720e-01   1.928882e-02
  4.236340e+00    4.727562e-01   1.844520e-02
  4.238550e+00    4.661713e-01   1.847798e-02
  4.240761e+00    4.903824e-01   1.911892e-02
  4.242971e+00    4.835016e-01   1.915856e-02
  4.245181e+00    4.872850e-01   1.941381e-02
  4.247392e+00    4.831973e-01   1.951272e-02
  4.249602e+00    5.262858e-01   2.056675e-02
  4.251813e+00    5.267395e-01   2.077848e-02
  4.254023e+00    4.387271e-01   1.915413e-02
  4.256234e+00    4.899604e-01   2.045785e-02
  4.258444e+00    5.000161e-01   2.088328e-02
  4.260655e+00    4.798642e-01   2.068282e-02
  4.262865e+00    4.879747e-01   2.109377e-02
  4.265076e+00    4.210485e-01   1.981671e-02
  4.267286e+00    4.512086e-01   2.075718e-02
  4.269496e+00    4.561019e-01   2.112445e-02
  4.271707e+00    4.593118e-01   2.146000e-02
  4.273917e+00    4.913681e-01   2.248324e-02
  4.276128e+00    4.725740e-01   2.234252e-02
  4.278338e+00    4.361664e-01   2.175078e-02
  4.280549e+00    5.124649e-01   2.391515e-02
  4.282759e+00    4.459434e-01   2.262921e-02
  4.284970e+00    4.909546e-01   2.409548e-02
  4.287180e+00    4.809510e-01   2.413444e-02
  4.289391e+00    4.836968e-01   2.438489e-02
  4.291601e+00    4.612705e-01   2.400362e-02
  4.293811e+00    5.137869e-01   2.553045e-02
  4.296022e+00    4.515409e-01   2.412690e-02
  4.298232e+00    4.592712e-01   2.453611e-02
  4.300443e+00    4.613942e-01   2.479559e-02
  4.302653e+00    4.146315e-01   2.370922e-02
  4.304864e+00    4.294988e-01   2.433967e-02
  4.307074e+00    4.111984e-01   2.402928e-02
  4.309285e+00    4.292319e-01   2.477320e-02
  4.311495e+00    4.463050e-01   2.549713e-02
  4.313706e+00    4.586720e-01   2.609203e-02
  4.315916e+00    3.686454e-01   2.362144e-02
  4.318126e+00    4.426797e-01   2.614057e-02
  4.320337e+00    4.492982e-01   2.660224e-02
  4.322547e+00    5.143970e-01   2.876586e-02
  4.324758e+00    5.209859e-01   2.925089e-02
  4.326968e+00    4.281600e-01   2.681542e-02
  4.329179e+00    4.621205e-01   2.816564e-02
  4.331389e+00    5.631178e-01   3.145033e-02
  4.333600e+00    4.689030e-01   2.904141e-02
  4.335810e+00    4.518619e-01   2.884785e-02
  4.338021e+00    4.848988e-01   3.026650e-02
  4.340231e+00    5.430755e-01   3.243304e-02
  4.342442e+00    3.949364e-01   2.802886e-02
  4.344652e+00    4.824226e-01   3.139902e-02
  4.346862e+00    3.342518e-01   2.650215e-02
  4.349073e+00    4.764018e-01   3.209886e-02
  4.351283e+00    4.858015e-01   3.289898e-02
  4.353494e+00    4.555884e-01   3.235121e-02
  4.355704e+00    4.669985e-01   3.328183e-02
  4.357915e+00    4.841226e-01   3.445096e-02
  4.360125e+00    4.224027e-01   3.272798e-02
  4.362336e+00    4.880735e-01   3.582281e-02
  4.364546e+00    4.877500e-01   3.646212e-02
  4.366757e+00    3.854345e-01   3.305858e-02
  4.368967e+00    5.597365e-01   4.063133e-02
  4.371177e+00    5.101445e-01   3.961481e-02
  4.373388e+00    5.826862e-01   4.328489e-02
  4.375598e+00    4.889486e-01   4.055659e-02
  4.377809e+00    4.325747e-01   3.911076e-02
  4.380019e+00    5.390242e-01   4.475735e-02
  4.382230e+00    3.958453e-01   3.942325e-02
  4.384440e+00    3.861413e-01   4.006072e-02
  4.386651e+00    4.815699e-01   4.611454e-02
  4.388861e+00    5.316129e-01   5.007625e-02
  4.391072e+00    6.563527e-01   5.760144e-02
  4.393282e+00    4.390880e-01   4.893300e-02
  4.395492e+00    3.975097e-01   4.849242e-02
  4.397703e+00    5.474595e-01   5.951090e-02
  4.399913e+00    4.681990e-01   5.781965e-02
  4.402124e+00    3.817091e-01   5.516363e-02
  4.404334e+00    5.604542e-01   7.105913e-02
  4.406545e+00    2.062976e-01   4.632375e-02
  4.408755e+00    4.046622e-01   7.034922e-02
  4.410966e+00    5.177597e-01   8.807766e-02
  4.413176e+00    3.549450e-01   8.255216e-02
  4.415387e+00   -4.840283e-01            nan
  4.417597e+00   -1.637827e+00            nan
  4.419807e+00    4.633816e-01   2.445061e-01
