# == pyFAI calibration ==
# Distance Sample to Detector: 0.216 m
# PONI: 1.166e-01, 1.308e-01 m
# Rotations: 0.000000 0.000000 0.000000 rad
# 
# == Fit2d calibration ==
# Distance Sample-beamCenter: 216.000 mm
# Center: x=1744.293, y=1555.000 pix
# Tilt: 0.000 deg  TiltPlanRot: 0.000 deg
# 
# Detector Eiger 9M	 PixelSize= 7.500e-05, 7.500e-05 m
#    Detector has a mask: True 
#    Detector has a dark current: False 
#    detector has a flat field: False 
# 
# Wavelength: 9.8e-11 m
# Mask applied: from detector
# Dark current applied: False
# Flat field applied: False
# Polarization factor: None
# Normalization factor: 1.0
# 
# Headers of the input frame:
# {
# "_array_data.header_convention": "SLS_1.0",
# "_array_data.header_contents": "# Detector: Dectris Eiger 9M, S/N E-18-0102\r\n# Pixel_size 75e-6 m x 75e-6 m\r\n# Silicon sensor, thickness 0.000450 m\r\n# Exposure_time 0.024997 s\r\n# Exposure_period 0.025000 s\r\n# Count_cutoff 62318 counts\r\n# Wavelength 0.980106 A\r\n# Detector_distance 0.215992 m\r\n# Beam_xy (1555, 1744) pixels\r\n# Start_angle 0.000000 deg.\r\n# Angle_increment 0.000000 deg.",
# "Content-Type": "application/octet-stream;",
# "conversions": "x-CBF_BYTE_OFFSET",
# "Content-Transfer-Encoding": "BINARY",
# "X-Binary-Size": "10166596",
# "X-Binary-ID": "1",
# "X-Binary-Element-Type": "signed 32-bit integer",
# "X-Binary-Element-Byte-Order": "LITTLE_ENDIAN",
# "Content-MD5": "Q8EMwk3ZffIYzCej4edpTQ==",
# "X-Binary-Number-of-Elements": "10166590",
# "X-Binary-Size-Fastest-Dimension": "3110",
# "X-Binary-Size-Second-Dimension": "3269",
# "X-Binary-Size-Padding": "4095"
# }
# --> H:/Proxima2a_2019-04-05/RAW_DATA/C5_gel17_position5/C5_mesh_1_data.cbf/C5_mesh_1_data.cbf000069.dat
#        q_A^-1              I           sigma 
  1.105228e-03    1.730793e+00   7.118845e-01
  3.315685e-03    1.671236e+00   4.252695e-01
  5.526141e-03    1.395873e+00   3.005351e-01
  7.736597e-03    1.127693e+00   2.282000e-01
  9.947054e-03    1.119582e+00   2.004493e-01
  1.215751e-02    1.293081e+00   1.947966e-01
  1.436797e-02    1.387559e+00   1.856101e-01
  1.657842e-02    1.335564e+00   1.695027e-01
  1.878888e-02    1.527738e+00   1.702896e-01
  2.099934e-02    1.204625e+00   1.430632e-01
  2.320979e-02    1.184695e+00   1.349386e-01
  2.542025e-02    1.514644e+00   1.458024e-01
  2.763070e-02    1.450110e+00   1.368330e-01
  2.984116e-02    1.254787e+00   1.224790e-01
  3.205162e-02    1.364910e+00   1.232645e-01
  3.426207e-02    1.555526e+00   1.272663e-01
  3.647253e-02    1.433166e+00   1.183963e-01
  3.868299e-02    1.368415e+00   1.123452e-01
  4.089344e-02    1.429131e+00   1.116649e-01
  4.310390e-02    1.429538e+00   1.087732e-01
  4.531436e-02    1.524525e+00   1.095552e-01
  4.752481e-02    1.518395e+00   1.067607e-01
  4.973527e-02    1.535388e+00   1.049448e-01
  5.194572e-02    1.489764e+00   1.011490e-01
  5.415618e-02    1.528335e+00   1.003340e-01
  5.636664e-02    1.358663e+00   9.273019e-02
  5.857709e-02    1.430323e+00   9.333222e-02
  6.078755e-02    1.500861e+00   9.384854e-02
  6.299801e-02    1.463461e+00   9.103052e-02
  6.520846e-02    1.379556e+00   8.687210e-02
  6.741892e-02    1.403474e+00   8.616918e-02
  6.962938e-02    1.449128e+00   8.616280e-02
  7.183983e-02    1.468139e+00   8.537989e-02
  7.405029e-02    1.461614e+00   8.390690e-02
  7.626074e-02    1.382872e+00   8.042320e-02
  7.847120e-02    1.453528e+00   8.128037e-02
  8.068166e-02    1.435315e+00   7.965479e-02
  8.289211e-02    1.473457e+00   7.962244e-02
  8.510257e-02    1.549867e+00   8.059286e-02
  8.731303e-02    1.492657e+00   7.808092e-02
  8.952348e-02    1.432159e+00   7.553411e-02
  9.173394e-02    1.505265e+00   7.649629e-02
  9.394439e-02    1.532135e+00   7.626019e-02
  9.615485e-02    1.468795e+00   7.380237e-02
  9.836531e-02    1.418467e+00   7.170542e-02
  1.005758e-01    1.501052e+00   7.294863e-02
  1.027862e-01    1.583104e+00   7.410417e-02
  1.049967e-01    1.646898e+00   7.478134e-02
  1.072071e-01    1.582338e+00   7.254048e-02
  1.094176e-01    1.536782e+00   7.076174e-02
  1.116280e-01    1.596582e+00   7.140609e-02
  1.138385e-01    1.526373e+00   6.913590e-02
  1.160490e-01    1.588873e+00   6.986128e-02
  1.182594e-01    1.560637e+00   6.858616e-02
  1.204699e-01    1.469113e+00   6.593078e-02
  1.226803e-01    1.472681e+00   6.541069e-02
  1.248908e-01    1.579476e+00   6.713794e-02
  1.271012e-01    1.557366e+00   6.608284e-02
  1.293117e-01    1.503407e+00   6.436979e-02
  1.315222e-01    1.641766e+00   6.669736e-02
  1.337326e-01    1.655262e+00   6.641392e-02
  1.359431e-01    1.506484e+00   6.339605e-02
  1.381535e-01    1.523046e+00   6.459917e-02
  1.403640e-01    1.579735e+00   6.607449e-02
  1.425744e-01    1.588494e+00   6.636326e-02
  1.447849e-01    1.578937e+00   6.617857e-02
  1.469953e-01    1.515092e+00   6.478620e-02
  1.492058e-01    1.504818e+00   6.449111e-02
  1.514163e-01    1.513024e+00   6.455933e-02
  1.536267e-01    1.466331e+00   6.343126e-02
  1.558372e-01    1.551115e+00   6.509526e-02
  1.580476e-01    1.562482e+00   6.517483e-02
  1.602581e-01    1.585329e+00   6.548285e-02
  1.624685e-01    1.659880e+00   6.682142e-02
  1.646790e-01    1.552896e+00   6.444656e-02
  1.668895e-01    1.634617e+00   6.592958e-02
  1.690999e-01    1.737367e+00   6.776602e-02
  1.713104e-01    1.655441e+00   6.594371e-02
  1.735208e-01    1.746621e+00   6.752478e-02
  1.757313e-01    1.751184e+00   6.740103e-02
  1.779417e-01    1.788249e+00   6.788844e-02
  1.801522e-01    1.830349e+00   6.846417e-02
  1.823626e-01    1.907127e+00   6.965271e-02
  1.845731e-01    1.944877e+00   7.011084e-02
  1.867836e-01    1.972061e+00   7.036088e-02
  1.889940e-01    1.941953e+00   6.959354e-02
  1.912045e-01    1.938777e+00   6.930441e-02
  1.934149e-01    1.898849e+00   6.835750e-02
  1.956254e-01    1.944701e+00   6.894972e-02
  1.978358e-01    1.953619e+00   6.887084e-02
  2.000463e-01    1.917009e+00   6.799638e-02
  2.022568e-01    1.994358e+00   6.912696e-02
  2.044672e-01    1.983155e+00   6.869641e-02
  2.066777e-01    1.894071e+00   6.691290e-02
  2.088881e-01    1.877576e+00   6.640293e-02
  2.110986e-01    1.944226e+00   6.733952e-02
  2.133090e-01    1.975601e+00   6.766004e-02
  2.155195e-01    2.047245e+00   6.864744e-02
  2.177300e-01    2.001099e+00   6.733620e-02
  2.199404e-01    1.909665e+00   6.404657e-02
  2.221509e-01    1.946839e+00   6.360505e-02
  2.243613e-01    1.945455e+00   6.277641e-02
  2.265718e-01    2.056134e+00   6.382605e-02
  2.287822e-01    2.044102e+00   6.300916e-02
  2.309927e-01    2.110540e+00   6.344167e-02
  2.332031e-01    2.172648e+00   6.381746e-02
  2.354136e-01    2.211188e+00   6.385919e-02
  2.376241e-01    2.121434e+00   6.206423e-02
  2.398345e-01    2.178118e+00   6.242249e-02
  2.420450e-01    2.186001e+00   6.208845e-02
  2.442554e-01    2.121299e+00   6.074131e-02
  2.464659e-01    2.185932e+00   6.124575e-02
  2.486763e-01    2.085645e+00   5.943111e-02
  2.508868e-01    2.068980e+00   5.881975e-02
  2.530973e-01    2.170662e+00   5.987430e-02
  2.553077e-01    2.108446e+00   5.865203e-02
  2.575182e-01    2.151733e+00   5.890048e-02
  2.597286e-01    2.033841e+00   5.693134e-02
  2.619391e-01    1.994901e+00   5.605907e-02
  2.641495e-01    2.057375e+00   5.661501e-02
  2.663600e-01    2.099989e+00   5.688380e-02
  2.685704e-01    1.975188e+00   5.486859e-02
  2.707809e-01    1.955548e+00   5.430531e-02
  2.729914e-01    1.990582e+00   5.450408e-02
  2.752018e-01    1.992019e+00   5.423994e-02
  2.774123e-01    2.029114e+00   5.446301e-02
  2.796227e-01    2.024319e+00   5.412954e-02
  2.818332e-01    2.051893e+00   5.422510e-02
  2.840436e-01    1.977966e+00   5.298124e-02
  2.862541e-01    1.958391e+00   5.246500e-02
  2.884646e-01    1.998362e+00   5.274617e-02
  2.906750e-01    2.027061e+00   5.287170e-02
  2.928855e-01    1.923689e+00   5.126730e-02
  2.950959e-01    1.888033e+00   5.055663e-02
  2.973064e-01    1.922372e+00   5.078502e-02
  2.995168e-01    1.974485e+00   5.123569e-02
  3.017273e-01    1.956120e+00   5.077201e-02
  3.039377e-01    1.932484e+00   5.024337e-02
  3.061482e-01    1.916211e+00   4.981495e-02
  3.083587e-01    1.892205e+00   4.928765e-02
  3.105691e-01    1.956730e+00   4.990689e-02
  3.127796e-01    1.967524e+00   4.983397e-02
  3.149900e-01    1.850906e+00   4.813317e-02
  3.172005e-01    1.903522e+00   4.861290e-02
  3.194109e-01    1.951117e+00   4.901371e-02
  3.216214e-01    1.886588e+00   4.799976e-02
  3.238319e-01    1.884287e+00   4.778038e-02
  3.260423e-01    1.903301e+00   4.782960e-02
  3.282528e-01    1.860973e+00   4.710648e-02
  3.304632e-01    1.903678e+00   4.745934e-02
  3.326737e-01    1.872444e+00   4.688474e-02
  3.348841e-01    1.908926e+00   4.715572e-02
  3.370946e-01    1.868074e+00   4.647289e-02
  3.393050e-01    1.870038e+00   4.632119e-02
  3.415155e-01    1.830402e+00   4.565533e-02
  3.437260e-01    1.791115e+00   4.499534e-02
  3.459364e-01    1.829074e+00   4.530142e-02
  3.481469e-01    1.835994e+00   4.522136e-02
  3.503573e-01    1.819019e+00   4.484787e-02
  3.525678e-01    1.830048e+00   4.482331e-02
  3.547782e-01    1.795220e+00   4.423426e-02
  3.569887e-01    1.835599e+00   4.457050e-02
  3.591992e-01    1.794032e+00   4.390704e-02
  3.614096e-01    1.793591e+00   4.374944e-02
  3.636201e-01    1.755215e+00   4.312677e-02
  3.658305e-01    1.704857e+00   4.235863e-02
  3.680410e-01    1.779064e+00   4.312184e-02
  3.702514e-01    1.843351e+00   4.374644e-02
  3.724619e-01    1.757076e+00   4.256500e-02
  3.746724e-01    1.768481e+00   4.256042e-02
  3.768828e-01    1.735046e+00   4.201435e-02
  3.790933e-01    1.785723e+00   4.248457e-02
  3.813037e-01    1.782487e+00   4.230722e-02
  3.835142e-01    1.751155e+00   4.179601e-02
  3.857246e-01    1.707094e+00   4.113330e-02
  3.879351e-01    1.752941e+00   4.154704e-02
  3.901455e-01    1.850226e+00   4.254850e-02
  3.923560e-01    1.834126e+00   4.222834e-02
  3.945665e-01    1.785964e+00   4.153807e-02
  3.967769e-01    1.794707e+00   4.150922e-02
  3.989874e-01    1.746794e+00   4.082352e-02
  4.011978e-01    1.770164e+00   4.096930e-02
  4.034083e-01    1.781829e+00   4.097789e-02
  4.056187e-01    1.801555e+00   4.107716e-02
  4.078292e-01    1.793851e+00   4.086519e-02
  4.100397e-01    1.746087e+00   4.019439e-02
  4.122501e-01    1.739380e+00   3.999707e-02
  4.144606e-01    1.805923e+00   4.063413e-02
  4.166710e-01    1.794246e+00   4.038211e-02
  4.188815e-01    1.791198e+00   4.022863e-02
  4.210919e-01    1.813110e+00   4.035531e-02
  4.233024e-01    1.851109e+00   4.065605e-02
  4.255128e-01    1.821748e+00   4.021578e-02
  4.277233e-01    1.763072e+00   3.944914e-02
  4.299338e-01    1.774961e+00   3.946804e-02
  4.321442e-01    1.798033e+00   3.961004e-02
  4.343547e-01    1.850124e+00   4.006612e-02
  4.365651e-01    1.795233e+00   3.935516e-02
  4.387756e-01    1.771371e+00   3.898326e-02
  4.409860e-01    1.759132e+00   3.874072e-02
  4.431965e-01    1.740585e+00   3.842941e-02
  4.454070e-01    1.740514e+00   3.832170e-02
  4.476174e-01    1.708186e+00   3.785992e-02
  4.498279e-01    1.705773e+00   3.773022e-02
  4.520383e-01    1.729827e+00   3.789104e-02
  4.542488e-01    1.764446e+00   3.816513e-02
  4.564592e-01    1.758838e+00   3.800222e-02
  4.586697e-01    1.740123e+00   3.769917e-02
  4.608801e-01    1.697101e+00   3.713050e-02
  4.630906e-01    1.724095e+00   3.732552e-02
  4.653011e-01    1.716871e+00   3.714931e-02
  4.675115e-01    1.693074e+00   3.679378e-02
  4.697220e-01    1.728848e+00   3.708313e-02
  4.719324e-01    1.705276e+00   3.673419e-02
  4.741429e-01    1.733464e+00   3.694112e-02
  4.763533e-01    1.720459e+00   3.670794e-02
  4.785638e-01    1.742760e+00   3.684964e-02
  4.807743e-01    1.741069e+00   3.673810e-02
  4.829847e-01    1.706215e+00   3.627664e-02
  4.851952e-01    1.699210e+00   3.611048e-02
  4.874056e-01    1.661994e+00   3.562281e-02
  4.896161e-01    1.688464e+00   3.581630e-02
  4.918265e-01    1.724273e+00   3.610424e-02
  4.940370e-01    1.717768e+00   3.594710e-02
  4.962475e-01    1.654135e+00   3.518790e-02
  4.984579e-01    1.665695e+00   3.522360e-02
  5.006684e-01    1.676787e+00   3.525453e-02
  5.028788e-01    1.645497e+00   3.483942e-02
  5.050893e-01    1.676370e+00   3.507920e-02
  5.072997e-01    1.693694e+00   3.517484e-02
  5.095102e-01    1.690129e+00   3.505364e-02
  5.117206e-01    1.719691e+00   3.527479e-02
  5.139311e-01    1.704820e+00   3.503883e-02
  5.161416e-01    1.693411e+00   3.483887e-02
  5.183520e-01    1.675110e+00   3.456775e-02
  5.205625e-01    1.649093e+00   3.421791e-02
  5.227729e-01    1.651839e+00   3.416650e-02
  5.249834e-01    1.706662e+00   3.464823e-02
  5.271938e-01    1.681129e+00   3.430784e-02
  5.294043e-01    1.693750e+00   3.435690e-02
  5.316148e-01    1.780930e+00   3.514932e-02
  5.338252e-01    1.761777e+00   3.487993e-02
  5.360357e-01    1.729789e+00   3.448313e-02
  5.382461e-01    1.764454e+00   3.474820e-02
  5.404566e-01    1.786367e+00   3.488376e-02
  5.426670e-01    1.745403e+00   3.440376e-02
  5.448775e-01    1.743152e+00   3.430478e-02
  5.470879e-01    1.701779e+00   3.381963e-02
  5.492984e-01    1.695131e+00   3.367843e-02
  5.515089e-01    1.747985e+00   3.412360e-02
  5.537193e-01    1.758310e+00   3.414886e-02
  5.559298e-01    1.775556e+00   3.424063e-02
  5.581402e-01    1.729274e+00   3.371761e-02
  5.603507e-01    1.732581e+00   3.367636e-02
  5.625611e-01    1.778755e+00   3.404810e-02
  5.647716e-01    1.854562e+00   3.469058e-02
  5.669821e-01    1.795705e+00   3.406211e-02
  5.691925e-01    1.776271e+00   3.380455e-02
  5.714030e-01    1.725687e+00   3.324872e-02
  5.736134e-01    1.712611e+00   3.305202e-02
  5.758239e-01    1.750934e+00   3.334847e-02
  5.780343e-01    1.732579e+00   3.310304e-02
  5.802448e-01    1.653479e+00   3.227088e-02
  5.824552e-01    1.625798e+00   3.193246e-02
  5.846657e-01    1.671906e+00   3.231458e-02
  5.868762e-01    1.644238e+00   3.197939e-02
  5.890866e-01    1.635295e+00   3.182612e-02
  5.912971e-01    1.600496e+00   3.142050e-02
  5.935075e-01    1.578107e+00   3.113546e-02
  5.957180e-01    1.642434e+00   3.169852e-02
  5.979284e-01    1.644031e+00   3.164920e-02
  6.001389e-01    1.614508e+00   3.129986e-02
  6.023494e-01    1.611928e+00   3.121135e-02
  6.045598e-01    1.634656e+00   3.136662e-02
  6.067703e-01    1.636157e+00   3.131792e-02
  6.089807e-01    1.667111e+00   3.154921e-02
  6.111912e-01    1.698637e+00   3.178253e-02
  6.134016e-01    1.691980e+00   3.165694e-02
  6.156121e-01    1.635176e+00   3.105914e-02
  6.178226e-01    1.645668e+00   3.109693e-02
  6.200330e-01    1.663492e+00   3.120321e-02
  6.222435e-01    1.686306e+00   3.135420e-02
  6.244539e-01    1.710108e+00   3.151290e-02
  6.266644e-01    1.681682e+00   3.118892e-02
  6.288748e-01    1.728873e+00   3.156196e-02
  6.310853e-01    1.723708e+00   3.145360e-02
  6.332957e-01    1.680939e+00   3.100096e-02
  6.355062e-01    1.674014e+00   3.087692e-02
  6.377167e-01    1.722804e+00   3.126356e-02
  6.399271e-01    1.684012e+00   3.085035e-02
  6.421376e-01    1.692887e+00   3.087249e-02
  6.443480e-01    1.691873e+00   3.080454e-02
  6.465585e-01    1.669841e+00   3.054533e-02
  6.487689e-01    1.670535e+00   3.049400e-02
  6.509794e-01    1.673046e+00   3.045933e-02
  6.531899e-01    1.676763e+00   3.043583e-02
  6.554003e-01    1.593725e+00   2.961684e-02
  6.576108e-01    1.571868e+00   2.935827e-02
  6.598212e-01    1.609382e+00   2.965133e-02
  6.620317e-01    1.616868e+00   2.966513e-02
  6.642421e-01    1.609616e+00   2.954378e-02
  6.664526e-01    1.548529e+00   2.892435e-02
  6.686630e-01    1.586130e+00   2.921928e-02
  6.708735e-01    1.605680e+00   2.934488e-02
  6.730840e-01    1.581923e+00   2.907388e-02
  6.752944e-01    1.581324e+00   2.901550e-02
  6.775049e-01    1.624678e+00   2.935717e-02
  6.797153e-01    1.623638e+00   2.929462e-02
  6.819258e-01    1.601710e+00   2.904367e-02
  6.841362e-01    1.630852e+00   2.925398e-02
  6.863467e-01    1.603152e+00   2.895254e-02
  6.885572e-01    1.606254e+00   2.892859e-02
  6.907676e-01    1.589009e+00   2.872133e-02
  6.929781e-01    1.584684e+00   2.863124e-02
  6.951885e-01    1.600970e+00   2.872701e-02
  6.973990e-01    1.592131e+00   2.859695e-02
  6.996094e-01    1.622171e+00   2.881469e-02
  7.018199e-01    1.599473e+00   2.856218e-02
  7.040303e-01    1.566776e+00   2.821906e-02
  7.062408e-01    1.574990e+00   2.824339e-02
  7.084513e-01    1.566163e+00   2.811513e-02
  7.106617e-01    1.603159e+00   2.839583e-02
  7.128722e-01    1.616260e+00   2.846230e-02
  7.150826e-01    1.585892e+00   2.814505e-02
  7.172931e-01    1.581446e+00   2.805712e-02
  7.195035e-01    1.545029e+00   2.768451e-02
  7.217140e-01    1.566799e+00   2.792820e-02
  7.239245e-01    1.572510e+00   2.820563e-02
  7.261349e-01    1.608482e+00   2.863620e-02
  7.283454e-01    1.538446e+00   2.807739e-02
  7.305558e-01    1.556495e+00   2.829529e-02
  7.327663e-01    1.574829e+00   2.850394e-02
  7.349767e-01    1.581550e+00   2.858112e-02
  7.371872e-01    1.599203e+00   2.872892e-02
  7.393976e-01    1.596028e+00   2.868603e-02
  7.416081e-01    1.564447e+00   2.838468e-02
  7.438186e-01    1.590450e+00   2.847455e-02
  7.460290e-01    1.567055e+00   2.797084e-02
  7.482395e-01    1.543580e+00   2.759106e-02
  7.504499e-01    1.540106e+00   2.742523e-02
  7.526604e-01    1.542517e+00   2.733132e-02
  7.548708e-01    1.534668e+00   2.717343e-02
  7.570813e-01    1.508579e+00   2.689158e-02
  7.592918e-01    1.511335e+00   2.688165e-02
  7.615022e-01    1.558409e+00   2.726347e-02
  7.637127e-01    1.552681e+00   2.718078e-02
  7.659231e-01    1.579126e+00   2.737921e-02
  7.681336e-01    1.567820e+00   2.724950e-02
  7.703440e-01    1.562499e+00   2.717211e-02
  7.725545e-01    1.549926e+00   2.703193e-02
  7.747650e-01    1.602511e+00   2.744812e-02
  7.769754e-01    1.596214e+00   2.734111e-02
  7.791859e-01    1.567204e+00   2.703817e-02
  7.813963e-01    1.619446e+00   2.743184e-02
  7.836068e-01    1.651378e+00   2.764790e-02
  7.858172e-01    1.664400e+00   2.770480e-02
  7.880277e-01    1.653309e+00   2.755982e-02
  7.902381e-01    1.653356e+00   2.751014e-02
  7.924486e-01    1.624380e+00   2.721750e-02
  7.946591e-01    1.636269e+00   2.726807e-02
  7.968695e-01    1.645215e+00   2.729360e-02
  7.990800e-01    1.642055e+00   2.721866e-02
  8.012904e-01    1.596706e+00   2.679374e-02
  8.035009e-01    1.637799e+00   2.708803e-02
  8.057113e-01    1.658165e+00   2.720882e-02
  8.079218e-01    1.644312e+00   2.704816e-02
  8.101323e-01    1.620790e+00   2.680840e-02
  8.123427e-01    1.622273e+00   2.677494e-02
  8.145532e-01    1.615854e+00   2.667619e-02
  8.167636e-01    1.627055e+00   2.672348e-02
  8.189741e-01    1.622538e+00   2.664188e-02
  8.211845e-01    1.635012e+00   2.669925e-02
  8.233950e-01    1.653730e+00   2.680800e-02
  8.256054e-01    1.643664e+00   2.668199e-02
  8.278159e-01    1.614053e+00   2.639691e-02
  8.300264e-01    1.641294e+00   2.657559e-02
  8.322368e-01    1.678163e+00   2.682879e-02
  8.344473e-01    1.629941e+00   2.639729e-02
  8.366577e-01    1.608219e+00   2.617859e-02
  8.388682e-01    1.616736e+00   2.620587e-02
  8.410786e-01    1.627948e+00   2.625467e-02
  8.432891e-01    1.630130e+00   2.623052e-02
  8.454996e-01    1.664875e+00   2.646664e-02
  8.477100e-01    1.661186e+00   2.639535e-02
  8.499205e-01    1.635600e+00   2.615016e-02
  8.521309e-01    1.596852e+00   2.579826e-02
  8.543414e-01    1.601909e+00   2.579874e-02
  8.565518e-01    1.632247e+00   2.600136e-02
  8.587623e-01    1.626586e+00   2.591583e-02
  8.609727e-01    1.607311e+00   2.572186e-02
  8.631832e-01    1.638079e+00   2.592685e-02
  8.653937e-01    1.625221e+00   2.578521e-02
  8.676041e-01    1.614629e+00   2.566228e-02
  8.698146e-01    1.601265e+00   2.551679e-02
  8.720250e-01    1.598965e+00   2.545959e-02
  8.742355e-01    1.572896e+00   2.521276e-02
  8.764459e-01    1.585879e+00   2.527799e-02
  8.786564e-01    1.570795e+00   2.511998e-02
  8.808669e-01    1.604016e+00   2.534572e-02
  8.830773e-01    1.593317e+00   2.522304e-02
  8.852878e-01    1.584898e+00   2.511859e-02
  8.874982e-01    1.569476e+00   2.495981e-02
  8.897087e-01    1.558675e+00   2.483659e-02
  8.919191e-01    1.602184e+00   2.514306e-02
  8.941296e-01    1.584246e+00   2.496485e-02
  8.963401e-01    1.574282e+00   2.485006e-02
  8.985505e-01    1.561159e+00   2.470978e-02
  9.007610e-01    1.564990e+00   2.470372e-02
  9.029714e-01    1.564074e+00   2.466106e-02
  9.051819e-01    1.594301e+00   2.486106e-02
  9.073923e-01    1.618888e+00   2.501524e-02
  9.096028e-01    1.599123e+00   2.482717e-02
  9.118132e-01    1.617876e+00   2.493589e-02
  9.140237e-01    1.602838e+00   2.478308e-02
  9.162342e-01    1.617536e+00   2.486170e-02
  9.184446e-01    1.587457e+00   2.459385e-02
  9.206551e-01    1.571735e+00   2.443647e-02
  9.228655e-01    1.582685e+00   2.448641e-02
  9.250760e-01    1.581718e+00   2.444378e-02
  9.272864e-01    1.594865e+00   2.451099e-02
  9.294969e-01    1.605660e+00   2.455796e-02
  9.317074e-01    1.619374e+00   2.462775e-02
  9.339178e-01    1.633924e+00   2.470437e-02
  9.361283e-01    1.649705e+00   2.478678e-02
  9.383387e-01    1.661466e+00   2.484115e-02
  9.405492e-01    1.629572e+00   2.456722e-02
  9.427596e-01    1.608851e+00   2.437537e-02
  9.449701e-01    1.665391e+00   2.476627e-02
  9.471805e-01    1.660866e+00   2.469762e-02
  9.493910e-01    1.661626e+00   2.466932e-02
  9.516015e-01    1.712148e+00   2.500662e-02
  9.538119e-01    1.675849e+00   2.470621e-02
  9.560224e-01    1.696064e+00   2.481978e-02
  9.582328e-01    1.701106e+00   2.482330e-02
  9.604433e-01    1.728330e+00   2.498571e-02
  9.626537e-01    1.757112e+00   2.515902e-02
  9.648642e-01    1.756346e+00   2.511909e-02
  9.670747e-01    1.791198e+00   2.533211e-02
  9.692851e-01    1.810401e+00   2.543369e-02
  9.714956e-01    1.792087e+00   2.526905e-02
  9.737060e-01    1.842072e+00   2.558534e-02
  9.759165e-01    1.873380e+00   2.576549e-02
  9.781269e-01    1.883124e+00   2.579861e-02
  9.803374e-01    1.863196e+00   2.562626e-02
  9.825478e-01    1.830859e+00   2.536939e-02
  9.847583e-01    1.801229e+00   2.512909e-02
  9.869688e-01    1.805766e+00   2.512705e-02
  9.891792e-01    1.788498e+00   2.497338e-02
  9.913897e-01    1.800629e+00   2.502412e-02
  9.936001e-01    1.761077e+00   2.471537e-02
  9.958106e-01    1.719960e+00   2.439194e-02
  9.980210e-01    1.690324e+00   2.414950e-02
  1.000231e+00    1.681784e+00   2.422036e-02
  1.002442e+00    1.722295e+00   2.464058e-02
  1.004652e+00    1.696663e+00   2.452477e-02
  1.006863e+00    1.630955e+00   2.409508e-02
  1.009073e+00    1.635051e+00   2.416222e-02
  1.011284e+00    1.644176e+00   2.426196e-02
  1.013494e+00    1.660569e+00   2.440678e-02
  1.015705e+00    1.680298e+00   2.457453e-02
  1.017915e+00    1.704759e+00   2.476985e-02
  1.020126e+00    1.662237e+00   2.447549e-02
  1.022336e+00    1.657143e+00   2.445002e-02
  1.024547e+00    1.607632e+00   2.409340e-02
  1.026757e+00    1.646668e+00   2.439279e-02
  1.028967e+00    1.599825e+00   2.405118e-02
  1.031178e+00    1.559281e+00   2.375066e-02
  1.033388e+00    1.544714e+00   2.364453e-02
  1.035599e+00    1.542602e+00   2.363180e-02
  1.037809e+00    1.540769e+00   2.362104e-02
  1.040020e+00    1.549458e+00   2.368882e-02
  1.042230e+00    1.572631e+00   2.386727e-02
  1.044441e+00    1.572633e+00   2.386708e-02
  1.046651e+00    1.587684e+00   2.398119e-02
  1.048862e+00    1.608922e+00   2.414022e-02
  1.051072e+00    1.592763e+00   2.401629e-02
  1.053282e+00    1.522785e+00   2.348183e-02
  1.055493e+00    1.509096e+00   2.337170e-02
  1.057703e+00    1.501763e+00   2.331334e-02
  1.059914e+00    1.485494e+00   2.318246e-02
  1.062124e+00    1.469458e+00   2.305295e-02
  1.064335e+00    1.521983e+00   2.345785e-02
  1.066545e+00    1.500669e+00   2.328702e-02
  1.068756e+00    1.448381e+00   2.287402e-02
  1.070966e+00    1.443788e+00   2.283125e-02
  1.073177e+00    1.443532e+00   2.282324e-02
  1.075387e+00    1.418928e+00   2.262275e-02
  1.077597e+00    1.436244e+00   2.275320e-02
  1.079808e+00    1.433550e+00   2.260052e-02
  1.082018e+00    1.411146e+00   2.223752e-02
  1.084229e+00    1.402334e+00   2.206013e-02
  1.086439e+00    1.465236e+00   2.246172e-02
  1.088650e+00    1.434704e+00   2.215133e-02
  1.090860e+00    1.432160e+00   2.206457e-02
  1.093071e+00    1.406950e+00   2.180826e-02
  1.095281e+00    1.428041e+00   2.191422e-02
  1.097492e+00    1.432794e+00   2.189598e-02
  1.099702e+00    1.416235e+00   2.171814e-02
  1.101912e+00    1.396641e+00   2.151925e-02
  1.104123e+00    1.393586e+00   2.144820e-02
  1.106333e+00    1.403243e+00   2.147842e-02
  1.108544e+00    1.400532e+00   2.141386e-02
  1.110754e+00    1.379840e+00   2.121278e-02
  1.112965e+00    1.404643e+00   2.136228e-02
  1.115175e+00    1.392700e+00   2.123051e-02
  1.117386e+00    1.420878e+00   2.140485e-02
  1.119596e+00    1.411785e+00   2.129840e-02
  1.121807e+00    1.398143e+00   2.115659e-02
  1.124017e+00    1.394770e+00   2.109455e-02
  1.126228e+00    1.389901e+00   2.102215e-02
  1.128438e+00    1.388898e+00   2.097794e-02
  1.130648e+00    1.383170e+00   2.090053e-02
  1.132859e+00    1.379598e+00   2.083936e-02
  1.135069e+00    1.396792e+00   2.093405e-02
  1.137280e+00    1.377222e+00   2.075403e-02
  1.139490e+00    1.395234e+00   2.085614e-02
  1.141701e+00    1.381052e+00   2.071682e-02
  1.143911e+00    1.376463e+00   2.065058e-02
  1.146122e+00    1.339792e+00   2.034211e-02
  1.148332e+00    1.354748e+00   2.042373e-02
  1.150543e+00    1.351248e+00   2.036681e-02
  1.152753e+00    1.353992e+00   2.035687e-02
  1.154963e+00    1.360022e+00   2.037127e-02
  1.157174e+00    1.354212e+00   2.029775e-02
  1.159384e+00    1.364045e+00   2.034157e-02
  1.161595e+00    1.336133e+00   2.010289e-02
  1.163805e+00    1.312876e+00   1.989850e-02
  1.166016e+00    1.363490e+00   2.024904e-02
  1.168226e+00    1.369329e+00   2.026338e-02
  1.170437e+00    1.354232e+00   2.012287e-02
  1.172647e+00    1.356427e+00   2.011037e-02
  1.174858e+00    1.341258e+00   1.996975e-02
  1.177068e+00    1.365601e+00   2.012186e-02
  1.179278e+00    1.366749e+00   2.010169e-02
  1.181489e+00    1.380342e+00   2.017418e-02
  1.183699e+00    1.413945e+00   2.039015e-02
  1.185910e+00    1.390621e+00   2.019316e-02
  1.188120e+00    1.416050e+00   2.034969e-02
  1.190331e+00    1.422863e+00   2.037117e-02
  1.192541e+00    1.358477e+00   1.987753e-02
  1.194752e+00    1.342685e+00   1.973468e-02
  1.196962e+00    1.335805e+00   1.965848e-02
  1.199173e+00    1.347761e+00   1.971976e-02
  1.201383e+00    1.344811e+00   1.967107e-02
  1.203593e+00    1.341751e+00   1.962394e-02
  1.205804e+00    1.349421e+00   1.965403e-02
  1.208014e+00    1.345775e+00   1.960065e-02
  1.210225e+00    1.349354e+00   1.960137e-02
  1.212435e+00    1.356334e+00   1.962716e-02
  1.214646e+00    1.342310e+00   1.949941e-02
  1.216856e+00    1.319426e+00   1.930729e-02
  1.219067e+00    1.326565e+00   1.933520e-02
  1.221277e+00    1.326856e+00   1.931249e-02
  1.223488e+00    1.323896e+00   1.926546e-02
  1.225698e+00    1.324573e+00   1.924372e-02
  1.227909e+00    1.350974e+00   1.940438e-02
  1.230119e+00    1.348112e+00   1.935199e-02
  1.232329e+00    1.344680e+00   1.929668e-02
  1.234540e+00    1.345082e+00   1.926934e-02
  1.236750e+00    1.377949e+00   1.947274e-02
  1.238961e+00    1.371358e+00   1.939896e-02
  1.241171e+00    1.359339e+00   1.928949e-02
  1.243382e+00    1.344283e+00   1.915891e-02
  1.245592e+00    1.335804e+00   1.907441e-02
  1.247803e+00    1.342339e+00   1.909742e-02
  1.250013e+00    1.353272e+00   1.915148e-02
  1.252224e+00    1.344620e+00   1.906694e-02
  1.254434e+00    1.354040e+00   1.910984e-02
  1.256644e+00    1.367044e+00   1.917802e-02
  1.258855e+00    1.401733e+00   1.939612e-02
  1.261065e+00    1.393513e+00   1.931543e-02
  1.263276e+00    1.376310e+00   1.917266e-02
  1.265486e+00    1.351241e+00   1.897438e-02
  1.267697e+00    1.351466e+00   1.895290e-02
  1.269907e+00    1.355000e+00   1.895494e-02
  1.272118e+00    1.372289e+00   1.905270e-02
  1.274328e+00    1.389141e+00   1.914629e-02
  1.276539e+00    1.366565e+00   1.896714e-02
  1.278749e+00    1.362344e+00   1.891544e-02
  1.280959e+00    1.370053e+00   1.894617e-02
  1.283170e+00    1.369492e+00   1.891971e-02
  1.285380e+00    1.373528e+00   1.892492e-02
  1.287591e+00    1.377018e+00   1.892670e-02
  1.289801e+00    1.390200e+00   1.899554e-02
  1.292012e+00    1.354317e+00   1.873167e-02
  1.294222e+00    1.346832e+00   1.866360e-02
  1.296433e+00    1.337582e+00   1.858389e-02
  1.298643e+00    1.358627e+00   1.871298e-02
  1.300854e+00    1.348629e+00   1.862759e-02
  1.303064e+00    1.373525e+00   1.877934e-02
  1.305274e+00    1.373419e+00   1.875701e-02
  1.307485e+00    1.338777e+00   1.849749e-02
  1.309695e+00    1.355613e+00   1.859112e-02
  1.311906e+00    1.411013e+00   1.894503e-02
  1.314116e+00    1.381532e+00   1.872504e-02
  1.316327e+00    1.355270e+00   1.852448e-02
  1.318537e+00    1.382583e+00   1.868805e-02
  1.320748e+00    1.386210e+00   1.869072e-02
  1.322958e+00    1.385020e+00   1.866191e-02
  1.325169e+00    1.382010e+00   1.862035e-02
  1.327379e+00    1.393413e+00   1.867485e-02
  1.329589e+00    1.370631e+00   1.850034e-02
  1.331800e+00    1.369375e+00   1.847099e-02
  1.334010e+00    1.404368e+00   1.868445e-02
  1.336221e+00    1.410250e+00   1.870131e-02
  1.338431e+00    1.426487e+00   1.878721e-02
  1.340642e+00    1.427300e+00   1.885855e-02
  1.342852e+00    1.401872e+00   1.879241e-02
  1.345063e+00    1.363439e+00   1.858274e-02
  1.347273e+00    1.343939e+00   1.848453e-02
  1.349484e+00    1.316332e+00   1.832103e-02
  1.351694e+00    1.353150e+00   1.859818e-02
  1.353905e+00    1.372314e+00   1.874760e-02
  1.356115e+00    1.366701e+00   1.872435e-02
  1.358325e+00    1.342762e+00   1.857293e-02
  1.360536e+00    1.358526e+00   1.869328e-02
  1.362746e+00    1.363673e+00   1.873827e-02
  1.364957e+00    1.339203e+00   1.857705e-02
  1.367167e+00    1.330879e+00   1.852631e-02
  1.369378e+00    1.359931e+00   1.873347e-02
  1.371588e+00    1.331462e+00   1.854148e-02
  1.373799e+00    1.312909e+00   1.841546e-02
  1.376009e+00    1.301639e+00   1.833963e-02
  1.378220e+00    1.272344e+00   1.813451e-02
  1.380430e+00    1.275758e+00   1.816148e-02
  1.382640e+00    1.320025e+00   1.847478e-02
  1.384851e+00    1.301953e+00   1.834877e-02
  1.387061e+00    1.305677e+00   1.837528e-02
  1.389272e+00    1.302909e+00   1.835600e-02
  1.391482e+00    1.319134e+00   1.846926e-02
  1.393693e+00    1.268051e+00   1.810726e-02
  1.395903e+00    1.280730e+00   1.819604e-02
  1.398114e+00    1.293052e+00   1.828199e-02
  1.400324e+00    1.320501e+00   1.847285e-02
  1.402535e+00    1.287757e+00   1.824009e-02
  1.404745e+00    1.260571e+00   1.804415e-02
  1.406955e+00    1.292074e+00   1.826551e-02
  1.409166e+00    1.269580e+00   1.810253e-02
  1.411376e+00    1.240345e+00   1.788981e-02
  1.413587e+00    1.243638e+00   1.790975e-02
  1.415797e+00    1.283552e+00   1.819134e-02
  1.418008e+00    1.259436e+00   1.797794e-02
  1.420218e+00    1.270349e+00   1.790591e-02
  1.422429e+00    1.275665e+00   1.785784e-02
  1.424639e+00    1.273189e+00   1.777572e-02
  1.426850e+00    1.273989e+00   1.772653e-02
  1.429060e+00    1.268486e+00   1.763925e-02
  1.431270e+00    1.270720e+00   1.761044e-02
  1.433481e+00    1.269843e+00   1.756340e-02
  1.435691e+00    1.279739e+00   1.759315e-02
  1.437902e+00    1.269127e+00   1.748358e-02
  1.440112e+00    1.291809e+00   1.760349e-02
  1.442323e+00    1.256526e+00   1.732856e-02
  1.444533e+00    1.263694e+00   1.734543e-02
  1.446744e+00    1.277257e+00   1.740705e-02
  1.448954e+00    1.245268e+00   1.715782e-02
  1.451165e+00    1.230153e+00   1.702407e-02
  1.453375e+00    1.238934e+00   1.705700e-02
  1.455586e+00    1.275059e+00   1.727569e-02
  1.457796e+00    1.243371e+00   1.703244e-02
  1.460006e+00    1.260926e+00   1.712511e-02
  1.462217e+00    1.227847e+00   1.687321e-02
  1.464427e+00    1.244279e+00   1.696037e-02
  1.466638e+00    1.262865e+00   1.706132e-02
  1.468848e+00    1.282338e+00   1.716688e-02
  1.471059e+00    1.277239e+00   1.710757e-02
  1.473269e+00    1.256411e+00   1.694324e-02
  1.475480e+00    1.261783e+00   1.695574e-02
  1.477690e+00    1.261935e+00   1.693296e-02
  1.479901e+00    1.248117e+00   1.681638e-02
  1.482111e+00    1.243094e+00   1.675939e-02
  1.484321e+00    1.245065e+00   1.674974e-02
  1.486532e+00    1.267334e+00   1.687654e-02
  1.488742e+00    1.261546e+00   1.681534e-02
  1.490953e+00    1.282510e+00   1.693171e-02
  1.493163e+00    1.263415e+00   1.678293e-02
  1.495374e+00    1.259030e+00   1.673230e-02
  1.497584e+00    1.245767e+00   1.662242e-02
  1.499795e+00    1.263331e+00   1.671753e-02
  1.502005e+00    1.265771e+00   1.671192e-02
  1.504216e+00    1.268706e+00   1.671018e-02
  1.506426e+00    1.235110e+00   1.646682e-02
  1.508636e+00    1.264810e+00   1.664311e-02
  1.510847e+00    1.254265e+00   1.655181e-02
  1.513057e+00    1.220711e+00   1.630418e-02
  1.515268e+00    1.211061e+00   1.621432e-02
  1.517478e+00    1.227080e+00   1.629632e-02
  1.519689e+00    1.250215e+00   1.642431e-02
  1.521899e+00    1.255794e+00   1.643778e-02
  1.524110e+00    1.278899e+00   1.656778e-02
  1.526320e+00    1.266004e+00   1.646435e-02
  1.528531e+00    1.264881e+00   1.643717e-02
  1.530741e+00    1.286902e+00   1.656020e-02
  1.532951e+00    1.274914e+00   1.646313e-02
  1.535162e+00    1.240757e+00   1.632738e-02
  1.537372e+00    1.238707e+00   1.638050e-02
  1.539583e+00    1.242955e+00   1.644273e-02
  1.541793e+00    1.241864e+00   1.644244e-02
  1.544004e+00    1.234943e+00   1.639681e-02
  1.546214e+00    1.243390e+00   1.645131e-02
  1.548425e+00    1.213589e+00   1.625321e-02
  1.550635e+00    1.220691e+00   1.631028e-02
  1.552846e+00    1.237597e+00   1.643246e-02
  1.555056e+00    1.236302e+00   1.638254e-02
  1.557266e+00    1.226152e+00   1.620550e-02
  1.559477e+00    1.251887e+00   1.631537e-02
  1.561687e+00    1.262280e+00   1.635210e-02
  1.563898e+00    1.242200e+00   1.620436e-02
  1.566108e+00    1.255146e+00   1.627254e-02
  1.568319e+00    1.252963e+00   1.624274e-02
  1.570529e+00    1.216612e+00   1.598053e-02
  1.572740e+00    1.234707e+00   1.607141e-02
  1.574950e+00    1.227814e+00   1.600036e-02
  1.577161e+00    1.219119e+00   1.591839e-02
  1.579371e+00    1.220545e+00   1.590425e-02
  1.581582e+00    1.208845e+00   1.580837e-02
  1.583792e+00    1.219349e+00   1.585905e-02
  1.586002e+00    1.230013e+00   1.591074e-02
  1.588213e+00    1.239152e+00   1.595252e-02
  1.590423e+00    1.251746e+00   1.601326e-02
  1.592634e+00    1.237033e+00   1.589730e-02
  1.594844e+00    1.226630e+00   1.580907e-02
  1.597055e+00    1.239620e+00   1.587207e-02
  1.599265e+00    1.260653e+00   1.598529e-02
  1.601476e+00    1.224556e+00   1.573460e-02
  1.603686e+00    1.216819e+00   1.566523e-02
  1.605897e+00    1.211098e+00   1.560844e-02
  1.608107e+00    1.220008e+00   1.564632e-02
  1.610317e+00    1.226462e+00   1.566844e-02
  1.612528e+00    1.192053e+00   1.542824e-02
  1.614738e+00    1.222035e+00   1.560216e-02
  1.616949e+00    1.228743e+00   1.562595e-02
  1.619159e+00    1.203341e+00   1.544501e-02
  1.621370e+00    1.206573e+00   1.544737e-02
  1.623580e+00    1.221989e+00   1.552734e-02
  1.625791e+00    1.213701e+00   1.545630e-02
  1.628001e+00    1.221509e+00   1.548754e-02
  1.630212e+00    1.191028e+00   1.527537e-02
  1.632422e+00    1.176986e+00   1.516719e-02
  1.634632e+00    1.175960e+00   1.514334e-02
  1.636843e+00    1.173525e+00   1.511014e-02
  1.639053e+00    1.165886e+00   1.504364e-02
  1.641264e+00    1.156939e+00   1.496881e-02
  1.643474e+00    1.161485e+00   1.498080e-02
  1.645685e+00    1.151603e+00   1.490034e-02
  1.647895e+00    1.141401e+00   1.481768e-02
  1.650106e+00    1.126869e+00   1.470623e-02
  1.652316e+00    1.141263e+00   1.478342e-02
  1.654527e+00    1.133180e+00   1.471438e-02
  1.656737e+00    1.121801e+00   1.462386e-02
  1.658947e+00    1.127054e+00   1.464180e-02
  1.661158e+00    1.132875e+00   1.466326e-02
  1.663368e+00    1.160146e+00   1.482242e-02
  1.665579e+00    1.161519e+00   1.481474e-02
  1.667789e+00    1.135608e+00   1.463220e-02
  1.670000e+00    1.136339e+00   1.462124e-02
  1.672210e+00    1.123903e+00   1.452504e-02
  1.674421e+00    1.101408e+00   1.436365e-02
  1.676631e+00    1.093714e+00   1.429756e-02
  1.678842e+00    1.088858e+00   1.425009e-02
  1.681052e+00    1.078437e+00   1.416645e-02
  1.683263e+00    1.088391e+00   1.421656e-02
  1.685473e+00    1.081823e+00   1.415847e-02
  1.687683e+00    1.096144e+00   1.423636e-02
  1.689894e+00    1.065117e+00   1.401779e-02
  1.692104e+00    1.053261e+00   1.392478e-02
  1.694315e+00    1.049841e+00   1.388781e-02
  1.696525e+00    1.038087e+00   1.379492e-02
  1.698736e+00    1.037123e+00   1.377388e-02
  1.700946e+00    1.021739e+00   1.365649e-02
  1.703157e+00    1.025665e+00   1.366827e-02
  1.705367e+00    1.034420e+00   1.371213e-02
  1.707578e+00    1.025763e+00   1.364020e-02
  1.709788e+00    1.026356e+00   1.363018e-02
  1.711998e+00    1.004335e+00   1.346841e-02
  1.714209e+00    1.013483e+00   1.351536e-02
  1.716419e+00    1.030161e+00   1.361187e-02
  1.718630e+00    1.022041e+00   1.354393e-02
  1.720840e+00    1.008106e+00   1.343723e-02
  1.723051e+00    9.747860e-01   1.319977e-02
  1.725261e+00    1.010878e+00   1.342730e-02
  1.727472e+00    1.005402e+00   1.337681e-02
  1.729682e+00    1.002554e+00   1.334449e-02
  1.731893e+00    9.694964e-01   1.310903e-02
  1.734103e+00    9.701037e-01   1.309958e-02
  1.736313e+00    9.565529e-01   1.299414e-02
  1.738524e+00    9.440815e-01   1.289571e-02
  1.740734e+00    9.629639e-01   1.301058e-02
  1.742945e+00    9.627063e-01   1.299563e-02
  1.745155e+00    9.654600e-01   1.300092e-02
  1.747366e+00    9.716477e-01   1.302885e-02
  1.749576e+00    9.572537e-01   1.291850e-02
  1.751787e+00    9.717586e-01   1.300273e-02
  1.753997e+00    9.640877e-01   1.293806e-02
  1.756208e+00    9.557038e-01   1.286859e-02
  1.758418e+00    9.540089e-01   1.284419e-02
  1.760628e+00    9.666497e-01   1.291566e-02
  1.762839e+00    9.458154e-01   1.276265e-02
  1.765049e+00    9.369695e-01   1.268987e-02
  1.767260e+00    9.470190e-01   1.274501e-02
  1.769470e+00    9.346524e-01   1.264869e-02
  1.771681e+00    9.376782e-01   1.265609e-02
  1.773891e+00    9.571406e-01   1.277368e-02
  1.776102e+00    9.254491e-01   1.254770e-02
  1.778312e+00    9.164506e-01   1.247400e-02
  1.780523e+00    9.378923e-01   1.260637e-02
  1.782733e+00    9.332348e-01   1.256241e-02
  1.784944e+00    9.075357e-01   1.237551e-02
  1.787154e+00    9.275280e-01   1.249860e-02
  1.789364e+00    9.312951e-01   1.251145e-02
  1.791575e+00    9.274735e-01   1.247324e-02
  1.793785e+00    9.067808e-01   1.232101e-02
  1.795996e+00    9.238673e-01   1.242398e-02
  1.798206e+00    9.772143e-01   1.276475e-02
  1.800417e+00    9.851052e-01   1.280305e-02
  1.802627e+00    9.730210e-01   1.271198e-02
  1.804838e+00    9.485273e-01   1.253860e-02
  1.807048e+00    9.812502e-01   1.273968e-02
  1.809259e+00    1.023486e+00   1.299655e-02
  1.811469e+00    1.017731e+00   1.294411e-02
  1.813679e+00    9.566912e-01   1.253451e-02
  1.815890e+00    9.356136e-01   1.238059e-02
  1.818100e+00    9.371483e-01   1.237530e-02
  1.820311e+00    9.337103e-01   1.233749e-02
  1.822521e+00    9.232911e-01   1.225332e-02
  1.824732e+00    9.178830e-01   1.220236e-02
  1.826942e+00    9.125347e-01   1.215424e-02
  1.829153e+00    8.989987e-01   1.205198e-02
  1.831363e+00    9.033306e-01   1.206881e-02
  1.833574e+00    8.946768e-01   1.199910e-02
  1.835784e+00    8.868793e-01   1.193522e-02
  1.837994e+00    8.936300e-01   1.196874e-02
  1.840205e+00    8.860250e-01   1.190646e-02
  1.842415e+00    8.936977e-01   1.194599e-02
  1.844626e+00    8.761397e-01   1.181647e-02
  1.846836e+00    8.789494e-01   1.182388e-02
  1.849047e+00    8.898571e-01   1.188528e-02
  1.851257e+00    8.698241e-01   1.174111e-02
  1.853468e+00    8.686610e-01   1.172443e-02
  1.855678e+00    8.706521e-01   1.172892e-02
  1.857889e+00    8.693342e-01   1.171149e-02
  1.860099e+00    8.721850e-01   1.172196e-02
  1.862309e+00    9.000045e-01   1.189872e-02
  1.864520e+00    8.846624e-01   1.178817e-02
  1.866730e+00    8.574300e-01   1.159592e-02
  1.868941e+00    8.320771e-01   1.141237e-02
  1.871151e+00    8.362395e-01   1.142959e-02
  1.873362e+00    8.463305e-01   1.148702e-02
  1.875572e+00    8.638932e-01   1.159457e-02
  1.877783e+00    8.562255e-01   1.153153e-02
  1.879993e+00    8.407851e-01   1.141595e-02
  1.882204e+00    8.460326e-01   1.144061e-02
  1.884414e+00    8.562605e-01   1.149841e-02
  1.886624e+00    8.228787e-01   1.126113e-02
  1.888835e+00    8.260161e-01   1.127168e-02
  1.891045e+00    8.388583e-01   1.134810e-02
  1.893256e+00    8.190094e-01   1.120209e-02
  1.895466e+00    8.276172e-01   1.124966e-02
  1.897677e+00    8.352184e-01   1.129031e-02
  1.899887e+00    8.146190e-01   1.113937e-02
  1.902098e+00    8.035401e-01   1.105268e-02
  1.904308e+00    8.274527e-01   1.120538e-02
  1.906519e+00    8.255201e-01   1.118148e-02
  1.908729e+00    8.178430e-01   1.111883e-02
  1.910940e+00    8.232209e-01   1.114423e-02
  1.913150e+00    8.056561e-01   1.101426e-02
  1.915360e+00    8.032879e-01   1.098754e-02
  1.917571e+00    8.295593e-01   1.115487e-02
  1.919781e+00    8.158036e-01   1.105135e-02
  1.921992e+00    8.179702e-01   1.105541e-02
  1.924202e+00    8.116874e-01   1.100215e-02
  1.926413e+00    8.103616e-01   1.098288e-02
  1.928623e+00    8.141568e-01   1.099805e-02
  1.930834e+00    7.900941e-01   1.082401e-02
  1.933044e+00    7.933707e-01   1.083589e-02
  1.935255e+00    8.008794e-01   1.087676e-02
  1.937465e+00    8.213074e-01   1.100412e-02
  1.939675e+00    7.952666e-01   1.081753e-02
  1.941886e+00    7.983090e-01   1.082793e-02
  1.944096e+00    7.962022e-01   1.080350e-02
  1.946307e+00    8.199791e-01   1.095317e-02
  1.948517e+00    8.009261e-01   1.081474e-02
  1.950728e+00    7.879487e-01   1.071657e-02
  1.952938e+00    7.981115e-01   1.077538e-02
  1.955149e+00    7.804925e-01   1.064563e-02
  1.957359e+00    8.037477e-01   1.079298e-02
  1.959570e+00    7.981480e-01   1.074442e-02
  1.961780e+00    7.967256e-01   1.072492e-02
  1.963990e+00    7.975104e-01   1.072002e-02
  1.966201e+00    8.044724e-01   1.075658e-02
  1.968411e+00    7.960045e-01   1.068962e-02
  1.970622e+00    7.980750e-01   1.069336e-02
  1.972832e+00    7.756047e-01   1.053185e-02
  1.975043e+00    7.767461e-01   1.052961e-02
  1.977253e+00    7.731224e-01   1.049515e-02
  1.979464e+00    7.705969e-01   1.046804e-02
  1.981674e+00    7.661182e-01   1.042742e-02
  1.983885e+00    7.768764e-01   1.049039e-02
  1.986095e+00    7.852073e-01   1.053675e-02
  1.988305e+00    7.862227e-01   1.053363e-02
  1.990516e+00    7.790557e-01   1.047559e-02
  1.992726e+00    7.698506e-01   1.040390e-02
  1.994937e+00    7.557251e-01   1.029802e-02
  1.997147e+00    7.814057e-01   1.046176e-02
  1.999358e+00    7.779773e-01   1.042892e-02
  2.001568e+00    7.599989e-01   1.029699e-02
  2.003779e+00    7.707209e-01   1.035747e-02
  2.005989e+00    7.570106e-01   1.025302e-02
  2.008200e+00    7.657896e-01   1.030080e-02
  2.010410e+00    7.632791e-01   1.027222e-02
  2.012621e+00    7.685446e-01   1.029587e-02
  2.014831e+00    7.513973e-01   1.016903e-02
  2.017041e+00    7.348611e-01   1.004632e-02
  2.019252e+00    7.653877e-01   1.024292e-02
  2.021462e+00    7.699643e-01   1.026395e-02
  2.023673e+00    7.679399e-01   1.024107e-02
  2.025883e+00    7.532032e-01   1.013285e-02
  2.028094e+00    7.538993e-01   1.012795e-02
  2.030304e+00    7.616196e-01   1.017013e-02
  2.032515e+00    7.690182e-01   1.021007e-02
  2.034725e+00    7.463779e-01   1.004929e-02
  2.036936e+00    7.596973e-01   1.012920e-02
  2.039146e+00    7.521317e-01   1.006911e-02
  2.041356e+00    7.501647e-01   1.004632e-02
  2.043567e+00    7.622162e-01   1.011736e-02
  2.045777e+00    7.584138e-01   1.008282e-02
  2.047988e+00    7.624245e-01   1.010004e-02
  2.050198e+00    7.726419e-01   1.015894e-02
  2.052409e+00    7.943588e-01   1.029286e-02
  2.054619e+00    7.713447e-01   1.013521e-02
  2.056830e+00    7.629740e-01   1.007282e-02
  2.059040e+00    7.695997e-01   1.010886e-02
  2.061251e+00    7.693663e-01   1.009998e-02
  2.063461e+00    7.635097e-01   1.005380e-02
  2.065671e+00    7.592632e-01   1.001702e-02
  2.067882e+00    7.521496e-01   9.960965e-03
  2.070092e+00    7.423927e-01   9.886994e-03
  2.072303e+00    7.244673e-01   9.757883e-03
  2.074513e+00    7.315588e-01   9.796293e-03
  2.076724e+00    7.361686e-01   9.817692e-03
  2.078934e+00    7.384563e-01   9.823974e-03
  2.081145e+00    7.268633e-01   9.737576e-03
  2.083355e+00    7.190843e-01   9.676278e-03
  2.085566e+00    7.278922e-01   9.726552e-03
  2.087776e+00    7.182502e-01   9.652529e-03
  2.089986e+00    7.208586e-01   9.661363e-03
  2.092197e+00    7.311482e-01   9.721153e-03
  2.094407e+00    7.378247e-01   9.756201e-03
  2.096618e+00    7.438495e-01   9.787004e-03
  2.098828e+00    7.274771e-01   9.669439e-03
  2.101039e+00    7.155111e-01   9.580709e-03
  2.103249e+00    7.175795e-01   9.585964e-03
  2.105460e+00    7.048835e-01   9.491910e-03
  2.107670e+00    7.151514e-01   9.552145e-03
  2.109881e+00    7.195532e-01   9.572381e-03
  2.112091e+00    7.286423e-01   9.623644e-03
  2.114301e+00    7.271530e-01   9.605019e-03
  2.116512e+00    7.047927e-01   9.447490e-03
  2.118722e+00    7.085866e-01   9.464153e-03
  2.120933e+00    7.089639e-01   9.457882e-03
  2.123143e+00    7.112743e-01   9.464402e-03
  2.125354e+00    7.238951e-01   9.539452e-03
  2.127564e+00    6.977040e-01   9.356673e-03
  2.129775e+00    7.042429e-01   9.391752e-03
  2.131985e+00    7.099255e-01   9.420541e-03
  2.134196e+00    7.138681e-01   9.438063e-03
  2.136406e+00    7.150540e-01   9.437157e-03
  2.138617e+00    7.122920e-01   9.410433e-03
  2.140827e+00    7.087692e-01   9.403194e-03
  2.143037e+00    7.069139e-01   9.436348e-03
  2.145248e+00    7.181187e-01   9.533032e-03
  2.147458e+00    7.098547e-01   9.493223e-03
  2.149669e+00    7.074836e-01   9.489247e-03
  2.151879e+00    7.029713e-01   9.468149e-03
  2.154090e+00    6.924941e-01   9.404627e-03
  2.156300e+00    6.799620e-01   9.325616e-03
  2.158511e+00    7.020375e-01   9.481110e-03
  2.160721e+00    7.010617e-01   9.479350e-03
  2.162932e+00    6.957281e-01   9.446960e-03
  2.165142e+00    6.865628e-01   9.387514e-03
  2.167352e+00    7.077426e-01   9.534152e-03
  2.169563e+00    6.877719e-01   9.400627e-03
  2.171773e+00    6.885145e-01   9.408126e-03
  2.173984e+00    6.875550e-01   9.402995e-03
  2.176194e+00    6.839015e-01   9.379151e-03
  2.178405e+00    6.810631e-01   9.360361e-03
  2.180615e+00    6.773021e-01   9.335172e-03
  2.182826e+00    6.675877e-01   9.268631e-03
  2.185036e+00    6.779928e-01   9.340645e-03
  2.187247e+00    6.845174e-01   9.385417e-03
  2.189457e+00    6.854541e-01   9.391452e-03
  2.191667e+00    6.811100e-01   9.361452e-03
  2.193878e+00    6.945847e-01   9.453028e-03
  2.196088e+00    6.884756e-01   9.410707e-03
  2.198299e+00    6.657450e-01   9.252963e-03
  2.200509e+00    6.876797e-01   9.403081e-03
  2.202720e+00    6.975635e-01   9.469266e-03
  2.204930e+00    6.856891e-01   9.387081e-03
  2.207141e+00    6.840918e-01   9.375020e-03
  2.209351e+00    6.757298e-01   9.315670e-03
  2.211562e+00    6.869216e-01   9.390862e-03
  2.213772e+00    6.734053e-01   9.242693e-03
  2.215982e+00    6.648297e-01   9.139790e-03
  2.218193e+00    6.639715e-01   9.104516e-03
  2.220403e+00    6.649624e-01   9.086899e-03
  2.222614e+00    6.563831e-01   9.007423e-03
  2.224824e+00    6.597610e-01   9.011377e-03
  2.227035e+00    6.672379e-01   9.044910e-03
  2.229245e+00    6.711447e-01   9.054410e-03
  2.231456e+00    6.783810e-01   9.087393e-03
  2.233666e+00    6.753061e-01   9.051625e-03
  2.235877e+00    6.706893e-01   9.006366e-03
  2.238087e+00    6.886382e-01   9.112409e-03
  2.240298e+00    6.678156e-01   8.959857e-03
  2.242508e+00    6.580800e-01   8.879267e-03
  2.244718e+00    6.775373e-01   8.993681e-03
  2.246929e+00    6.782452e-01   8.983858e-03
  2.249139e+00    6.672421e-01   8.898299e-03
  2.251350e+00    6.642266e-01   8.866487e-03
  2.253560e+00    6.528593e-01   8.778844e-03
  2.255771e+00    6.657220e-01   8.853497e-03
  2.257981e+00    6.578197e-01   8.789671e-03
  2.260192e+00    6.520426e-01   8.739987e-03
  2.262402e+00    6.667551e-01   8.827163e-03
  2.264613e+00    6.653062e-01   8.806727e-03
  2.266823e+00    6.608935e-01   8.767081e-03
  2.269033e+00    6.839460e-01   8.908132e-03
  2.271244e+00    6.830149e-01   8.891515e-03
  2.273454e+00    6.881424e-01   8.914372e-03
  2.275665e+00    6.787515e-01   8.842907e-03
  2.277875e+00    6.885346e-01   8.896259e-03
  2.280086e+00    6.951897e-01   8.928874e-03
  2.282296e+00    6.612296e-01   8.698625e-03
  2.284507e+00    6.623036e-01   8.695511e-03
  2.286717e+00    6.851553e-01   8.834607e-03
  2.288928e+00    6.648702e-01   8.692914e-03
  2.291138e+00    6.743065e-01   8.744841e-03
  2.293348e+00    6.648724e-01   8.673838e-03
  2.295559e+00    6.715342e-01   8.707756e-03
  2.297769e+00    6.667019e-01   8.667050e-03
  2.299980e+00    6.484779e-01   8.538470e-03
  2.302190e+00    6.610395e-01   8.611578e-03
  2.304401e+00    6.632537e-01   8.616609e-03
  2.306611e+00    6.390702e-01   8.448946e-03
  2.308822e+00    6.374549e-01   8.429978e-03
  2.311032e+00    6.272175e-01   8.355655e-03
  2.313243e+00    6.445196e-01   8.463871e-03
  2.315453e+00    6.538162e-01   8.517110e-03
  2.317663e+00    6.431581e-01   8.438301e-03
  2.319874e+00    6.308237e-01   8.348389e-03
  2.322084e+00    6.338798e-01   8.359687e-03
  2.324295e+00    6.364033e-01   8.368139e-03
  2.326505e+00    6.515440e-01   8.458002e-03
  2.328716e+00    6.402040e-01   8.375548e-03
  2.330926e+00    6.496255e-01   8.428108e-03
  2.333137e+00    6.544410e-01   8.450839e-03
  2.335347e+00    6.483680e-01   8.402613e-03
  2.337558e+00    6.407113e-01   8.344630e-03
  2.339768e+00    6.324590e-01   8.282186e-03
  2.341979e+00    6.369526e-01   8.303193e-03
  2.344189e+00    6.321285e-01   8.263350e-03
  2.346399e+00    6.346542e-01   8.271341e-03
  2.348610e+00    6.308961e-01   8.238399e-03
  2.350820e+00    6.224995e-01   8.175283e-03
  2.353031e+00    6.477921e-01   8.331333e-03
  2.355241e+00    6.424149e-01   8.288597e-03
  2.357452e+00    6.134286e-01   8.091143e-03
  2.359662e+00    6.167504e-01   8.104888e-03
  2.361873e+00    6.188108e-01   8.110258e-03
  2.364083e+00    6.146610e-01   8.075124e-03
  2.366294e+00    6.264002e-01   8.143760e-03
  2.368504e+00    6.285905e-01   8.149923e-03
  2.370714e+00    6.192031e-01   8.080800e-03
  2.372925e+00    6.172568e-01   8.060114e-03
  2.375135e+00    6.005571e-01   7.942405e-03
  2.377346e+00    6.177592e-01   8.047458e-03
  2.379556e+00    6.240151e-01   8.080196e-03
  2.381767e+00    6.155981e-01   8.017690e-03
  2.383977e+00    6.236053e-01   8.061718e-03
  2.386188e+00    6.217793e-01   8.041960e-03
  2.388398e+00    6.217494e-01   8.033809e-03
  2.390609e+00    6.115422e-01   7.959899e-03
  2.392819e+00    6.130385e-01   7.961868e-03
  2.395029e+00    6.216128e-01   8.009659e-03
  2.397240e+00    6.137401e-01   7.950918e-03
  2.399450e+00    6.127594e-01   7.936753e-03
  2.401661e+00    6.103985e-01   7.913776e-03
  2.403871e+00    6.313541e-01   8.040592e-03
  2.406082e+00    6.593967e-01   8.209466e-03
  2.408292e+00    6.675041e-01   8.251669e-03
  2.410503e+00    6.368363e-01   8.052223e-03
  2.412713e+00    6.116686e-01   7.883672e-03
  2.414924e+00    6.095654e-01   7.862598e-03
  2.417134e+00    5.870745e-01   7.708667e-03
  2.419344e+00    5.745600e-01   7.618819e-03
  2.421555e+00    5.809218e-01   7.653499e-03
  2.423765e+00    5.865153e-01   7.682955e-03
  2.425976e+00    5.728554e-01   7.585317e-03
  2.428186e+00    5.839142e-01   7.651063e-03
  2.430397e+00    5.934696e-01   7.705938e-03
  2.432607e+00    6.005031e-01   7.744186e-03
  2.434818e+00    5.942983e-01   7.696526e-03
  2.437028e+00    5.889239e-01   7.654530e-03
  2.439239e+00    5.936449e-01   7.677497e-03
  2.441449e+00    5.849384e-01   7.613840e-03
  2.443659e+00    5.739900e-01   7.534994e-03
  2.445870e+00    5.938123e-01   7.676292e-03
  2.448080e+00    5.852863e-01   7.655866e-03
  2.450291e+00    5.758234e-01   7.610308e-03
  2.452501e+00    5.669437e-01   7.562472e-03
  2.454712e+00    5.640476e-01   7.551481e-03
  2.456922e+00    5.738607e-01   7.623541e-03
  2.459133e+00    5.614726e-01   7.546209e-03
  2.461343e+00    5.563495e-01   7.516008e-03
  2.463554e+00    5.588005e-01   7.535992e-03
  2.465764e+00    5.645107e-01   7.577549e-03
  2.467975e+00    5.661675e-01   7.590951e-03
  2.470185e+00    5.594457e-01   7.548025e-03
  2.472395e+00    5.414633e-01   7.426923e-03
  2.474606e+00    5.480689e-01   7.473636e-03
  2.476816e+00    5.509503e-01   7.493999e-03
  2.479027e+00    5.424836e-01   7.437036e-03
  2.481237e+00    5.385926e-01   7.410587e-03
  2.483448e+00    5.505127e-01   7.492454e-03
  2.485658e+00    5.445881e-01   7.451885e-03
  2.487869e+00    5.371526e-01   7.400870e-03
  2.490079e+00    5.458803e-01   7.460235e-03
  2.492290e+00    5.323577e-01   7.366823e-03
  2.494500e+00    5.426180e-01   7.436734e-03
  2.496710e+00    5.250185e-01   7.314460e-03
  2.498921e+00    5.348912e-01   7.381912e-03
  2.501131e+00    5.310647e-01   7.354520e-03
  2.503342e+00    5.334459e-01   7.369712e-03
  2.505552e+00    5.377900e-01   7.398536e-03
  2.507763e+00    5.240796e-01   7.302201e-03
  2.509973e+00    5.365282e-01   7.387012e-03
  2.512184e+00    5.275697e-01   7.323476e-03
  2.514394e+00    5.248715e-01   7.295376e-03
  2.516605e+00    5.194206e-01   7.210660e-03
  2.518815e+00    5.178214e-01   7.171430e-03
  2.521025e+00    5.186020e-01   7.156012e-03
  2.523236e+00    5.232780e-01   7.170262e-03
  2.525446e+00    5.304543e-01   7.203577e-03
  2.527657e+00    5.201063e-01   7.118449e-03
  2.529867e+00    5.160310e-01   7.076443e-03
  2.532078e+00    5.267369e-01   7.134401e-03
  2.534288e+00    5.065297e-01   6.982588e-03
  2.536499e+00    5.137066e-01   7.020055e-03
  2.538709e+00    5.166759e-01   7.029399e-03
  2.540920e+00    5.275190e-01   7.092103e-03
  2.543130e+00    5.119699e-01   6.976549e-03
  2.545340e+00    5.217386e-01   7.032753e-03
  2.547551e+00    5.209088e-01   7.017238e-03
  2.549761e+00    5.186778e-01   6.992641e-03
  2.551972e+00    5.040165e-01   6.883916e-03
  2.554182e+00    5.166298e-01   6.960375e-03
  2.556393e+00    5.188736e-01   6.966400e-03
  2.558603e+00    5.069842e-01   6.877193e-03
  2.560814e+00    4.982955e-01   6.809456e-03
  2.563024e+00    5.072739e-01   6.862056e-03
  2.565235e+00    5.230197e-01   6.958194e-03
  2.567445e+00    5.197923e-01   6.927145e-03
  2.569656e+00    5.173110e-01   6.900849e-03
  2.571866e+00    4.961645e-01   6.749187e-03
  2.574076e+00    5.156316e-01   6.871023e-03
  2.576287e+00    5.137412e-01   6.850136e-03
  2.578497e+00    5.147916e-01   6.849294e-03
  2.580708e+00    5.089310e-01   6.802158e-03
  2.582918e+00    5.145807e-01   6.832045e-03
  2.585129e+00    5.173072e-01   6.842361e-03
  2.587339e+00    5.059584e-01   6.759272e-03
  2.589550e+00    5.047073e-01   6.743399e-03
  2.591760e+00    5.181770e-01   6.825029e-03
  2.593971e+00    5.115361e-01   6.773627e-03
  2.596181e+00    5.054485e-01   6.727006e-03
  2.598391e+00    4.979457e-01   6.671779e-03
  2.600602e+00    5.017644e-01   6.691436e-03
  2.602812e+00    5.144570e-01   6.767957e-03
  2.605023e+00    5.139209e-01   6.757255e-03
  2.607233e+00    4.973573e-01   6.640383e-03
  2.609444e+00    5.089273e-01   6.709938e-03
  2.611654e+00    5.046276e-01   6.674226e-03
  2.613865e+00    5.217229e-01   6.779203e-03
  2.616075e+00    5.133858e-01   6.717624e-03
  2.618286e+00    5.035663e-01   6.646093e-03
  2.620496e+00    5.091281e-01   6.675969e-03
  2.622706e+00    4.973145e-01   6.592360e-03
  2.624917e+00    4.948173e-01   6.570002e-03
  2.627127e+00    5.065305e-01   6.641540e-03
  2.629338e+00    4.949517e-01   6.559273e-03
  2.631548e+00    4.974252e-01   6.569520e-03
  2.633759e+00    4.901388e-01   6.514157e-03
  2.635969e+00    4.901684e-01   6.507735e-03
  2.638180e+00    4.948916e-01   6.532096e-03
  2.640390e+00    4.975708e-01   6.543150e-03
  2.642601e+00    5.057031e-01   6.589722e-03
  2.644811e+00    4.983900e-01   6.534843e-03
  2.647021e+00    5.002182e-01   6.540244e-03
  2.649232e+00    4.995064e-01   6.528879e-03
  2.651442e+00    5.022091e-01   6.539982e-03
  2.653653e+00    4.978483e-01   6.504753e-03
  2.655863e+00    5.097702e-01   6.575406e-03
  2.658074e+00    4.905428e-01   6.443671e-03
  2.660284e+00    4.857563e-01   6.405857e-03
  2.662495e+00    4.824386e-01   6.377288e-03
  2.664705e+00    4.930590e-01   6.440566e-03
  2.666916e+00    4.853163e-01   6.383406e-03
  2.669126e+00    5.001752e-01   6.473896e-03
  2.671337e+00    5.026362e-01   6.483187e-03
  2.673547e+00    4.814665e-01   6.338899e-03
  2.675757e+00    4.937466e-01   6.412779e-03
  2.677968e+00    4.851826e-01   6.350471e-03
  2.680178e+00    4.782883e-01   6.298876e-03
  2.682389e+00    4.935402e-01   6.392121e-03
  2.684599e+00    4.827054e-01   6.315458e-03
  2.686810e+00    4.892337e-01   6.351423e-03
  2.689020e+00    4.899653e-01   6.349897e-03
  2.691231e+00    4.848149e-01   6.310186e-03
  2.693441e+00    4.833627e-01   6.294627e-03
  2.695652e+00    4.665330e-01   6.177719e-03
  2.697862e+00    4.902804e-01   6.326623e-03
  2.700072e+00    4.970769e-01   6.364231e-03
  2.702283e+00    4.976031e-01   6.361318e-03
  2.704493e+00    4.908268e-01   6.311557e-03
  2.706704e+00    5.007172e-01   6.368340e-03
  2.708914e+00    4.857673e-01   6.266613e-03
  2.711125e+00    4.797882e-01   6.221720e-03
  2.713335e+00    4.885523e-01   6.272189e-03
  2.715546e+00    4.873188e-01   6.257813e-03
  2.717756e+00    4.867115e-01   6.248015e-03
  2.719967e+00    4.821304e-01   6.212363e-03
  2.722177e+00    4.838622e-01   6.217383e-03
  2.724387e+00    4.804386e-01   6.189296e-03
  2.726598e+00    4.731927e-01   6.136437e-03
  2.728808e+00    4.828600e-01   6.192687e-03
  2.731019e+00    4.736158e-01   6.127071e-03
  2.733229e+00    4.727885e-01   6.115976e-03
  2.735440e+00    4.577393e-01   6.011761e-03
  2.737650e+00    4.681057e-01   6.073514e-03
  2.739861e+00    4.787188e-01   6.135951e-03
  2.742071e+00    4.966040e-01   6.243686e-03
  2.744282e+00    4.917868e-01   6.207042e-03
  2.746492e+00    4.774553e-01   6.109925e-03
  2.748702e+00    4.883052e-01   6.173007e-03
  2.750913e+00    4.895769e-01   6.175199e-03
  2.753123e+00    4.895217e-01   6.168697e-03
  2.755334e+00    4.749343e-01   6.070037e-03
  2.757544e+00    4.867060e-01   6.139038e-03
  2.759755e+00    4.943637e-01   6.181164e-03
  2.761965e+00    4.902505e-01   6.149368e-03
  2.764176e+00    4.803220e-01   6.080779e-03
  2.766386e+00    4.780436e-01   6.060563e-03
  2.768597e+00    4.844965e-01   6.095449e-03
  2.770807e+00    4.747743e-01   6.028123e-03
  2.773017e+00    4.806414e-01   6.059273e-03
  2.775228e+00    4.809967e-01   6.055715e-03
  2.777438e+00    4.825794e-01   6.059846e-03
  2.779649e+00    4.698444e-01   5.973510e-03
  2.781859e+00    4.659943e-01   5.943288e-03
  2.784070e+00    4.696741e-01   5.960894e-03
  2.786280e+00    4.807344e-01   6.024876e-03
  2.788491e+00    4.701221e-01   5.952232e-03
  2.790701e+00    4.624956e-01   5.898178e-03
  2.792912e+00    4.846889e-01   6.032002e-03
  2.795122e+00    4.882313e-01   6.048227e-03
  2.797333e+00    4.749287e-01   5.959696e-03
  2.799543e+00    4.667021e-01   5.902055e-03
  2.801753e+00    4.647122e-01   5.883649e-03
  2.803964e+00    4.730334e-01   5.930454e-03
  2.806174e+00    4.815667e-01   5.977517e-03
  2.808385e+00    4.731452e-01   5.918233e-03
  2.810595e+00    4.816489e-01   5.964266e-03
  2.812806e+00    4.712250e-01   5.892795e-03
  2.815016e+00    4.746970e-01   5.909703e-03
  2.817227e+00    4.863091e-01   6.007817e-03
  2.819437e+00    4.779741e-01   5.967240e-03
  2.821648e+00    4.807093e-01   5.986597e-03
  2.823858e+00    4.610873e-01   5.868423e-03
  2.826068e+00    4.662910e-01   5.906361e-03
  2.828279e+00    4.839489e-01   6.021255e-03
  2.830489e+00    4.634789e-01   5.895858e-03
  2.832700e+00    4.609887e-01   5.882514e-03
  2.834910e+00    4.644137e-01   5.906359e-03
  2.837121e+00    4.674790e-01   5.927541e-03
  2.839331e+00    4.580300e-01   5.868543e-03
  2.841542e+00    4.633106e-01   5.903274e-03
  2.843752e+00    4.757249e-01   5.982616e-03
  2.845963e+00    4.703137e-01   5.948919e-03
  2.848173e+00    4.756484e-01   5.982627e-03
  2.850383e+00    4.717878e-01   5.958610e-03
  2.852594e+00    4.683991e-01   5.937089e-03
  2.854804e+00    4.649944e-01   5.914959e-03
  2.857015e+00    4.685623e-01   5.937193e-03
  2.859225e+00    4.680882e-01   5.933919e-03
  2.861436e+00    4.693952e-01   5.941566e-03
  2.863646e+00    4.457981e-01   5.790303e-03
  2.865857e+00    4.596074e-01   5.879657e-03
  2.868067e+00    4.701179e-01   5.946706e-03
  2.870278e+00    4.694285e-01   5.942016e-03
  2.872488e+00    4.693843e-01   5.940562e-03
  2.874698e+00    4.676563e-01   5.928564e-03
  2.876909e+00    4.768253e-01   5.985051e-03
  2.879119e+00    4.637807e-01   5.901012e-03
  2.881330e+00    4.563415e-01   5.852011e-03
  2.883540e+00    4.598882e-01   5.873336e-03
  2.885751e+00    4.653778e-01   5.906617e-03
  2.887961e+00    4.570765e-01   5.851851e-03
  2.890172e+00    4.503358e-01   5.806948e-03
  2.892382e+00    4.533677e-01   5.824662e-03
  2.894593e+00    4.616625e-01   5.875891e-03
  2.896803e+00    4.695413e-01   5.923818e-03
  2.899014e+00    4.610274e-01   5.867957e-03
  2.901224e+00    4.600334e-01   5.859642e-03
  2.903434e+00    4.537778e-01   5.817728e-03
  2.905645e+00    4.475455e-01   5.775453e-03
  2.907855e+00    4.454241e-01   5.759663e-03
  2.910066e+00    4.662142e-01   5.890456e-03
  2.912276e+00    4.731345e-01   5.931874e-03
  2.914487e+00    4.547853e-01   5.813256e-03
  2.916697e+00    4.559678e-01   5.818592e-03
  2.918908e+00    4.501626e-01   5.779451e-03
  2.921118e+00    4.402599e-01   5.712881e-03
  2.923329e+00    4.464140e-01   5.750386e-03
  2.925539e+00    4.606105e-01   5.838809e-03
  2.927749e+00    4.496577e-01   5.766688e-03
  2.929960e+00    4.686592e-01   5.884457e-03
  2.932170e+00    4.499411e-01   5.763444e-03
  2.934381e+00    4.502999e-01   5.763317e-03
  2.936591e+00    4.466822e-01   5.737556e-03
  2.938802e+00    4.549848e-01   5.787943e-03
  2.941012e+00    4.498217e-01   5.752672e-03
  2.943223e+00    4.483848e-01   5.740810e-03
  2.945433e+00    4.612072e-01   5.818561e-03
  2.947644e+00    4.512230e-01   5.751122e-03
  2.949854e+00    4.493883e-01   5.735176e-03
  2.952064e+00    4.330114e-01   5.625591e-03
  2.954275e+00    4.471744e-01   5.712450e-03
  2.956485e+00    4.547896e-01   5.756732e-03
  2.958696e+00    4.515609e-01   5.731876e-03
  2.960906e+00    4.560322e-01   5.756024e-03
  2.963117e+00    4.504584e-01   5.716259e-03
  2.965327e+00    4.461825e-01   5.685217e-03
  2.967538e+00    4.478228e-01   5.692738e-03
  2.969748e+00    4.590151e-01   5.760622e-03
  2.971959e+00    4.682492e-01   5.815087e-03
  2.974169e+00    4.546300e-01   5.727332e-03
  2.976379e+00    4.592118e-01   5.753156e-03
  2.978590e+00    4.535601e-01   5.714535e-03
  2.980800e+00    4.510678e-01   5.696016e-03
  2.983011e+00    4.614320e-01   5.758252e-03
  2.985221e+00    4.497525e-01   5.681782e-03
  2.987432e+00    4.421832e-01   5.630697e-03
  2.989642e+00    4.529094e-01   5.695954e-03
  2.991853e+00    4.520864e-01   5.687507e-03
  2.994063e+00    4.433592e-01   5.629470e-03
  2.996274e+00    4.422246e-01   5.619118e-03
  2.998484e+00    4.515657e-01   5.675455e-03
  3.000694e+00    4.576384e-01   5.710036e-03
  3.002905e+00    4.458474e-01   5.633085e-03
  3.005115e+00    4.386793e-01   5.584669e-03
  3.007326e+00    4.450127e-01   5.621724e-03
  3.009536e+00    4.564259e-01   5.690080e-03
  3.011747e+00    4.676729e-01   5.756813e-03
  3.013957e+00    4.520848e-01   5.656886e-03
  3.016168e+00    4.567032e-01   5.682427e-03
  3.018378e+00    4.466615e-01   5.616603e-03
  3.020589e+00    4.451619e-01   5.603951e-03
  3.022799e+00    4.459179e-01   5.605598e-03
  3.025010e+00    4.474502e-01   5.611982e-03
  3.027220e+00    4.546495e-01   5.653830e-03
  3.029430e+00    4.537273e-01   5.644855e-03
  3.031641e+00    4.510876e-01   5.625274e-03
  3.033851e+00    4.493263e-01   5.610774e-03
  3.036062e+00    4.469377e-01   5.593070e-03
  3.038272e+00    4.509007e-01   5.614228e-03
  3.040483e+00    4.621983e-01   5.680873e-03
  3.042693e+00    4.525265e-01   5.617880e-03
  3.044904e+00    4.405968e-01   5.539329e-03
  3.047114e+00    4.343425e-01   5.495165e-03
  3.049325e+00    4.479196e-01   5.576010e-03
  3.051535e+00    4.508596e-01   5.589881e-03
  3.053745e+00    4.505683e-01   5.583330e-03
  3.055956e+00    4.615124e-01   5.646096e-03
  3.058166e+00    4.495035e-01   5.567916e-03
  3.060377e+00    4.495997e-01   5.563731e-03
  3.062587e+00    4.431955e-01   5.519377e-03
  3.064798e+00    4.481753e-01   5.546044e-03
  3.067008e+00    4.404957e-01   5.493651e-03
  3.069219e+00    4.305015e-01   5.426548e-03
  3.071429e+00    4.446990e-01   5.511811e-03
  3.073640e+00    4.424916e-01   5.494804e-03
  3.075850e+00    4.472384e-01   5.520640e-03
  3.078060e+00    4.389574e-01   5.466208e-03
  3.080271e+00    4.455529e-01   5.503659e-03
  3.082481e+00    4.382302e-01   5.454855e-03
  3.084692e+00    4.403753e-01   5.464828e-03
  3.086902e+00    4.390197e-01   5.453193e-03
  3.089113e+00    4.467173e-01   5.497235e-03
  3.091323e+00    4.471443e-01   5.496488e-03
  3.093534e+00    4.515055e-01   5.519851e-03
  3.095744e+00    4.417365e-01   5.456454e-03
  3.097955e+00    4.473225e-01   5.487284e-03
  3.100165e+00    4.532142e-01   5.519953e-03
  3.102375e+00    4.549740e-01   5.527226e-03
  3.104586e+00    4.497100e-01   5.491630e-03
  3.106796e+00    4.606552e-01   5.554499e-03
  3.109007e+00    4.409376e-01   5.431127e-03
  3.111217e+00    4.521902e-01   5.496256e-03
  3.113428e+00    4.609036e-01   5.545504e-03
  3.115638e+00    4.455695e-01   5.449231e-03
  3.117849e+00    4.399875e-01   5.411296e-03
  3.120059e+00    4.290397e-01   5.340145e-03
  3.122270e+00    4.423137e-01   5.418868e-03
  3.124480e+00    4.449306e-01   5.431204e-03
  3.126691e+00    4.413620e-01   5.405813e-03
  3.128901e+00    4.354729e-01   5.366551e-03
  3.131111e+00    4.328947e-01   5.346841e-03
  3.133322e+00    4.523047e-01   5.461923e-03
  3.135532e+00    4.427804e-01   5.400723e-03
  3.137743e+00    4.452917e-01   5.412526e-03
  3.139953e+00    4.471136e-01   5.419883e-03
  3.142164e+00    4.450692e-01   5.419529e-03
  3.144374e+00    4.411775e-01   5.424149e-03
  3.146585e+00    4.430589e-01   5.450273e-03
  3.148795e+00    4.491746e-01   5.498620e-03
  3.151006e+00    4.434539e-01   5.472060e-03
  3.153216e+00    4.334466e-01   5.417034e-03
  3.155426e+00    4.384317e-01   5.454370e-03
  3.157637e+00    4.333906e-01   5.428423e-03
  3.159847e+00    4.351718e-01   5.444388e-03
  3.162058e+00    4.460817e-01   5.516690e-03
  3.164268e+00    4.362323e-01   5.459494e-03
  3.166479e+00    4.246981e-01   5.390413e-03
  3.168689e+00    4.291968e-01   5.422220e-03
  3.170900e+00    4.272809e-01   5.413228e-03
  3.173110e+00    4.321749e-01   5.446991e-03
  3.175321e+00    4.317280e-01   5.446658e-03
  3.177531e+00    4.340571e-01   5.464048e-03
  3.179741e+00    4.238848e-01   5.401690e-03
  3.181952e+00    4.343714e-01   5.470185e-03
  3.184162e+00    4.353515e-01   5.478559e-03
  3.186373e+00    4.318118e-01   5.457807e-03
  3.188583e+00    4.395742e-01   5.508462e-03
  3.190794e+00    4.328288e-01   5.467768e-03
  3.193004e+00    4.274375e-01   5.434852e-03
  3.195215e+00    4.116980e-01   5.335305e-03
  3.197425e+00    4.158557e-01   5.363343e-03
  3.199636e+00    4.233232e-01   5.410527e-03
  3.201846e+00    4.336798e-01   5.475724e-03
  3.204056e+00    4.262049e-01   5.429198e-03
  3.206267e+00    4.330408e-01   5.473420e-03
  3.208477e+00    4.274384e-01   5.438802e-03
  3.210688e+00    4.285813e-01   5.446936e-03
  3.212898e+00    4.213738e-01   5.401487e-03
  3.215109e+00    4.355011e-01   5.492037e-03
  3.217319e+00    4.321662e-01   5.471630e-03
  3.219530e+00    4.273771e-01   5.441596e-03
  3.221740e+00    4.309474e-01   5.464843e-03
  3.223951e+00    4.297477e-01   5.457713e-03
  3.226161e+00    4.163137e-01   5.371916e-03
  3.228372e+00    4.231439e-01   5.416316e-03
  3.230582e+00    4.333624e-01   5.481472e-03
  3.232792e+00    4.248433e-01   5.427564e-03
  3.235003e+00    4.163136e-01   5.373027e-03
  3.237213e+00    4.168091e-01   5.376321e-03
  3.239424e+00    4.434119e-01   5.545238e-03
  3.241634e+00    4.256106e-01   5.432928e-03
  3.243845e+00    4.191199e-01   5.391401e-03
  3.246055e+00    4.170813e-01   5.378006e-03
  3.248266e+00    4.286856e-01   5.452510e-03
  3.250476e+00    4.284100e-01   5.450446e-03
  3.252687e+00    4.295171e-01   5.457421e-03
  3.254897e+00    4.410144e-01   5.529824e-03
  3.257107e+00    4.347264e-01   5.489999e-03
  3.259318e+00    4.217294e-01   5.407037e-03
  3.261528e+00    4.177841e-01   5.381566e-03
  3.263739e+00    4.248458e-01   5.426279e-03
  3.265949e+00    4.222112e-01   5.409324e-03
  3.268160e+00    4.273098e-01   5.441455e-03
  3.270370e+00    4.209394e-01   5.400249e-03
  3.272581e+00    4.156032e-01   5.365637e-03
  3.274791e+00    4.237630e-01   5.417516e-03
  3.277002e+00    4.130409e-01   5.348000e-03
  3.279212e+00    4.260067e-01   5.430886e-03
  3.281422e+00    4.228953e-01   5.410466e-03
  3.283633e+00    4.150115e-01   5.359111e-03
  3.285843e+00    4.266493e-01   5.433397e-03
  3.288054e+00    4.194910e-01   5.386687e-03
  3.290264e+00    4.189934e-01   5.383189e-03
  3.292475e+00    4.059179e-01   5.297713e-03
  3.294685e+00    4.192363e-01   5.383248e-03
  3.296896e+00    4.293979e-01   5.447395e-03
  3.299106e+00    4.188849e-01   5.379724e-03
  3.301317e+00    4.144194e-01   5.349946e-03
  3.303527e+00    4.201372e-01   5.386267e-03
  3.305737e+00    4.192302e-01   5.379412e-03
  3.307948e+00    4.221433e-01   5.397397e-03
  3.310158e+00    4.281923e-01   5.435072e-03
  3.312369e+00    4.166603e-01   5.360520e-03
  3.314579e+00    4.232289e-01   5.401684e-03
  3.316790e+00    4.292761e-01   5.439431e-03
  3.319000e+00    4.332027e-01   5.463048e-03
  3.321211e+00    4.259301e-01   5.416400e-03
  3.323421e+00    4.278712e-01   5.427507e-03
  3.325632e+00    4.442780e-01   5.529673e-03
  3.327842e+00    4.267493e-01   5.418577e-03
  3.330052e+00    4.126242e-01   5.327105e-03
  3.332263e+00    4.108507e-01   5.314618e-03
  3.334473e+00    4.017527e-01   5.254575e-03
  3.336684e+00    4.114477e-01   5.316316e-03
  3.338894e+00    4.069448e-01   5.286346e-03
  3.341105e+00    4.268509e-01   5.412839e-03
  3.343315e+00    4.368318e-01   5.474632e-03
  3.345526e+00    4.154935e-01   5.338354e-03
  3.347736e+00    4.047927e-01   5.267779e-03
  3.349947e+00    4.147425e-01   5.331182e-03
  3.352157e+00    4.258229e-01   5.400748e-03
  3.354368e+00    4.342374e-01   5.452544e-03
  3.356578e+00    4.164096e-01   5.338423e-03
  3.358788e+00    4.173211e-01   5.342944e-03
  3.360999e+00    4.141439e-01   5.321308e-03
  3.363209e+00    4.113261e-01   5.302174e-03
  3.365420e+00    4.113423e-01   5.300776e-03
  3.367630e+00    4.134924e-01   5.313601e-03
  3.369841e+00    4.120358e-01   5.302812e-03
  3.372051e+00    3.993036e-01   5.218319e-03
  3.374262e+00    4.021633e-01   5.234558e-03
  3.376472e+00    4.099685e-01   5.282680e-03
  3.378683e+00    4.144685e-01   5.309097e-03
  3.380893e+00    4.183879e-01   5.331806e-03
  3.383103e+00    4.094696e-01   5.271985e-03
  3.385314e+00    4.064693e-01   5.250432e-03
  3.387524e+00    4.160731e-01   5.309340e-03
  3.389735e+00    4.190120e-01   5.325449e-03
  3.391945e+00    4.146354e-01   5.293847e-03
  3.394156e+00    4.000764e-01   5.195946e-03
  3.396366e+00    3.930473e-01   5.146771e-03
  3.398577e+00    4.062437e-01   5.229411e-03
  3.400787e+00    4.034722e-01   5.223363e-03
  3.402998e+00    4.034158e-01   5.260731e-03
  3.405208e+00    4.103871e-01   5.326810e-03
  3.407418e+00    3.836884e-01   5.166047e-03
  3.409629e+00    3.938175e-01   5.247623e-03
  3.411839e+00    3.785100e-01   5.156090e-03
  3.414050e+00    4.096532e-01   5.375169e-03
  3.416260e+00    3.972071e-01   5.302589e-03
  3.418471e+00    4.007666e-01   5.335772e-03
  3.420681e+00    3.958006e-01   5.311164e-03
  3.422892e+00    3.885653e-01   5.270349e-03
  3.425102e+00    4.017546e-01   5.367010e-03
  3.427313e+00    3.957121e-01   5.333724e-03
  3.429523e+00    3.966406e-01   5.347161e-03
  3.431733e+00    3.714814e-01   5.181329e-03
  3.433944e+00    3.859734e-01   5.287900e-03
  3.436154e+00    3.859162e-01   5.293791e-03
  3.438365e+00    3.870948e-01   5.307842e-03
  3.440575e+00    3.604890e-01   5.127945e-03
  3.442786e+00    3.660961e-01   5.173187e-03
  3.444996e+00    3.750837e-01   5.241779e-03
  3.447207e+00    3.740974e-01   5.240188e-03
  3.449417e+00    3.522678e-01   5.124742e-03
  3.451628e+00    3.592030e-01   5.203963e-03
  3.453838e+00    3.555241e-01   5.198084e-03
  3.456049e+00    3.717470e-01   5.339399e-03
  3.458259e+00    3.717411e-01   5.361461e-03
  3.460469e+00    3.780987e-01   5.427194e-03
  3.462680e+00    3.828894e-01   5.480984e-03
  3.464890e+00    3.581648e-01   5.318657e-03
  3.467101e+00    3.607273e-01   5.354947e-03
  3.469311e+00    3.942798e-01   5.615507e-03
  3.471522e+00    3.884148e-01   5.590292e-03
  3.473732e+00    3.878451e-01   5.602341e-03
  3.475943e+00    4.001987e-01   5.706898e-03
  3.478153e+00    3.933204e-01   5.673230e-03
  3.480364e+00    3.988132e-01   5.727909e-03
  3.482574e+00    4.105634e-01   5.827171e-03
  3.484784e+00    4.342189e-01   6.007981e-03
  3.486995e+00    4.398533e-01   6.062381e-03
  3.489205e+00    4.334165e-01   6.032685e-03
  3.491416e+00    4.390804e-01   6.087102e-03
  3.493626e+00    4.373604e-01   6.089800e-03
  3.495837e+00    4.427435e-01   6.141947e-03
  3.498047e+00    4.555556e-01   6.244852e-03
  3.500258e+00    4.685348e-01   6.348037e-03
  3.502468e+00    4.800336e-01   6.440275e-03
  3.504679e+00    4.809657e-01   6.461345e-03
  3.506889e+00    4.728543e-01   6.421194e-03
  3.509099e+00    4.753969e-01   6.452820e-03
  3.511310e+00    4.860072e-01   6.539057e-03
  3.513520e+00    4.839402e-01   6.539593e-03
  3.515731e+00    4.936434e-01   6.619304e-03
  3.517941e+00    5.068418e-01   6.721828e-03
  3.520152e+00    5.116001e-01   6.767849e-03
  3.522362e+00    5.081296e-01   6.759477e-03
  3.524573e+00    5.022452e-01   6.734411e-03
  3.526783e+00    5.273739e-01   6.914407e-03
  3.528994e+00    5.290498e-01   6.937773e-03
  3.531204e+00    5.221825e-01   6.905065e-03
  3.533414e+00    5.350937e-01   7.002094e-03
  3.535625e+00    5.484248e-01   7.101402e-03
  3.537835e+00    5.149762e-01   6.893340e-03
  3.540046e+00    5.522119e-01   7.147273e-03
  3.542256e+00    5.396407e-01   7.073016e-03
  3.544467e+00    5.382072e-01   7.071250e-03
  3.546677e+00    5.525366e-01   7.172443e-03
  3.548888e+00    5.443627e-01   7.126784e-03
  3.551098e+00    5.364952e-01   7.082360e-03
  3.553309e+00    5.389889e-01   7.107010e-03
  3.555519e+00    5.413025e-01   7.133568e-03
  3.557729e+00    5.476459e-01   7.187118e-03
  3.559940e+00    5.288345e-01   7.074080e-03
  3.562150e+00    5.247601e-01   7.058340e-03
  3.564361e+00    5.352116e-01   7.141599e-03
  3.566571e+00    5.408432e-01   7.192980e-03
  3.568782e+00    5.469202e-01   7.247512e-03
  3.570992e+00    5.537395e-01   7.306552e-03
  3.573203e+00    5.429856e-01   7.249503e-03
  3.575413e+00    5.517529e-01   7.321755e-03
  3.577624e+00    5.291824e-01   7.184485e-03
  3.579834e+00    5.392360e-01   7.266322e-03
  3.582045e+00    5.492932e-01   7.347967e-03
  3.584255e+00    5.463557e-01   7.342507e-03
  3.586465e+00    5.247691e-01   7.209761e-03
  3.588676e+00    5.362580e-01   7.302463e-03
  3.590886e+00    5.321857e-01   7.288346e-03
  3.593097e+00    5.327723e-01   7.306797e-03
  3.595307e+00    5.441636e-01   7.398568e-03
  3.597518e+00    5.246279e-01   7.278570e-03
  3.599728e+00    5.458982e-01   7.438918e-03
  3.601939e+00    5.382255e-01   7.400568e-03
  3.604149e+00    5.416903e-01   7.438838e-03
  3.606360e+00    5.406325e-01   7.445767e-03
  3.608570e+00    5.360245e-01   7.428128e-03
  3.610780e+00    5.517963e-01   7.547878e-03
  3.612991e+00    5.425640e-01   7.494516e-03
  3.615201e+00    5.597928e-01   7.622631e-03
  3.617412e+00    5.508306e-01   7.568746e-03
  3.619622e+00    5.438333e-01   7.526518e-03
  3.621833e+00    5.311366e-01   7.444846e-03
  3.624043e+00    5.551146e-01   7.620705e-03
  3.626254e+00    5.180261e-01   7.371296e-03
  3.628464e+00    5.332299e-01   7.489661e-03
  3.630675e+00    5.168787e-01   7.387775e-03
  3.632885e+00    5.441220e-01   7.594578e-03
  3.635095e+00    5.475476e-01   7.633050e-03
  3.637306e+00    5.345290e-01   7.556157e-03
  3.639516e+00    5.282071e-01   7.525768e-03
  3.641727e+00    5.307379e-01   7.558317e-03
  3.643937e+00    5.323962e-01   7.584671e-03
  3.646148e+00    5.189702e-01   7.502815e-03
  3.648358e+00    5.389342e-01   7.660715e-03
  3.650569e+00    5.303779e-01   7.614356e-03
  3.652779e+00    5.303089e-01   7.628597e-03
  3.654990e+00    5.486633e-01   7.774605e-03
  3.657200e+00    5.271476e-01   7.635476e-03
  3.659410e+00    5.304422e-01   7.674237e-03
  3.661621e+00    5.334148e-01   7.710815e-03
  3.663831e+00    5.277635e-01   7.684941e-03
  3.666042e+00    5.475187e-01   7.842841e-03
  3.668252e+00    5.259507e-01   7.701969e-03
  3.670463e+00    5.387459e-01   7.810419e-03
  3.672673e+00    5.279155e-01   7.746933e-03
  3.674884e+00    5.346830e-01   7.811836e-03
  3.677094e+00    5.388957e-01   7.858239e-03
  3.679305e+00    5.242730e-01   7.766339e-03
  3.681515e+00    5.365295e-01   7.872283e-03
  3.683726e+00    5.347523e-01   7.875145e-03
  3.685936e+00    5.241352e-01   7.812180e-03
  3.688146e+00    5.311567e-01   7.880171e-03
  3.690357e+00    5.217167e-01   7.825704e-03
  3.692567e+00    5.176882e-01   7.811387e-03
  3.694778e+00    5.163029e-01   7.816809e-03
  3.696988e+00    5.353650e-01   7.975945e-03
  3.699199e+00    5.337033e-01   7.979898e-03
  3.701409e+00    5.481484e-01   8.103937e-03
  3.703620e+00    5.205988e-01   7.913909e-03
  3.705830e+00    5.291586e-01   7.995140e-03
  3.708041e+00    5.253808e-01   7.983200e-03
  3.710251e+00    4.933580e-01   7.752326e-03
  3.712461e+00    5.117736e-01   7.912157e-03
  3.714672e+00    5.327939e-01   8.089990e-03
  3.716882e+00    5.414252e-01   8.172263e-03
  3.719093e+00    5.264131e-01   8.075466e-03
  3.721303e+00    5.319306e-01   8.134773e-03
  3.723514e+00    5.215876e-01   8.072631e-03
  3.725724e+00    5.215074e-01   8.089200e-03
  3.727935e+00    5.322189e-01   8.189574e-03
  3.730145e+00    5.080650e-01   8.018765e-03
  3.732356e+00    5.051423e-01   8.012963e-03
  3.734566e+00    5.390838e-01   8.295756e-03
  3.736776e+00    5.121996e-01   8.104010e-03
  3.738987e+00    5.259621e-01   8.230024e-03
  3.741197e+00    5.231102e-01   8.225928e-03
  3.743408e+00    5.189037e-01   8.210937e-03
  3.745618e+00    4.975322e-01   8.058049e-03
  3.747829e+00    5.202736e-01   8.258429e-03
  3.750039e+00    5.161625e-01   8.244190e-03
  3.752250e+00    5.271026e-01   8.349884e-03
  3.754460e+00    5.040348e-01   8.183573e-03
  3.756671e+00    5.022377e-01   8.187586e-03
  3.758881e+00    5.136473e-01   8.298835e-03
  3.761091e+00    5.026856e-01   8.228808e-03
  3.763302e+00    5.059252e-01   8.274338e-03
  3.765512e+00    4.932784e-01   8.189260e-03
  3.767723e+00    4.982477e-01   8.249561e-03
  3.769933e+00    4.985025e-01   8.270863e-03
  3.772144e+00    4.986516e-01   8.291502e-03
  3.774354e+00    5.126179e-01   8.426817e-03
  3.776565e+00    5.218384e-01   8.522443e-03
  3.778775e+00    5.384979e-01   8.678030e-03
  3.780986e+00    5.233724e-01   8.575977e-03
  3.783196e+00    5.359464e-01   8.699311e-03
  3.785407e+00    4.904543e-01   8.342055e-03
  3.787617e+00    5.074402e-01   8.506114e-03
  3.789827e+00    5.098126e-01   8.546680e-03
  3.792038e+00    5.181891e-01   8.637761e-03
  3.794248e+00    4.985346e-01   8.493486e-03
  3.796459e+00    4.843966e-01   8.393196e-03
  3.798669e+00    4.913276e-01   8.474172e-03
  3.800880e+00    4.721092e-01   8.327603e-03
  3.803090e+00    5.257018e-01   8.809939e-03
  3.805301e+00    4.806558e-01   8.445745e-03
  3.807511e+00    4.988056e-01   8.625627e-03
  3.809722e+00    4.993298e-01   8.652400e-03
  3.811932e+00    5.096257e-01   8.763617e-03
  3.814142e+00    4.972245e-01   8.679185e-03
  3.816353e+00    4.955037e-01   8.686859e-03
  3.818563e+00    4.956532e-01   8.711210e-03
  3.820774e+00    5.120679e-01   8.877822e-03
  3.822984e+00    4.844510e-01   8.658115e-03
  3.825195e+00    4.790831e-01   8.633246e-03
  3.827405e+00    5.037872e-01   8.877142e-03
  3.829616e+00    4.710920e-01   8.607658e-03
  3.831826e+00    4.944529e-01   8.842490e-03
  3.834037e+00    5.336288e-01   9.211658e-03
  3.836247e+00    4.828794e-01   8.786958e-03
  3.838457e+00    4.720157e-01   8.711969e-03
  3.840668e+00    4.782612e-01   8.794135e-03
  3.842878e+00    5.115903e-01   9.121268e-03
  3.845089e+00    4.968014e-01   9.014152e-03
  3.847299e+00    4.893696e-01   8.972086e-03
  3.849510e+00    4.763979e-01   8.877696e-03
  3.851720e+00    4.943313e-01   9.064664e-03
  3.853931e+00    5.005736e-01   9.140854e-03
  3.856141e+00    5.022103e-01   9.174900e-03
  3.858352e+00    5.011477e-01   9.184598e-03
  3.860562e+00    5.028416e-01   9.219578e-03
  3.862772e+00    4.940754e-01   9.158441e-03
  3.864983e+00    5.035396e-01   9.265596e-03
  3.867193e+00    4.955902e-01   9.211995e-03
  3.869404e+00    4.820060e-01   9.104482e-03
  3.871614e+00    4.860534e-01   9.162406e-03
  3.873825e+00    4.950358e-01   9.267075e-03
  3.876035e+00    4.715568e-01   9.064721e-03
  3.878246e+00    4.866833e-01   9.234575e-03
  3.880456e+00    4.958253e-01   9.350074e-03
  3.882667e+00    4.779072e-01   9.208421e-03
  3.884877e+00    4.872555e-01   9.327649e-03
  3.887087e+00    5.013140e-01   9.491531e-03
  3.889298e+00    4.817128e-01   9.334168e-03
  3.891508e+00    4.747011e-01   9.296005e-03
  3.893719e+00    4.944815e-01   9.518785e-03
  3.895929e+00    4.841634e-01   9.450211e-03
  3.898140e+00    4.876917e-01   9.516173e-03
  3.900350e+00    4.952870e-01   9.622302e-03
  3.902561e+00    5.274650e-01   9.963494e-03
  3.904771e+00    4.935333e-01   9.670696e-03
  3.906982e+00    4.869598e-01   9.639109e-03
  3.909192e+00    4.775923e-01   9.579034e-03
  3.911403e+00    4.901443e-01   9.738130e-03
  3.913613e+00    4.896894e-01   9.767862e-03
  3.915823e+00    4.959055e-01   9.864869e-03
  3.918034e+00    4.784741e-01   9.724715e-03
  3.920244e+00    4.867930e-01   9.844617e-03
  3.922455e+00    5.018002e-01   1.003176e-02
  3.924665e+00    5.302700e-01   1.035041e-02
  3.926876e+00    5.155212e-01   1.024365e-02
  3.929086e+00    4.506539e-01   9.613435e-03
  3.931297e+00    4.797088e-01   9.952958e-03
  3.933507e+00    5.014280e-01   1.020506e-02
  3.935718e+00    5.121058e-01   1.034279e-02
  3.937928e+00    4.678568e-01   9.914597e-03
  3.940138e+00    4.899880e-01   1.017577e-02
  3.942349e+00    5.102875e-01   1.041503e-02
  3.944559e+00    4.783737e-01   1.011387e-02
  3.946770e+00    4.805578e-01   1.016687e-02
  3.948980e+00    4.652745e-01   1.003393e-02
  3.951191e+00    4.890473e-01   1.031801e-02
  3.953401e+00    4.860630e-01   1.031779e-02
  3.955612e+00    4.598996e-01   1.006704e-02
  3.957822e+00    5.101057e-01   1.063479e-02
  3.960033e+00    4.884219e-01   1.043903e-02
  3.962243e+00    4.938235e-01   1.052970e-02
  3.964453e+00    4.901150e-01   1.052331e-02
  3.966664e+00    5.058668e-01   1.072518e-02
  3.968874e+00    5.038803e-01   1.073307e-02
  3.971085e+00    4.663719e-01   1.034736e-02
  3.973295e+00    4.829419e-01   1.055093e-02
  3.975506e+00    5.022691e-01   1.078194e-02
  3.977716e+00    5.173007e-01   1.096482e-02
  3.979927e+00    4.983548e-01   1.078460e-02
  3.982137e+00    4.769846e-01   1.057298e-02
  3.984348e+00    4.226559e-01   9.973655e-03
  3.986558e+00    4.901081e-01   1.076243e-02
  3.988768e+00    4.813830e-01   1.068924e-02
  3.990979e+00    4.874342e-01   1.077894e-02
  3.993189e+00    4.869933e-01   1.079720e-02
  3.995400e+00    4.981673e-01   1.094417e-02
  3.997610e+00    5.066335e-01   1.106738e-02
  3.999821e+00    4.730001e-01   1.073068e-02
  4.002031e+00    4.566572e-01   1.058102e-02
  4.004242e+00    4.677711e-01   1.074669e-02
  4.006452e+00    4.589747e-01   1.068354e-02
  4.008663e+00    4.341042e-01   1.042799e-02
  4.010873e+00    4.640042e-01   1.082005e-02
  4.013084e+00    5.172506e-01   1.146643e-02
  4.015294e+00    4.982529e-01   1.129550e-02
  4.017504e+00    4.662543e-01   1.096782e-02
  4.019715e+00    4.705874e-01   1.106048e-02
  4.021925e+00    4.887185e-01   1.131475e-02
  4.024136e+00    5.227057e-01   1.174701e-02
  4.026346e+00    4.966955e-01   1.149578e-02
  4.028557e+00    4.747957e-01   1.128336e-02
  4.030767e+00    4.923846e-01   1.153645e-02
  4.032978e+00    5.191276e-01   1.189357e-02
  4.035188e+00    4.825663e-01   1.151332e-02
  4.037399e+00    4.770607e-01   1.149464e-02
  4.039609e+00    4.976535e-01   1.178858e-02
  4.041819e+00    4.995931e-01   1.186108e-02
  4.044030e+00    4.742546e-01   1.160579e-02
  4.046240e+00    4.590490e-01   1.146686e-02
  4.048451e+00    4.856488e-01   1.184542e-02
  4.050661e+00    4.943209e-01   1.200275e-02
  4.052872e+00    5.128809e-01   1.228053e-02
  4.055082e+00    4.656591e-01   1.175397e-02
  4.057293e+00    4.893100e-01   1.210291e-02
  4.059503e+00    4.641108e-01   1.184068e-02
  4.061714e+00    5.005524e-01   1.235443e-02
  4.063924e+00    4.943598e-01   1.233516e-02
  4.066134e+00    4.815732e-01   1.223204e-02
  4.068345e+00    4.631157e-01   1.205306e-02
  4.070555e+00    5.098467e-01   1.270752e-02
  4.072766e+00    4.953007e-01   1.258669e-02
  4.074976e+00    4.722896e-01   1.235203e-02
  4.077187e+00    4.905169e-01   1.265084e-02
  4.079397e+00    4.603972e-01   1.231871e-02
  4.081608e+00    5.166352e-01   1.311733e-02
  4.083818e+00    4.849968e-01   1.277541e-02
  4.086029e+00    5.174697e-01   1.326587e-02
  4.088239e+00    4.169549e-01   1.197218e-02
  4.090449e+00    4.900771e-01   1.304971e-02
  4.092660e+00    5.019863e-01   1.328014e-02
  4.094870e+00    4.669865e-01   1.287994e-02
  4.097081e+00    4.791957e-01   1.311880e-02
  4.099291e+00    4.514320e-01   1.278577e-02
  4.101502e+00    4.730146e-01   1.313653e-02
  4.103712e+00    4.711060e-01   1.315901e-02
  4.105923e+00    4.873459e-01   1.343564e-02
  4.108133e+00    4.893390e-01   1.351500e-02
  4.110344e+00    4.737771e-01   1.334918e-02
  4.112554e+00    5.024148e-01   1.380112e-02
  4.114764e+00    4.791370e-01   1.353165e-02
  4.116975e+00    4.819649e-01   1.362514e-02
  4.119185e+00    5.355967e-01   1.442144e-02
  4.121396e+00    5.093052e-01   1.412122e-02
  4.123606e+00    4.987633e-01   1.403158e-02
  4.125817e+00    4.939137e-01   1.402184e-02
  4.128027e+00    4.647773e-01   1.365904e-02
  4.130238e+00    4.957610e-01   1.416760e-02
  4.132448e+00    4.765169e-01   1.395017e-02
  4.134659e+00    4.752689e-01   1.399175e-02
  4.136869e+00    4.764628e-01   1.407194e-02
  4.139080e+00    4.643625e-01   1.395467e-02
  4.141290e+00    4.681682e-01   1.407370e-02
  4.143500e+00    4.870291e-01   1.442059e-02
  4.145711e+00    5.012732e-01   1.469858e-02
  4.147921e+00    4.511325e-01   1.400787e-02
  4.150132e+00    4.733790e-01   1.441756e-02
  4.152342e+00    4.633102e-01   1.433247e-02
  4.154553e+00    4.793322e-01   1.464765e-02
  4.156763e+00    4.640731e-01   1.448382e-02
  4.158974e+00    4.180034e-01   1.381520e-02
  4.161184e+00    4.668480e-01   1.467250e-02
  4.163395e+00    4.840254e-01   1.501626e-02
  4.165605e+00    5.226461e-01   1.568494e-02
  4.167815e+00    4.917994e-01   1.529475e-02
  4.170026e+00    4.654349e-01   1.495714e-02
  4.172236e+00    5.024345e-01   1.562455e-02
  4.174447e+00    4.806432e-01   1.536492e-02
  4.176657e+00    4.390584e-01   1.476578e-02
  4.178868e+00    4.338367e-01   1.476050e-02
  4.181078e+00    4.749894e-01   1.553171e-02
  4.183289e+00    4.531993e-01   1.525827e-02
  4.185499e+00    4.829365e-01   1.584379e-02
  4.187710e+00    4.557883e-01   1.548228e-02
  4.189920e+00    4.654343e-01   1.573907e-02
  4.192130e+00    5.053560e-01   1.650082e-02
  4.194341e+00    4.738617e-01   1.607625e-02
  4.196551e+00    4.719518e-01   1.614541e-02
  4.198762e+00    4.987511e-01   1.670304e-02
  4.200972e+00    4.789128e-01   1.647315e-02
  4.203183e+00    4.900454e-01   1.677346e-02
  4.205393e+00    5.096341e-01   1.721933e-02
  4.207604e+00    4.824889e-01   1.686889e-02
  4.209814e+00    4.928126e-01   1.716494e-02
  4.212025e+00    5.033079e-01   1.746994e-02
  4.214235e+00    4.694743e-01   1.699213e-02
  4.216445e+00    4.480183e-01   1.671937e-02
  4.218656e+00    4.493330e-01   1.686930e-02
  4.220866e+00    5.248247e-01   1.836627e-02
  4.223077e+00    5.242462e-01   1.849755e-02
  4.225287e+00    4.962658e-01   1.813872e-02
  4.227498e+00    4.646551e-01   1.768913e-02
  4.229708e+00    5.144752e-01   1.876446e-02
  4.231919e+00    4.989800e-01   1.863276e-02
  4.234129e+00    4.871483e-01   1.856510e-02
  4.236340e+00    4.742343e-01   1.847401e-02
  4.238550e+00    4.425116e-01   1.800276e-02
  4.240761e+00    4.867565e-01   1.904832e-02
  4.242971e+00    4.877673e-01   1.924245e-02
  4.245181e+00    4.779009e-01   1.922634e-02
  4.247392e+00    4.778057e-01   1.940352e-02
  4.249602e+00    5.151310e-01   2.034771e-02
  4.251813e+00    4.582952e-01   1.938184e-02
  4.254023e+00    3.691996e-01   1.757083e-02
  4.256234e+00    4.657586e-01   1.994610e-02
  4.258444e+00    4.508584e-01   1.982997e-02
  4.260655e+00    4.680440e-01   2.042687e-02
  4.262865e+00    4.963153e-01   2.127298e-02
  4.265076e+00    4.632357e-01   2.078563e-02
  4.267286e+00    5.208526e-01   2.230175e-02
  4.269496e+00    4.765237e-01   2.159221e-02
  4.271707e+00    4.319816e-01   2.081172e-02
  4.273917e+00    5.811909e-01   2.445199e-02
  4.276128e+00    5.048497e-01   2.309299e-02
  4.278338e+00    5.016726e-01   2.332706e-02
  4.280549e+00    4.946893e-01   2.349686e-02
  4.282759e+00    3.920576e-01   2.121822e-02
  4.284970e+00    4.914920e-01   2.410835e-02
  4.287180e+00    4.295329e-01   2.280847e-02
  4.289391e+00    4.087895e-01   2.241737e-02
  4.291601e+00    4.196875e-01   2.289588e-02
  4.293811e+00    4.585508e-01   2.411916e-02
  4.296022e+00    4.900835e-01   2.513510e-02
  4.298232e+00    5.025361e-01   2.566582e-02
  4.300443e+00    4.993529e-01   2.579551e-02
  4.302653e+00    4.605311e-01   2.498705e-02
  4.304864e+00    5.340001e-01   2.713916e-02
  4.307074e+00    5.335175e-01   2.737123e-02
  4.309285e+00    4.773352e-01   2.612476e-02
  4.311495e+00    5.269693e-01   2.770641e-02
  4.313706e+00    4.557320e-01   2.600723e-02
  4.315916e+00    3.934772e-01   2.440451e-02
  4.318126e+00    4.572298e-01   2.656728e-02
  4.320337e+00    4.195430e-01   2.570625e-02
  4.322547e+00    3.782640e-01   2.466719e-02
  4.324758e+00    3.913664e-01   2.535162e-02
  4.326968e+00    5.747805e-01   3.106971e-02
  4.329179e+00    4.756185e-01   2.857461e-02
  4.331389e+00    4.736573e-01   2.884380e-02
  4.333600e+00    4.310138e-01   2.784324e-02
  4.335810e+00    4.584870e-01   2.905836e-02
  4.338021e+00    5.138128e-01   3.115582e-02
  4.340231e+00    4.692915e-01   3.014939e-02
  4.342442e+00    5.149155e-01   3.200368e-02
  4.344652e+00    4.911672e-01   3.168275e-02
  4.346862e+00    4.357188e-01   3.025814e-02
  4.349073e+00    3.318621e-01   2.679159e-02
  4.351283e+00    3.234102e-01   2.684203e-02
  4.353494e+00    4.248942e-01   3.124267e-02
  4.355704e+00    5.508095e-01   3.614541e-02
  4.357915e+00    3.710981e-01   3.016144e-02
  4.360125e+00    4.293106e-01   3.299550e-02
  4.362336e+00    4.566039e-01   3.464787e-02
  4.364546e+00    4.797473e-01   3.616222e-02
  4.366757e+00    5.237156e-01   3.853444e-02
  4.368967e+00    4.328747e-01   3.573240e-02
  4.371177e+00    4.598337e-01   3.761153e-02
  4.373388e+00    6.156948e-01   4.449324e-02
  4.375598e+00    5.322275e-01   4.231273e-02
  4.377809e+00    4.041127e-01   3.780151e-02
  4.380019e+00    4.618539e-01   4.142939e-02
  4.382230e+00    4.869772e-01   4.373088e-02
  4.384440e+00    2.446021e-01   3.188077e-02
  4.386651e+00    3.548923e-01   3.958719e-02
  4.388861e+00    6.039658e-01   5.337879e-02
  4.391072e+00    4.636558e-01   4.841044e-02
  4.393282e+00    4.591160e-01   5.003601e-02
  4.395492e+00    3.435417e-01   4.508240e-02
  4.397703e+00    3.473028e-01   4.739847e-02
  4.399913e+00    4.596524e-01   5.729385e-02
  4.402124e+00    1.890547e-01   3.882377e-02
  4.404334e+00    2.896719e-01   5.108374e-02
  4.406545e+00    1.667544e-01   4.165003e-02
  4.408755e+00    2.874170e-01   5.928862e-02
  4.410966e+00    2.993293e-01   6.697037e-02
  4.413176e+00    3.590370e-01   8.302197e-02
  4.415387e+00   -2.281443e-01            nan
  4.417597e+00   -1.658404e+00            nan
  4.419807e+00    2.807437e-01   1.902519e-01
