# == pyFAI calibration ==
# Distance Sample to Detector: 0.216 m
# PONI: 1.166e-01, 1.308e-01 m
# Rotations: 0.000000 0.000000 0.000000 rad
# 
# == Fit2d calibration ==
# Distance Sample-beamCenter: 216.000 mm
# Center: x=1744.293, y=1555.000 pix
# Tilt: 0.000 deg  TiltPlanRot: 0.000 deg
# 
# Detector Eiger 9M	 PixelSize= 7.500e-05, 7.500e-05 m
#    Detector has a mask: True 
#    Detector has a dark current: False 
#    detector has a flat field: False 
# 
# Wavelength: 9.8e-11 m
# Mask applied: from detector
# Dark current applied: False
# Flat field applied: False
# Polarization factor: None
# Normalization factor: 1.0
# 
# Headers of the input frame:
# {
# "_array_data.header_convention": "SLS_1.0",
# "_array_data.header_contents": "# Detector: Dectris Eiger 9M, S/N E-18-0102\r\n# Pixel_size 75e-6 m x 75e-6 m\r\n# Silicon sensor, thickness 0.000450 m\r\n# Exposure_time 0.024997 s\r\n# Exposure_period 0.025000 s\r\n# Count_cutoff 62318 counts\r\n# Wavelength 0.980106 A\r\n# Detector_distance 0.215992 m\r\n# Beam_xy (1555, 1744) pixels\r\n# Start_angle 0.000000 deg.\r\n# Angle_increment 0.000000 deg.",
# "Content-Type": "application/octet-stream;",
# "conversions": "x-CBF_BYTE_OFFSET",
# "Content-Transfer-Encoding": "BINARY",
# "X-Binary-Size": "10166594",
# "X-Binary-ID": "1",
# "X-Binary-Element-Type": "signed 32-bit integer",
# "X-Binary-Element-Byte-Order": "LITTLE_ENDIAN",
# "Content-MD5": "QjLubN1qxy+ouFCRxRZ9xg==",
# "X-Binary-Number-of-Elements": "10166590",
# "X-Binary-Size-Fastest-Dimension": "3110",
# "X-Binary-Size-Second-Dimension": "3269",
# "X-Binary-Size-Padding": "4095"
# }
# --> H:/Proxima2a_2019-04-05/RAW_DATA/C5_gel17_position5/C5_mesh_1_data.cbf/C5_mesh_1_data.cbf000124.dat
#        q_A^-1              I           sigma 
  1.105228e-03    1.046796e+00   5.536280e-01
  3.315685e-03    1.475307e+00   3.995642e-01
  5.526141e-03    1.265917e+00   2.862034e-01
  7.736597e-03    1.100524e+00   2.254343e-01
  9.947054e-03    1.206077e+00   2.080482e-01
  1.215751e-02    1.416435e+00   2.038764e-01
  1.436797e-02    1.413176e+00   1.873156e-01
  1.657842e-02    1.224788e+00   1.623211e-01
  1.878888e-02    1.340574e+00   1.595177e-01
  2.099934e-02    1.466020e+00   1.578236e-01
  2.320979e-02    1.480650e+00   1.508547e-01
  2.542025e-02    1.539775e+00   1.470070e-01
  2.763070e-02    1.522088e+00   1.401878e-01
  2.984116e-02    1.402703e+00   1.294969e-01
  3.205162e-02    1.373984e+00   1.236736e-01
  3.426207e-02    1.421318e+00   1.216523e-01
  3.647253e-02    1.552978e+00   1.232459e-01
  3.868299e-02    1.447880e+00   1.155612e-01
  4.089344e-02    1.495824e+00   1.142407e-01
  4.310390e-02    1.572008e+00   1.140647e-01
  4.531436e-02    1.587320e+00   1.117888e-01
  4.752481e-02    1.422185e+00   1.033230e-01
  4.973527e-02    1.272640e+00   9.554423e-02
  5.194572e-02    1.363441e+00   9.676561e-02
  5.415618e-02    1.435905e+00   9.725270e-02
  5.636664e-02    1.358197e+00   9.271428e-02
  5.857709e-02    1.462784e+00   9.438536e-02
  6.078755e-02    1.445920e+00   9.211482e-02
  6.299801e-02    1.438004e+00   9.023532e-02
  6.520846e-02    1.424455e+00   8.827447e-02
  6.741892e-02    1.469724e+00   8.817951e-02
  6.962938e-02    1.536223e+00   8.871425e-02
  7.183983e-02    1.522158e+00   8.693647e-02
  7.405029e-02    1.427429e+00   8.291985e-02
  7.626074e-02    1.361781e+00   7.980759e-02
  7.847120e-02    1.329048e+00   7.772205e-02
  8.068166e-02    1.488206e+00   8.110915e-02
  8.289211e-02    1.538385e+00   8.135781e-02
  8.510257e-02    1.514632e+00   7.967150e-02
  8.731303e-02    1.487427e+00   7.794396e-02
  8.952348e-02    1.518982e+00   7.779001e-02
  9.173394e-02    1.414459e+00   7.415306e-02
  9.394439e-02    1.424451e+00   7.353143e-02
  9.615485e-02    1.502520e+00   7.464485e-02
  9.836531e-02    1.517554e+00   7.416765e-02
  1.005758e-01    1.511779e+00   7.320885e-02
  1.027862e-01    1.553475e+00   7.340742e-02
  1.049967e-01    1.582953e+00   7.331518e-02
  1.072071e-01    1.507852e+00   7.081255e-02
  1.094176e-01    1.406087e+00   6.768592e-02
  1.116280e-01    1.567488e+00   7.075249e-02
  1.138385e-01    1.581468e+00   7.037259e-02
  1.160490e-01    1.541899e+00   6.882083e-02
  1.182594e-01    1.512791e+00   6.752659e-02
  1.204699e-01    1.460982e+00   6.574807e-02
  1.226803e-01    1.580220e+00   6.775684e-02
  1.248908e-01    1.604930e+00   6.767675e-02
  1.271012e-01    1.532359e+00   6.555015e-02
  1.293117e-01    1.452719e+00   6.327535e-02
  1.315222e-01    1.487017e+00   6.347623e-02
  1.337326e-01    1.551687e+00   6.430247e-02
  1.359431e-01    1.612263e+00   6.558397e-02
  1.381535e-01    1.531414e+00   6.477642e-02
  1.403640e-01    1.513569e+00   6.467593e-02
  1.425744e-01    1.522913e+00   6.497892e-02
  1.447849e-01    1.560397e+00   6.578888e-02
  1.469953e-01    1.598676e+00   6.654925e-02
  1.492058e-01    1.548641e+00   6.542343e-02
  1.514163e-01    1.561221e+00   6.557953e-02
  1.536267e-01    1.549877e+00   6.521329e-02
  1.558372e-01    1.589198e+00   6.588951e-02
  1.580476e-01    1.634638e+00   6.666274e-02
  1.602581e-01    1.604739e+00   6.588251e-02
  1.624685e-01    1.598556e+00   6.557544e-02
  1.646790e-01    1.621942e+00   6.586371e-02
  1.668895e-01    1.631527e+00   6.586724e-02
  1.690999e-01    1.697028e+00   6.697468e-02
  1.713104e-01    1.780686e+00   6.839273e-02
  1.735208e-01    1.820136e+00   6.893121e-02
  1.757313e-01    1.708726e+00   6.657892e-02
  1.779417e-01    1.918231e+00   7.031246e-02
  1.801522e-01    1.896601e+00   6.969226e-02
  1.823626e-01    1.834878e+00   6.832062e-02
  1.845731e-01    1.846358e+00   6.831202e-02
  1.867836e-01    1.919220e+00   6.941181e-02
  1.889940e-01    1.888513e+00   6.862932e-02
  1.912045e-01    1.954412e+00   6.958326e-02
  1.934149e-01    1.967562e+00   6.958333e-02
  1.956254e-01    1.894397e+00   6.805214e-02
  1.978358e-01    1.943216e+00   6.868719e-02
  2.000463e-01    1.972825e+00   6.897920e-02
  2.022568e-01    1.970370e+00   6.870996e-02
  2.044672e-01    2.023314e+00   6.938847e-02
  2.066777e-01    1.905727e+00   6.711848e-02
  2.088881e-01    2.008676e+00   6.868206e-02
  2.110986e-01    1.978747e+00   6.793475e-02
  2.133090e-01    1.891064e+00   6.619660e-02
  2.155195e-01    1.950601e+00   6.700755e-02
  2.177300e-01    1.917638e+00   6.591703e-02
  2.199404e-01    1.882457e+00   6.358869e-02
  2.221509e-01    1.857854e+00   6.213444e-02
  2.243613e-01    1.970076e+00   6.317237e-02
  2.265718e-01    2.036070e+00   6.351388e-02
  2.287822e-01    2.105646e+00   6.395066e-02
  2.309927e-01    2.053154e+00   6.257324e-02
  2.332031e-01    2.078206e+00   6.241501e-02
  2.354136e-01    2.117868e+00   6.249713e-02
  2.376241e-01    2.100278e+00   6.175399e-02
  2.398345e-01    2.105639e+00   6.137513e-02
  2.420450e-01    2.135052e+00   6.136062e-02
  2.442554e-01    2.183089e+00   6.161961e-02
  2.464659e-01    2.157960e+00   6.085263e-02
  2.486763e-01    2.055425e+00   5.899896e-02
  2.508868e-01    2.063204e+00   5.873759e-02
  2.530973e-01    2.070667e+00   5.847892e-02
  2.553077e-01    2.120502e+00   5.881949e-02
  2.575182e-01    2.080445e+00   5.791658e-02
  2.597286e-01    2.033574e+00   5.692759e-02
  2.619391e-01    2.022423e+00   5.644445e-02
  2.641495e-01    2.003665e+00   5.587112e-02
  2.663600e-01    2.059899e+00   5.633820e-02
  2.685704e-01    2.045800e+00   5.584073e-02
  2.707809e-01    1.948236e+00   5.420369e-02
  2.729914e-01    2.013443e+00   5.481615e-02
  2.752018e-01    1.987819e+00   5.418276e-02
  2.774123e-01    1.981720e+00   5.382321e-02
  2.796227e-01    1.932223e+00   5.288391e-02
  2.818332e-01    1.893672e+00   5.209252e-02
  2.840436e-01    1.935865e+00   5.241433e-02
  2.862541e-01    1.980298e+00   5.275762e-02
  2.884646e-01    1.914858e+00   5.163238e-02
  2.906750e-01    1.963539e+00   5.203668e-02
  2.928855e-01    1.960610e+00   5.175691e-02
  2.950959e-01    1.926877e+00   5.107407e-02
  2.973064e-01    1.858419e+00   4.993314e-02
  2.995168e-01    1.822897e+00   4.922964e-02
  3.017273e-01    1.894808e+00   4.996997e-02
  3.039377e-01    1.944409e+00   5.039815e-02
  3.061482e-01    1.878898e+00   4.932756e-02
  3.083587e-01    1.862463e+00   4.889876e-02
  3.105691e-01    1.872702e+00   4.882355e-02
  3.127796e-01    1.960975e+00   4.975096e-02
  3.149900e-01    1.897159e+00   4.873086e-02
  3.172005e-01    1.904490e+00   4.862525e-02
  3.194109e-01    1.934317e+00   4.880226e-02
  3.216214e-01    1.932728e+00   4.858315e-02
  3.238319e-01    1.935669e+00   4.842750e-02
  3.260423e-01    1.854277e+00   4.720961e-02
  3.282528e-01    1.866056e+00   4.717077e-02
  3.304632e-01    1.856114e+00   4.686270e-02
  3.326737e-01    1.878834e+00   4.696466e-02
  3.348841e-01    1.866046e+00   4.662308e-02
  3.370946e-01    1.877203e+00   4.658630e-02
  3.393050e-01    1.818736e+00   4.568138e-02
  3.415155e-01    1.870301e+00   4.615024e-02
  3.437260e-01    1.839564e+00   4.559984e-02
  3.459364e-01    1.814973e+00   4.512645e-02
  3.481469e-01    1.852520e+00   4.542443e-02
  3.503573e-01    1.839687e+00   4.510194e-02
  3.525678e-01    1.807912e+00   4.455139e-02
  3.547782e-01    1.810013e+00   4.441614e-02
  3.569887e-01    1.811230e+00   4.427367e-02
  3.591992e-01    1.820536e+00   4.423019e-02
  3.614096e-01    1.770174e+00   4.346291e-02
  3.636201e-01    1.791659e+00   4.357221e-02
  3.658305e-01    1.753003e+00   4.295257e-02
  3.680410e-01    1.812340e+00   4.352327e-02
  3.702514e-01    1.815606e+00   4.341596e-02
  3.724619e-01    1.787797e+00   4.293548e-02
  3.746724e-01    1.793976e+00   4.286610e-02
  3.768828e-01    1.787895e+00   4.264940e-02
  3.790933e-01    1.804265e+00   4.270459e-02
  3.813037e-01    1.733444e+00   4.172114e-02
  3.835142e-01    1.787342e+00   4.222564e-02
  3.857246e-01    1.798187e+00   4.221648e-02
  3.879351e-01    1.788997e+00   4.197219e-02
  3.901455e-01    1.774750e+00   4.167162e-02
  3.923560e-01    1.785027e+00   4.165930e-02
  3.945665e-01    1.775430e+00   4.141537e-02
  3.967769e-01    1.796691e+00   4.153215e-02
  3.989874e-01    1.769408e+00   4.108692e-02
  4.011978e-01    1.766202e+00   4.092343e-02
  4.034083e-01    1.738951e+00   4.048184e-02
  4.056187e-01    1.752146e+00   4.050996e-02
  4.078292e-01    1.793633e+00   4.086271e-02
  4.100397e-01    1.821271e+00   4.105061e-02
  4.122501e-01    1.791259e+00   4.058918e-02
  4.144606e-01    1.788630e+00   4.043911e-02
  4.166710e-01    1.732316e+00   3.967910e-02
  4.188815e-01    1.765412e+00   3.993800e-02
  4.210919e-01    1.765215e+00   3.981874e-02
  4.233024e-01    1.812342e+00   4.022809e-02
  4.255128e-01    1.804161e+00   4.002119e-02
  4.277233e-01    1.744947e+00   3.924584e-02
  4.299338e-01    1.737262e+00   3.904666e-02
  4.321442e-01    1.710928e+00   3.863869e-02
  4.343547e-01    1.805385e+00   3.957871e-02
  4.365651e-01    1.767013e+00   3.904462e-02
  4.387756e-01    1.723094e+00   3.844836e-02
  4.409860e-01    1.684316e+00   3.790796e-02
  4.431965e-01    1.729300e+00   3.830460e-02
  4.454070e-01    1.789088e+00   3.885276e-02
  4.476174e-01    1.745242e+00   3.826836e-02
  4.498279e-01    1.773080e+00   3.846740e-02
  4.520383e-01    1.736968e+00   3.796920e-02
  4.542488e-01    1.699166e+00   3.745247e-02
  4.564592e-01    1.742836e+00   3.782894e-02
  4.586697e-01    1.678765e+00   3.702855e-02
  4.608801e-01    1.733952e+00   3.753144e-02
  4.630906e-01    1.742790e+00   3.752736e-02
  4.653011e-01    1.710116e+00   3.707615e-02
  4.675115e-01    1.706553e+00   3.693996e-02
  4.697220e-01    1.677598e+00   3.652935e-02
  4.719324e-01    1.662880e+00   3.627470e-02
  4.741429e-01    1.653046e+00   3.607406e-02
  4.763533e-01    1.633770e+00   3.577119e-02
  4.785638e-01    1.655268e+00   3.591274e-02
  4.807743e-01    1.707359e+00   3.638069e-02
  4.829847e-01    1.712836e+00   3.634696e-02
  4.851952e-01    1.698002e+00   3.609763e-02
  4.874056e-01    1.740800e+00   3.645757e-02
  4.896161e-01    1.733457e+00   3.629038e-02
  4.918265e-01    1.680817e+00   3.564639e-02
  4.940370e-01    1.663557e+00   3.537533e-02
  4.962475e-01    1.647240e+00   3.511448e-02
  4.984579e-01    1.655405e+00   3.511464e-02
  5.006684e-01    1.662284e+00   3.510174e-02
  5.028788e-01    1.676666e+00   3.516784e-02
  5.050893e-01    1.658365e+00   3.489031e-02
  5.072997e-01    1.698984e+00   3.522973e-02
  5.095102e-01    1.679844e+00   3.494682e-02
  5.117206e-01    1.660305e+00   3.466037e-02
  5.139311e-01    1.641058e+00   3.437734e-02
  5.161416e-01    1.628729e+00   3.416703e-02
  5.183520e-01    1.683275e+00   3.465188e-02
  5.205625e-01    1.699010e+00   3.473193e-02
  5.227729e-01    1.682170e+00   3.447877e-02
  5.249834e-01    1.653418e+00   3.410348e-02
  5.271938e-01    1.665900e+00   3.415209e-02
  5.294043e-01    1.644490e+00   3.385361e-02
  5.316148e-01    1.738079e+00   3.472387e-02
  5.338252e-01    1.738585e+00   3.464958e-02
  5.360357e-01    1.723530e+00   3.442070e-02
  5.382461e-01    1.712130e+00   3.422911e-02
  5.404566e-01    1.758313e+00   3.460874e-02
  5.426670e-01    1.722579e+00   3.417810e-02
  5.448775e-01    1.703519e+00   3.391253e-02
  5.470879e-01    1.730483e+00   3.410365e-02
  5.492984e-01    1.777604e+00   3.448799e-02
  5.515089e-01    1.752741e+00   3.417000e-02
  5.537193e-01    1.796656e+00   3.451920e-02
  5.559298e-01    1.801118e+00   3.448623e-02
  5.581402e-01    1.776317e+00   3.417314e-02
  5.603507e-01    1.775721e+00   3.409303e-02
  5.625611e-01    1.815012e+00   3.439337e-02
  5.647716e-01    1.773853e+00   3.392736e-02
  5.669821e-01    1.760648e+00   3.372795e-02
  5.691925e-01    1.770447e+00   3.374909e-02
  5.714030e-01    1.778324e+00   3.375196e-02
  5.736134e-01    1.730351e+00   3.322280e-02
  5.758239e-01    1.701338e+00   3.287275e-02
  5.780343e-01    1.737867e+00   3.315352e-02
  5.802448e-01    1.661484e+00   3.234888e-02
  5.824552e-01    1.690566e+00   3.256230e-02
  5.846657e-01    1.675716e+00   3.235139e-02
  5.868762e-01    1.626358e+00   3.180503e-02
  5.890866e-01    1.626665e+00   3.174204e-02
  5.912971e-01    1.604869e+00   3.146336e-02
  5.935075e-01    1.652156e+00   3.185757e-02
  5.957180e-01    1.630687e+00   3.158497e-02
  5.979284e-01    1.645577e+00   3.166407e-02
  6.001389e-01    1.628455e+00   3.143477e-02
  6.023494e-01    1.634154e+00   3.142579e-02
  6.045598e-01    1.608922e+00   3.111876e-02
  6.067703e-01    1.626455e+00   3.122491e-02
  6.089807e-01    1.687817e+00   3.174453e-02
  6.111912e-01    1.673086e+00   3.154261e-02
  6.134016e-01    1.655101e+00   3.131002e-02
  6.156121e-01    1.665618e+00   3.134693e-02
  6.178226e-01    1.661623e+00   3.124731e-02
  6.200330e-01    1.657009e+00   3.114235e-02
  6.222435e-01    1.673158e+00   3.123173e-02
  6.244539e-01    1.672098e+00   3.116072e-02
  6.266644e-01    1.635242e+00   3.075527e-02
  6.288748e-01    1.656177e+00   3.089126e-02
  6.310853e-01    1.670649e+00   3.096570e-02
  6.332957e-01    1.679510e+00   3.098777e-02
  6.355062e-01    1.713921e+00   3.124280e-02
  6.377167e-01    1.735894e+00   3.138211e-02
  6.399271e-01    1.699555e+00   3.099240e-02
  6.421376e-01    1.676813e+00   3.072558e-02
  6.443480e-01    1.647584e+00   3.039868e-02
  6.465585e-01    1.679252e+00   3.063128e-02
  6.487689e-01    1.665552e+00   3.044849e-02
  6.509794e-01    1.676004e+00   3.048624e-02
  6.531899e-01    1.654020e+00   3.022872e-02
  6.554003e-01    1.620337e+00   2.986307e-02
  6.576108e-01    1.598390e+00   2.960492e-02
  6.598212e-01    1.592985e+00   2.949990e-02
  6.620317e-01    1.614473e+00   2.964315e-02
  6.642421e-01    1.583972e+00   2.930749e-02
  6.664526e-01    1.565748e+00   2.908471e-02
  6.686630e-01    1.569488e+00   2.906559e-02
  6.708735e-01    1.590206e+00   2.920313e-02
  6.730840e-01    1.635756e+00   2.956443e-02
  6.752944e-01    1.611174e+00   2.928808e-02
  6.775049e-01    1.632056e+00   2.942375e-02
  6.797153e-01    1.615134e+00   2.921782e-02
  6.819258e-01    1.555382e+00   2.862056e-02
  6.841362e-01    1.574805e+00   2.874689e-02
  6.863467e-01    1.596266e+00   2.889029e-02
  6.885572e-01    1.606784e+00   2.893337e-02
  6.907676e-01    1.621632e+00   2.901466e-02
  6.929781e-01    1.605428e+00   2.881803e-02
  6.951885e-01    1.607879e+00   2.878893e-02
  6.973990e-01    1.599549e+00   2.866351e-02
  6.996094e-01    1.582401e+00   2.845928e-02
  7.018199e-01    1.578879e+00   2.837769e-02
  7.040303e-01    1.589961e+00   2.842709e-02
  7.062408e-01    1.613697e+00   2.858833e-02
  7.084513e-01    1.593501e+00   2.835946e-02
  7.106617e-01    1.560887e+00   2.801896e-02
  7.128722e-01    1.585415e+00   2.818941e-02
  7.150826e-01    1.574601e+00   2.804468e-02
  7.172931e-01    1.569573e+00   2.795160e-02
  7.195035e-01    1.549956e+00   2.772861e-02
  7.217140e-01    1.592612e+00   2.815733e-02
  7.239245e-01    1.557970e+00   2.807494e-02
  7.261349e-01    1.557907e+00   2.818240e-02
  7.283454e-01    1.549269e+00   2.817598e-02
  7.305558e-01    1.577462e+00   2.848523e-02
  7.327663e-01    1.548756e+00   2.826701e-02
  7.349767e-01    1.589794e+00   2.865551e-02
  7.371872e-01    1.551206e+00   2.829452e-02
  7.393976e-01    1.532538e+00   2.810967e-02
  7.416081e-01    1.539130e+00   2.815406e-02
  7.438186e-01    1.619079e+00   2.872968e-02
  7.460290e-01    1.589653e+00   2.817181e-02
  7.482395e-01    1.527205e+00   2.744432e-02
  7.504499e-01    1.546640e+00   2.748335e-02
  7.526604e-01    1.551824e+00   2.741365e-02
  7.548708e-01    1.536361e+00   2.718842e-02
  7.570813e-01    1.541998e+00   2.718778e-02
  7.592918e-01    1.574155e+00   2.743466e-02
  7.615022e-01    1.591615e+00   2.755240e-02
  7.637127e-01    1.571653e+00   2.734634e-02
  7.659231e-01    1.518266e+00   2.684644e-02
  7.681336e-01    1.504986e+00   2.669787e-02
  7.703440e-01    1.510799e+00   2.671879e-02
  7.725545e-01    1.555728e+00   2.708246e-02
  7.747650e-01    1.618863e+00   2.758781e-02
  7.769754e-01    1.588481e+00   2.727480e-02
  7.791859e-01    1.565559e+00   2.702398e-02
  7.813963e-01    1.551924e+00   2.685388e-02
  7.836068e-01    1.595922e+00   2.717970e-02
  7.858172e-01    1.615980e+00   2.729885e-02
  7.880277e-01    1.629708e+00   2.736239e-02
  7.902381e-01    1.658590e+00   2.755364e-02
  7.924486e-01    1.650152e+00   2.743257e-02
  7.946591e-01    1.611670e+00   2.706233e-02
  7.968695e-01    1.630589e+00   2.717202e-02
  7.990800e-01    1.582337e+00   2.671912e-02
  8.012904e-01    1.612844e+00   2.692879e-02
  8.035009e-01    1.607820e+00   2.683899e-02
  8.057113e-01    1.609418e+00   2.680588e-02
  8.079218e-01    1.635558e+00   2.697605e-02
  8.101323e-01    1.637359e+00   2.694510e-02
  8.123427e-01    1.589750e+00   2.650519e-02
  8.145532e-01    1.640072e+00   2.687535e-02
  8.167636e-01    1.642982e+00   2.685395e-02
  8.189741e-01    1.613291e+00   2.656586e-02
  8.211845e-01    1.613665e+00   2.652439e-02
  8.233950e-01    1.605003e+00   2.641010e-02
  8.256054e-01    1.615701e+00   2.645404e-02
  8.278159e-01    1.658793e+00   2.676025e-02
  8.300264e-01    1.644118e+00   2.659846e-02
  8.322368e-01    1.648991e+00   2.659459e-02
  8.344473e-01    1.635092e+00   2.643894e-02
  8.366577e-01    1.640996e+00   2.644402e-02
  8.388682e-01    1.658375e+00   2.654120e-02
  8.410786e-01    1.627059e+00   2.624751e-02
  8.432891e-01    1.606669e+00   2.604108e-02
  8.454996e-01    1.613648e+00   2.605628e-02
  8.477100e-01    1.605652e+00   2.595039e-02
  8.499205e-01    1.625700e+00   2.607089e-02
  8.521309e-01    1.630305e+00   2.606708e-02
  8.543414e-01    1.638642e+00   2.609286e-02
  8.565518e-01    1.643875e+00   2.609382e-02
  8.587623e-01    1.625107e+00   2.590403e-02
  8.609727e-01    1.604417e+00   2.569871e-02
  8.631832e-01    1.610271e+00   2.570583e-02
  8.653937e-01    1.641787e+00   2.591629e-02
  8.676041e-01    1.592153e+00   2.548305e-02
  8.698146e-01    1.599203e+00   2.550034e-02
  8.720250e-01    1.625521e+00   2.567015e-02
  8.742355e-01    1.601038e+00   2.543731e-02
  8.764459e-01    1.598178e+00   2.537581e-02
  8.786564e-01    1.577246e+00   2.517151e-02
  8.808669e-01    1.595639e+00   2.527946e-02
  8.830773e-01    1.576870e+00   2.509251e-02
  8.852878e-01    1.552042e+00   2.485687e-02
  8.874982e-01    1.556654e+00   2.485763e-02
  8.897087e-01    1.588306e+00   2.507156e-02
  8.919191e-01    1.586384e+00   2.501880e-02
  8.941296e-01    1.575569e+00   2.489638e-02
  8.963401e-01    1.574141e+00   2.484895e-02
  8.985505e-01    1.589304e+00   2.493150e-02
  9.007610e-01    1.605924e+00   2.502472e-02
  9.029714e-01    1.631170e+00   2.518447e-02
  9.051819e-01    1.610714e+00   2.498873e-02
  9.073923e-01    1.595850e+00   2.483661e-02
  9.096028e-01    1.558300e+00   2.450824e-02
  9.118132e-01    1.548980e+00   2.439918e-02
  9.140237e-01    1.569430e+00   2.452344e-02
  9.162342e-01    1.588583e+00   2.463818e-02
  9.184446e-01    1.597224e+00   2.466938e-02
  9.206551e-01    1.629036e+00   2.487794e-02
  9.228655e-01    1.585081e+00   2.450493e-02
  9.250760e-01    1.585469e+00   2.447275e-02
  9.272864e-01    1.607818e+00   2.461032e-02
  9.294969e-01    1.576378e+00   2.433301e-02
  9.317074e-01    1.603669e+00   2.450803e-02
  9.339178e-01    1.631563e+00   2.468651e-02
  9.361283e-01    1.615008e+00   2.452474e-02
  9.383387e-01    1.654634e+00   2.479003e-02
  9.405492e-01    1.629326e+00   2.456535e-02
  9.427596e-01    1.650234e+00   2.468688e-02
  9.449701e-01    1.627907e+00   2.448600e-02
  9.471805e-01    1.624817e+00   2.442808e-02
  9.493910e-01    1.684162e+00   2.483606e-02
  9.516015e-01    1.677451e+00   2.475193e-02
  9.538119e-01    1.674303e+00   2.469481e-02
  9.560224e-01    1.722478e+00   2.501229e-02
  9.582328e-01    1.738814e+00   2.509693e-02
  9.604433e-01    1.738004e+00   2.505554e-02
  9.626537e-01    1.791443e+00   2.540361e-02
  9.648642e-01    1.816050e+00   2.554247e-02
  9.670747e-01    1.825407e+00   2.557286e-02
  9.692851e-01    1.811441e+00   2.544100e-02
  9.714956e-01    1.843610e+00   2.562969e-02
  9.737060e-01    1.870895e+00   2.578475e-02
  9.759165e-01    1.899607e+00   2.594521e-02
  9.781269e-01    1.895405e+00   2.588261e-02
  9.803374e-01    1.879396e+00   2.573742e-02
  9.825478e-01    1.852198e+00   2.551682e-02
  9.847583e-01    1.842598e+00   2.541603e-02
  9.869688e-01    1.843959e+00   2.539137e-02
  9.891792e-01    1.861050e+00   2.547489e-02
  9.913897e-01    1.874973e+00   2.553548e-02
  9.936001e-01    1.839009e+00   2.525631e-02
  9.958106e-01    1.719641e+00   2.438971e-02
  9.980210e-01    1.624953e+00   2.367792e-02
  1.000231e+00    1.638469e+00   2.390643e-02
  1.002442e+00    1.645257e+00   2.408319e-02
  1.004652e+00    1.625308e+00   2.400353e-02
  1.006863e+00    1.599185e+00   2.385923e-02
  1.009073e+00    1.610083e+00   2.397704e-02
  1.011284e+00    1.577170e+00   2.376245e-02
  1.013494e+00    1.538167e+00   2.349005e-02
  1.015705e+00    1.535241e+00   2.348988e-02
  1.017915e+00    1.515603e+00   2.335524e-02
  1.020126e+00    1.501366e+00   2.326099e-02
  1.022336e+00    1.503026e+00   2.328531e-02
  1.024547e+00    1.513589e+00   2.337808e-02
  1.026757e+00    1.503376e+00   2.330732e-02
  1.028967e+00    1.508662e+00   2.335585e-02
  1.031178e+00    1.523898e+00   2.347963e-02
  1.033388e+00    1.535411e+00   2.357324e-02
  1.035599e+00    1.485972e+00   2.319397e-02
  1.037809e+00    1.524633e+00   2.349702e-02
  1.040020e+00    1.487665e+00   2.321166e-02
  1.042230e+00    1.517536e+00   2.344547e-02
  1.044441e+00    1.512172e+00   2.340379e-02
  1.046651e+00    1.484202e+00   2.318651e-02
  1.048862e+00    1.475223e+00   2.311547e-02
  1.051072e+00    1.462834e+00   2.301588e-02
  1.053282e+00    1.464781e+00   2.303024e-02
  1.055493e+00    1.496195e+00   2.327158e-02
  1.057703e+00    1.480993e+00   2.315157e-02
  1.059914e+00    1.457331e+00   2.296165e-02
  1.062124e+00    1.439033e+00   2.281306e-02
  1.064335e+00    1.444595e+00   2.285370e-02
  1.066545e+00    1.440308e+00   2.281387e-02
  1.068756e+00    1.455401e+00   2.292937e-02
  1.070966e+00    1.432815e+00   2.274434e-02
  1.073177e+00    1.405402e+00   2.251979e-02
  1.075387e+00    1.423534e+00   2.265944e-02
  1.077597e+00    1.417305e+00   2.260269e-02
  1.079808e+00    1.415854e+00   2.246059e-02
  1.082018e+00    1.422773e+00   2.232893e-02
  1.084229e+00    1.423105e+00   2.222292e-02
  1.086439e+00    1.417440e+00   2.209234e-02
  1.088650e+00    1.413609e+00   2.198788e-02
  1.090860e+00    1.431746e+00   2.206137e-02
  1.093071e+00    1.420557e+00   2.191347e-02
  1.095281e+00    1.401971e+00   2.171327e-02
  1.097492e+00    1.414039e+00   2.175220e-02
  1.099702e+00    1.417347e+00   2.172665e-02
  1.101912e+00    1.423614e+00   2.172606e-02
  1.104123e+00    1.412473e+00   2.159305e-02
  1.106333e+00    1.442491e+00   2.177670e-02
  1.108544e+00    1.462886e+00   2.188537e-02
  1.110754e+00    1.477817e+00   2.195296e-02
  1.112965e+00    1.475069e+00   2.189128e-02
  1.115175e+00    1.511465e+00   2.211722e-02
  1.117386e+00    1.491941e+00   2.193359e-02
  1.119596e+00    1.439974e+00   2.151000e-02
  1.121807e+00    1.378193e+00   2.100510e-02
  1.124017e+00    1.406718e+00   2.118470e-02
  1.126228e+00    1.418499e+00   2.123731e-02
  1.128438e+00    1.396945e+00   2.103863e-02
  1.130648e+00    1.382464e+00   2.089520e-02
  1.132859e+00    1.353311e+00   2.063987e-02
  1.135069e+00    1.374337e+00   2.076508e-02
  1.137280e+00    1.407088e+00   2.097786e-02
  1.139490e+00    1.352196e+00   2.053198e-02
  1.141701e+00    1.353188e+00   2.050674e-02
  1.143911e+00    1.369112e+00   2.059535e-02
  1.146122e+00    1.343351e+00   2.036912e-02
  1.148332e+00    1.342863e+00   2.033395e-02
  1.150543e+00    1.345783e+00   2.032557e-02
  1.152753e+00    1.356124e+00   2.037290e-02
  1.154963e+00    1.369282e+00   2.044049e-02
  1.157174e+00    1.384670e+00   2.052476e-02
  1.159384e+00    1.368143e+00   2.037209e-02
  1.161595e+00    1.350064e+00   2.020742e-02
  1.163805e+00    1.351806e+00   2.019136e-02
  1.166016e+00    1.363536e+00   2.024939e-02
  1.168226e+00    1.383372e+00   2.036701e-02
  1.170437e+00    1.379715e+00   2.031132e-02
  1.172647e+00    1.375477e+00   2.025109e-02
  1.174858e+00    1.365091e+00   2.014640e-02
  1.177068e+00    1.379536e+00   2.022426e-02
  1.179278e+00    1.407541e+00   2.039946e-02
  1.181489e+00    1.410593e+00   2.039406e-02
  1.183699e+00    1.395216e+00   2.025466e-02
  1.185910e+00    1.389800e+00   2.018722e-02
  1.188120e+00    1.341518e+00   1.980692e-02
  1.190331e+00    1.356597e+00   1.989114e-02
  1.192541e+00    1.356254e+00   1.986124e-02
  1.194752e+00    1.354970e+00   1.982477e-02
  1.196962e+00    1.342179e+00   1.970531e-02
  1.199173e+00    1.322563e+00   1.953457e-02
  1.201383e+00    1.315258e+00   1.945373e-02
  1.203593e+00    1.342063e+00   1.962621e-02
  1.205804e+00    1.358068e+00   1.971690e-02
  1.208014e+00    1.370057e+00   1.977669e-02
  1.210225e+00    1.355246e+00   1.964413e-02
  1.212435e+00    1.338668e+00   1.949893e-02
  1.214646e+00    1.334183e+00   1.944027e-02
  1.216856e+00    1.341866e+00   1.947078e-02
  1.219067e+00    1.322602e+00   1.930629e-02
  1.221277e+00    1.304050e+00   1.914582e-02
  1.223488e+00    1.317377e+00   1.921795e-02
  1.225698e+00    1.345642e+00   1.939617e-02
  1.227909e+00    1.357976e+00   1.945461e-02
  1.230119e+00    1.333351e+00   1.924575e-02
  1.232329e+00    1.325230e+00   1.915662e-02
  1.234540e+00    1.324580e+00   1.912191e-02
  1.236750e+00    1.339145e+00   1.919661e-02
  1.238961e+00    1.348481e+00   1.923647e-02
  1.241171e+00    1.333525e+00   1.910545e-02
  1.243382e+00    1.326260e+00   1.903004e-02
  1.245592e+00    1.313576e+00   1.891505e-02
  1.247803e+00    1.306058e+00   1.883758e-02
  1.250013e+00    1.316032e+00   1.888611e-02
  1.252224e+00    1.352004e+00   1.911921e-02
  1.254434e+00    1.390485e+00   1.936530e-02
  1.256644e+00    1.388249e+00   1.932620e-02
  1.258855e+00    1.385533e+00   1.928372e-02
  1.261065e+00    1.353708e+00   1.903756e-02
  1.263276e+00    1.351508e+00   1.899913e-02
  1.265486e+00    1.351611e+00   1.897695e-02
  1.267697e+00    1.361073e+00   1.902015e-02
  1.269907e+00    1.388092e+00   1.918499e-02
  1.272118e+00    1.393268e+00   1.919780e-02
  1.274328e+00    1.366400e+00   1.898892e-02
  1.276539e+00    1.351901e+00   1.886511e-02
  1.278749e+00    1.353958e+00   1.885712e-02
  1.280959e+00    1.366513e+00   1.892168e-02
  1.283170e+00    1.375546e+00   1.896149e-02
  1.285380e+00    1.344746e+00   1.872560e-02
  1.287591e+00    1.322036e+00   1.854499e-02
  1.289801e+00    1.345027e+00   1.868436e-02
  1.292012e+00    1.350810e+00   1.870740e-02
  1.294222e+00    1.353458e+00   1.870946e-02
  1.296433e+00    1.345727e+00   1.864038e-02
  1.298643e+00    1.354081e+00   1.868164e-02
  1.300854e+00    1.356412e+00   1.868127e-02
  1.303064e+00    1.333382e+00   1.850290e-02
  1.305274e+00    1.350858e+00   1.860230e-02
  1.307485e+00    1.360553e+00   1.864731e-02
  1.309695e+00    1.374797e+00   1.872222e-02
  1.311906e+00    1.359261e+00   1.859436e-02
  1.314116e+00    1.352025e+00   1.852399e-02
  1.316327e+00    1.360186e+00   1.855804e-02
  1.318537e+00    1.379242e+00   1.866546e-02
  1.320748e+00    1.361538e+00   1.852365e-02
  1.322958e+00    1.377740e+00   1.861279e-02
  1.325169e+00    1.393842e+00   1.869988e-02
  1.327379e+00    1.395367e+00   1.868794e-02
  1.329589e+00    1.387250e+00   1.861216e-02
  1.331800e+00    1.357404e+00   1.839011e-02
  1.334010e+00    1.351750e+00   1.833108e-02
  1.336221e+00    1.383053e+00   1.852010e-02
  1.338431e+00    1.376522e+00   1.845527e-02
  1.340642e+00    1.344483e+00   1.830325e-02
  1.342852e+00    1.339392e+00   1.836884e-02
  1.345063e+00    1.360795e+00   1.856470e-02
  1.347273e+00    1.356263e+00   1.856910e-02
  1.349484e+00    1.377861e+00   1.874431e-02
  1.351694e+00    1.391031e+00   1.885674e-02
  1.353905e+00    1.418231e+00   1.905864e-02
  1.356115e+00    1.404464e+00   1.898128e-02
  1.358325e+00    1.382806e+00   1.884783e-02
  1.360536e+00    1.365346e+00   1.874016e-02
  1.362746e+00    1.352567e+00   1.866181e-02
  1.364957e+00    1.352950e+00   1.867214e-02
  1.367167e+00    1.355349e+00   1.869585e-02
  1.369378e+00    1.360227e+00   1.873551e-02
  1.371588e+00    1.360067e+00   1.873958e-02
  1.373799e+00    1.363996e+00   1.877034e-02
  1.376009e+00    1.346585e+00   1.865356e-02
  1.378220e+00    1.344874e+00   1.864423e-02
  1.380430e+00    1.329460e+00   1.853980e-02
  1.382640e+00    1.314332e+00   1.843491e-02
  1.384851e+00    1.309224e+00   1.839993e-02
  1.387061e+00    1.282833e+00   1.821381e-02
  1.389272e+00    1.312034e+00   1.842016e-02
  1.391482e+00    1.305995e+00   1.837705e-02
  1.393693e+00    1.299108e+00   1.832765e-02
  1.395903e+00    1.285949e+00   1.823310e-02
  1.398114e+00    1.269048e+00   1.811151e-02
  1.400324e+00    1.250683e+00   1.797789e-02
  1.402535e+00    1.251887e+00   1.798423e-02
  1.404745e+00    1.262601e+00   1.805866e-02
  1.406955e+00    1.293694e+00   1.827696e-02
  1.409166e+00    1.266711e+00   1.808207e-02
  1.411376e+00    1.246178e+00   1.793181e-02
  1.413587e+00    1.267571e+00   1.808128e-02
  1.415797e+00    1.268481e+00   1.808423e-02
  1.418008e+00    1.234234e+00   1.779717e-02
  1.420218e+00    1.229077e+00   1.761263e-02
  1.422429e+00    1.285164e+00   1.792418e-02
  1.424639e+00    1.290390e+00   1.789541e-02
  1.426850e+00    1.286550e+00   1.781370e-02
  1.429060e+00    1.274031e+00   1.767775e-02
  1.431270e+00    1.280581e+00   1.767864e-02
  1.433481e+00    1.257269e+00   1.747624e-02
  1.435691e+00    1.256890e+00   1.743537e-02
  1.437902e+00    1.270974e+00   1.749631e-02
  1.440112e+00    1.258757e+00   1.737683e-02
  1.442323e+00    1.255991e+00   1.732486e-02
  1.444533e+00    1.251652e+00   1.726260e-02
  1.446744e+00    1.268511e+00   1.734734e-02
  1.448954e+00    1.275646e+00   1.736582e-02
  1.451165e+00    1.259937e+00   1.722893e-02
  1.453375e+00    1.265293e+00   1.723750e-02
  1.455586e+00    1.259677e+00   1.717118e-02
  1.457796e+00    1.251516e+00   1.708812e-02
  1.460006e+00    1.282285e+00   1.726953e-02
  1.462217e+00    1.258931e+00   1.708547e-02
  1.464427e+00    1.255160e+00   1.703436e-02
  1.466638e+00    1.261311e+00   1.705083e-02
  1.468848e+00    1.261232e+00   1.702501e-02
  1.471059e+00    1.285280e+00   1.716132e-02
  1.473269e+00    1.282871e+00   1.712073e-02
  1.475480e+00    1.292627e+00   1.716171e-02
  1.477690e+00    1.281582e+00   1.706428e-02
  1.479901e+00    1.247634e+00   1.681312e-02
  1.482111e+00    1.237833e+00   1.672388e-02
  1.484321e+00    1.225544e+00   1.661793e-02
  1.486532e+00    1.238997e+00   1.668677e-02
  1.488742e+00    1.281869e+00   1.695025e-02
  1.490953e+00    1.231455e+00   1.659129e-02
  1.493163e+00    1.226030e+00   1.653272e-02
  1.495374e+00    1.258927e+00   1.673161e-02
  1.497584e+00    1.261227e+00   1.672527e-02
  1.499795e+00    1.226144e+00   1.646964e-02
  1.502005e+00    1.233319e+00   1.649630e-02
  1.504216e+00    1.259807e+00   1.665146e-02
  1.506426e+00    1.253047e+00   1.658596e-02
  1.508636e+00    1.275087e+00   1.671060e-02
  1.510847e+00    1.251577e+00   1.653405e-02
  1.513057e+00    1.265106e+00   1.659799e-02
  1.515268e+00    1.254079e+00   1.649979e-02
  1.517478e+00    1.242267e+00   1.639687e-02
  1.519689e+00    1.266356e+00   1.653000e-02
  1.521899e+00    1.233931e+00   1.629408e-02
  1.524110e+00    1.247358e+00   1.636220e-02
  1.526320e+00    1.247252e+00   1.634195e-02
  1.528531e+00    1.256996e+00   1.638587e-02
  1.530741e+00    1.233739e+00   1.621454e-02
  1.532951e+00    1.230496e+00   1.617379e-02
  1.535162e+00    1.229544e+00   1.625342e-02
  1.537372e+00    1.229164e+00   1.631730e-02
  1.539583e+00    1.223661e+00   1.631460e-02
  1.541793e+00    1.235226e+00   1.639844e-02
  1.544004e+00    1.223951e+00   1.632368e-02
  1.546214e+00    1.245046e+00   1.646224e-02
  1.548425e+00    1.252433e+00   1.651129e-02
  1.550635e+00    1.220114e+00   1.630643e-02
  1.552846e+00    1.237430e+00   1.643135e-02
  1.555056e+00    1.252862e+00   1.649189e-02
  1.557266e+00    1.229800e+00   1.622959e-02
  1.559477e+00    1.213785e+00   1.606520e-02
  1.561687e+00    1.225033e+00   1.610901e-02
  1.563898e+00    1.241888e+00   1.620233e-02
  1.566108e+00    1.242069e+00   1.618756e-02
  1.568319e+00    1.233956e+00   1.611906e-02
  1.570529e+00    1.228588e+00   1.605898e-02
  1.572740e+00    1.244696e+00   1.613630e-02
  1.574950e+00    1.239808e+00   1.607831e-02
  1.577161e+00    1.254487e+00   1.614765e-02
  1.579371e+00    1.233511e+00   1.598851e-02
  1.581582e+00    1.228551e+00   1.593669e-02
  1.583792e+00    1.236537e+00   1.597043e-02
  1.586002e+00    1.242515e+00   1.599139e-02
  1.588213e+00    1.237493e+00   1.594185e-02
  1.590423e+00    1.253070e+00   1.602173e-02
  1.592634e+00    1.254213e+00   1.600731e-02
  1.594844e+00    1.273879e+00   1.611066e-02
  1.597055e+00    1.230657e+00   1.581461e-02
  1.599265e+00    1.237682e+00   1.583898e-02
  1.601476e+00    1.218161e+00   1.569347e-02
  1.603686e+00    1.225271e+00   1.571953e-02
  1.605897e+00    1.247979e+00   1.584431e-02
  1.608107e+00    1.235066e+00   1.574259e-02
  1.610317e+00    1.249971e+00   1.581788e-02
  1.612528e+00    1.231684e+00   1.568262e-02
  1.614738e+00    1.252343e+00   1.579445e-02
  1.616949e+00    1.278673e+00   1.594026e-02
  1.619159e+00    1.253949e+00   1.576645e-02
  1.621370e+00    1.241147e+00   1.566714e-02
  1.623580e+00    1.226444e+00   1.555562e-02
  1.625791e+00    1.226077e+00   1.553492e-02
  1.628001e+00    1.195511e+00   1.532186e-02
  1.630212e+00    1.175167e+00   1.517329e-02
  1.632422e+00    1.185706e+00   1.522329e-02
  1.634632e+00    1.186935e+00   1.521384e-02
  1.636843e+00    1.186045e+00   1.519052e-02
  1.639053e+00    1.161833e+00   1.501749e-02
  1.641264e+00    1.157904e+00   1.497505e-02
  1.643474e+00    1.148705e+00   1.489815e-02
  1.645685e+00    1.162990e+00   1.497382e-02
  1.647895e+00    1.155837e+00   1.491109e-02
  1.650106e+00    1.133971e+00   1.475251e-02
  1.652316e+00    1.126548e+00   1.468780e-02
  1.654527e+00    1.125219e+00   1.466261e-02
  1.656737e+00    1.127349e+00   1.465997e-02
  1.658947e+00    1.116437e+00   1.457269e-02
  1.661158e+00    1.109335e+00   1.451013e-02
  1.663368e+00    1.124925e+00   1.459567e-02
  1.665579e+00    1.143383e+00   1.469862e-02
  1.667789e+00    1.108245e+00   1.445483e-02
  1.670000e+00    1.099526e+00   1.438246e-02
  1.672210e+00    1.091618e+00   1.431489e-02
  1.674421e+00    1.082746e+00   1.424143e-02
  1.676631e+00    1.079874e+00   1.420681e-02
  1.678842e+00    1.106272e+00   1.436358e-02
  1.681052e+00    1.083140e+00   1.419732e-02
  1.683263e+00    1.086685e+00   1.420540e-02
  1.685473e+00    1.071000e+00   1.408747e-02
  1.687683e+00    1.077818e+00   1.411686e-02
  1.689894e+00    1.052980e+00   1.393768e-02
  1.692104e+00    1.074663e+00   1.406554e-02
  1.694315e+00    1.061609e+00   1.396544e-02
  1.696525e+00    1.047618e+00   1.385811e-02
  1.698736e+00    1.019832e+00   1.365860e-02
  1.700946e+00    1.021425e+00   1.365437e-02
  1.703157e+00    1.053241e+00   1.385079e-02
  1.705367e+00    1.042127e+00   1.376312e-02
  1.707578e+00    1.025069e+00   1.363560e-02
  1.709788e+00    1.017216e+00   1.356934e-02
  1.711998e+00    1.019499e+00   1.356973e-02
  1.714209e+00    1.012281e+00   1.350735e-02
  1.716419e+00    9.959924e-01   1.338423e-02
  1.718630e+00    1.012161e+00   1.347830e-02
  1.720840e+00    1.006871e+00   1.342900e-02
  1.723051e+00    1.001513e+00   1.337950e-02
  1.725261e+00    9.896119e-01   1.328535e-02
  1.727472e+00    9.829429e-01   1.322655e-02
  1.729682e+00    9.642209e-01   1.308689e-02
  1.731893e+00    9.501618e-01   1.297764e-02
  1.734103e+00    9.640943e-01   1.305896e-02
  1.736313e+00    9.699724e-01   1.308495e-02
  1.738524e+00    9.774555e-01   1.312166e-02
  1.740734e+00    9.781942e-01   1.311308e-02
  1.742945e+00    9.642183e-01   1.300583e-02
  1.745155e+00    9.580318e-01   1.295082e-02
  1.747366e+00    9.450074e-01   1.284899e-02
  1.749576e+00    9.525997e-01   1.288705e-02
  1.751787e+00    9.668478e-01   1.296984e-02
  1.753997e+00    9.472386e-01   1.282450e-02
  1.756208e+00    9.320711e-01   1.270849e-02
  1.758418e+00    9.585795e-01   1.287491e-02
  1.760628e+00    9.320187e-01   1.268221e-02
  1.762839e+00    9.283701e-01   1.264439e-02
  1.765049e+00    9.258875e-01   1.261459e-02
  1.767260e+00    9.246503e-01   1.259361e-02
  1.769470e+00    9.231331e-01   1.257049e-02
  1.771681e+00    9.180872e-01   1.252318e-02
  1.773891e+00    9.372889e-01   1.264052e-02
  1.776102e+00    9.194711e-01   1.250710e-02
  1.778312e+00    9.112309e-01   1.243844e-02
  1.780523e+00    8.967685e-01   1.232691e-02
  1.782733e+00    8.935197e-01   1.229217e-02
  1.784944e+00    9.203030e-01   1.246227e-02
  1.787154e+00    9.140252e-01   1.240728e-02
  1.789364e+00    9.054689e-01   1.233677e-02
  1.791575e+00    8.950452e-01   1.225322e-02
  1.793785e+00    8.934312e-01   1.222998e-02
  1.795996e+00    8.957140e-01   1.223323e-02
  1.798206e+00    9.036406e-01   1.227485e-02
  1.800417e+00    8.960183e-01   1.221041e-02
  1.802627e+00    8.846107e-01   1.212071e-02
  1.804838e+00    8.750656e-01   1.204327e-02
  1.807048e+00    8.992747e-01   1.219593e-02
  1.809259e+00    9.392043e-01   1.244993e-02
  1.811469e+00    9.111930e-01   1.224789e-02
  1.813679e+00    8.669660e-01   1.193224e-02
  1.815890e+00    8.627653e-01   1.188884e-02
  1.818100e+00    8.590059e-01   1.184812e-02
  1.820311e+00    8.688317e-01   1.190114e-02
  1.822521e+00    8.634107e-01   1.184932e-02
  1.824732e+00    8.735042e-01   1.190371e-02
  1.826942e+00    8.620999e-01   1.181360e-02
  1.829153e+00    8.604671e-01   1.179086e-02
  1.831363e+00    8.736775e-01   1.186907e-02
  1.833574e+00    8.762954e-01   1.187519e-02
  1.835784e+00    8.824633e-01   1.190548e-02
  1.837994e+00    8.651106e-01   1.177621e-02
  1.840205e+00    8.540382e-01   1.168956e-02
  1.842415e+00    8.674000e-01   1.176890e-02
  1.844626e+00    8.882428e-01   1.189780e-02
  1.846836e+00    9.295295e-01   1.215931e-02
  1.849047e+00    9.806359e-01   1.247679e-02
  1.851257e+00    9.361904e-01   1.218083e-02
  1.853468e+00    8.802555e-01   1.180243e-02
  1.855678e+00    8.779664e-01   1.177809e-02
  1.857889e+00    8.641846e-01   1.167675e-02
  1.860099e+00    8.610712e-01   1.164705e-02
  1.862309e+00    8.482122e-01   1.155129e-02
  1.864520e+00    8.639925e-01   1.164961e-02
  1.866730e+00    8.697574e-01   1.167898e-02
  1.868941e+00    8.643556e-01   1.163161e-02
  1.871151e+00    8.576959e-01   1.157530e-02
  1.873362e+00    8.486873e-01   1.150301e-02
  1.875572e+00    8.466386e-01   1.147820e-02
  1.877783e+00    8.399197e-01   1.142118e-02
  1.879993e+00    8.495674e-01   1.147543e-02
  1.882204e+00    8.150486e-01   1.122918e-02
  1.884414e+00    8.146017e-01   1.121521e-02
  1.886624e+00    8.333654e-01   1.133264e-02
  1.888835e+00    8.207272e-01   1.123556e-02
  1.891045e+00    8.012209e-01   1.109060e-02
  1.893256e+00    8.247285e-01   1.124110e-02
  1.895466e+00    8.415215e-01   1.134380e-02
  1.897677e+00    8.162364e-01   1.116128e-02
  1.899887e+00    8.052058e-01   1.107480e-02
  1.902098e+00    8.193974e-01   1.116123e-02
  1.904308e+00    8.157452e-01   1.112582e-02
  1.906519e+00    8.300561e-01   1.121216e-02
  1.908729e+00    8.465619e-01   1.131235e-02
  1.910940e+00    8.762224e-01   1.149738e-02
  1.913150e+00    8.592572e-01   1.137475e-02
  1.915360e+00    8.587160e-01   1.136032e-02
  1.917571e+00    8.306401e-01   1.116215e-02
  1.919781e+00    8.232427e-01   1.110162e-02
  1.921992e+00    8.423477e-01   1.121892e-02
  1.924202e+00    8.483739e-01   1.124805e-02
  1.926413e+00    8.149493e-01   1.101394e-02
  1.928623e+00    8.116594e-01   1.098116e-02
  1.930834e+00    8.006977e-01   1.089641e-02
  1.933044e+00    7.959123e-01   1.085322e-02
  1.935255e+00    8.064078e-01   1.091425e-02
  1.937465e+00    8.050693e-01   1.089481e-02
  1.939675e+00    7.946060e-01   1.081302e-02
  1.941886e+00    8.147304e-01   1.093873e-02
  1.944096e+00    8.135946e-01   1.092087e-02
  1.946307e+00    7.873444e-01   1.073301e-02
  1.948517e+00    7.875743e-01   1.072420e-02
  1.950728e+00    7.682475e-01   1.058175e-02
  1.952938e+00    7.844096e-01   1.068246e-02
  1.955149e+00    7.995537e-01   1.077486e-02
  1.957359e+00    7.887512e-01   1.069182e-02
  1.959570e+00    7.794094e-01   1.061755e-02
  1.961780e+00    7.824659e-01   1.062850e-02
  1.963990e+00    7.757579e-01   1.057284e-02
  1.966201e+00    7.707746e-01   1.052887e-02
  1.968411e+00    7.815337e-01   1.059201e-02
  1.970622e+00    7.884477e-01   1.062867e-02
  1.972832e+00    7.863379e-01   1.060446e-02
  1.975043e+00    7.885659e-01   1.060942e-02
  1.977253e+00    7.663906e-01   1.044936e-02
  1.979464e+00    7.765549e-01   1.050843e-02
  1.981674e+00    7.643657e-01   1.041550e-02
  1.983885e+00    7.606292e-01   1.038010e-02
  1.986095e+00    7.806443e-01   1.050610e-02
  1.988305e+00    7.726872e-01   1.044257e-02
  1.990516e+00    7.709781e-01   1.042114e-02
  1.992726e+00    7.670835e-01   1.038518e-02
  1.994937e+00    7.740642e-01   1.042221e-02
  1.997147e+00    7.762929e-01   1.042749e-02
  1.999358e+00    7.730891e-01   1.039609e-02
  2.001568e+00    7.658197e-01   1.033635e-02
  2.003779e+00    7.580882e-01   1.027223e-02
  2.005989e+00    7.753129e-01   1.037623e-02
  2.008200e+00    7.517073e-01   1.020567e-02
  2.010410e+00    7.567583e-01   1.022823e-02
  2.012621e+00    7.704788e-01   1.030883e-02
  2.014831e+00    7.620869e-01   1.024109e-02
  2.017041e+00    7.588940e-01   1.020930e-02
  2.019252e+00    7.496017e-01   1.013675e-02
  2.021462e+00    7.526599e-01   1.014795e-02
  2.023673e+00    7.595997e-01   1.018529e-02
  2.025883e+00    7.722929e-01   1.026045e-02
  2.028094e+00    7.561457e-01   1.014305e-02
  2.030304e+00    7.422491e-01   1.003996e-02
  2.032515e+00    7.428541e-01   1.003488e-02
  2.034725e+00    7.485068e-01   1.006359e-02
  2.036936e+00    7.660682e-01   1.017160e-02
  2.039146e+00    7.672130e-01   1.016955e-02
  2.041356e+00    7.647176e-01   1.014332e-02
  2.043567e+00    7.378492e-01   9.954337e-03
  2.045777e+00    7.403041e-01   9.961704e-03
  2.047988e+00    7.338872e-01   9.909227e-03
  2.050198e+00    7.314728e-01   9.884585e-03
  2.052409e+00    7.444842e-01   9.964495e-03
  2.054619e+00    7.416540e-01   9.938234e-03
  2.056830e+00    7.265053e-01   9.829143e-03
  2.059040e+00    7.360575e-01   9.886101e-03
  2.061251e+00    7.442626e-01   9.933840e-03
  2.063461e+00    7.442268e-01   9.926031e-03
  2.065671e+00    7.473434e-01   9.938082e-03
  2.067882e+00    7.297675e-01   9.811654e-03
  2.070092e+00    7.205142e-01   9.740193e-03
  2.072303e+00    7.465255e-01   9.905316e-03
  2.074513e+00    7.286132e-01   9.776555e-03
  2.076724e+00    7.563685e-01   9.951479e-03
  2.078934e+00    7.473056e-01   9.882660e-03
  2.081145e+00    7.446052e-01   9.855690e-03
  2.083355e+00    7.435749e-01   9.839694e-03
  2.085566e+00    7.296889e-01   9.738544e-03
  2.087776e+00    7.228239e-01   9.683214e-03
  2.089986e+00    7.316496e-01   9.733419e-03
  2.092197e+00    7.239535e-01   9.673209e-03
  2.094407e+00    7.202160e-01   9.639083e-03
  2.096618e+00    7.175444e-01   9.612398e-03
  2.098828e+00    7.023435e-01   9.500936e-03
  2.101039e+00    7.115566e-01   9.554181e-03
  2.103249e+00    7.171505e-01   9.583092e-03
  2.105460e+00    7.123613e-01   9.542132e-03
  2.107670e+00    7.170473e-01   9.564802e-03
  2.109881e+00    7.026246e-01   9.459119e-03
  2.112091e+00    7.017558e-01   9.444424e-03
  2.114301e+00    6.955825e-01   9.394184e-03
  2.116512e+00    7.125411e-01   9.499268e-03
  2.118722e+00    7.378068e-01   9.657324e-03
  2.120933e+00    7.079886e-01   9.451377e-03
  2.123143e+00    6.971385e-01   9.369890e-03
  2.125354e+00    7.096575e-01   9.445176e-03
  2.127564e+00    6.998432e-01   9.370998e-03
  2.129775e+00    7.043144e-01   9.392237e-03
  2.131985e+00    6.884325e-01   9.276848e-03
  2.134196e+00    6.802996e-01   9.213487e-03
  2.136406e+00    6.831931e-01   9.224514e-03
  2.138617e+00    6.849154e-01   9.227811e-03
  2.140827e+00    6.915632e-01   9.288358e-03
  2.143037e+00    6.888099e-01   9.314734e-03
  2.145248e+00    6.973162e-01   9.393930e-03
  2.147458e+00    7.199618e-01   9.560558e-03
  2.149669e+00    7.078547e-01   9.491735e-03
  2.151879e+00    7.050006e-01   9.481815e-03
  2.154090e+00    6.995328e-01   9.452286e-03
  2.156300e+00    6.907352e-01   9.399218e-03
  2.158511e+00    6.835451e-01   9.355411e-03
  2.160721e+00    6.831375e-01   9.357378e-03
  2.162932e+00    6.789722e-01   9.332497e-03
  2.165142e+00    6.911200e-01   9.418625e-03
  2.167352e+00    6.880211e-01   9.400385e-03
  2.169563e+00    6.850437e-01   9.381956e-03
  2.171773e+00    6.797632e-01   9.348158e-03
  2.173984e+00    6.692693e-01   9.277099e-03
  2.176194e+00    6.806313e-01   9.356700e-03
  2.178405e+00    6.833395e-01   9.375997e-03
  2.180615e+00    6.876197e-01   9.405986e-03
  2.182826e+00    6.843016e-01   9.383958e-03
  2.185036e+00    6.701370e-01   9.286371e-03
  2.187247e+00    6.788645e-01   9.346586e-03
  2.189457e+00    6.840083e-01   9.381530e-03
  2.191667e+00    6.921853e-01   9.437256e-03
  2.193878e+00    6.999014e-01   9.489160e-03
  2.196088e+00    6.730000e-01   9.304317e-03
  2.198299e+00    7.001802e-01   9.489236e-03
  2.200509e+00    7.012008e-01   9.495088e-03
  2.202720e+00    6.753566e-01   9.317337e-03
  2.204930e+00    6.587822e-01   9.201047e-03
  2.207141e+00    6.888694e-01   9.407694e-03
  2.209351e+00    6.906819e-01   9.418165e-03
  2.211562e+00    6.900361e-01   9.412142e-03
  2.213772e+00    6.673130e-01   9.200779e-03
  2.215982e+00    6.628486e-01   9.126159e-03
  2.218193e+00    6.570338e-01   9.056838e-03
  2.220403e+00    6.647918e-01   9.085724e-03
  2.222614e+00    6.696860e-01   9.098240e-03
  2.224824e+00    6.567162e-01   8.990553e-03
  2.227035e+00    6.686000e-01   9.054154e-03
  2.229245e+00    6.772829e-01   9.095705e-03
  2.231456e+00    6.797776e-01   9.096745e-03
  2.233666e+00    6.623462e-01   8.964357e-03
  2.235877e+00    6.661898e-01   8.976091e-03
  2.238087e+00    6.780382e-01   9.042017e-03
  2.240298e+00    6.603507e-01   8.909632e-03
  2.242508e+00    6.584727e-01   8.881916e-03
  2.244718e+00    6.721989e-01   8.958192e-03
  2.246929e+00    6.533593e-01   8.817487e-03
  2.249139e+00    6.633260e-01   8.872150e-03
  2.251350e+00    6.655118e-01   8.875056e-03
  2.253560e+00    6.637626e-01   8.851851e-03
  2.255771e+00    6.687782e-01   8.873780e-03
  2.257981e+00    6.867587e-01   8.980936e-03
  2.260192e+00    6.716021e-01   8.870121e-03
  2.262402e+00    6.388084e-01   8.640196e-03
  2.264613e+00    6.657364e-01   8.809557e-03
  2.266823e+00    6.640035e-01   8.787699e-03
  2.269033e+00    6.741779e-01   8.844280e-03
  2.271244e+00    6.861492e-01   8.911887e-03
  2.273454e+00    7.176438e-01   9.103436e-03
  2.275665e+00    7.061101e-01   9.019380e-03
  2.277875e+00    6.693095e-01   8.771208e-03
  2.280086e+00    6.527200e-01   8.651833e-03
  2.282296e+00    6.486406e-01   8.615399e-03
  2.284507e+00    6.747068e-01   8.776569e-03
  2.286717e+00    6.550490e-01   8.638335e-03
  2.288928e+00    6.430318e-01   8.548955e-03
  2.291138e+00    6.458780e-01   8.558511e-03
  2.293348e+00    6.523916e-01   8.592037e-03
  2.295559e+00    6.487257e-01   8.558613e-03
  2.297769e+00    6.471325e-01   8.538885e-03
  2.299980e+00    6.409292e-01   8.488636e-03
  2.302190e+00    6.353120e-01   8.442340e-03
  2.304401e+00    6.452816e-01   8.499053e-03
  2.306611e+00    6.438965e-01   8.480785e-03
  2.308822e+00    6.508781e-01   8.518258e-03
  2.311032e+00    6.414977e-01   8.450258e-03
  2.313243e+00    6.309431e-01   8.374268e-03
  2.315453e+00    6.315349e-01   8.370716e-03
  2.317663e+00    6.428835e-01   8.436498e-03
  2.319874e+00    6.366376e-01   8.386763e-03
  2.322084e+00    6.355127e-01   8.370453e-03
  2.324295e+00    6.396972e-01   8.389773e-03
  2.326505e+00    6.439719e-01   8.408707e-03
  2.328716e+00    6.549159e-01   8.471233e-03
  2.330926e+00    6.478810e-01   8.416796e-03
  2.333137e+00    6.452925e-01   8.391558e-03
  2.335347e+00    6.332084e-01   8.303801e-03
  2.337558e+00    6.361026e-01   8.314559e-03
  2.339768e+00    6.363499e-01   8.307617e-03
  2.341979e+00    6.386212e-01   8.314076e-03
  2.344189e+00    6.295298e-01   8.246339e-03
  2.346399e+00    6.234768e-01   8.198181e-03
  2.348610e+00    6.305658e-01   8.236247e-03
  2.350820e+00    6.184698e-01   8.148780e-03
  2.353031e+00    6.260419e-01   8.190291e-03
  2.355241e+00    6.269938e-01   8.188491e-03
  2.357452e+00    6.239839e-01   8.160450e-03
  2.359662e+00    6.454826e-01   8.291516e-03
  2.361873e+00    6.390293e-01   8.241696e-03
  2.364083e+00    6.292763e-01   8.170570e-03
  2.366294e+00    6.150033e-01   8.069350e-03
  2.368504e+00    6.088389e-01   8.020842e-03
  2.370714e+00    6.168623e-01   8.065519e-03
  2.372925e+00    6.240755e-01   8.104495e-03
  2.375135e+00    6.142158e-01   8.032232e-03
  2.377346e+00    6.205501e-01   8.065611e-03
  2.379556e+00    6.143703e-01   8.017514e-03
  2.381767e+00    6.131693e-01   8.001862e-03
  2.383977e+00    6.061949e-01   7.948376e-03
  2.386188e+00    6.045579e-01   7.929830e-03
  2.388398e+00    6.088172e-01   7.949802e-03
  2.390609e+00    6.112486e-01   7.957983e-03
  2.392819e+00    6.188007e-01   7.999195e-03
  2.395029e+00    6.233537e-01   8.020870e-03
  2.397240e+00    6.083429e-01   7.915885e-03
  2.399450e+00    6.101805e-01   7.920037e-03
  2.401661e+00    6.022915e-01   7.861055e-03
  2.403871e+00    6.045147e-01   7.867832e-03
  2.406082e+00    6.113997e-01   7.905060e-03
  2.408292e+00    6.104890e-01   7.891385e-03
  2.410503e+00    6.064959e-01   7.858057e-03
  2.412713e+00    5.974100e-01   7.791232e-03
  2.414924e+00    6.026699e-01   7.817996e-03
  2.417134e+00    6.078845e-01   7.844084e-03
  2.419344e+00    6.009670e-01   7.791941e-03
  2.421555e+00    5.978247e-01   7.764061e-03
  2.423765e+00    5.860364e-01   7.679803e-03
  2.425976e+00    5.963410e-01   7.739251e-03
  2.428186e+00    5.968365e-01   7.735265e-03
  2.430397e+00    5.970768e-01   7.729338e-03
  2.432607e+00    5.833760e-01   7.632934e-03
  2.434818e+00    5.856885e-01   7.640577e-03
  2.437028e+00    5.947616e-01   7.692366e-03
  2.439239e+00    6.082181e-01   7.771153e-03
  2.441449e+00    5.949723e-01   7.678872e-03
  2.443659e+00    5.819830e-01   7.587275e-03
  2.445870e+00    5.957224e-01   7.688630e-03
  2.448080e+00    5.766872e-01   7.599417e-03
  2.450291e+00    5.741594e-01   7.599306e-03
  2.452501e+00    5.621424e-01   7.530386e-03
  2.454712e+00    5.644582e-01   7.554228e-03
  2.456922e+00    5.667790e-01   7.576359e-03
  2.459133e+00    5.519055e-01   7.481649e-03
  2.461343e+00    5.571745e-01   7.521560e-03
  2.463554e+00    5.688210e-01   7.603276e-03
  2.465764e+00    5.538444e-01   7.505613e-03
  2.467975e+00    5.672085e-01   7.597922e-03
  2.470185e+00    5.550332e-01   7.518201e-03
  2.472395e+00    5.461667e-01   7.459113e-03
  2.474606e+00    5.406449e-01   7.422858e-03
  2.476816e+00    5.440835e-01   7.447132e-03
  2.479027e+00    5.450550e-01   7.454648e-03
  2.481237e+00    5.499977e-01   7.488641e-03
  2.483448e+00    5.500965e-01   7.489614e-03
  2.485658e+00    5.398555e-01   7.419449e-03
  2.487869e+00    5.327944e-01   7.370773e-03
  2.490079e+00    5.348740e-01   7.384650e-03
  2.492290e+00    5.243273e-01   7.311057e-03
  2.494500e+00    5.213629e-01   7.289626e-03
  2.496710e+00    5.204757e-01   7.282746e-03
  2.498921e+00    5.188915e-01   7.270666e-03
  2.501131e+00    5.252256e-01   7.313968e-03
  2.503342e+00    5.175809e-01   7.259311e-03
  2.505552e+00    5.164396e-01   7.250173e-03
  2.507763e+00    5.246857e-01   7.306419e-03
  2.509973e+00    5.306275e-01   7.346284e-03
  2.512184e+00    5.314708e-01   7.350496e-03
  2.514394e+00    5.259009e-01   7.302531e-03
  2.516605e+00    5.168985e-01   7.193117e-03
  2.518815e+00    5.224504e-01   7.203433e-03
  2.521025e+00    5.203516e-01   7.168061e-03
  2.523236e+00    5.291287e-01   7.210243e-03
  2.525446e+00    5.165989e-01   7.108887e-03
  2.527657e+00    5.296828e-01   7.183655e-03
  2.529867e+00    5.344810e-01   7.201849e-03
  2.532078e+00    5.157034e-01   7.059284e-03
  2.534288e+00    5.278773e-01   7.128205e-03
  2.536499e+00    5.235401e-01   7.086922e-03
  2.538709e+00    5.178016e-01   7.037063e-03
  2.540920e+00    5.118268e-01   6.985825e-03
  2.543130e+00    5.140814e-01   6.990914e-03
  2.545340e+00    5.274489e-01   7.071133e-03
  2.547551e+00    5.301811e-01   7.079407e-03
  2.549761e+00    5.364044e-01   7.111135e-03
  2.551972e+00    5.172033e-01   6.973386e-03
  2.554182e+00    5.223005e-01   6.998475e-03
  2.556393e+00    5.265212e-01   7.017555e-03
  2.558603e+00    5.122178e-01   6.912578e-03
  2.560814e+00    5.221111e-01   6.970290e-03
  2.563024e+00    5.109468e-01   6.886865e-03
  2.565235e+00    5.124242e-01   6.887362e-03
  2.567445e+00    5.132698e-01   6.883538e-03
  2.569656e+00    5.143607e-01   6.881137e-03
  2.571866e+00    5.137827e-01   6.867964e-03
  2.574076e+00    5.034648e-01   6.789485e-03
  2.576287e+00    5.093980e-01   6.821118e-03
  2.578497e+00    4.982432e-01   6.738301e-03
  2.580708e+00    5.188353e-01   6.868032e-03
  2.582918e+00    5.106603e-01   6.805969e-03
  2.585129e+00    5.049822e-01   6.760366e-03
  2.587339e+00    5.024149e-01   6.735543e-03
  2.589550e+00    5.099217e-01   6.778168e-03
  2.591760e+00    5.062873e-01   6.746264e-03
  2.593971e+00    5.159898e-01   6.803039e-03
  2.596181e+00    5.208921e-01   6.829005e-03
  2.598391e+00    5.163727e-01   6.794110e-03
  2.600602e+00    5.141811e-01   6.773725e-03
  2.602812e+00    5.025961e-01   6.689496e-03
  2.605023e+00    5.112928e-01   6.739933e-03
  2.607233e+00    5.074898e-01   6.707689e-03
  2.609444e+00    5.156598e-01   6.754178e-03
  2.611654e+00    5.070111e-01   6.689981e-03
  2.613865e+00    5.056967e-01   6.674267e-03
  2.616075e+00    5.063854e-01   6.671663e-03
  2.618286e+00    5.064054e-01   6.664790e-03
  2.620496e+00    4.923101e-01   6.564802e-03
  2.622706e+00    4.951883e-01   6.578238e-03
  2.624917e+00    4.959860e-01   6.577749e-03
  2.627127e+00    5.090280e-01   6.657894e-03
  2.629338e+00    5.045112e-01   6.622321e-03
  2.631548e+00    5.037224e-01   6.610959e-03
  2.633759e+00    5.001273e-01   6.580203e-03
  2.635969e+00    4.954641e-01   6.542812e-03
  2.638180e+00    4.878483e-01   6.485425e-03
  2.640390e+00    4.897179e-01   6.491337e-03
  2.642601e+00    5.013010e-01   6.560964e-03
  2.644811e+00    4.992540e-01   6.540506e-03
  2.647021e+00    4.986768e-01   6.530160e-03
  2.649232e+00    5.035502e-01   6.555249e-03
  2.651442e+00    4.881592e-01   6.447864e-03
  2.653653e+00    4.950122e-01   6.486196e-03
  2.655863e+00    4.826131e-01   6.397874e-03
  2.658074e+00    4.930578e-01   6.460145e-03
  2.660284e+00    4.973183e-01   6.481640e-03
  2.662495e+00    5.028586e-01   6.510859e-03
  2.664705e+00    5.130479e-01   6.569815e-03
  2.666916e+00    5.058496e-01   6.517049e-03
  2.669126e+00    4.960923e-01   6.447437e-03
  2.671337e+00    4.941736e-01   6.428363e-03
  2.673547e+00    5.058375e-01   6.497345e-03
  2.675757e+00    5.016454e-01   6.463885e-03
  2.677968e+00    4.908239e-01   6.387270e-03
  2.680178e+00    4.884929e-01   6.365726e-03
  2.682389e+00    4.864061e-01   6.345759e-03
  2.684599e+00    4.811674e-01   6.305373e-03
  2.686810e+00    4.862714e-01   6.332176e-03
  2.689020e+00    4.983572e-01   6.404035e-03
  2.691231e+00    5.031381e-01   6.428325e-03
  2.693441e+00    4.868377e-01   6.317219e-03
  2.695652e+00    4.869330e-01   6.311326e-03
  2.697862e+00    4.880324e-01   6.312138e-03
  2.700072e+00    4.764198e-01   6.230578e-03
  2.702283e+00    4.845289e-01   6.277184e-03
  2.704493e+00    4.953279e-01   6.340425e-03
  2.706704e+00    4.970870e-01   6.345223e-03
  2.708914e+00    4.906103e-01   6.297760e-03
  2.711125e+00    4.898629e-01   6.286714e-03
  2.713335e+00    4.917994e-01   6.293002e-03
  2.715546e+00    4.788498e-01   6.203196e-03
  2.717756e+00    4.736834e-01   6.163825e-03
  2.719967e+00    4.959297e-01   6.300626e-03
  2.722177e+00    4.799098e-01   6.191961e-03
  2.724387e+00    4.790971e-01   6.180626e-03
  2.726598e+00    4.820978e-01   6.193919e-03
  2.728808e+00    4.898741e-01   6.237498e-03
  2.731019e+00    4.808584e-01   6.173745e-03
  2.733229e+00    4.731754e-01   6.118471e-03
  2.735440e+00    4.852884e-01   6.190018e-03
  2.737650e+00    4.839167e-01   6.175254e-03
  2.739861e+00    4.750592e-01   6.112455e-03
  2.742071e+00    4.918562e-01   6.213763e-03
  2.744282e+00    4.937973e-01   6.219727e-03
  2.746492e+00    4.661956e-01   6.037447e-03
  2.748702e+00    4.821808e-01   6.134172e-03
  2.750913e+00    4.853030e-01   6.148192e-03
  2.753123e+00    4.786281e-01   6.099665e-03
  2.755334e+00    4.714677e-01   6.047853e-03
  2.757544e+00    4.630333e-01   5.987877e-03
  2.759755e+00    4.755618e-01   6.062485e-03
  2.761965e+00    4.972265e-01   6.192946e-03
  2.764176e+00    4.810991e-01   6.085711e-03
  2.766386e+00    4.685220e-01   5.999909e-03
  2.768597e+00    4.709625e-01   6.009706e-03
  2.770807e+00    4.723250e-01   6.012537e-03
  2.773017e+00    4.813278e-01   6.063602e-03
  2.775228e+00    4.893710e-01   6.108204e-03
  2.777438e+00    4.783249e-01   6.033070e-03
  2.779649e+00    4.763580e-01   6.014779e-03
  2.781859e+00    4.733804e-01   5.990196e-03
  2.784070e+00    4.802765e-01   6.027798e-03
  2.786280e+00    4.823710e-01   6.035126e-03
  2.788491e+00    4.825621e-01   6.030459e-03
  2.790701e+00    4.773903e-01   5.992402e-03
  2.792912e+00    4.811864e-01   6.010184e-03
  2.795122e+00    4.710524e-01   5.940857e-03
  2.797333e+00    4.705044e-01   5.931875e-03
  2.799543e+00    4.716645e-01   5.933333e-03
  2.801753e+00    4.683690e-01   5.906769e-03
  2.803964e+00    4.662372e-01   5.887697e-03
  2.806174e+00    4.642010e-01   5.868750e-03
  2.808385e+00    4.684886e-01   5.889041e-03
  2.810595e+00    4.566397e-01   5.807370e-03
  2.812806e+00    4.630702e-01   5.841563e-03
  2.815016e+00    4.653497e-01   5.851245e-03
  2.817227e+00    4.595093e-01   5.839920e-03
  2.819437e+00    4.744865e-01   5.945435e-03
  2.821648e+00    4.738613e-01   5.943791e-03
  2.823858e+00    4.694110e-01   5.921158e-03
  2.826068e+00    4.646181e-01   5.895763e-03
  2.828279e+00    4.626583e-01   5.887317e-03
  2.830489e+00    4.738458e-01   5.961420e-03
  2.832700e+00    4.664607e-01   5.917328e-03
  2.834910e+00    4.690011e-01   5.935456e-03
  2.837121e+00    4.750030e-01   5.975053e-03
  2.839331e+00    4.707098e-01   5.949211e-03
  2.841542e+00    4.709475e-01   5.951737e-03
  2.843752e+00    4.624468e-01   5.898549e-03
  2.845963e+00    4.578565e-01   5.869597e-03
  2.848173e+00    4.560595e-01   5.858155e-03
  2.850383e+00    4.599008e-01   5.883046e-03
  2.852594e+00    4.574275e-01   5.867150e-03
  2.854804e+00    4.683031e-01   5.935967e-03
  2.857015e+00    4.633189e-01   5.903870e-03
  2.859225e+00    4.475336e-01   5.802199e-03
  2.861436e+00    4.567225e-01   5.860782e-03
  2.863646e+00    4.590807e-01   5.875944e-03
  2.865857e+00    4.629398e-01   5.900918e-03
  2.868067e+00    4.669562e-01   5.926697e-03
  2.870278e+00    4.685827e-01   5.936654e-03
  2.872488e+00    4.696045e-01   5.941948e-03
  2.874698e+00    4.603992e-01   5.882400e-03
  2.876909e+00    4.600637e-01   5.878920e-03
  2.879119e+00    4.508455e-01   5.818121e-03
  2.881330e+00    4.559780e-01   5.849686e-03
  2.883540e+00    4.564093e-01   5.851073e-03
  2.885751e+00    4.518417e-01   5.820103e-03
  2.887961e+00    4.574561e-01   5.854257e-03
  2.890172e+00    4.590378e-01   5.862779e-03
  2.892382e+00    4.574215e-01   5.850653e-03
  2.894593e+00    4.646109e-01   5.894624e-03
  2.896803e+00    4.670173e-01   5.907889e-03
  2.899014e+00    4.362835e-01   5.708314e-03
  2.901224e+00    4.504557e-01   5.798314e-03
  2.903434e+00    4.586451e-01   5.848845e-03
  2.905645e+00    4.572862e-01   5.837962e-03
  2.907855e+00    4.501392e-01   5.790082e-03
  2.910066e+00    4.439225e-01   5.747919e-03
  2.912276e+00    4.473768e-01   5.768123e-03
  2.914487e+00    4.490463e-01   5.776472e-03
  2.916697e+00    4.501965e-01   5.781636e-03
  2.918908e+00    4.696274e-01   5.903076e-03
  2.921118e+00    4.565099e-01   5.817369e-03
  2.923329e+00    4.524080e-01   5.788866e-03
  2.925539e+00    4.442498e-01   5.734176e-03
  2.927749e+00    4.524750e-01   5.784723e-03
  2.929960e+00    4.490374e-01   5.759959e-03
  2.932170e+00    4.439434e-01   5.724900e-03
  2.934381e+00    4.529705e-01   5.780359e-03
  2.936591e+00    4.614426e-01   5.831593e-03
  2.938802e+00    4.561855e-01   5.795573e-03
  2.941012e+00    4.491271e-01   5.748239e-03
  2.943223e+00    4.587656e-01   5.806888e-03
  2.945433e+00    4.533920e-01   5.769043e-03
  2.947644e+00    4.542907e-01   5.770640e-03
  2.949854e+00    4.654844e-01   5.836973e-03
  2.952064e+00    4.574252e-01   5.782006e-03
  2.954275e+00    4.681470e-01   5.844885e-03
  2.956485e+00    4.428391e-01   5.680602e-03
  2.958696e+00    4.364109e-01   5.634904e-03
  2.960906e+00    4.609372e-01   5.786878e-03
  2.963117e+00    4.532060e-01   5.733680e-03
  2.965327e+00    4.526721e-01   5.726395e-03
  2.967538e+00    4.522597e-01   5.720885e-03
  2.969748e+00    4.575285e-01   5.751282e-03
  2.971959e+00    4.495999e-01   5.698123e-03
  2.974169e+00    4.495673e-01   5.695332e-03
  2.976379e+00    4.617667e-01   5.769154e-03
  2.978590e+00    4.476187e-01   5.676988e-03
  2.980800e+00    4.464859e-01   5.667001e-03
  2.983011e+00    4.513773e-01   5.695168e-03
  2.985221e+00    4.610401e-01   5.752640e-03
  2.987432e+00    4.555730e-01   5.715312e-03
  2.989642e+00    4.641929e-01   5.766472e-03
  2.991853e+00    4.680330e-01   5.786952e-03
  2.994063e+00    4.580749e-01   5.722128e-03
  2.996274e+00    4.510127e-01   5.674686e-03
  2.998484e+00    4.457769e-01   5.638958e-03
  3.000694e+00    4.460643e-01   5.637368e-03
  3.002905e+00    4.474805e-01   5.643378e-03
  3.005115e+00    4.401045e-01   5.593749e-03
  3.007326e+00    4.466936e-01   5.632318e-03
  3.009536e+00    4.482223e-01   5.638740e-03
  3.011747e+00    4.514358e-01   5.655976e-03
  3.013957e+00    4.516892e-01   5.654403e-03
  3.016168e+00    4.445699e-01   5.606448e-03
  3.018378e+00    4.581062e-01   5.688089e-03
  3.020589e+00    4.470640e-01   5.615924e-03
  3.022799e+00    4.534040e-01   5.652446e-03
  3.025010e+00    4.441421e-01   5.591209e-03
  3.027220e+00    4.445144e-01   5.590462e-03
  3.029430e+00    4.564601e-01   5.661810e-03
  3.031641e+00    4.560838e-01   5.656354e-03
  3.033851e+00    4.461694e-01   5.591022e-03
  3.036062e+00    4.496258e-01   5.609867e-03
  3.038272e+00    4.486300e-01   5.600086e-03
  3.040483e+00    4.481075e-01   5.593607e-03
  3.042693e+00    4.452851e-01   5.572731e-03
  3.044904e+00    4.500181e-01   5.598251e-03
  3.047114e+00    4.485339e-01   5.584218e-03
  3.049325e+00    4.420449e-01   5.539317e-03
  3.051535e+00    4.461074e-01   5.560351e-03
  3.053745e+00    4.508971e-01   5.585366e-03
  3.055956e+00    4.425716e-01   5.529020e-03
  3.058166e+00    4.425906e-01   5.524931e-03
  3.060377e+00    4.485397e-01   5.557175e-03
  3.062587e+00    4.464850e-01   5.539818e-03
  3.064798e+00    4.422699e-01   5.509379e-03
  3.067008e+00    4.433165e-01   5.511211e-03
  3.069219e+00    4.359871e-01   5.461012e-03
  3.071429e+00    4.399170e-01   5.482100e-03
  3.073640e+00    4.452135e-01   5.511686e-03
  3.075850e+00    4.506065e-01   5.541375e-03
  3.078060e+00    4.434689e-01   5.494240e-03
  3.080271e+00    4.411944e-01   5.476672e-03
  3.082481e+00    4.439531e-01   5.490337e-03
  3.084692e+00    4.448957e-01   5.492814e-03
  3.086902e+00    4.415510e-01   5.468898e-03
  3.089113e+00    4.422147e-01   5.469462e-03
  3.091323e+00    4.458991e-01   5.488829e-03
  3.093534e+00    4.405085e-01   5.452215e-03
  3.095744e+00    4.458532e-01   5.481805e-03
  3.097955e+00    4.481659e-01   5.492466e-03
  3.100165e+00    4.530569e-01   5.518995e-03
  3.102375e+00    4.520024e-01   5.509147e-03
  3.104586e+00    4.352466e-01   5.402606e-03
  3.106796e+00    4.437034e-01   5.451335e-03
  3.109007e+00    4.421341e-01   5.438491e-03
  3.111217e+00    4.355260e-01   5.394036e-03
  3.113428e+00    4.449069e-01   5.448413e-03
  3.115638e+00    4.383701e-01   5.405032e-03
  3.117849e+00    4.499713e-01   5.472333e-03
  3.120059e+00    4.578839e-01   5.516723e-03
  3.122270e+00    4.523861e-01   5.480239e-03
  3.124480e+00    4.460985e-01   5.438313e-03
  3.126691e+00    4.463744e-01   5.436437e-03
  3.128901e+00    4.436838e-01   5.416897e-03
  3.131111e+00    4.493619e-01   5.447607e-03
  3.133322e+00    4.412689e-01   5.394867e-03
  3.135532e+00    4.528265e-01   5.461638e-03
  3.137743e+00    4.460192e-01   5.416952e-03
  3.139953e+00    4.436507e-01   5.398855e-03
  3.142164e+00    4.490866e-01   5.443940e-03
  3.144374e+00    4.352484e-01   5.387578e-03
  3.146585e+00    4.286447e-01   5.360879e-03
  3.148795e+00    4.376048e-01   5.427351e-03
  3.151006e+00    4.267128e-01   5.367775e-03
  3.153216e+00    4.338256e-01   5.419381e-03
  3.155426e+00    4.449836e-01   5.494990e-03
  3.157637e+00    4.350718e-01   5.438935e-03
  3.159847e+00    4.258423e-01   5.385729e-03
  3.162058e+00    4.318527e-01   5.427980e-03
  3.164268e+00    4.286734e-01   5.411979e-03
  3.166479e+00    4.202960e-01   5.362402e-03
  3.168689e+00    4.441928e-01   5.516121e-03
  3.170900e+00    4.332526e-01   5.450939e-03
  3.173110e+00    4.244898e-01   5.398341e-03
  3.175321e+00    4.323144e-01   5.450354e-03
  3.177531e+00    4.274538e-01   5.422326e-03
  3.179741e+00    4.265498e-01   5.418644e-03
  3.181952e+00    4.291713e-01   5.437346e-03
  3.184162e+00    4.315739e-01   5.454738e-03
  3.186373e+00    4.328066e-01   5.464095e-03
  3.188583e+00    4.354847e-01   5.482764e-03
  3.190794e+00    4.432211e-01   5.533018e-03
  3.193004e+00    4.321681e-01   5.464844e-03
  3.195215e+00    4.244932e-01   5.417570e-03
  3.197425e+00    4.321161e-01   5.467204e-03
  3.199636e+00    4.345720e-01   5.481949e-03
  3.201846e+00    4.295194e-01   5.449406e-03
  3.204056e+00    4.276789e-01   5.438567e-03
  3.206267e+00    4.348586e-01   5.484907e-03
  3.208477e+00    4.212531e-01   5.399310e-03
  3.210688e+00    4.363219e-01   5.495887e-03
  3.212898e+00    4.087497e-01   5.319973e-03
  3.215109e+00    4.197241e-01   5.391640e-03
  3.217319e+00    4.363312e-01   5.497920e-03
  3.219530e+00    4.318455e-01   5.469970e-03
  3.221740e+00    4.287296e-01   5.450778e-03
  3.223951e+00    4.398490e-01   5.521472e-03
  3.226161e+00    4.344929e-01   5.487950e-03
  3.228372e+00    4.218881e-01   5.408279e-03
  3.230582e+00    4.332391e-01   5.480696e-03
  3.232792e+00    4.281882e-01   5.448868e-03
  3.235003e+00    4.316469e-01   5.471089e-03
  3.237213e+00    4.214520e-01   5.406191e-03
  3.239424e+00    4.212754e-01   5.405055e-03
  3.241634e+00    4.215962e-01   5.407236e-03
  3.243845e+00    4.197174e-01   5.395239e-03
  3.246055e+00    4.158607e-01   5.370133e-03
  3.248266e+00    4.193656e-01   5.392917e-03
  3.250476e+00    4.140047e-01   5.358030e-03
  3.252687e+00    4.129646e-01   5.351221e-03
  3.254897e+00    4.270308e-01   5.441460e-03
  3.257107e+00    4.180952e-01   5.383951e-03
  3.259318e+00    4.221164e-01   5.409509e-03
  3.261528e+00    4.336795e-01   5.482990e-03
  3.263739e+00    4.149467e-01   5.362695e-03
  3.265949e+00    4.183795e-01   5.384717e-03
  3.268160e+00    4.193050e-01   5.390263e-03
  3.270370e+00    4.119644e-01   5.342359e-03
  3.272581e+00    4.259921e-01   5.432283e-03
  3.274791e+00    4.208082e-01   5.398591e-03
  3.277002e+00    4.284960e-01   5.447122e-03
  3.279212e+00    4.366773e-01   5.498490e-03
  3.281422e+00    4.482513e-01   5.570298e-03
  3.283633e+00    4.269688e-01   5.435770e-03
  3.285843e+00    4.335868e-01   5.477394e-03
  3.288054e+00    4.327250e-01   5.470993e-03
  3.290264e+00    4.214714e-01   5.399086e-03
  3.292475e+00    4.250928e-01   5.421387e-03
  3.294685e+00    4.217322e-01   5.399278e-03
  3.296896e+00    4.214484e-01   5.396734e-03
  3.299106e+00    4.214844e-01   5.396363e-03
  3.301317e+00    4.195036e-01   5.382678e-03
  3.303527e+00    4.292618e-01   5.444435e-03
  3.305737e+00    4.318863e-01   5.460011e-03
  3.307948e+00    4.362343e-01   5.486724e-03
  3.310158e+00    4.219159e-01   5.395114e-03
  3.312369e+00    4.171954e-01   5.363964e-03
  3.314579e+00    4.097078e-01   5.314697e-03
  3.316790e+00    4.227739e-01   5.398076e-03
  3.319000e+00    4.293150e-01   5.438490e-03
  3.321211e+00    4.106582e-01   5.318404e-03
  3.323421e+00    4.232531e-01   5.398133e-03
  3.325632e+00    4.206986e-01   5.380939e-03
  3.327842e+00    4.309372e-01   5.445098e-03
  3.330052e+00    4.182314e-01   5.363164e-03
  3.332263e+00    4.207852e-01   5.378480e-03
  3.334473e+00    4.300337e-01   5.436377e-03
  3.336684e+00    4.126326e-01   5.323987e-03
  3.338894e+00    4.196332e-01   5.368107e-03
  3.341105e+00    4.298529e-01   5.431858e-03
  3.343315e+00    4.242335e-01   5.395120e-03
  3.345526e+00    4.180298e-01   5.354604e-03
  3.347736e+00    4.161031e-01   5.340872e-03
  3.349947e+00    4.000830e-01   5.236134e-03
  3.352157e+00    4.068262e-01   5.278897e-03
  3.354368e+00    4.093515e-01   5.293991e-03
  3.356578e+00    4.206090e-01   5.365274e-03
  3.358788e+00    4.006837e-01   5.235363e-03
  3.360999e+00    4.112179e-01   5.302459e-03
  3.363209e+00    4.176150e-01   5.342563e-03
  3.365420e+00    4.140467e-01   5.318168e-03
  3.367630e+00    4.236968e-01   5.378769e-03
  3.369841e+00    4.210017e-01   5.360195e-03
  3.372051e+00    4.146225e-01   5.317474e-03
  3.374262e+00    4.009824e-01   5.226868e-03
  3.376472e+00    4.153569e-01   5.317286e-03
  3.378683e+00    4.139614e-01   5.305840e-03
  3.380893e+00    4.258694e-01   5.379270e-03
  3.383103e+00    4.007703e-01   5.215695e-03
  3.385314e+00    4.004735e-01   5.211540e-03
  3.387524e+00    4.094747e-01   5.267097e-03
  3.389735e+00    4.156197e-01   5.303824e-03
  3.391945e+00    4.077090e-01   5.249473e-03
  3.394156e+00    4.087127e-01   5.251719e-03
  3.396366e+00    4.181953e-01   5.308846e-03
  3.398577e+00    4.082119e-01   5.242082e-03
  3.400787e+00    4.084267e-01   5.255332e-03
  3.402998e+00    3.971916e-01   5.220013e-03
  3.405208e+00    3.924175e-01   5.208858e-03
  3.407418e+00    4.004397e-01   5.277609e-03
  3.409629e+00    3.982088e-01   5.276792e-03
  3.411839e+00    3.896263e-01   5.231273e-03
  3.414050e+00    3.880535e-01   5.231548e-03
  3.416260e+00    3.952997e-01   5.289836e-03
  3.418471e+00    3.814838e-01   5.205850e-03
  3.420681e+00    3.744545e-01   5.165938e-03
  3.422892e+00    3.873251e-01   5.261945e-03
  3.425102e+00    3.818886e-01   5.232635e-03
  3.427313e+00    3.675840e-01   5.140672e-03
  3.429523e+00    3.912199e-01   5.310469e-03
  3.431733e+00    3.875241e-01   5.292017e-03
  3.433944e+00    3.747336e-01   5.210372e-03
  3.436154e+00    3.643394e-01   5.143655e-03
  3.438365e+00    3.785873e-01   5.249186e-03
  3.440575e+00    3.842981e-01   5.294562e-03
  3.442786e+00    3.925276e-01   5.356692e-03
  3.444996e+00    3.742876e-01   5.236226e-03
  3.447207e+00    3.523590e-01   5.085672e-03
  3.449417e+00    3.582069e-01   5.167741e-03
  3.451628e+00    3.522925e-01   5.153678e-03
  3.453838e+00    3.563997e-01   5.204467e-03
  3.456049e+00    3.541731e-01   5.211663e-03
  3.458259e+00    3.674912e-01   5.330720e-03
  3.460469e+00    3.731758e-01   5.391762e-03
  3.462680e+00    3.567426e-01   5.290532e-03
  3.464890e+00    3.640294e-01   5.362001e-03
  3.467101e+00    3.580601e-01   5.335137e-03
  3.469311e+00    3.558601e-01   5.334893e-03
  3.471522e+00    3.812945e-01   5.538819e-03
  3.473732e+00    4.004769e-01   5.692822e-03
  3.475943e+00    4.032087e-01   5.728331e-03
  3.478153e+00    4.054428e-01   5.759957e-03
  3.480364e+00    4.140441e-01   5.836297e-03
  3.482574e+00    4.071101e-01   5.802608e-03
  3.484784e+00    4.119965e-01   5.852240e-03
  3.486995e+00    4.075302e-01   5.835360e-03
  3.489205e+00    4.194905e-01   5.934982e-03
  3.491416e+00    4.282193e-01   6.011330e-03
  3.493626e+00    4.360208e-01   6.080472e-03
  3.495837e+00    4.388143e-01   6.114621e-03
  3.498047e+00    4.653083e-01   6.311361e-03
  3.500258e+00    4.543128e-01   6.250955e-03
  3.502468e+00    4.609921e-01   6.311241e-03
  3.504679e+00    4.669152e-01   6.366285e-03
  3.506889e+00    4.633324e-01   6.356199e-03
  3.509099e+00    4.571002e-01   6.327426e-03
  3.511310e+00    4.834604e-01   6.521900e-03
  3.513520e+00    4.851064e-01   6.547462e-03
  3.515731e+00    4.960926e-01   6.635705e-03
  3.517941e+00    4.996766e-01   6.674143e-03
  3.520152e+00    5.079101e-01   6.743404e-03
  3.522362e+00    5.304554e-01   6.906355e-03
  3.524573e+00    5.183173e-01   6.841330e-03
  3.526783e+00    5.073890e-01   6.782135e-03
  3.528994e+00    5.321159e-01   6.957857e-03
  3.531204e+00    5.253975e-01   6.926271e-03
  3.533414e+00    5.201925e-01   6.903940e-03
  3.535625e+00    5.091544e-01   6.842409e-03
  3.537835e+00    5.285051e-01   6.983287e-03
  3.540046e+00    5.307406e-01   7.006962e-03
  3.542256e+00    5.342653e-01   7.037702e-03
  3.544467e+00    5.422389e-01   7.097652e-03
  3.546677e+00    5.467257e-01   7.134692e-03
  3.548888e+00    5.190771e-01   6.959252e-03
  3.551098e+00    5.354486e-01   7.075473e-03
  3.553309e+00    5.250729e-01   7.014655e-03
  3.555519e+00    5.324016e-01   7.074680e-03
  3.557729e+00    5.368431e-01   7.115878e-03
  3.559940e+00    5.408778e-01   7.154158e-03
  3.562150e+00    5.241499e-01   7.054252e-03
  3.564361e+00    5.259805e-01   7.079748e-03
  3.566571e+00    5.362490e-01   7.162336e-03
  3.568782e+00    5.454343e-01   7.237695e-03
  3.570992e+00    5.243084e-01   7.109753e-03
  3.573203e+00    5.162034e-01   7.068417e-03
  3.575413e+00    5.239908e-01   7.135201e-03
  3.577624e+00    5.230033e-01   7.142382e-03
  3.579834e+00    5.414191e-01   7.281011e-03
  3.582045e+00    5.399455e-01   7.285198e-03
  3.584255e+00    5.291361e-01   7.225876e-03
  3.586465e+00    5.295801e-01   7.242720e-03
  3.588676e+00    5.332689e-01   7.282094e-03
  3.590886e+00    5.289785e-01   7.266341e-03
  3.593097e+00    5.129878e-01   7.169859e-03
  3.595307e+00    5.354617e-01   7.339143e-03
  3.597518e+00    5.414032e-01   7.394047e-03
  3.599728e+00    5.283116e-01   7.318143e-03
  3.601939e+00    5.258452e-01   7.314914e-03
  3.604149e+00    5.394585e-01   7.423491e-03
  3.606360e+00    5.364054e-01   7.416619e-03
  3.608570e+00    5.312667e-01   7.395081e-03
  3.610780e+00    5.280899e-01   7.383967e-03
  3.612991e+00    5.360559e-01   7.449433e-03
  3.615201e+00    5.428162e-01   7.506155e-03
  3.617412e+00    5.354271e-01   7.462177e-03
  3.619622e+00    5.144833e-01   7.320617e-03
  3.621833e+00    5.345187e-01   7.468462e-03
  3.624043e+00    5.422403e-01   7.531845e-03
  3.626254e+00    5.260214e-01   7.427963e-03
  3.628464e+00    5.244432e-01   7.427679e-03
  3.630675e+00    5.177408e-01   7.393968e-03
  3.632885e+00    5.356286e-01   7.535042e-03
  3.635095e+00    5.427935e-01   7.599854e-03
  3.637306e+00    5.395151e-01   7.591303e-03
  3.639516e+00    5.220412e-01   7.481710e-03
  3.641727e+00    5.413197e-01   7.633300e-03
  3.643937e+00    5.352741e-01   7.605118e-03
  3.646148e+00    5.394544e-01   7.649477e-03
  3.648358e+00    5.414990e-01   7.678912e-03
  3.650569e+00    5.376884e-01   7.666688e-03
  3.652779e+00    5.321782e-01   7.642020e-03
  3.654990e+00    5.254819e-01   7.608598e-03
  3.657200e+00    5.262440e-01   7.628900e-03
  3.659410e+00    5.199232e-01   7.597765e-03
  3.661621e+00    5.251933e-01   7.651201e-03
  3.663831e+00    5.025087e-01   7.498807e-03
  3.666042e+00    5.227787e-01   7.663596e-03
  3.668252e+00    5.165625e-01   7.632913e-03
  3.670463e+00    5.176303e-01   7.655856e-03
  3.672673e+00    5.274854e-01   7.743737e-03
  3.674884e+00    5.140784e-01   7.659869e-03
  3.677094e+00    5.264225e-01   7.766751e-03
  3.679305e+00    5.192483e-01   7.729040e-03
  3.681515e+00    5.046750e-01   7.635022e-03
  3.683726e+00    5.133152e-01   7.715636e-03
  3.685936e+00    5.205714e-01   7.785593e-03
  3.688146e+00    5.283887e-01   7.859619e-03
  3.690357e+00    5.330302e-01   7.910085e-03
  3.692567e+00    5.020695e-01   7.692675e-03
  3.694778e+00    5.149511e-01   7.806554e-03
  3.696988e+00    5.160537e-01   7.830775e-03
  3.699199e+00    5.361843e-01   7.998451e-03
  3.701409e+00    5.295134e-01   7.964964e-03
  3.703620e+00    5.070392e-01   7.810177e-03
  3.705830e+00    5.156330e-01   7.892277e-03
  3.708041e+00    5.214969e-01   7.953641e-03
  3.710251e+00    5.248717e-01   7.996052e-03
  3.712461e+00    5.200723e-01   7.976109e-03
  3.714672e+00    5.074264e-01   7.895057e-03
  3.716882e+00    5.319218e-01   8.100209e-03
  3.719093e+00    5.196888e-01   8.023712e-03
  3.721303e+00    4.989901e-01   7.878901e-03
  3.723514e+00    4.976690e-01   7.885358e-03
  3.725724e+00    5.024548e-01   7.940071e-03
  3.727935e+00    5.179574e-01   8.079052e-03
  3.730145e+00    5.259284e-01   8.158514e-03
  3.732356e+00    5.135895e-01   8.079722e-03
  3.734566e+00    4.966244e-01   7.962387e-03
  3.736776e+00    4.996901e-01   8.004375e-03
  3.738987e+00    5.180773e-01   8.168127e-03
  3.741197e+00    5.176222e-01   8.182669e-03
  3.743408e+00    5.072588e-01   8.118260e-03
  3.745618e+00    4.966708e-01   8.051131e-03
  3.747829e+00    4.935431e-01   8.043447e-03
  3.750039e+00    5.047283e-01   8.152381e-03
  3.752250e+00    4.943611e-01   8.086384e-03
  3.754460e+00    5.021788e-01   8.168476e-03
  3.756671e+00    5.064407e-01   8.221788e-03
  3.758881e+00    5.008759e-01   8.194997e-03
  3.761091e+00    5.010288e-01   8.215241e-03
  3.763302e+00    5.096213e-01   8.304507e-03
  3.765512e+00    5.279492e-01   8.472146e-03
  3.767723e+00    5.187538e-01   8.417598e-03
  3.769933e+00    4.966578e-01   8.255584e-03
  3.772144e+00    5.089375e-01   8.376587e-03
  3.774354e+00    4.809906e-01   8.162726e-03
  3.776565e+00    5.065730e-01   8.396876e-03
  3.778775e+00    4.856941e-01   8.241570e-03
  3.780986e+00    5.088806e-01   8.456420e-03
  3.783196e+00    5.117544e-01   8.500669e-03
  3.785407e+00    4.875161e-01   8.317014e-03
  3.787617e+00    5.095667e-01   8.523950e-03
  3.789827e+00    5.013402e-01   8.475344e-03
  3.792038e+00    4.925133e-01   8.421097e-03
  3.794248e+00    4.998655e-01   8.504761e-03
  3.796459e+00    4.835376e-01   8.385748e-03
  3.798669e+00    4.716308e-01   8.302599e-03
  3.800880e+00    4.940132e-01   8.518548e-03
  3.803090e+00    5.068366e-01   8.650490e-03
  3.805301e+00    4.932948e-01   8.555980e-03
  3.807511e+00    5.176761e-01   8.787270e-03
  3.809722e+00    5.236886e-01   8.861015e-03
  3.811932e+00    4.637404e-01   8.359793e-03
  3.814142e+00    4.781671e-01   8.511201e-03
  3.816353e+00    5.012172e-01   8.736791e-03
  3.818563e+00    5.009127e-01   8.757318e-03
  3.820774e+00    5.089840e-01   8.850986e-03
  3.822984e+00    4.808026e-01   8.625517e-03
  3.825195e+00    4.903478e-01   8.734127e-03
  3.827405e+00    5.170323e-01   8.993063e-03
  3.829616e+00    4.973660e-01   8.844428e-03
  3.831826e+00    5.143470e-01   9.018679e-03
  3.834037e+00    5.021415e-01   8.935728e-03
  3.836247e+00    4.913163e-01   8.863384e-03
  3.838457e+00    4.945300e-01   8.917321e-03
  3.840668e+00    5.073628e-01   9.057702e-03
  3.842878e+00    5.136346e-01   9.139570e-03
  3.845089e+00    5.009991e-01   9.052096e-03
  3.847299e+00    4.995962e-01   9.065323e-03
  3.849510e+00    5.117108e-01   9.200867e-03
  3.851720e+00    4.939649e-01   9.061344e-03
  3.853931e+00    4.942148e-01   9.082578e-03
  3.856141e+00    4.855391e-01   9.021351e-03
  3.858352e+00    4.915040e-01   9.095796e-03
  3.860562e+00    4.806997e-01   9.014310e-03
  3.862772e+00    4.926958e-01   9.145642e-03
  3.864983e+00    4.614671e-01   8.870080e-03
  3.867193e+00    4.945293e-01   9.202132e-03
  3.869404e+00    4.799198e-01   9.084728e-03
  3.871614e+00    4.802211e-01   9.107284e-03
  3.873825e+00    4.904164e-01   9.223693e-03
  3.876035e+00    4.692242e-01   9.042321e-03
  3.878246e+00    4.533708e-01   8.912928e-03
  3.880456e+00    4.822477e-01   9.221106e-03
  3.882667e+00    4.999681e-01   9.418565e-03
  3.884877e+00    5.155878e-01   9.595022e-03
  3.887087e+00    5.015640e-01   9.493902e-03
  3.889298e+00    4.877450e-01   9.392402e-03
  3.891508e+00    4.936410e-01   9.479653e-03
  3.893719e+00    4.888330e-01   9.464290e-03
  3.895929e+00    4.909271e-01   9.516010e-03
  3.898140e+00    4.703169e-01   9.345173e-03
  3.900350e+00    4.762597e-01   9.435582e-03
  3.902561e+00    4.962591e-01   9.664300e-03
  3.904771e+00    5.037525e-01   9.770195e-03
  3.906982e+00    5.068188e-01   9.833743e-03
  3.909192e+00    5.156118e-01   9.952975e-03
  3.911403e+00    4.938652e-01   9.775066e-03
  3.913613e+00    4.705805e-01   9.575442e-03
  3.915823e+00    5.062855e-01   9.967471e-03
  3.918034e+00    4.790785e-01   9.730916e-03
  3.920244e+00    4.948559e-01   9.925828e-03
  3.922455e+00    4.879065e-01   9.891913e-03
  3.924665e+00    5.015886e-01   1.006661e-02
  3.926876e+00    4.924892e-01   1.001220e-02
  3.929086e+00    4.820312e-01   9.942445e-03
  3.931297e+00    4.468287e-01   9.605838e-03
  3.933507e+00    4.765033e-01   9.948216e-03
  3.935718e+00    4.862631e-01   1.007836e-02
  3.937928e+00    4.804530e-01   1.004722e-02
  3.940138e+00    4.865230e-01   1.013978e-02
  3.942349e+00    4.779125e-01   1.007921e-02
  3.944559e+00    4.908987e-01   1.024541e-02
  3.946770e+00    4.970470e-01   1.033980e-02
  3.948980e+00    4.791625e-01   1.018260e-02
  3.951191e+00    4.871187e-01   1.029765e-02
  3.953401e+00    4.884515e-01   1.034314e-02
  3.955612e+00    4.946065e-01   1.043998e-02
  3.957822e+00    4.717089e-01   1.022677e-02
  3.960033e+00    4.586819e-01   1.011625e-02
  3.962243e+00    4.684028e-01   1.025505e-02
  3.964453e+00    4.335762e-01   9.897780e-03
  3.966664e+00    4.969533e-01   1.063026e-02
  3.968874e+00    5.072908e-01   1.076932e-02
  3.971085e+00    4.892172e-01   1.059767e-02
  3.973295e+00    5.183656e-01   1.093111e-02
  3.975506e+00    5.024651e-01   1.078403e-02
  3.977716e+00    5.043744e-01   1.082704e-02
  3.979927e+00    4.763828e-01   1.054416e-02
  3.982137e+00    4.936135e-01   1.075563e-02
  3.984348e+00    4.856458e-01   1.069111e-02
  3.986558e+00    4.742600e-01   1.058705e-02
  3.988768e+00    4.702875e-01   1.056525e-02
  3.990979e+00    4.893397e-01   1.080001e-02
  3.993189e+00    4.730070e-01   1.064106e-02
  3.995400e+00    4.725498e-01   1.065909e-02
  3.997610e+00    4.947002e-01   1.093616e-02
  3.999821e+00    4.805314e-01   1.081580e-02
  4.002031e+00    4.697939e-01   1.073214e-02
  4.004242e+00    4.686403e-01   1.075670e-02
  4.006452e+00    5.078142e-01   1.123754e-02
  4.008663e+00    4.872783e-01   1.104811e-02
  4.010873e+00    4.833088e-01   1.104300e-02
  4.013084e+00    4.836558e-01   1.108780e-02
  4.015294e+00    4.795423e-01   1.108135e-02
  4.017504e+00    4.733984e-01   1.105153e-02
  4.019715e+00    4.716369e-01   1.107283e-02
  4.021925e+00    4.923193e-01   1.135638e-02
  4.024136e+00    4.897983e-01   1.137125e-02
  4.026346e+00    4.627800e-01   1.109624e-02
  4.028557e+00    4.731988e-01   1.126443e-02
  4.030767e+00    4.718593e-01   1.129343e-02
  4.032978e+00    4.530360e-01   1.111079e-02
  4.035188e+00    4.633006e-01   1.128107e-02
  4.037399e+00    4.688269e-01   1.139505e-02
  4.039609e+00    4.777988e-01   1.155089e-02
  4.041819e+00    5.024404e-01   1.189489e-02
  4.044030e+00    4.924822e-01   1.182670e-02
  4.046240e+00    4.845995e-01   1.178171e-02
  4.048451e+00    4.462561e-01   1.135486e-02
  4.050661e+00    4.822727e-01   1.185562e-02
  4.052872e+00    4.637182e-01   1.167708e-02
  4.055082e+00    4.780219e-01   1.190901e-02
  4.057293e+00    4.962441e-01   1.218831e-02
  4.059503e+00    4.664482e-01   1.187052e-02
  4.061714e+00    5.198221e-01   1.258991e-02
  4.063924e+00    4.978999e-01   1.237931e-02
  4.066134e+00    4.596372e-01   1.195013e-02
  4.068345e+00    4.896105e-01   1.239305e-02
  4.070555e+00    4.597299e-01   1.206680e-02
  4.072766e+00    4.878806e-01   1.249202e-02
  4.074976e+00    4.719658e-01   1.234791e-02
  4.077187e+00    4.661547e-01   1.233258e-02
  4.079397e+00    4.970754e-01   1.280007e-02
  4.081608e+00    4.787932e-01   1.262782e-02
  4.083818e+00    4.819739e-01   1.273560e-02
  4.086029e+00    4.707030e-01   1.265215e-02
  4.088239e+00    4.650793e-01   1.264417e-02
  4.090449e+00    4.499908e-01   1.250472e-02
  4.092660e+00    4.781508e-01   1.296100e-02
  4.094870e+00    4.629596e-01   1.282434e-02
  4.097081e+00    4.734428e-01   1.303965e-02
  4.099291e+00    4.776180e-01   1.315143e-02
  4.101502e+00    4.908928e-01   1.338262e-02
  4.103712e+00    4.623572e-01   1.303626e-02
  4.105923e+00    4.615439e-01   1.307501e-02
  4.108133e+00    5.108572e-01   1.380898e-02
  4.110344e+00    4.648322e-01   1.322271e-02
  4.112554e+00    4.997819e-01   1.376473e-02
  4.114764e+00    5.288661e-01   1.421660e-02
  4.116975e+00    5.127149e-01   1.405311e-02
  4.119185e+00    4.810777e-01   1.366782e-02
  4.121396e+00    4.849643e-01   1.377956e-02
  4.123606e+00    4.855781e-01   1.384483e-02
  4.125817e+00    5.325864e-01   1.456023e-02
  4.128027e+00    4.741455e-01   1.379631e-02
  4.130238e+00    4.860720e-01   1.402848e-02
  4.132448e+00    4.540126e-01   1.361670e-02
  4.134659e+00    4.808866e-01   1.407431e-02
  4.136869e+00    5.068067e-01   1.451306e-02
  4.139080e+00    4.706930e-01   1.404938e-02
  4.141290e+00    4.723811e-01   1.413711e-02
  4.143500e+00    4.490409e-01   1.384686e-02
  4.145711e+00    4.411848e-01   1.378927e-02
  4.147921e+00    4.387668e-01   1.381447e-02
  4.150132e+00    5.144966e-01   1.503065e-02
  4.152342e+00    4.845144e-01   1.465698e-02
  4.154553e+00    4.736699e-01   1.456065e-02
  4.156763e+00    5.166289e-01   1.528205e-02
  4.158974e+00    4.915379e-01   1.498119e-02
  4.161184e+00    4.554757e-01   1.449270e-02
  4.163395e+00    5.003399e-01   1.526721e-02
  4.165605e+00    5.229403e-01   1.568951e-02
  4.167815e+00    4.735596e-01   1.500823e-02
  4.170026e+00    4.968959e-01   1.545449e-02
  4.172236e+00    5.012396e-01   1.560595e-02
  4.174447e+00    5.064037e-01   1.577133e-02
  4.176657e+00    4.566720e-01   1.505891e-02
  4.178868e+00    5.042305e-01   1.591308e-02
  4.181078e+00    4.943747e-01   1.584558e-02
  4.183289e+00    4.850332e-01   1.578505e-02
  4.185499e+00    4.313051e-01   1.497313e-02
  4.187710e+00    4.359722e-01   1.514181e-02
  4.189920e+00    4.449385e-01   1.538901e-02
  4.192130e+00    4.569125e-01   1.568976e-02
  4.194341e+00    4.960059e-01   1.644755e-02
  4.196551e+00    4.912663e-01   1.647250e-02
  4.198762e+00    4.738120e-01   1.627993e-02
  4.200972e+00    4.471518e-01   1.591767e-02
  4.203183e+00    4.989285e-01   1.692455e-02
  4.205393e+00    4.812877e-01   1.673363e-02
  4.207604e+00    4.836764e-01   1.688956e-02
  4.209814e+00    4.454830e-01   1.631985e-02
  4.212025e+00    4.840590e-01   1.713276e-02
  4.214235e+00    4.429399e-01   1.650502e-02
  4.216445e+00    5.056369e-01   1.776154e-02
  4.218656e+00    4.881800e-01   1.758367e-02
  4.220866e+00    4.497699e-01   1.700257e-02
  4.223077e+00    4.742735e-01   1.759347e-02
  4.225287e+00    4.787580e-01   1.781599e-02
  4.227498e+00    5.047063e-01   1.843574e-02
  4.229708e+00    4.735184e-01   1.800212e-02
  4.231919e+00    4.408773e-01   1.751445e-02
  4.234129e+00    4.477898e-01   1.779903e-02
  4.236340e+00    4.552746e-01   1.810114e-02
  4.238550e+00    4.832175e-01   1.881256e-02
  4.240761e+00    4.593849e-01   1.850474e-02
  4.242971e+00    5.129535e-01   1.973312e-02
  4.245181e+00    4.925911e-01   1.951942e-02
  4.247392e+00    5.063791e-01   1.997565e-02
  4.249602e+00    4.913793e-01   1.987304e-02
  4.251813e+00    4.905531e-01   2.005183e-02
  4.254023e+00    4.029626e-01   1.835712e-02
  4.256234e+00    4.867405e-01   2.039046e-02
  4.258444e+00    4.831125e-01   2.052707e-02
  4.260655e+00    4.761794e-01   2.060363e-02
  4.262865e+00    4.961452e-01   2.126909e-02
  4.265076e+00    4.765731e-01   2.108285e-02
  4.267286e+00    5.068383e-01   2.199963e-02
  4.269496e+00    4.672152e-01   2.138010e-02
  4.271707e+00    5.552469e-01   2.359522e-02
  4.273917e+00    4.850884e-01   2.233921e-02
  4.276128e+00    4.901958e-01   2.275513e-02
  4.278338e+00    4.860778e-01   2.296194e-02
  4.280549e+00    4.669964e-01   2.282955e-02
  4.282759e+00    4.220355e-01   2.201409e-02
  4.284970e+00    5.161866e-01   2.470734e-02
  4.287180e+00    4.390737e-01   2.305971e-02
  4.289391e+00    4.726230e-01   2.410408e-02
  4.291601e+00    5.071387e-01   2.516850e-02
  4.293811e+00    4.861125e-01   2.483362e-02
  4.296022e+00    4.733199e-01   2.470176e-02
  4.298232e+00    5.178528e-01   2.605386e-02
  4.300443e+00    4.585704e-01   2.471994e-02
  4.302653e+00    4.730456e-01   2.532395e-02
  4.304864e+00    4.845040e-01   2.585126e-02
  4.307074e+00    4.980697e-01   2.644557e-02
  4.309285e+00    5.696514e-01   2.853970e-02
  4.311495e+00    5.073556e-01   2.718606e-02
  4.313706e+00    5.285079e-01   2.800717e-02
  4.315916e+00    4.546462e-01   2.623271e-02
  4.318126e+00    4.074349e-01   2.507889e-02
  4.320337e+00    3.901717e-01   2.478987e-02
  4.322547e+00    4.619971e-01   2.726104e-02
  4.324758e+00    4.207159e-01   2.628543e-02
  4.326968e+00    5.337717e-01   2.994066e-02
  4.329179e+00    4.201304e-01   2.685655e-02
  4.331389e+00    3.437654e-01   2.457193e-02
  4.333600e+00    3.573332e-01   2.535226e-02
  4.335810e+00    4.521476e-01   2.885647e-02
  4.338021e+00    4.895859e-01   3.041266e-02
  4.340231e+00    4.501555e-01   2.952772e-02
  4.342442e+00    4.145236e-01   2.871644e-02
  4.344652e+00    3.325487e-01   2.606885e-02
  4.346862e+00    3.939823e-01   2.877208e-02
  4.349073e+00    5.958581e-01   3.589904e-02
  4.351283e+00    4.810306e-01   3.273778e-02
  4.353494e+00    4.770336e-01   3.310347e-02
  4.355704e+00    4.027939e-01   3.090992e-02
  4.357915e+00    4.335454e-01   3.260078e-02
  4.360125e+00    4.127648e-01   3.235399e-02
  4.362336e+00    4.067423e-01   3.270100e-02
  4.364546e+00    4.485962e-01   3.496833e-02
  4.366757e+00    3.673046e-01   3.227063e-02
  4.368967e+00    4.624691e-01   3.693384e-02
  4.371177e+00    5.322286e-01   4.046354e-02
  4.373388e+00    4.900271e-01   3.969402e-02
  4.375598e+00    3.996267e-01   3.666475e-02
  4.377809e+00    3.609350e-01   3.572591e-02
  4.380019e+00    3.333227e-01   3.519611e-02
  4.382230e+00    2.007344e-01   2.807473e-02
  4.384440e+00    3.553365e-01   3.842692e-02
  4.386651e+00    4.113249e-01   4.261993e-02
  4.388861e+00    4.388621e-01   4.549982e-02
  4.391072e+00    5.252914e-01   5.152892e-02
  4.393282e+00    5.844375e-01   5.645221e-02
  4.395492e+00    4.282872e-01   5.033812e-02
  4.397703e+00    3.424398e-01   4.706606e-02
  4.399913e+00    4.735135e-01   5.814650e-02
  4.402124e+00    3.202640e-01   5.053368e-02
  4.404334e+00    3.720956e-01   5.789572e-02
  4.406545e+00    6.206909e-01   8.033902e-02
  4.408755e+00    3.614751e-01   6.649861e-02
  4.410966e+00    2.159079e-01   5.688571e-02
  4.413176e+00   -1.607699e-01            nan
  4.415387e+00   -6.939643e-01            nan
  4.417597e+00   -1.818596e+00            nan
  4.419807e+00    9.946513e-01   3.582886e-01
