# == pyFAI calibration ==
# Distance Sample to Detector: 0.216 m
# PONI: 1.166e-01, 1.308e-01 m
# Rotations: 0.000000 0.000000 0.000000 rad
# 
# == Fit2d calibration ==
# Distance Sample-beamCenter: 216.000 mm
# Center: x=1744.293, y=1555.000 pix
# Tilt: 0.000 deg  TiltPlanRot: 0.000 deg
# 
# Detector Eiger 9M	 PixelSize= 7.500e-05, 7.500e-05 m
#    Detector has a mask: True 
#    Detector has a dark current: False 
#    detector has a flat field: False 
# 
# Wavelength: 9.8e-11 m
# Mask applied: from detector
# Dark current applied: False
# Flat field applied: False
# Polarization factor: None
# Normalization factor: 1.0
# 
# Headers of the input frame:
# {
# "_array_data.header_convention": "SLS_1.0",
# "_array_data.header_contents": "# Detector: Dectris Eiger 9M, S/N E-18-0102\r\n# Pixel_size 75e-6 m x 75e-6 m\r\n# Silicon sensor, thickness 0.000450 m\r\n# Exposure_time 0.024997 s\r\n# Exposure_period 0.025000 s\r\n# Count_cutoff 62318 counts\r\n# Wavelength 0.980106 A\r\n# Detector_distance 0.215992 m\r\n# Beam_xy (1555, 1744) pixels\r\n# Start_angle 0.000000 deg.\r\n# Angle_increment 0.000000 deg.",
# "Content-Type": "application/octet-stream;",
# "conversions": "x-CBF_BYTE_OFFSET",
# "Content-Transfer-Encoding": "BINARY",
# "X-Binary-Size": "10166602",
# "X-Binary-ID": "1",
# "X-Binary-Element-Type": "signed 32-bit integer",
# "X-Binary-Element-Byte-Order": "LITTLE_ENDIAN",
# "Content-MD5": "9JTAId9XTTp/nT237139Pw==",
# "X-Binary-Number-of-Elements": "10166590",
# "X-Binary-Size-Fastest-Dimension": "3110",
# "X-Binary-Size-Second-Dimension": "3269",
# "X-Binary-Size-Padding": "4095"
# }
# --> H:/Proxima2a_2019-04-05/RAW_DATA/C5_gel17_position5/C5_mesh_1_data.cbf/C5_mesh_1_data.cbf000072.dat
#        q_A^-1              I           sigma 
  1.105228e-03    1.421241e+00   6.450908e-01
  3.315685e-03    1.948053e+00   4.591408e-01
  5.526141e-03    1.663388e+00   3.280718e-01
  7.736597e-03    1.633458e+00   2.746466e-01
  9.947054e-03    1.502435e+00   2.322065e-01
  1.215751e-02    1.437084e+00   2.053571e-01
  1.436797e-02    1.436518e+00   1.888562e-01
  1.657842e-02    1.618858e+00   1.866160e-01
  1.878888e-02    1.387564e+00   1.622894e-01
  2.099934e-02    1.441081e+00   1.564755e-01
  2.320979e-02    1.484884e+00   1.510703e-01
  2.542025e-02    1.420707e+00   1.412088e-01
  2.763070e-02    1.494118e+00   1.388938e-01
  2.984116e-02    1.478110e+00   1.329321e-01
  3.205162e-02    1.523320e+00   1.302212e-01
  3.426207e-02    1.419880e+00   1.215908e-01
  3.647253e-02    1.402965e+00   1.171421e-01
  3.868299e-02    1.439588e+00   1.152298e-01
  4.089344e-02    1.418547e+00   1.112507e-01
  4.310390e-02    1.505700e+00   1.116331e-01
  4.531436e-02    1.625820e+00   1.131363e-01
  4.752481e-02    1.609557e+00   1.099188e-01
  4.973527e-02    1.578513e+00   1.064084e-01
  5.194572e-02    1.552159e+00   1.032455e-01
  5.415618e-02    1.459232e+00   9.803946e-02
  5.636664e-02    1.443239e+00   9.557281e-02
  5.857709e-02    1.521726e+00   9.626818e-02
  6.078755e-02    1.471316e+00   9.292025e-02
  6.299801e-02    1.462989e+00   9.101582e-02
  6.520846e-02    1.502715e+00   9.066696e-02
  6.741892e-02    1.368849e+00   8.509961e-02
  6.962938e-02    1.499017e+00   8.763339e-02
  7.183983e-02    1.545537e+00   8.760154e-02
  7.405029e-02    1.563612e+00   8.678521e-02
  7.626074e-02    1.367555e+00   7.997659e-02
  7.847120e-02    1.426559e+00   8.052281e-02
  8.068166e-02    1.433334e+00   7.959980e-02
  8.289211e-02    1.406044e+00   7.777968e-02
  8.510257e-02    1.423526e+00   7.723817e-02
  8.731303e-02    1.512465e+00   7.859726e-02
  8.952348e-02    1.529567e+00   7.806059e-02
  9.173394e-02    1.535010e+00   7.724839e-02
  9.394439e-02    1.470627e+00   7.471377e-02
  9.615485e-02    1.514899e+00   7.495169e-02
  9.836531e-02    1.488137e+00   7.344528e-02
  1.005758e-01    1.496505e+00   7.283808e-02
  1.027862e-01    1.472721e+00   7.147401e-02
  1.049967e-01    1.468244e+00   7.060883e-02
  1.072071e-01    1.529501e+00   7.131907e-02
  1.094176e-01    1.586689e+00   7.190155e-02
  1.116280e-01    1.632019e+00   7.219420e-02
  1.138385e-01    1.544206e+00   6.953862e-02
  1.160490e-01    1.543018e+00   6.884580e-02
  1.182594e-01    1.500992e+00   6.726274e-02
  1.204699e-01    1.507796e+00   6.679314e-02
  1.226803e-01    1.554088e+00   6.719428e-02
  1.248908e-01    1.555482e+00   6.662603e-02
  1.271012e-01    1.668938e+00   6.840902e-02
  1.293117e-01    1.597911e+00   6.636211e-02
  1.315222e-01    1.514767e+00   6.406578e-02
  1.337326e-01    1.567874e+00   6.463699e-02
  1.359431e-01    1.633127e+00   6.600697e-02
  1.381535e-01    1.616576e+00   6.655315e-02
  1.403640e-01    1.612021e+00   6.674627e-02
  1.425744e-01    1.648723e+00   6.760967e-02
  1.447849e-01    1.593352e+00   6.647996e-02
  1.469953e-01    1.557301e+00   6.568244e-02
  1.492058e-01    1.630637e+00   6.713305e-02
  1.514163e-01    1.622493e+00   6.685404e-02
  1.536267e-01    1.576442e+00   6.576978e-02
  1.558372e-01    1.605193e+00   6.622029e-02
  1.580476e-01    1.675911e+00   6.749906e-02
  1.602581e-01    1.691258e+00   6.763524e-02
  1.624685e-01    1.628628e+00   6.618936e-02
  1.646790e-01    1.640699e+00   6.624345e-02
  1.668895e-01    1.700791e+00   6.725086e-02
  1.690999e-01    1.766701e+00   6.833573e-02
  1.713104e-01    1.734908e+00   6.750790e-02
  1.735208e-01    1.785480e+00   6.827180e-02
  1.757313e-01    1.775481e+00   6.786699e-02
  1.779417e-01    1.813608e+00   6.836810e-02
  1.801522e-01    1.889140e+00   6.955503e-02
  1.823626e-01    1.964804e+00   7.069813e-02
  1.845731e-01    1.941976e+00   7.005854e-02
  1.867836e-01    1.984759e+00   7.058703e-02
  1.889940e-01    2.044732e+00   7.141144e-02
  1.912045e-01    1.997766e+00   7.035083e-02
  1.934149e-01    1.923099e+00   6.879260e-02
  1.956254e-01    1.956871e+00   6.916513e-02
  1.978358e-01    2.086493e+00   7.117440e-02
  2.000463e-01    2.064929e+00   7.057099e-02
  2.022568e-01    2.121180e+00   7.129101e-02
  2.044672e-01    2.006785e+00   6.910447e-02
  2.066777e-01    2.007900e+00   6.889422e-02
  2.088881e-01    2.014105e+00   6.877483e-02
  2.110986e-01    2.012967e+00   6.851962e-02
  2.133090e-01    1.960896e+00   6.740776e-02
  2.155195e-01    1.917729e+00   6.644055e-02
  2.177300e-01    1.979535e+00   6.697239e-02
  2.199404e-01    1.998944e+00   6.552657e-02
  2.221509e-01    2.055213e+00   6.535144e-02
  2.243613e-01    1.931119e+00   6.254469e-02
  2.265718e-01    1.961617e+00   6.234180e-02
  2.287822e-01    2.109562e+00   6.401008e-02
  2.309927e-01    2.140743e+00   6.389404e-02
  2.332031e-01    2.087200e+00   6.254994e-02
  2.354136e-01    2.113685e+00   6.243537e-02
  2.376241e-01    2.195164e+00   6.313353e-02
  2.398345e-01    2.208778e+00   6.286030e-02
  2.420450e-01    2.206157e+00   6.237403e-02
  2.442554e-01    2.136077e+00   6.095253e-02
  2.464659e-01    2.168001e+00   6.099403e-02
  2.486763e-01    2.190119e+00   6.090141e-02
  2.508868e-01    2.095851e+00   5.920050e-02
  2.530973e-01    2.134829e+00   5.937801e-02
  2.553077e-01    2.212685e+00   6.008440e-02
  2.575182e-01    2.123868e+00   5.851786e-02
  2.597286e-01    2.077194e+00   5.753490e-02
  2.619391e-01    2.029182e+00   5.653870e-02
  2.641495e-01    2.038902e+00   5.636027e-02
  2.663600e-01    2.063987e+00   5.639408e-02
  2.685704e-01    2.040392e+00   5.576687e-02
  2.707809e-01    2.045265e+00   5.553705e-02
  2.729914e-01    2.132851e+00   5.641819e-02
  2.752018e-01    2.027476e+00   5.472055e-02
  2.774123e-01    2.059345e+00   5.486724e-02
  2.796227e-01    2.007386e+00   5.390268e-02
  2.818332e-01    2.008837e+00   5.365315e-02
  2.840436e-01    1.992870e+00   5.318047e-02
  2.862541e-01    1.977423e+00   5.271931e-02
  2.884646e-01    1.981070e+00   5.251748e-02
  2.906750e-01    2.014445e+00   5.270692e-02
  2.928855e-01    1.940142e+00   5.148605e-02
  2.950959e-01    1.957043e+00   5.147229e-02
  2.973064e-01    1.939108e+00   5.100562e-02
  2.995168e-01    1.910131e+00   5.039379e-02
  3.017273e-01    1.976626e+00   5.103744e-02
  3.039377e-01    1.950144e+00   5.047241e-02
  3.061482e-01    2.017136e+00   5.110997e-02
  3.083587e-01    1.932877e+00   4.981455e-02
  3.105691e-01    1.953577e+00   4.986667e-02
  3.127796e-01    1.894712e+00   4.890317e-02
  3.149900e-01    1.980929e+00   4.979509e-02
  3.172005e-01    1.920551e+00   4.882987e-02
  3.194109e-01    1.913650e+00   4.854085e-02
  3.216214e-01    1.950896e+00   4.881097e-02
  3.238319e-01    1.837637e+00   4.718526e-02
  3.260423e-01    1.863380e+00   4.732533e-02
  3.282528e-01    1.885940e+00   4.742142e-02
  3.304632e-01    1.867508e+00   4.700631e-02
  3.326737e-01    1.884064e+00   4.702999e-02
  3.348841e-01    1.885881e+00   4.687020e-02
  3.370946e-01    1.921084e+00   4.712766e-02
  3.393050e-01    1.838067e+00   4.592351e-02
  3.415155e-01    1.819834e+00   4.552335e-02
  3.437260e-01    1.804697e+00   4.516561e-02
  3.459364e-01    1.786608e+00   4.477244e-02
  3.481469e-01    1.868425e+00   4.561901e-02
  3.503573e-01    1.799571e+00   4.460748e-02
  3.525678e-01    1.828979e+00   4.481019e-02
  3.547782e-01    1.870320e+00   4.515003e-02
  3.569887e-01    1.842466e+00   4.465379e-02
  3.591992e-01    1.826132e+00   4.429810e-02
  3.614096e-01    1.798068e+00   4.380400e-02
  3.636201e-01    1.748556e+00   4.304489e-02
  3.658305e-01    1.812728e+00   4.367815e-02
  3.680410e-01    1.812601e+00   4.352641e-02
  3.702514e-01    1.757069e+00   4.271035e-02
  3.724619e-01    1.803153e+00   4.311947e-02
  3.746724e-01    1.821295e+00   4.319128e-02
  3.768828e-01    1.817865e+00   4.300537e-02
  3.790933e-01    1.788522e+00   4.251787e-02
  3.813037e-01    1.808761e+00   4.261788e-02
  3.835142e-01    1.800574e+00   4.238166e-02
  3.857246e-01    1.810231e+00   4.235762e-02
  3.879351e-01    1.797398e+00   4.207062e-02
  3.901455e-01    1.805664e+00   4.203298e-02
  3.923560e-01    1.882651e+00   4.278330e-02
  3.945665e-01    1.851359e+00   4.229173e-02
  3.967769e-01    1.753514e+00   4.103008e-02
  3.989874e-01    1.806522e+00   4.151557e-02
  4.011978e-01    1.860265e+00   4.199904e-02
  4.034083e-01    1.807187e+00   4.126846e-02
  4.056187e-01    1.801036e+00   4.107124e-02
  4.078292e-01    1.818405e+00   4.114392e-02
  4.100397e-01    1.823190e+00   4.107222e-02
  4.122501e-01    1.810964e+00   4.081184e-02
  4.144606e-01    1.817512e+00   4.076430e-02
  4.166710e-01    1.861709e+00   4.113429e-02
  4.188815e-01    1.856250e+00   4.095260e-02
  4.210919e-01    1.854435e+00   4.081263e-02
  4.233024e-01    1.838027e+00   4.051216e-02
  4.255128e-01    1.860560e+00   4.064190e-02
  4.277233e-01    1.837110e+00   4.026895e-02
  4.299338e-01    1.817537e+00   3.993858e-02
  4.321442e-01    1.839462e+00   4.006380e-02
  4.343547e-01    1.818354e+00   3.972062e-02
  4.365651e-01    1.788377e+00   3.927994e-02
  4.387756e-01    1.776062e+00   3.903485e-02
  4.409860e-01    1.778562e+00   3.895408e-02
  4.431965e-01    1.782544e+00   3.888984e-02
  4.454070e-01    1.764691e+00   3.858696e-02
  4.476174e-01    1.714363e+00   3.792829e-02
  4.498279e-01    1.784286e+00   3.858876e-02
  4.520383e-01    1.792133e+00   3.856740e-02
  4.542488e-01    1.753384e+00   3.804532e-02
  4.564592e-01    1.751256e+00   3.792021e-02
  4.586697e-01    1.764264e+00   3.795975e-02
  4.608801e-01    1.789744e+00   3.813049e-02
  4.630906e-01    1.719258e+00   3.727314e-02
  4.653011e-01    1.717036e+00   3.715108e-02
  4.675115e-01    1.725852e+00   3.714825e-02
  4.697220e-01    1.720540e+00   3.699392e-02
  4.719324e-01    1.757988e+00   3.729762e-02
  4.741429e-01    1.768306e+00   3.731053e-02
  4.763533e-01    1.735321e+00   3.686615e-02
  4.785638e-01    1.751322e+00   3.694006e-02
  4.807743e-01    1.714344e+00   3.645504e-02
  4.829847e-01    1.707923e+00   3.629479e-02
  4.851952e-01    1.722297e+00   3.635497e-02
  4.874056e-01    1.642345e+00   3.541161e-02
  4.896161e-01    1.688604e+00   3.581780e-02
  4.918265e-01    1.678016e+00   3.561666e-02
  4.940370e-01    1.699285e+00   3.575318e-02
  4.962475e-01    1.731164e+00   3.599788e-02
  4.984579e-01    1.724285e+00   3.583775e-02
  5.006684e-01    1.730047e+00   3.581005e-02
  5.028788e-01    1.724569e+00   3.566667e-02
  5.050893e-01    1.705272e+00   3.538032e-02
  5.072997e-01    1.720085e+00   3.544782e-02
  5.095102e-01    1.709132e+00   3.525016e-02
  5.117206e-01    1.683504e+00   3.490169e-02
  5.139311e-01    1.670553e+00   3.468489e-02
  5.161416e-01    1.749760e+00   3.541373e-02
  5.183520e-01    1.739123e+00   3.522207e-02
  5.205625e-01    1.653093e+00   3.425938e-02
  5.227729e-01    1.691119e+00   3.457035e-02
  5.249834e-01    1.694117e+00   3.452066e-02
  5.271938e-01    1.663741e+00   3.412997e-02
  5.294043e-01    1.712992e+00   3.455150e-02
  5.316148e-01    1.769981e+00   3.504110e-02
  5.338252e-01    1.834033e+00   3.558800e-02
  5.360357e-01    1.778747e+00   3.496773e-02
  5.382461e-01    1.742241e+00   3.452879e-02
  5.404566e-01    1.795651e+00   3.497427e-02
  5.426670e-01    1.792819e+00   3.486796e-02
  5.448775e-01    1.750384e+00   3.437586e-02
  5.470879e-01    1.763786e+00   3.443024e-02
  5.492984e-01    1.776194e+00   3.447432e-02
  5.515089e-01    1.791830e+00   3.454892e-02
  5.537193e-01    1.795124e+00   3.450450e-02
  5.559298e-01    1.768983e+00   3.417719e-02
  5.581402e-01    1.808926e+00   3.448538e-02
  5.603507e-01    1.782034e+00   3.415360e-02
  5.625611e-01    1.839691e+00   3.462639e-02
  5.647716e-01    1.835706e+00   3.451380e-02
  5.669821e-01    1.796446e+00   3.406911e-02
  5.691925e-01    1.748293e+00   3.353728e-02
  5.714030e-01    1.770711e+00   3.367964e-02
  5.736134e-01    1.759390e+00   3.350040e-02
  5.758239e-01    1.733426e+00   3.318132e-02
  5.780343e-01    1.747985e+00   3.324989e-02
  5.802448e-01    1.710691e+00   3.282442e-02
  5.824552e-01    1.674588e+00   3.240806e-02
  5.846657e-01    1.638794e+00   3.199301e-02
  5.868762e-01    1.671983e+00   3.224806e-02
  5.890866e-01    1.663107e+00   3.209562e-02
  5.912971e-01    1.661472e+00   3.201342e-02
  5.935075e-01    1.631651e+00   3.165928e-02
  5.957180e-01    1.600280e+00   3.128909e-02
  5.979284e-01    1.662683e+00   3.182821e-02
  6.001389e-01    1.672431e+00   3.185639e-02
  6.023494e-01    1.676609e+00   3.183139e-02
  6.045598e-01    1.679986e+00   3.179856e-02
  6.067703e-01    1.660862e+00   3.155347e-02
  6.089807e-01    1.641358e+00   3.130459e-02
  6.111912e-01    1.701697e+00   3.181115e-02
  6.134016e-01    1.698398e+00   3.171691e-02
  6.156121e-01    1.678915e+00   3.147180e-02
  6.178226e-01    1.715486e+00   3.174972e-02
  6.200330e-01    1.690140e+00   3.145216e-02
  6.222435e-01    1.686491e+00   3.135592e-02
  6.244539e-01    1.732223e+00   3.171600e-02
  6.266644e-01    1.717552e+00   3.151980e-02
  6.288748e-01    1.715640e+00   3.144094e-02
  6.310853e-01    1.701082e+00   3.124647e-02
  6.332957e-01    1.674062e+00   3.093749e-02
  6.355062e-01    1.709441e+00   3.120192e-02
  6.377167e-01    1.752169e+00   3.152888e-02
  6.399271e-01    1.712437e+00   3.110964e-02
  6.421376e-01    1.732611e+00   3.123261e-02
  6.443480e-01    1.722013e+00   3.107772e-02
  6.465585e-01    1.701933e+00   3.083745e-02
  6.487689e-01    1.720895e+00   3.095021e-02
  6.509794e-01    1.662249e+00   3.036091e-02
  6.531899e-01    1.656066e+00   3.024738e-02
  6.554003e-01    1.606439e+00   2.973474e-02
  6.576108e-01    1.615546e+00   2.976336e-02
  6.598212e-01    1.618187e+00   2.973234e-02
  6.620317e-01    1.666967e+00   3.012120e-02
  6.642421e-01    1.659812e+00   3.000091e-02
  6.664526e-01    1.625022e+00   2.963013e-02
  6.686630e-01    1.591577e+00   2.926943e-02
  6.708735e-01    1.586619e+00   2.917016e-02
  6.730840e-01    1.627269e+00   2.948764e-02
  6.752944e-01    1.635614e+00   2.950938e-02
  6.775049e-01    1.644712e+00   2.953762e-02
  6.797153e-01    1.637541e+00   2.941979e-02
  6.819258e-01    1.595749e+00   2.898958e-02
  6.841362e-01    1.619338e+00   2.915052e-02
  6.863467e-01    1.622077e+00   2.912293e-02
  6.885572e-01    1.591004e+00   2.879095e-02
  6.907676e-01    1.597216e+00   2.879539e-02
  6.929781e-01    1.608930e+00   2.884944e-02
  6.951885e-01    1.599279e+00   2.871184e-02
  6.973990e-01    1.600727e+00   2.867405e-02
  6.996094e-01    1.590965e+00   2.853619e-02
  7.018199e-01    1.606267e+00   2.862276e-02
  7.040303e-01    1.612502e+00   2.862790e-02
  7.062408e-01    1.577232e+00   2.826348e-02
  7.084513e-01    1.632749e+00   2.870655e-02
  7.106617e-01    1.633487e+00   2.866319e-02
  7.128722e-01    1.588678e+00   2.821840e-02
  7.150826e-01    1.594644e+00   2.822259e-02
  7.172931e-01    1.598125e+00   2.820470e-02
  7.195035e-01    1.550686e+00   2.773514e-02
  7.217140e-01    1.590548e+00   2.813906e-02
  7.239245e-01    1.592994e+00   2.838876e-02
  7.261349e-01    1.585470e+00   2.843061e-02
  7.283454e-01    1.631984e+00   2.891835e-02
  7.305558e-01    1.585065e+00   2.855380e-02
  7.327663e-01    1.570752e+00   2.846704e-02
  7.349767e-01    1.555147e+00   2.834154e-02
  7.371872e-01    1.531803e+00   2.811700e-02
  7.393976e-01    1.590770e+00   2.863871e-02
  7.416081e-01    1.609784e+00   2.879304e-02
  7.438186e-01    1.554861e+00   2.815418e-02
  7.460290e-01    1.548493e+00   2.780467e-02
  7.482395e-01    1.557796e+00   2.771783e-02
  7.504499e-01    1.559788e+00   2.759991e-02
  7.526604e-01    1.560808e+00   2.749288e-02
  7.548708e-01    1.576953e+00   2.754524e-02
  7.570813e-01    1.568379e+00   2.741939e-02
  7.592918e-01    1.578751e+00   2.747466e-02
  7.615022e-01    1.600629e+00   2.763032e-02
  7.637127e-01    1.612357e+00   2.769817e-02
  7.659231e-01    1.611377e+00   2.765740e-02
  7.681336e-01    1.613986e+00   2.764778e-02
  7.703440e-01    1.582958e+00   2.734944e-02
  7.725545e-01    1.606369e+00   2.751972e-02
  7.747650e-01    1.667519e+00   2.799933e-02
  7.769754e-01    1.617967e+00   2.752679e-02
  7.791859e-01    1.545132e+00   2.684711e-02
  7.813963e-01    1.587860e+00   2.716301e-02
  7.836068e-01    1.573188e+00   2.698544e-02
  7.858172e-01    1.529121e+00   2.655506e-02
  7.880277e-01    1.581038e+00   2.695071e-02
  7.902381e-01    1.595534e+00   2.702481e-02
  7.924486e-01    1.584988e+00   2.688544e-02
  7.946591e-01    1.608621e+00   2.703672e-02
  7.968695e-01    1.624679e+00   2.712272e-02
  7.990800e-01    1.644323e+00   2.723745e-02
  8.012904e-01    1.632224e+00   2.709009e-02
  8.035009e-01    1.630775e+00   2.702990e-02
  8.057113e-01    1.583321e+00   2.658767e-02
  8.079218e-01    1.654350e+00   2.713056e-02
  8.101323e-01    1.672652e+00   2.723396e-02
  8.123427e-01    1.621885e+00   2.677172e-02
  8.145532e-01    1.638047e+00   2.685877e-02
  8.167636e-01    1.626905e+00   2.672225e-02
  8.189741e-01    1.632479e+00   2.672337e-02
  8.211845e-01    1.629936e+00   2.665777e-02
  8.233950e-01    1.638021e+00   2.668037e-02
  8.256054e-01    1.626945e+00   2.654593e-02
  8.278159e-01    1.633175e+00   2.655282e-02
  8.300264e-01    1.627993e+00   2.646769e-02
  8.322368e-01    1.630941e+00   2.644863e-02
  8.344473e-01    1.638629e+00   2.646752e-02
  8.366577e-01    1.644502e+00   2.647226e-02
  8.388682e-01    1.617424e+00   2.621145e-02
  8.410786e-01    1.647615e+00   2.641277e-02
  8.432891e-01    1.681972e+00   2.664436e-02
  8.454996e-01    1.646749e+00   2.632218e-02
  8.477100e-01    1.648188e+00   2.629187e-02
  8.499205e-01    1.647408e+00   2.624437e-02
  8.521309e-01    1.649874e+00   2.622306e-02
  8.543414e-01    1.654342e+00   2.621756e-02
  8.565518e-01    1.637717e+00   2.604491e-02
  8.587623e-01    1.629619e+00   2.593996e-02
  8.609727e-01    1.666514e+00   2.619130e-02
  8.631832e-01    1.637774e+00   2.592444e-02
  8.653937e-01    1.647836e+00   2.596400e-02
  8.676041e-01    1.642096e+00   2.587963e-02
  8.698146e-01    1.622505e+00   2.568546e-02
  8.720250e-01    1.614738e+00   2.558487e-02
  8.742355e-01    1.612296e+00   2.552659e-02
  8.764459e-01    1.600917e+00   2.539754e-02
  8.786564e-01    1.599879e+00   2.535147e-02
  8.808669e-01    1.577559e+00   2.513584e-02
  8.830773e-01    1.575402e+00   2.508082e-02
  8.852878e-01    1.619427e+00   2.539073e-02
  8.874982e-01    1.587606e+00   2.510355e-02
  8.897087e-01    1.630448e+00   2.540199e-02
  8.919191e-01    1.610228e+00   2.520612e-02
  8.941296e-01    1.594450e+00   2.504510e-02
  8.963401e-01    1.631150e+00   2.529491e-02
  8.985505e-01    1.629857e+00   2.524759e-02
  9.007610e-01    1.621304e+00   2.514427e-02
  9.029714e-01    1.580965e+00   2.479388e-02
  9.051819e-01    1.559587e+00   2.458892e-02
  9.073923e-01    1.581335e+00   2.472340e-02
  9.096028e-01    1.599814e+00   2.483253e-02
  9.118132e-01    1.599373e+00   2.479289e-02
  9.140237e-01    1.609354e+00   2.483341e-02
  9.162342e-01    1.608494e+00   2.479212e-02
  9.184446e-01    1.603431e+00   2.471726e-02
  9.206551e-01    1.639879e+00   2.496059e-02
  9.228655e-01    1.623114e+00   2.479719e-02
  9.250760e-01    1.608759e+00   2.465184e-02
  9.272864e-01    1.601441e+00   2.456148e-02
  9.294969e-01    1.607365e+00   2.457098e-02
  9.317074e-01    1.618247e+00   2.461919e-02
  9.339178e-01    1.626115e+00   2.464526e-02
  9.361283e-01    1.632823e+00   2.465962e-02
  9.383387e-01    1.675493e+00   2.494579e-02
  9.405492e-01    1.665408e+00   2.483589e-02
  9.427596e-01    1.623436e+00   2.448563e-02
  9.449701e-01    1.624047e+00   2.445694e-02
  9.471805e-01    1.657607e+00   2.467335e-02
  9.493910e-01    1.655774e+00   2.462585e-02
  9.516015e-01    1.691838e+00   2.485784e-02
  9.538119e-01    1.711174e+00   2.496523e-02
  9.560224e-01    1.729177e+00   2.506090e-02
  9.582328e-01    1.701013e+00   2.482262e-02
  9.604433e-01    1.740737e+00   2.507523e-02
  9.626537e-01    1.765383e+00   2.521816e-02
  9.648642e-01    1.821324e+00   2.557951e-02
  9.670747e-01    1.847594e+00   2.572783e-02
  9.692851e-01    1.849966e+00   2.571008e-02
  9.714956e-01    1.949260e+00   2.635384e-02
  9.737060e-01    1.951086e+00   2.633156e-02
  9.759165e-01    1.931112e+00   2.615948e-02
  9.781269e-01    1.909419e+00   2.597813e-02
  9.803374e-01    1.874243e+00   2.570210e-02
  9.825478e-01    1.875315e+00   2.567556e-02
  9.847583e-01    1.809361e+00   2.518577e-02
  9.869688e-01    1.787932e+00   2.500266e-02
  9.891792e-01    1.774969e+00   2.487877e-02
  9.913897e-01    1.740170e+00   2.460041e-02
  9.936001e-01    1.744049e+00   2.459559e-02
  9.958106e-01    1.711382e+00   2.433104e-02
  9.980210e-01    1.700392e+00   2.422130e-02
  1.000231e+00    1.680755e+00   2.421297e-02
  1.002442e+00    1.653722e+00   2.414507e-02
  1.004652e+00    1.651686e+00   2.419751e-02
  1.006863e+00    1.641878e+00   2.417563e-02
  1.009073e+00    1.646416e+00   2.424606e-02
  1.011284e+00    1.637853e+00   2.421526e-02
  1.013494e+00    1.622401e+00   2.412466e-02
  1.015705e+00    1.612128e+00   2.407089e-02
  1.017915e+00    1.648458e+00   2.435736e-02
  1.020126e+00    1.731201e+00   2.497804e-02
  1.022336e+00    1.786331e+00   2.538515e-02
  1.024547e+00    1.773365e+00   2.530487e-02
  1.026757e+00    1.677282e+00   2.461853e-02
  1.028967e+00    1.562285e+00   2.376732e-02
  1.031178e+00    1.546168e+00   2.365056e-02
  1.033388e+00    1.603944e+00   2.409357e-02
  1.035599e+00    1.645936e+00   2.441047e-02
  1.037809e+00    1.667454e+00   2.457294e-02
  1.040020e+00    1.711290e+00   2.489516e-02
  1.042230e+00    1.838495e+00   2.580598e-02
  1.044441e+00    1.971480e+00   2.672275e-02
  1.046651e+00    2.026825e+00   2.709549e-02
  1.048862e+00    1.996367e+00   2.689020e-02
  1.051072e+00    1.927953e+00   2.642280e-02
  1.053282e+00    1.785400e+00   2.542614e-02
  1.055493e+00    1.645948e+00   2.440849e-02
  1.057703e+00    1.570740e+00   2.384271e-02
  1.059914e+00    1.606477e+00   2.410799e-02
  1.062124e+00    1.623279e+00   2.422951e-02
  1.064335e+00    1.643968e+00   2.437981e-02
  1.066545e+00    1.585747e+00   2.393803e-02
  1.068756e+00    1.548527e+00   2.365161e-02
  1.070966e+00    1.507709e+00   2.333120e-02
  1.073177e+00    1.469698e+00   2.302916e-02
  1.075387e+00    1.494458e+00   2.321706e-02
  1.077597e+00    1.472500e+00   2.303861e-02
  1.079808e+00    1.455548e+00   2.277326e-02
  1.082018e+00    1.452105e+00   2.255793e-02
  1.084229e+00    1.462910e+00   2.253156e-02
  1.086439e+00    1.465409e+00   2.246306e-02
  1.088650e+00    1.460747e+00   2.235147e-02
  1.090860e+00    1.448849e+00   2.219276e-02
  1.093071e+00    1.454437e+00   2.217324e-02
  1.095281e+00    1.437781e+00   2.198884e-02
  1.097492e+00    1.400463e+00   2.164754e-02
  1.099702e+00    1.419417e+00   2.174249e-02
  1.101912e+00    1.424017e+00   2.172914e-02
  1.104123e+00    1.414096e+00   2.160544e-02
  1.106333e+00    1.417465e+00   2.158700e-02
  1.108544e+00    1.398470e+00   2.139809e-02
  1.110754e+00    1.397780e+00   2.135023e-02
  1.112965e+00    1.396276e+00   2.129857e-02
  1.115175e+00    1.395897e+00   2.125485e-02
  1.117386e+00    1.391081e+00   2.117923e-02
  1.119596e+00    1.376650e+00   2.103170e-02
  1.121807e+00    1.369767e+00   2.094079e-02
  1.124017e+00    1.360007e+00   2.083001e-02
  1.126228e+00    1.378989e+00   2.093944e-02
  1.128438e+00    1.398492e+00   2.105027e-02
  1.130648e+00    1.396855e+00   2.100366e-02
  1.132859e+00    1.403281e+00   2.101747e-02
  1.135069e+00    1.406090e+00   2.100361e-02
  1.137280e+00    1.396330e+00   2.089752e-02
  1.139490e+00    1.367802e+00   2.065010e-02
  1.141701e+00    1.366653e+00   2.060852e-02
  1.143911e+00    1.385029e+00   2.071472e-02
  1.146122e+00    1.402775e+00   2.081475e-02
  1.148332e+00    1.396153e+00   2.073350e-02
  1.150543e+00    1.378857e+00   2.057381e-02
  1.152753e+00    1.388460e+00   2.061436e-02
  1.154963e+00    1.357471e+00   2.035216e-02
  1.157174e+00    1.387126e+00   2.054292e-02
  1.159384e+00    1.392351e+00   2.055153e-02
  1.161595e+00    1.395893e+00   2.054753e-02
  1.163805e+00    1.407105e+00   2.060021e-02
  1.166016e+00    1.405482e+00   2.055851e-02
  1.168226e+00    1.373805e+00   2.029647e-02
  1.170437e+00    1.375477e+00   2.028008e-02
  1.172647e+00    1.400579e+00   2.043505e-02
  1.174858e+00    1.397908e+00   2.038711e-02
  1.177068e+00    1.379832e+00   2.022646e-02
  1.179278e+00    1.357312e+00   2.003218e-02
  1.181489e+00    1.348007e+00   1.993650e-02
  1.183699e+00    1.355771e+00   1.996627e-02
  1.185910e+00    1.387133e+00   2.016782e-02
  1.188120e+00    1.400715e+00   2.023921e-02
  1.190331e+00    1.379633e+00   2.005933e-02
  1.192541e+00    1.359172e+00   1.988258e-02
  1.194752e+00    1.373412e+00   1.995923e-02
  1.196962e+00    1.337684e+00   1.967230e-02
  1.199173e+00    1.308160e+00   1.942790e-02
  1.201383e+00    1.338950e+00   1.962816e-02
  1.203593e+00    1.344880e+00   1.964680e-02
  1.205804e+00    1.362238e+00   1.974715e-02
  1.208014e+00    1.358600e+00   1.969382e-02
  1.210225e+00    1.347264e+00   1.958621e-02
  1.212435e+00    1.347665e+00   1.956432e-02
  1.214646e+00    1.361907e+00   1.964123e-02
  1.216856e+00    1.360073e+00   1.960243e-02
  1.219067e+00    1.337070e+00   1.941160e-02
  1.221277e+00    1.362784e+00   1.957221e-02
  1.223488e+00    1.353050e+00   1.947644e-02
  1.225698e+00    1.330732e+00   1.928842e-02
  1.227909e+00    1.339626e+00   1.932272e-02
  1.230119e+00    1.345600e+00   1.933394e-02
  1.232329e+00    1.373538e+00   1.950265e-02
  1.234540e+00    1.368127e+00   1.943371e-02
  1.236750e+00    1.333496e+00   1.915609e-02
  1.238961e+00    1.334504e+00   1.913650e-02
  1.241171e+00    1.339673e+00   1.914945e-02
  1.243382e+00    1.313413e+00   1.893764e-02
  1.245592e+00    1.326706e+00   1.900934e-02
  1.247803e+00    1.339118e+00   1.907451e-02
  1.250013e+00    1.322634e+00   1.893343e-02
  1.252224e+00    1.342154e+00   1.904944e-02
  1.254434e+00    1.344378e+00   1.904154e-02
  1.256644e+00    1.358370e+00   1.911709e-02
  1.258855e+00    1.346003e+00   1.900664e-02
  1.261065e+00    1.337401e+00   1.892253e-02
  1.263276e+00    1.372841e+00   1.914848e-02
  1.265486e+00    1.371710e+00   1.911754e-02
  1.267697e+00    1.372693e+00   1.910117e-02
  1.269907e+00    1.329249e+00   1.877396e-02
  1.272118e+00    1.358698e+00   1.895813e-02
  1.274328e+00    1.364434e+00   1.897526e-02
  1.276539e+00    1.362929e+00   1.894189e-02
  1.278749e+00    1.348671e+00   1.882029e-02
  1.280959e+00    1.337129e+00   1.871714e-02
  1.283170e+00    1.354549e+00   1.881621e-02
  1.285380e+00    1.335096e+00   1.865828e-02
  1.287591e+00    1.341877e+00   1.868363e-02
  1.289801e+00    1.354573e+00   1.875056e-02
  1.292012e+00    1.336179e+00   1.860580e-02
  1.294222e+00    1.359446e+00   1.875080e-02
  1.296433e+00    1.358381e+00   1.872781e-02
  1.298643e+00    1.349137e+00   1.864750e-02
  1.300854e+00    1.352238e+00   1.865251e-02
  1.303064e+00    1.343086e+00   1.857010e-02
  1.305274e+00    1.351813e+00   1.860888e-02
  1.307485e+00    1.358503e+00   1.863325e-02
  1.309695e+00    1.365653e+00   1.865987e-02
  1.311906e+00    1.374982e+00   1.870157e-02
  1.314116e+00    1.370688e+00   1.865141e-02
  1.316327e+00    1.357033e+00   1.853653e-02
  1.318537e+00    1.358982e+00   1.852785e-02
  1.320748e+00    1.394143e+00   1.874411e-02
  1.322958e+00    1.390499e+00   1.869880e-02
  1.325169e+00    1.349394e+00   1.839932e-02
  1.327379e+00    1.351585e+00   1.839241e-02
  1.329589e+00    1.366220e+00   1.847055e-02
  1.331800e+00    1.355099e+00   1.837447e-02
  1.334010e+00    1.356933e+00   1.836620e-02
  1.336221e+00    1.365159e+00   1.839991e-02
  1.338431e+00    1.341584e+00   1.821955e-02
  1.340642e+00    1.340810e+00   1.827823e-02
  1.342852e+00    1.351326e+00   1.845048e-02
  1.345063e+00    1.368629e+00   1.861806e-02
  1.347273e+00    1.361302e+00   1.860357e-02
  1.349484e+00    1.330555e+00   1.841974e-02
  1.351694e+00    1.333776e+00   1.846459e-02
  1.353905e+00    1.359151e+00   1.865745e-02
  1.356115e+00    1.377602e+00   1.879888e-02
  1.358325e+00    1.363932e+00   1.871877e-02
  1.360536e+00    1.337186e+00   1.854589e-02
  1.362746e+00    1.339341e+00   1.857034e-02
  1.364957e+00    1.332589e+00   1.853111e-02
  1.367167e+00    1.344595e+00   1.862154e-02
  1.369378e+00    1.320410e+00   1.845927e-02
  1.371588e+00    1.337795e+00   1.858550e-02
  1.373799e+00    1.348260e+00   1.866175e-02
  1.376009e+00    1.318270e+00   1.845640e-02
  1.378220e+00    1.324879e+00   1.850512e-02
  1.380430e+00    1.326630e+00   1.852005e-02
  1.382640e+00    1.338401e+00   1.860294e-02
  1.384851e+00    1.284843e+00   1.822782e-02
  1.387061e+00    1.283502e+00   1.821857e-02
  1.389272e+00    1.278311e+00   1.818189e-02
  1.391482e+00    1.303478e+00   1.835932e-02
  1.393693e+00    1.313774e+00   1.843081e-02
  1.395903e+00    1.307488e+00   1.838517e-02
  1.398114e+00    1.271379e+00   1.812815e-02
  1.400324e+00    1.271680e+00   1.812815e-02
  1.402535e+00    1.275227e+00   1.815111e-02
  1.404745e+00    1.272433e+00   1.812886e-02
  1.406955e+00    1.256162e+00   1.800989e-02
  1.409166e+00    1.248509e+00   1.795167e-02
  1.411376e+00    1.290563e+00   1.824834e-02
  1.413587e+00    1.317227e+00   1.843205e-02
  1.415797e+00    1.246237e+00   1.792497e-02
  1.418008e+00    1.284512e+00   1.815601e-02
  1.420218e+00    1.281541e+00   1.798464e-02
  1.422429e+00    1.262164e+00   1.776307e-02
  1.424639e+00    1.300063e+00   1.796235e-02
  1.426850e+00    1.268461e+00   1.768804e-02
  1.429060e+00    1.248960e+00   1.750295e-02
  1.431270e+00    1.271383e+00   1.761502e-02
  1.433481e+00    1.274682e+00   1.759685e-02
  1.435691e+00    1.260886e+00   1.746307e-02
  1.437902e+00    1.262159e+00   1.743554e-02
  1.440112e+00    1.259298e+00   1.738056e-02
  1.442323e+00    1.265819e+00   1.739251e-02
  1.444533e+00    1.276686e+00   1.743437e-02
  1.446744e+00    1.277690e+00   1.741002e-02
  1.448954e+00    1.271015e+00   1.733425e-02
  1.451165e+00    1.296844e+00   1.747945e-02
  1.453375e+00    1.282476e+00   1.735417e-02
  1.455586e+00    1.245627e+00   1.707514e-02
  1.457796e+00    1.255292e+00   1.711390e-02
  1.460006e+00    1.276106e+00   1.722786e-02
  1.462217e+00    1.299101e+00   1.735589e-02
  1.464427e+00    1.299682e+00   1.733386e-02
  1.466638e+00    1.286487e+00   1.722015e-02
  1.468848e+00    1.270361e+00   1.708654e-02
  1.471059e+00    1.259689e+00   1.698962e-02
  1.473269e+00    1.241601e+00   1.684310e-02
  1.475480e+00    1.267446e+00   1.699372e-02
  1.477690e+00    1.282368e+00   1.706951e-02
  1.479901e+00    1.290424e+00   1.709899e-02
  1.482111e+00    1.273001e+00   1.695981e-02
  1.484321e+00    1.277402e+00   1.696587e-02
  1.486532e+00    1.259212e+00   1.682238e-02
  1.488742e+00    1.243768e+00   1.669644e-02
  1.490953e+00    1.248612e+00   1.670644e-02
  1.493163e+00    1.263490e+00   1.678341e-02
  1.495374e+00    1.264709e+00   1.677001e-02
  1.497584e+00    1.247543e+00   1.663426e-02
  1.499795e+00    1.276815e+00   1.680650e-02
  1.502005e+00    1.264018e+00   1.670035e-02
  1.504216e+00    1.278078e+00   1.677177e-02
  1.506426e+00    1.275472e+00   1.673372e-02
  1.508636e+00    1.258060e+00   1.659865e-02
  1.510847e+00    1.251646e+00   1.653450e-02
  1.513057e+00    1.266986e+00   1.661032e-02
  1.515268e+00    1.273325e+00   1.662592e-02
  1.517478e+00    1.243274e+00   1.640352e-02
  1.519689e+00    1.252408e+00   1.643870e-02
  1.521899e+00    1.258072e+00   1.645270e-02
  1.524110e+00    1.265500e+00   1.648077e-02
  1.526320e+00    1.241961e+00   1.630726e-02
  1.528531e+00    1.248920e+00   1.633313e-02
  1.530741e+00    1.235102e+00   1.622351e-02
  1.532951e+00    1.236907e+00   1.621587e-02
  1.535162e+00    1.232418e+00   1.627241e-02
  1.537372e+00    1.229737e+00   1.632109e-02
  1.539583e+00    1.244147e+00   1.645061e-02
  1.541793e+00    1.242300e+00   1.644533e-02
  1.544004e+00    1.252286e+00   1.651156e-02
  1.546214e+00    1.246454e+00   1.647155e-02
  1.548425e+00    1.242794e+00   1.644762e-02
  1.550635e+00    1.230916e+00   1.637844e-02
  1.552846e+00    1.249529e+00   1.651148e-02
  1.555056e+00    1.249589e+00   1.647033e-02
  1.557266e+00    1.252666e+00   1.637978e-02
  1.559477e+00    1.226737e+00   1.615067e-02
  1.561687e+00    1.246089e+00   1.624688e-02
  1.563898e+00    1.233602e+00   1.614818e-02
  1.566108e+00    1.239047e+00   1.616785e-02
  1.568319e+00    1.243484e+00   1.618117e-02
  1.570529e+00    1.229844e+00   1.606718e-02
  1.572740e+00    1.265165e+00   1.626842e-02
  1.574950e+00    1.257335e+00   1.619158e-02
  1.577161e+00    1.250496e+00   1.612192e-02
  1.579371e+00    1.249307e+00   1.609056e-02
  1.581582e+00    1.254823e+00   1.610619e-02
  1.583792e+00    1.244184e+00   1.601974e-02
  1.586002e+00    1.236876e+00   1.595507e-02
  1.588213e+00    1.232720e+00   1.591108e-02
  1.590423e+00    1.244627e+00   1.596765e-02
  1.592634e+00    1.251916e+00   1.599267e-02
  1.594844e+00    1.221290e+00   1.577461e-02
  1.597055e+00    1.245627e+00   1.591049e-02
  1.599265e+00    1.211241e+00   1.566890e-02
  1.601476e+00    1.219086e+00   1.569940e-02
  1.603686e+00    1.224619e+00   1.571536e-02
  1.605897e+00    1.228963e+00   1.572312e-02
  1.608107e+00    1.241829e+00   1.578563e-02
  1.610317e+00    1.256395e+00   1.585848e-02
  1.612528e+00    1.228248e+00   1.566073e-02
  1.614738e+00    1.237735e+00   1.570207e-02
  1.616949e+00    1.234915e+00   1.566515e-02
  1.619159e+00    1.222481e+00   1.556736e-02
  1.621370e+00    1.180236e+00   1.527787e-02
  1.623580e+00    1.186168e+00   1.529807e-02
  1.625791e+00    1.184056e+00   1.526638e-02
  1.628001e+00    1.169861e+00   1.515659e-02
  1.630212e+00    1.142914e+00   1.496364e-02
  1.632422e+00    1.152234e+00   1.500687e-02
  1.634632e+00    1.170791e+00   1.511001e-02
  1.636843e+00    1.179855e+00   1.515084e-02
  1.639053e+00    1.166835e+00   1.504977e-02
  1.641264e+00    1.169553e+00   1.505019e-02
  1.643474e+00    1.156470e+00   1.494843e-02
  1.645685e+00    1.166804e+00   1.499835e-02
  1.647895e+00    1.140803e+00   1.481380e-02
  1.650106e+00    1.135846e+00   1.476471e-02
  1.652316e+00    1.108312e+00   1.456844e-02
  1.654527e+00    1.128736e+00   1.468549e-02
  1.656737e+00    1.122889e+00   1.463095e-02
  1.658947e+00    1.143409e+00   1.474766e-02
  1.661158e+00    1.129362e+00   1.464052e-02
  1.663368e+00    1.129696e+00   1.462660e-02
  1.665579e+00    1.125472e+00   1.458305e-02
  1.667789e+00    1.102218e+00   1.441547e-02
  1.670000e+00    1.115081e+00   1.448383e-02
  1.672210e+00    1.110309e+00   1.443693e-02
  1.674421e+00    1.090437e+00   1.429192e-02
  1.676631e+00    1.095508e+00   1.430928e-02
  1.678842e+00    1.104738e+00   1.435362e-02
  1.681052e+00    1.095224e+00   1.427630e-02
  1.683263e+00    1.079803e+00   1.416036e-02
  1.685473e+00    1.067987e+00   1.406765e-02
  1.687683e+00    1.066385e+00   1.404178e-02
  1.689894e+00    1.069938e+00   1.404945e-02
  1.692104e+00    1.065537e+00   1.400570e-02
  1.694315e+00    1.095526e+00   1.418675e-02
  1.696525e+00    1.065277e+00   1.397444e-02
  1.698736e+00    1.051805e+00   1.387103e-02
  1.700946e+00    1.045860e+00   1.381675e-02
  1.703157e+00    1.033623e+00   1.372120e-02
  1.705367e+00    1.039462e+00   1.374549e-02
  1.707578e+00    1.053782e+00   1.382526e-02
  1.709788e+00    1.032410e+00   1.367031e-02
  1.711998e+00    1.036188e+00   1.368033e-02
  1.714209e+00    1.034910e+00   1.365750e-02
  1.716419e+00    1.024917e+00   1.357719e-02
  1.718630e+00    1.040035e+00   1.366262e-02
  1.720840e+00    1.037070e+00   1.362890e-02
  1.723051e+00    1.020711e+00   1.350714e-02
  1.725261e+00    1.012214e+00   1.343620e-02
  1.727472e+00    1.000344e+00   1.334311e-02
  1.729682e+00    1.004496e+00   1.335740e-02
  1.731893e+00    9.947046e-01   1.327835e-02
  1.734103e+00    1.000335e+00   1.330213e-02
  1.736313e+00    1.007312e+00   1.333443e-02
  1.738524e+00    1.012878e+00   1.335732e-02
  1.740734e+00    1.003366e+00   1.328073e-02
  1.742945e+00    9.705355e-01   1.304838e-02
  1.745155e+00    9.838615e-01   1.312423e-02
  1.747366e+00    9.670275e-01   1.299784e-02
  1.749576e+00    9.667209e-01   1.298222e-02
  1.751787e+00    9.726315e-01   1.300858e-02
  1.753997e+00    9.664987e-01   1.295421e-02
  1.756208e+00    9.796873e-01   1.302906e-02
  1.758418e+00    9.796287e-01   1.301552e-02
  1.760628e+00    9.713402e-01   1.294696e-02
  1.762839e+00    9.730409e-01   1.294502e-02
  1.765049e+00    9.612417e-01   1.285320e-02
  1.767260e+00    9.498109e-01   1.276379e-02
  1.769470e+00    9.567860e-01   1.279756e-02
  1.771681e+00    9.694479e-01   1.286873e-02
  1.773891e+00    9.415718e-01   1.266935e-02
  1.776102e+00    9.505795e-01   1.271693e-02
  1.778312e+00    9.222486e-01   1.251342e-02
  1.780523e+00    9.051958e-01   1.238469e-02
  1.782733e+00    9.171296e-01   1.245352e-02
  1.784944e+00    9.160393e-01   1.243337e-02
  1.787154e+00    9.314030e-01   1.252467e-02
  1.789364e+00    9.117402e-01   1.237943e-02
  1.791575e+00    9.095636e-01   1.235220e-02
  1.793785e+00    9.148911e-01   1.237598e-02
  1.795996e+00    9.044917e-01   1.229304e-02
  1.798206e+00    9.212701e-01   1.239398e-02
  1.800417e+00    9.234489e-01   1.239592e-02
  1.802627e+00    9.268937e-01   1.240699e-02
  1.804838e+00    9.123504e-01   1.229717e-02
  1.807048e+00    9.238197e-01   1.236127e-02
  1.809259e+00    9.146767e-01   1.228631e-02
  1.811469e+00    9.133583e-01   1.226239e-02
  1.813679e+00    9.370480e-01   1.240515e-02
  1.815890e+00    8.930753e-01   1.209588e-02
  1.818100e+00    9.155307e-01   1.223173e-02
  1.820311e+00    8.925480e-01   1.206248e-02
  1.822521e+00    9.021246e-01   1.211205e-02
  1.824732e+00    8.858978e-01   1.198788e-02
  1.826942e+00    8.791186e-01   1.192962e-02
  1.829153e+00    8.794199e-01   1.192002e-02
  1.831363e+00    8.816385e-01   1.192302e-02
  1.833574e+00    8.605485e-01   1.176802e-02
  1.835784e+00    8.563774e-01   1.172818e-02
  1.837994e+00    8.803699e-01   1.187960e-02
  1.840205e+00    8.918009e-01   1.194520e-02
  1.842415e+00    8.958395e-01   1.196028e-02
  1.844626e+00    8.946962e-01   1.194095e-02
  1.846836e+00    9.037639e-01   1.198963e-02
  1.849047e+00    8.945798e-01   1.191678e-02
  1.851257e+00    8.837464e-01   1.183470e-02
  1.853468e+00    9.034997e-01   1.195723e-02
  1.855678e+00    8.724024e-01   1.174072e-02
  1.857889e+00    8.444101e-01   1.154240e-02
  1.860099e+00    8.525740e-01   1.158943e-02
  1.862309e+00    8.465160e-01   1.153974e-02
  1.864520e+00    8.410689e-01   1.149404e-02
  1.866730e+00    8.691062e-01   1.167459e-02
  1.868941e+00    8.440505e-01   1.149420e-02
  1.871151e+00    8.340996e-01   1.141495e-02
  1.873362e+00    8.229301e-01   1.132712e-02
  1.875572e+00    8.434833e-01   1.145677e-02
  1.877783e+00    8.635200e-01   1.158054e-02
  1.879993e+00    8.452966e-01   1.144655e-02
  1.882204e+00    8.437253e-01   1.142500e-02
  1.884414e+00    8.532838e-01   1.147841e-02
  1.886624e+00    8.646064e-01   1.154310e-02
  1.888835e+00    8.637713e-01   1.152642e-02
  1.891045e+00    8.354131e-01   1.132477e-02
  1.893256e+00    8.428983e-01   1.136427e-02
  1.895466e+00    8.634538e-01   1.149064e-02
  1.897677e+00    8.692013e-01   1.151771e-02
  1.899887e+00    8.415256e-01   1.132183e-02
  1.902098e+00    8.193089e-01   1.116063e-02
  1.904308e+00    8.007827e-01   1.102332e-02
  1.906519e+00    8.087348e-01   1.106721e-02
  1.908729e+00    8.179184e-01   1.111935e-02
  1.910940e+00    8.082523e-01   1.104245e-02
  1.913150e+00    8.038065e-01   1.100159e-02
  1.915360e+00    8.186671e-01   1.109223e-02
  1.917571e+00    8.292114e-01   1.115253e-02
  1.919781e+00    8.056542e-01   1.098241e-02
  1.921992e+00    7.994456e-01   1.092950e-02
  1.924202e+00    8.041559e-01   1.095098e-02
  1.926413e+00    8.003004e-01   1.091451e-02
  1.928623e+00    7.838895e-01   1.079166e-02
  1.930834e+00    8.006020e-01   1.089574e-02
  1.933044e+00    8.141395e-01   1.097680e-02
  1.935255e+00    7.965541e-01   1.084737e-02
  1.937465e+00    7.904519e-01   1.079545e-02
  1.939675e+00    8.037716e-01   1.087519e-02
  1.941886e+00    7.967580e-01   1.081743e-02
  1.944096e+00    7.989657e-01   1.082223e-02
  1.946307e+00    7.910271e-01   1.075807e-02
  1.948517e+00    7.891911e-01   1.073521e-02
  1.950728e+00    7.848150e-01   1.069523e-02
  1.952938e+00    8.016849e-01   1.079947e-02
  1.955149e+00    7.930583e-01   1.073100e-02
  1.957359e+00    7.903783e-01   1.070283e-02
  1.959570e+00    7.934970e-01   1.071307e-02
  1.961780e+00    8.021215e-01   1.076117e-02
  1.963990e+00    7.747110e-01   1.056569e-02
  1.966201e+00    7.769191e-01   1.057076e-02
  1.968411e+00    7.793317e-01   1.057708e-02
  1.970622e+00    7.762223e-01   1.054594e-02
  1.972832e+00    7.785212e-01   1.055162e-02
  1.975043e+00    7.723373e-01   1.049969e-02
  1.977253e+00    7.639799e-01   1.043291e-02
  1.979464e+00    7.778256e-01   1.051701e-02
  1.981674e+00    7.854890e-01   1.055843e-02
  1.983885e+00    7.696881e-01   1.044174e-02
  1.986095e+00    7.753664e-01   1.047052e-02
  1.988305e+00    7.692939e-01   1.041961e-02
  1.990516e+00    7.620059e-01   1.036032e-02
  1.992726e+00    7.731848e-01   1.042640e-02
  1.994937e+00    7.635242e-01   1.035102e-02
  1.997147e+00    7.821010e-01   1.046641e-02
  1.999358e+00    7.762231e-01   1.041715e-02
  2.001568e+00    7.736570e-01   1.038910e-02
  2.003779e+00    7.634241e-01   1.030832e-02
  2.005989e+00    7.589903e-01   1.026642e-02
  2.008200e+00    7.565058e-01   1.023817e-02
  2.010410e+00    7.698204e-01   1.031613e-02
  2.012621e+00    7.769812e-01   1.035223e-02
  2.014831e+00    7.604641e-01   1.023019e-02
  2.017041e+00    7.646360e-01   1.024784e-02
  2.019252e+00    7.414805e-01   1.008169e-02
  2.021462e+00    7.465459e-01   1.010666e-02
  2.023673e+00    7.720644e-01   1.026849e-02
  2.025883e+00    7.660150e-01   1.021868e-02
  2.028094e+00    7.680209e-01   1.022236e-02
  2.030304e+00    7.468131e-01   1.007081e-02
  2.032515e+00    7.589553e-01   1.014302e-02
  2.034725e+00    7.644121e-01   1.016998e-02
  2.036936e+00    7.557431e-01   1.010282e-02
  2.039146e+00    7.403013e-01   9.989607e-03
  2.041356e+00    7.515218e-01   1.005540e-02
  2.043567e+00    7.663053e-01   1.014446e-02
  2.045777e+00    7.612450e-01   1.010164e-02
  2.047988e+00    7.262667e-01   9.857637e-03
  2.050198e+00    7.474337e-01   9.991834e-03
  2.052409e+00    7.637510e-01   1.009261e-02
  2.054619e+00    7.656216e-01   1.009753e-02
  2.056830e+00    7.610691e-01   1.006023e-02
  2.059040e+00    7.674519e-01   1.009474e-02
  2.061251e+00    7.828535e-01   1.018811e-02
  2.063461e+00    7.867681e-01   1.020580e-02
  2.065671e+00    7.646457e-01   1.005246e-02
  2.067882e+00    7.621793e-01   1.002716e-02
  2.070092e+00    7.763819e-01   1.011078e-02
  2.072303e+00    7.797745e-01   1.012350e-02
  2.074513e+00    7.764875e-01   1.009263e-02
  2.076724e+00    7.852160e-01   1.013948e-02
  2.078934e+00    7.717038e-01   1.004269e-02
  2.081145e+00    7.456076e-01   9.862334e-03
  2.083355e+00    7.390555e-01   9.809731e-03
  2.085566e+00    7.504066e-01   9.875820e-03
  2.087776e+00    7.383651e-01   9.786764e-03
  2.089986e+00    7.578397e-01   9.906074e-03
  2.092197e+00    7.736517e-01   9.999722e-03
  2.094407e+00    7.380854e-01   9.757951e-03
  2.096618e+00    7.232578e-01   9.650582e-03
  2.098828e+00    7.314688e-01   9.695929e-03
  2.101039e+00    7.359850e-01   9.716804e-03
  2.103249e+00    7.279873e-01   9.655233e-03
  2.105460e+00    7.163858e-01   9.569052e-03
  2.107670e+00    7.333394e-01   9.672842e-03
  2.109881e+00    7.154047e-01   9.544762e-03
  2.112091e+00    7.126592e-01   9.517506e-03
  2.114301e+00    7.139670e-01   9.517532e-03
  2.116512e+00    7.136030e-01   9.506354e-03
  2.118722e+00    7.151974e-01   9.508193e-03
  2.120933e+00    7.140131e-01   9.491496e-03
  2.123143e+00    7.144769e-01   9.485696e-03
  2.125354e+00    7.222179e-01   9.528395e-03
  2.127564e+00    7.030411e-01   9.392389e-03
  2.129775e+00    7.082708e-01   9.418563e-03
  2.131985e+00    7.331681e-01   9.573507e-03
  2.134196e+00    7.267669e-01   9.522965e-03
  2.136406e+00    7.096070e-01   9.401139e-03
  2.138617e+00    6.954809e-01   9.298728e-03
  2.140827e+00    6.886359e-01   9.268677e-03
  2.143037e+00    7.125982e-01   9.474202e-03
  2.145248e+00    7.009405e-01   9.418335e-03
  2.147458e+00    6.913350e-01   9.368574e-03
  2.149669e+00    6.913994e-01   9.380741e-03
  2.151879e+00    7.102326e-01   9.516924e-03
  2.154090e+00    7.104995e-01   9.526094e-03
  2.156300e+00    6.910342e-01   9.401252e-03
  2.158511e+00    6.904514e-01   9.402550e-03
  2.160721e+00    7.017986e-01   9.484327e-03
  2.162932e+00    7.038631e-01   9.502020e-03
  2.165142e+00    6.827837e-01   9.361659e-03
  2.167352e+00    6.903968e-01   9.416584e-03
  2.169563e+00    6.896830e-01   9.413671e-03
  2.171773e+00    7.062966e-01   9.528846e-03
  2.173984e+00    6.956366e-01   9.458093e-03
  2.176194e+00    6.809048e-01   9.358584e-03
  2.178405e+00    6.825444e-01   9.370531e-03
  2.180615e+00    6.897758e-01   9.420737e-03
  2.182826e+00    6.886980e-01   9.414040e-03
  2.185036e+00    6.929936e-01   9.443402e-03
  2.187247e+00    6.887227e-01   9.414218e-03
  2.189457e+00    6.797173e-01   9.352064e-03
  2.191667e+00    6.818572e-01   9.366589e-03
  2.193878e+00    6.742903e-01   9.313918e-03
  2.196088e+00    6.727815e-01   9.302811e-03
  2.198299e+00    6.739547e-01   9.309832e-03
  2.200509e+00    6.689787e-01   9.274368e-03
  2.202720e+00    6.731204e-01   9.301869e-03
  2.204930e+00    6.674977e-01   9.261723e-03
  2.207141e+00    6.853955e-01   9.383935e-03
  2.209351e+00    7.009510e-01   9.487932e-03
  2.211562e+00    6.672035e-01   9.255119e-03
  2.213772e+00    6.763002e-01   9.262512e-03
  2.215982e+00    6.750790e-01   9.209978e-03
  2.218193e+00    6.771578e-01   9.194473e-03
  2.220403e+00    6.802644e-01   9.190864e-03
  2.222614e+00    6.765232e-01   9.144558e-03
  2.224824e+00    6.726284e-01   9.098837e-03
  2.227035e+00    6.706837e-01   9.068243e-03
  2.229245e+00    6.717100e-01   9.058224e-03
  2.231456e+00    6.620694e-01   8.977468e-03
  2.233666e+00    6.689090e-01   9.008651e-03
  2.235877e+00    6.738019e-01   9.027246e-03
  2.238087e+00    6.522617e-01   8.868474e-03
  2.240298e+00    6.669127e-01   8.953776e-03
  2.242508e+00    6.689547e-01   8.952346e-03
  2.244718e+00    6.610701e-01   8.883717e-03
  2.246929e+00    6.687234e-01   8.920549e-03
  2.249139e+00    6.873691e-01   9.031509e-03
  2.251350e+00    6.826625e-01   8.988699e-03
  2.253560e+00    6.568845e-01   8.805874e-03
  2.255771e+00    6.515057e-01   8.758449e-03
  2.257981e+00    6.580311e-01   8.791087e-03
  2.260192e+00    6.614663e-01   8.802912e-03
  2.262402e+00    6.703950e-01   8.851234e-03
  2.264613e+00    6.669546e-01   8.817623e-03
  2.266823e+00    6.656786e-01   8.798775e-03
  2.269033e+00    6.558183e-01   8.723043e-03
  2.271244e+00    6.551942e-01   8.708542e-03
  2.273454e+00    6.687117e-01   8.787604e-03
  2.275665e+00    6.726834e-01   8.803302e-03
  2.277875e+00    6.731518e-01   8.796319e-03
  2.280086e+00    6.683362e-01   8.754713e-03
  2.282296e+00    6.640787e-01   8.717333e-03
  2.284507e+00    6.775354e-01   8.794943e-03
  2.286717e+00    6.762430e-01   8.776953e-03
  2.288928e+00    6.685749e-01   8.717101e-03
  2.291138e+00    6.634770e-01   8.674340e-03
  2.293348e+00    6.414417e-01   8.519636e-03
  2.295559e+00    6.549435e-01   8.599513e-03
  2.297769e+00    6.651166e-01   8.656726e-03
  2.299980e+00    6.502407e-01   8.550080e-03
  2.302190e+00    6.560318e-01   8.578894e-03
  2.304401e+00    6.683813e-01   8.649840e-03
  2.306611e+00    6.582884e-01   8.575052e-03
  2.308822e+00    6.526295e-01   8.529710e-03
  2.311032e+00    6.438516e-01   8.465746e-03
  2.313243e+00    6.464306e-01   8.476410e-03
  2.315453e+00    6.541780e-01   8.519462e-03
  2.317663e+00    6.453750e-01   8.452835e-03
  2.319874e+00    6.579162e-01   8.525754e-03
  2.322084e+00    6.443200e-01   8.428267e-03
  2.324295e+00    6.531793e-01   8.477718e-03
  2.326505e+00    6.497386e-01   8.446276e-03
  2.328716e+00    6.326751e-01   8.326170e-03
  2.330926e+00    6.322315e-01   8.314504e-03
  2.333137e+00    6.444873e-01   8.386313e-03
  2.335347e+00    6.635376e-01   8.500332e-03
  2.337558e+00    6.462945e-01   8.380921e-03
  2.339768e+00    6.206548e-01   8.204526e-03
  2.341979e+00    6.441338e-01   8.349868e-03
  2.344189e+00    6.583624e-01   8.433064e-03
  2.346399e+00    6.437318e-01   8.330293e-03
  2.348610e+00    6.338851e-01   8.257900e-03
  2.350820e+00    6.281931e-01   8.212590e-03
  2.353031e+00    6.270930e-01   8.197152e-03
  2.355241e+00    6.310005e-01   8.214615e-03
  2.357452e+00    6.411535e-01   8.271962e-03
  2.359662e+00    6.265323e-01   8.168901e-03
  2.361873e+00    6.325487e-01   8.199804e-03
  2.364083e+00    6.358555e-01   8.213157e-03
  2.366294e+00    6.410624e-01   8.238531e-03
  2.368504e+00    6.290697e-01   8.153027e-03
  2.370714e+00    6.129891e-01   8.040155e-03
  2.372925e+00    6.233491e-01   8.099773e-03
  2.375135e+00    6.427339e-01   8.216569e-03
  2.377346e+00    6.445564e-01   8.220156e-03
  2.379556e+00    6.192353e-01   8.049195e-03
  2.381767e+00    6.153346e-01   8.015978e-03
  2.383977e+00    5.983526e-01   7.896807e-03
  2.386188e+00    6.091213e-01   7.959674e-03
  2.388398e+00    6.166168e-01   8.000588e-03
  2.390609e+00    6.070395e-01   7.930527e-03
  2.392819e+00    6.221929e-01   8.021098e-03
  2.395029e+00    6.146509e-01   7.964683e-03
  2.397240e+00    6.143733e-01   7.955017e-03
  2.399450e+00    6.013516e-01   7.862533e-03
  2.401661e+00    6.052818e-01   7.880540e-03
  2.403871e+00    6.138396e-01   7.928280e-03
  2.406082e+00    6.008781e-01   7.836754e-03
  2.408292e+00    6.143407e-01   7.916230e-03
  2.410503e+00    6.170347e-01   7.926037e-03
  2.412713e+00    6.103839e-01   7.875375e-03
  2.414924e+00    6.106685e-01   7.869705e-03
  2.417134e+00    6.106737e-01   7.862077e-03
  2.419344e+00    5.982270e-01   7.774144e-03
  2.421555e+00    6.007477e-01   7.783015e-03
  2.423765e+00    6.035628e-01   7.793804e-03
  2.425976e+00    6.005109e-01   7.766258e-03
  2.428186e+00    6.075181e-01   7.804167e-03
  2.430397e+00    6.079620e-01   7.799485e-03
  2.432607e+00    5.963111e-01   7.717099e-03
  2.434818e+00    5.831744e-01   7.624155e-03
  2.437028e+00    5.873703e-01   7.644437e-03
  2.439239e+00    5.779860e-01   7.575558e-03
  2.441449e+00    5.806935e-01   7.586150e-03
  2.443659e+00    5.913166e-01   7.647884e-03
  2.445870e+00    5.776074e-01   7.570834e-03
  2.448080e+00    5.848440e-01   7.652954e-03
  2.450291e+00    5.862802e-01   7.679103e-03
  2.452501e+00    5.694994e-01   7.579501e-03
  2.454712e+00    5.720878e-01   7.605114e-03
  2.456922e+00    5.714642e-01   7.607612e-03
  2.459133e+00    5.581334e-01   7.523729e-03
  2.461343e+00    5.499066e-01   7.472369e-03
  2.463554e+00    5.475777e-01   7.459928e-03
  2.465764e+00    5.518951e-01   7.492407e-03
  2.467975e+00    5.482690e-01   7.470001e-03
  2.470185e+00    5.573304e-01   7.533718e-03
  2.472395e+00    5.674399e-01   7.602997e-03
  2.474606e+00    5.562882e-01   7.529473e-03
  2.476816e+00    5.530403e-01   7.508195e-03
  2.479027e+00    5.481418e-01   7.475720e-03
  2.481237e+00    5.485772e-01   7.478969e-03
  2.483448e+00    5.480691e-01   7.475801e-03
  2.485658e+00    5.435800e-01   7.444982e-03
  2.487869e+00    5.438446e-01   7.446832e-03
  2.490079e+00    5.435110e-01   7.444016e-03
  2.492290e+00    5.564597e-01   7.531746e-03
  2.494500e+00    5.390540e-01   7.412275e-03
  2.496710e+00    5.472069e-01   7.467417e-03
  2.498921e+00    5.271410e-01   7.328263e-03
  2.501131e+00    5.210730e-01   7.284981e-03
  2.503342e+00    5.341381e-01   7.374507e-03
  2.505552e+00    5.266778e-01   7.321695e-03
  2.507763e+00    5.269434e-01   7.322130e-03
  2.509973e+00    5.354377e-01   7.379493e-03
  2.512184e+00    5.194547e-01   7.266941e-03
  2.514394e+00    5.152637e-01   7.228292e-03
  2.516605e+00    5.307879e-01   7.289117e-03
  2.518815e+00    5.395541e-01   7.320378e-03
  2.521025e+00    5.355480e-01   7.271995e-03
  2.523236e+00    5.358201e-01   7.255683e-03
  2.525446e+00    5.295826e-01   7.197660e-03
  2.527657e+00    5.449290e-01   7.286319e-03
  2.529867e+00    5.379552e-01   7.225221e-03
  2.532078e+00    5.184357e-01   7.077964e-03
  2.534288e+00    5.224892e-01   7.091727e-03
  2.536499e+00    5.251195e-01   7.097602e-03
  2.538709e+00    5.379401e-01   7.172587e-03
  2.540920e+00    5.412466e-01   7.183794e-03
  2.543130e+00    5.364323e-01   7.141283e-03
  2.545340e+00    5.284815e-01   7.078063e-03
  2.547551e+00    5.183698e-01   7.000105e-03
  2.549761e+00    5.294967e-01   7.065190e-03
  2.551972e+00    5.241320e-01   7.019944e-03
  2.554182e+00    5.238917e-01   7.009122e-03
  2.556393e+00    5.106353e-01   6.910898e-03
  2.558603e+00    5.078223e-01   6.882844e-03
  2.560814e+00    5.177127e-01   6.940876e-03
  2.563024e+00    5.153221e-01   6.916270e-03
  2.565235e+00    5.288820e-01   6.997084e-03
  2.567445e+00    5.201280e-01   6.929392e-03
  2.569656e+00    5.258210e-01   6.957374e-03
  2.571866e+00    5.152597e-01   6.877816e-03
  2.574076e+00    5.135735e-01   6.857323e-03
  2.576287e+00    5.081232e-01   6.812575e-03
  2.578497e+00    5.078342e-01   6.802846e-03
  2.580708e+00    5.050726e-01   6.776324e-03
  2.582918e+00    5.013679e-01   6.743779e-03
  2.585129e+00    5.109242e-01   6.800005e-03
  2.587339e+00    5.146282e-01   6.816925e-03
  2.589550e+00    5.257654e-01   6.882653e-03
  2.591760e+00    5.108656e-01   6.776708e-03
  2.593971e+00    5.125613e-01   6.780405e-03
  2.596181e+00    5.166664e-01   6.801242e-03
  2.598391e+00    5.259897e-01   6.857068e-03
  2.600602e+00    5.233847e-01   6.834101e-03
  2.602812e+00    5.002590e-01   6.673922e-03
  2.605023e+00    4.970011e-01   6.645078e-03
  2.607233e+00    4.978132e-01   6.643424e-03
  2.609444e+00    4.959107e-01   6.623584e-03
  2.611654e+00    5.053573e-01   6.679052e-03
  2.613865e+00    5.079086e-01   6.688852e-03
  2.616075e+00    4.908573e-01   6.568577e-03
  2.618286e+00    5.055906e-01   6.659426e-03
  2.620496e+00    5.155562e-01   6.717978e-03
  2.622706e+00    5.143899e-01   6.704585e-03
  2.624917e+00    5.150478e-01   6.702955e-03
  2.627127e+00    5.091751e-01   6.658868e-03
  2.629338e+00    5.072339e-01   6.640154e-03
  2.631548e+00    5.106986e-01   6.656587e-03
  2.633759e+00    5.060481e-01   6.619034e-03
  2.635969e+00    5.034368e-01   6.595238e-03
  2.638180e+00    5.088820e-01   6.623764e-03
  2.640390e+00    5.159490e-01   6.662914e-03
  2.642601e+00    4.940098e-01   6.513090e-03
  2.644811e+00    5.042738e-01   6.573298e-03
  2.647021e+00    5.028289e-01   6.557296e-03
  2.649232e+00    5.026326e-01   6.549266e-03
  2.651442e+00    5.005910e-01   6.529450e-03
  2.653653e+00    4.961634e-01   6.493729e-03
  2.655863e+00    4.999016e-01   6.511458e-03
  2.658074e+00    5.090384e-01   6.563999e-03
  2.660284e+00    5.061045e-01   6.538653e-03
  2.662495e+00    5.016004e-01   6.502725e-03
  2.664705e+00    4.872524e-01   6.402512e-03
  2.666916e+00    5.070285e-01   6.524634e-03
  2.669126e+00    5.005083e-01   6.476066e-03
  2.671337e+00    4.994382e-01   6.462519e-03
  2.673547e+00    4.970645e-01   6.440767e-03
  2.675757e+00    4.826816e-01   6.340521e-03
  2.677968e+00    4.912916e-01   6.390310e-03
  2.680178e+00    4.924437e-01   6.391412e-03
  2.682389e+00    5.010324e-01   6.440455e-03
  2.684599e+00    5.008262e-01   6.432901e-03
  2.686810e+00    5.060683e-01   6.459783e-03
  2.689020e+00    5.033951e-01   6.436329e-03
  2.691231e+00    4.977268e-01   6.393660e-03
  2.693441e+00    4.889092e-01   6.330644e-03
  2.695652e+00    4.887124e-01   6.322850e-03
  2.697862e+00    4.853356e-01   6.294660e-03
  2.700072e+00    4.820541e-01   6.267317e-03
  2.702283e+00    4.882073e-01   6.300967e-03
  2.704493e+00    4.921744e-01   6.320215e-03
  2.706704e+00    4.920548e-01   6.313019e-03
  2.708914e+00    4.847283e-01   6.259902e-03
  2.711125e+00    4.897909e-01   6.286237e-03
  2.713335e+00    4.814515e-01   6.226457e-03
  2.715546e+00    4.681648e-01   6.133583e-03
  2.717756e+00    4.794252e-01   6.201084e-03
  2.719967e+00    4.792599e-01   6.193819e-03
  2.722177e+00    4.890038e-01   6.250347e-03
  2.724387e+00    4.792810e-01   6.181818e-03
  2.726598e+00    4.960482e-01   6.282890e-03
  2.728808e+00    4.959820e-01   6.276272e-03
  2.731019e+00    4.838599e-01   6.192984e-03
  2.733229e+00    4.676946e-01   6.082940e-03
  2.735440e+00    4.638243e-01   6.051581e-03
  2.737650e+00    4.899561e-01   6.213645e-03
  2.739861e+00    4.874804e-01   6.191863e-03
  2.742071e+00    4.792282e-01   6.133494e-03
  2.744282e+00    4.849067e-01   6.163454e-03
  2.746492e+00    4.839959e-01   6.151652e-03
  2.748702e+00    4.691782e-01   6.050891e-03
  2.750913e+00    4.811059e-01   6.121541e-03
  2.753123e+00    4.894599e-01   6.168304e-03
  2.755334e+00    4.755378e-01   6.073906e-03
  2.757544e+00    4.739452e-01   6.058016e-03
  2.759755e+00    4.793631e-01   6.086675e-03
  2.761965e+00    4.662996e-01   5.997273e-03
  2.764176e+00    4.845986e-01   6.107773e-03
  2.766386e+00    4.884699e-01   6.126306e-03
  2.768597e+00    4.901890e-01   6.131138e-03
  2.770807e+00    4.955813e-01   6.158803e-03
  2.773017e+00    4.881260e-01   6.106272e-03
  2.775228e+00    4.902923e-01   6.113941e-03
  2.777438e+00    4.909359e-01   6.112088e-03
  2.779649e+00    4.904784e-01   6.103268e-03
  2.781859e+00    4.925429e-01   6.110245e-03
  2.784070e+00    4.866007e-01   6.067360e-03
  2.786280e+00    4.824033e-01   6.035335e-03
  2.788491e+00    4.758206e-01   5.988191e-03
  2.790701e+00    4.848638e-01   6.039116e-03
  2.792912e+00    4.784697e-01   5.993199e-03
  2.795122e+00    4.771916e-01   5.979446e-03
  2.797333e+00    4.673953e-01   5.912241e-03
  2.799543e+00    4.780048e-01   5.973078e-03
  2.801753e+00    4.786368e-01   5.971162e-03
  2.803964e+00    4.759638e-01   5.948793e-03
  2.806174e+00    4.774040e-01   5.951631e-03
  2.808385e+00    4.678434e-01   5.884984e-03
  2.810595e+00    4.751232e-01   5.923717e-03
  2.812806e+00    4.814985e-01   5.956687e-03
  2.815016e+00    4.702841e-01   5.882177e-03
  2.817227e+00    4.773702e-01   5.952341e-03
  2.819437e+00    4.758120e-01   5.953728e-03
  2.821648e+00    4.890605e-01   6.038371e-03
  2.823858e+00    4.736952e-01   5.948106e-03
  2.826068e+00    4.855689e-01   6.027227e-03
  2.828279e+00    4.768912e-01   5.977195e-03
  2.830489e+00    4.700594e-01   5.937547e-03
  2.832700e+00    4.637491e-01   5.900109e-03
  2.834910e+00    4.605395e-01   5.881679e-03
  2.837121e+00    4.757966e-01   5.980035e-03
  2.839331e+00    4.614195e-01   5.890214e-03
  2.841542e+00    4.657396e-01   5.918729e-03
  2.843752e+00    4.710951e-01   5.953440e-03
  2.845963e+00    4.695227e-01   5.943909e-03
  2.848173e+00    4.706773e-01   5.951286e-03
  2.850383e+00    4.830661e-01   6.029400e-03
  2.852594e+00    4.792661e-01   6.005566e-03
  2.854804e+00    4.677362e-01   5.932390e-03
  2.857015e+00    4.572032e-01   5.864776e-03
  2.859225e+00    4.667675e-01   5.925535e-03
  2.861436e+00    4.670363e-01   5.926618e-03
  2.863646e+00    4.619631e-01   5.894359e-03
  2.865857e+00    4.617381e-01   5.893261e-03
  2.868067e+00    4.733306e-01   5.966996e-03
  2.870278e+00    4.907807e-01   6.075654e-03
  2.872488e+00    4.740731e-01   5.970147e-03
  2.874698e+00    4.620808e-01   5.893138e-03
  2.876909e+00    4.622398e-01   5.892794e-03
  2.879119e+00    4.645502e-01   5.905898e-03
  2.881330e+00    4.677681e-01   5.924823e-03
  2.883540e+00    4.716661e-01   5.948063e-03
  2.885751e+00    4.672884e-01   5.918750e-03
  2.887961e+00    4.571378e-01   5.852223e-03
  2.890172e+00    4.637358e-01   5.892712e-03
  2.892382e+00    4.662155e-01   5.906619e-03
  2.894593e+00    4.737583e-01   5.952370e-03
  2.896803e+00    4.637514e-01   5.887198e-03
  2.899014e+00    4.669226e-01   5.905345e-03
  2.901224e+00    4.625195e-01   5.875445e-03
  2.903434e+00    4.681023e-01   5.908849e-03
  2.905645e+00    4.465460e-01   5.768999e-03
  2.907855e+00    4.532068e-01   5.809765e-03
  2.910066e+00    4.464386e-01   5.764188e-03
  2.912276e+00    4.567005e-01   5.827921e-03
  2.914487e+00    4.706160e-01   5.913570e-03
  2.916697e+00    4.611623e-01   5.851642e-03
  2.918908e+00    4.677331e-01   5.891163e-03
  2.921118e+00    4.631476e-01   5.859491e-03
  2.923329e+00    4.610264e-01   5.843746e-03
  2.925539e+00    4.631184e-01   5.854694e-03
  2.927749e+00    4.584813e-01   5.822983e-03
  2.929960e+00    4.606221e-01   5.833783e-03
  2.932170e+00    4.732898e-01   5.911082e-03
  2.934381e+00    4.682728e-01   5.877214e-03
  2.936591e+00    4.592179e-01   5.817509e-03
  2.938802e+00    4.557116e-01   5.792560e-03
  2.941012e+00    4.644457e-01   5.845446e-03
  2.943223e+00    4.520594e-01   5.764291e-03
  2.945433e+00    4.562901e-01   5.787458e-03
  2.947644e+00    4.513348e-01   5.751830e-03
  2.949854e+00    4.549747e-01   5.770710e-03
  2.952064e+00    4.520989e-01   5.748239e-03
  2.954275e+00    4.444104e-01   5.694787e-03
  2.956485e+00    4.544311e-01   5.754447e-03
  2.958696e+00    4.472135e-01   5.704241e-03
  2.960906e+00    4.398730e-01   5.653109e-03
  2.963117e+00    4.483263e-01   5.702717e-03
  2.965327e+00    4.443372e-01   5.673437e-03
  2.967538e+00    4.597199e-01   5.767868e-03
  2.969748e+00    4.567224e-01   5.746220e-03
  2.971959e+00    4.530681e-01   5.720055e-03
  2.974169e+00    4.526380e-01   5.714747e-03
  2.976379e+00    4.563970e-01   5.735522e-03
  2.978590e+00    4.514045e-01   5.700929e-03
  2.980800e+00    4.580557e-01   5.739964e-03
  2.983011e+00    4.697944e-01   5.810194e-03
  2.985221e+00    4.701331e-01   5.809092e-03
  2.987432e+00    4.639741e-01   5.767770e-03
  2.989642e+00    4.637457e-01   5.763698e-03
  2.991853e+00    4.666282e-01   5.778254e-03
  2.994063e+00    4.494650e-01   5.668119e-03
  2.996274e+00    4.404716e-01   5.607960e-03
  2.998484e+00    4.592852e-01   5.723760e-03
  3.000694e+00    4.581979e-01   5.713522e-03
  3.002905e+00    4.651515e-01   5.753729e-03
  3.005115e+00    4.615770e-01   5.728581e-03
  3.007326e+00    4.487470e-01   5.645268e-03
  3.009536e+00    4.500829e-01   5.650418e-03
  3.011747e+00    4.553477e-01   5.680440e-03
  3.013957e+00    4.583041e-01   5.695653e-03
  3.016168e+00    4.467148e-01   5.619957e-03
  3.018378e+00    4.400474e-01   5.574855e-03
  3.020589e+00    4.466241e-01   5.613152e-03
  3.022799e+00    4.506447e-01   5.635219e-03
  3.025010e+00    4.586274e-01   5.681651e-03
  3.027220e+00    4.477939e-01   5.611049e-03
  3.029430e+00    4.591222e-01   5.678304e-03
  3.031641e+00    4.581189e-01   5.668938e-03
  3.033851e+00    4.725869e-01   5.754166e-03
  3.036062e+00    4.543960e-01   5.639556e-03
  3.038272e+00    4.522365e-01   5.622545e-03
  3.040483e+00    4.482440e-01   5.594476e-03
  3.042693e+00    4.441794e-01   5.565797e-03
  3.044904e+00    4.550073e-01   5.629194e-03
  3.047114e+00    4.528194e-01   5.610832e-03
  3.049325e+00    4.522062e-01   5.602623e-03
  3.051535e+00    4.489796e-01   5.578233e-03
  3.053745e+00    4.475163e-01   5.564369e-03
  3.055956e+00    4.577434e-01   5.623016e-03
  3.058166e+00    4.458602e-01   5.545289e-03
  3.060377e+00    4.529574e-01   5.584464e-03
  3.062587e+00    4.549284e-01   5.591960e-03
  3.064798e+00    4.465222e-01   5.535811e-03
  3.067008e+00    4.490819e-01   5.546918e-03
  3.069219e+00    4.598565e-01   5.608518e-03
  3.071429e+00    4.466699e-01   5.524016e-03
  3.073640e+00    4.513527e-01   5.549555e-03
  3.075850e+00    4.543109e-01   5.564105e-03
  3.078060e+00    4.559110e-01   5.570765e-03
  3.080271e+00    4.469692e-01   5.512421e-03
  3.082481e+00    4.396420e-01   5.463627e-03
  3.084692e+00    4.351322e-01   5.432190e-03
  3.086902e+00    4.444214e-01   5.486652e-03
  3.089113e+00    4.447906e-01   5.485366e-03
  3.091323e+00    4.449539e-01   5.483000e-03
  3.093534e+00    4.504584e-01   5.513452e-03
  3.095744e+00    4.430009e-01   5.464258e-03
  3.097955e+00    4.473275e-01   5.487318e-03
  3.100165e+00    4.441111e-01   5.464244e-03
  3.102375e+00    4.469040e-01   5.477978e-03
  3.104586e+00    4.344950e-01   5.397944e-03
  3.106796e+00    4.443731e-01   5.455439e-03
  3.109007e+00    4.509693e-01   5.492557e-03
  3.111217e+00    4.441833e-01   5.447385e-03
  3.113428e+00    4.587964e-01   5.532810e-03
  3.115638e+00    4.392397e-01   5.410389e-03
  3.117849e+00    4.559225e-01   5.508405e-03
  3.120059e+00    4.556083e-01   5.502998e-03
  3.122270e+00    4.521092e-01   5.478562e-03
  3.124480e+00    4.574995e-01   5.507374e-03
  3.126691e+00    4.475347e-01   5.443490e-03
  3.128901e+00    4.521028e-01   5.468057e-03
  3.131111e+00    4.456497e-01   5.425049e-03
  3.133322e+00    4.383395e-01   5.376946e-03
  3.135532e+00    4.538713e-01   5.467921e-03
  3.137743e+00    4.529770e-01   5.459040e-03
  3.139953e+00    4.455074e-01   5.410150e-03
  3.142164e+00    4.330691e-01   5.345962e-03
  3.144374e+00    4.560338e-01   5.514719e-03
  3.146585e+00    4.298992e-01   5.368731e-03
  3.148795e+00    4.377127e-01   5.428008e-03
  3.151006e+00    4.507209e-01   5.516695e-03
  3.153216e+00    4.516510e-01   5.529618e-03
  3.155426e+00    4.473870e-01   5.509803e-03
  3.157637e+00    4.413793e-01   5.478217e-03
  3.159847e+00    4.346696e-01   5.441261e-03
  3.162058e+00    4.440055e-01   5.503826e-03
  3.164268e+00    4.452465e-01   5.515608e-03
  3.166479e+00    4.498208e-01   5.547545e-03
  3.168689e+00    4.457663e-01   5.525906e-03
  3.170900e+00    4.387126e-01   5.485166e-03
  3.173110e+00    4.436982e-01   5.519135e-03
  3.175321e+00    4.368722e-01   5.479003e-03
  3.177531e+00    4.368863e-01   5.481828e-03
  3.179741e+00    4.295765e-01   5.437836e-03
  3.181952e+00    4.365254e-01   5.483737e-03
  3.184162e+00    4.378277e-01   5.494107e-03
  3.186373e+00    4.374039e-01   5.493052e-03
  3.188583e+00    4.433962e-01   5.532334e-03
  3.190794e+00    4.521316e-01   5.588371e-03
  3.193004e+00    4.443036e-01   5.541025e-03
  3.195215e+00    4.381949e-01   5.504322e-03
  3.197425e+00    4.277133e-01   5.439288e-03
  3.199636e+00    4.372616e-01   5.498875e-03
  3.201846e+00    4.373979e-01   5.499145e-03
  3.204056e+00    4.355707e-01   5.488529e-03
  3.206267e+00    4.344313e-01   5.482208e-03
  3.208477e+00    4.370075e-01   5.499352e-03
  3.210688e+00    4.352124e-01   5.488899e-03
  3.212898e+00    4.239242e-01   5.417816e-03
  3.215109e+00    4.260910e-01   5.432398e-03
  3.217319e+00    4.147738e-01   5.360383e-03
  3.219530e+00    4.254145e-01   5.429087e-03
  3.221740e+00    4.314803e-01   5.468224e-03
  3.223951e+00    4.324051e-01   5.474564e-03
  3.226161e+00    4.279036e-01   5.446165e-03
  3.228372e+00    4.333216e-01   5.481070e-03
  3.230582e+00    4.347743e-01   5.490396e-03
  3.232792e+00    4.387142e-01   5.515439e-03
  3.235003e+00    4.340330e-01   5.486190e-03
  3.237213e+00    4.400867e-01   5.524405e-03
  3.239424e+00    4.322725e-01   5.475161e-03
  3.241634e+00    4.132774e-01   5.353635e-03
  3.243845e+00    4.060166e-01   5.306447e-03
  3.246055e+00    4.219033e-01   5.409008e-03
  3.248266e+00    4.177067e-01   5.382230e-03
  3.250476e+00    4.287569e-01   5.452655e-03
  3.252687e+00    4.224502e-01   5.412336e-03
  3.254897e+00    4.304048e-01   5.462913e-03
  3.257107e+00    4.339430e-01   5.485026e-03
  3.259318e+00    4.277019e-01   5.445212e-03
  3.261528e+00    4.203000e-01   5.397719e-03
  3.263739e+00    4.335850e-01   5.481822e-03
  3.265949e+00    4.292443e-01   5.454186e-03
  3.268160e+00    4.350138e-01   5.490292e-03
  3.270370e+00    4.289545e-01   5.451418e-03
  3.272581e+00    4.353052e-01   5.491338e-03
  3.274791e+00    4.219636e-01   5.406005e-03
  3.277002e+00    4.256287e-01   5.428886e-03
  3.279212e+00    4.166976e-01   5.371235e-03
  3.281422e+00    4.190725e-01   5.385936e-03
  3.283633e+00    4.357989e-01   5.491687e-03
  3.285843e+00    4.252160e-01   5.424259e-03
  3.288054e+00    4.337887e-01   5.477716e-03
  3.290264e+00    4.305725e-01   5.457078e-03
  3.292475e+00    4.294904e-01   5.449349e-03
  3.294685e+00    4.096293e-01   5.321250e-03
  3.296896e+00    4.268473e-01   5.431164e-03
  3.299106e+00    4.198832e-01   5.386137e-03
  3.301317e+00    4.262598e-01   5.425830e-03
  3.303527e+00    4.221493e-01   5.399151e-03
  3.305737e+00    4.298332e-01   5.447007e-03
  3.307948e+00    4.386030e-01   5.501619e-03
  3.310158e+00    4.277880e-01   5.432528e-03
  3.312369e+00    4.294486e-01   5.442142e-03
  3.314579e+00    4.276637e-01   5.429932e-03
  3.316790e+00    4.129016e-01   5.334680e-03
  3.319000e+00    4.260572e-01   5.417797e-03
  3.321211e+00    4.243211e-01   5.406168e-03
  3.323421e+00    4.125261e-01   5.329294e-03
  3.325632e+00    4.155909e-01   5.348171e-03
  3.327842e+00    4.348653e-01   5.469841e-03
  3.330052e+00    4.332986e-01   5.458930e-03
  3.332263e+00    4.297739e-01   5.435627e-03
  3.334473e+00    4.243906e-01   5.400594e-03
  3.336684e+00    4.056363e-01   5.278644e-03
  3.338894e+00    4.202579e-01   5.372110e-03
  3.341105e+00    4.271882e-01   5.414994e-03
  3.343315e+00    4.309967e-01   5.437954e-03
  3.345526e+00    4.237988e-01   5.391421e-03
  3.347736e+00    4.288305e-01   5.421928e-03
  3.349947e+00    4.232749e-01   5.385750e-03
  3.352157e+00    4.276431e-01   5.412285e-03
  3.354368e+00    4.246328e-01   5.391910e-03
  3.356578e+00    4.178418e-01   5.347594e-03
  3.358788e+00    4.175768e-01   5.344567e-03
  3.360999e+00    4.135079e-01   5.317240e-03
  3.363209e+00    4.112536e-01   5.301700e-03
  3.365420e+00    4.150567e-01   5.324654e-03
  3.367630e+00    4.153928e-01   5.325795e-03
  3.369841e+00    4.216969e-01   5.364612e-03
  3.372051e+00    4.280990e-01   5.403187e-03
  3.374262e+00    4.188601e-01   5.342140e-03
  3.376472e+00    4.065242e-01   5.260446e-03
  3.378683e+00    4.098270e-01   5.279282e-03
  3.380893e+00    4.150706e-01   5.310623e-03
  3.383103e+00    4.094689e-01   5.271977e-03
  3.385314e+00    4.123596e-01   5.288335e-03
  3.387524e+00    4.193596e-01   5.330275e-03
  3.389735e+00    4.248295e-01   5.362283e-03
  3.391945e+00    4.170433e-01   5.309206e-03
  3.394156e+00    4.272536e-01   5.369512e-03
  3.396366e+00    4.096627e-01   5.254439e-03
  3.398577e+00    4.098817e-01   5.252773e-03
  3.400787e+00    4.113310e-01   5.273987e-03
  3.402998e+00    3.946074e-01   5.203002e-03
  3.405208e+00    3.914667e-01   5.202543e-03
  3.407418e+00    3.973188e-01   5.257001e-03
  3.409629e+00    3.975005e-01   5.272112e-03
  3.411839e+00    3.870807e-01   5.214154e-03
  3.414050e+00    3.844732e-01   5.207358e-03
  3.416260e+00    3.964286e-01   5.297363e-03
  3.418471e+00    3.851477e-01   5.230793e-03
  3.420681e+00    3.813694e-01   5.213425e-03
  3.422892e+00    3.886837e-01   5.271161e-03
  3.425102e+00    3.863276e-01   5.262951e-03
  3.427313e+00    3.830007e-01   5.247379e-03
  3.429523e+00    3.986930e-01   5.360945e-03
  3.431733e+00    3.813284e-01   5.249548e-03
  3.433944e+00    3.850594e-01   5.281643e-03
  3.436154e+00    3.910064e-01   5.328595e-03
  3.438365e+00    3.742348e-01   5.218930e-03
  3.440575e+00    3.681723e-01   5.182300e-03
  3.442786e+00    3.852468e-01   5.306758e-03
  3.444996e+00    3.721368e-01   5.221173e-03
  3.447207e+00    3.609970e-01   5.147591e-03
  3.449417e+00    3.700384e-01   5.252405e-03
  3.451628e+00    3.626073e-01   5.228590e-03
  3.453838e+00    3.555429e-01   5.198219e-03
  3.456049e+00    3.589666e-01   5.246812e-03
  3.458259e+00    3.626983e-01   5.295851e-03
  3.460469e+00    3.601107e-01   5.296522e-03
  3.462680e+00    3.724971e-01   5.406077e-03
  3.464890e+00    3.530526e-01   5.280585e-03
  3.467101e+00    3.523926e-01   5.292698e-03
  3.469311e+00    3.713120e-01   5.449512e-03
  3.471522e+00    3.894160e-01   5.597478e-03
  3.473732e+00    3.898963e-01   5.617138e-03
  3.475943e+00    4.128985e-01   5.796751e-03
  3.478153e+00    4.081057e-01   5.778850e-03
  3.480364e+00    4.207401e-01   5.883292e-03
  3.482574e+00    4.232854e-01   5.916747e-03
  3.484784e+00    4.265111e-01   5.954442e-03
  3.486995e+00    4.344721e-01   6.025155e-03
  3.489205e+00    4.488872e-01   6.139403e-03
  3.491416e+00    4.431570e-01   6.115304e-03
  3.493626e+00    4.400302e-01   6.108374e-03
  3.495837e+00    4.490230e-01   6.185345e-03
  3.498047e+00    4.510785e-01   6.214101e-03
  3.500258e+00    4.568757e-01   6.268550e-03
  3.502468e+00    4.607666e-01   6.309709e-03
  3.504679e+00    4.744733e-01   6.417586e-03
  3.506889e+00    4.807971e-01   6.474876e-03
  3.509099e+00    4.820864e-01   6.498101e-03
  3.511310e+00    4.880423e-01   6.552703e-03
  3.513520e+00    5.006829e-01   6.651757e-03
  3.515731e+00    5.061268e-01   6.702490e-03
  3.517941e+00    4.858816e-01   6.581369e-03
  3.520152e+00    5.180427e-01   6.810321e-03
  3.522362e+00    5.180393e-01   6.825051e-03
  3.524573e+00    5.096617e-01   6.784003e-03
  3.526783e+00    5.108660e-01   6.805299e-03
  3.528994e+00    5.324099e-01   6.959794e-03
  3.531204e+00    5.100642e-01   6.824472e-03
  3.533414e+00    5.378569e-01   7.020135e-03
  3.535625e+00    5.511839e-01   7.119230e-03
  3.537835e+00    5.427133e-01   7.076562e-03
  3.540046e+00    5.450962e-01   7.101070e-03
  3.542256e+00    5.517763e-01   7.152101e-03
  3.544467e+00    5.545536e-01   7.177830e-03
  3.546677e+00    5.486960e-01   7.147492e-03
  3.548888e+00    5.394883e-01   7.094791e-03
  3.551098e+00    5.397209e-01   7.103629e-03
  3.553309e+00    5.324944e-01   7.064055e-03
  3.555519e+00    5.335006e-01   7.081985e-03
  3.557729e+00    5.519818e-01   7.215493e-03
  3.559940e+00    5.488734e-01   7.206846e-03
  3.562150e+00    5.509881e-01   7.232616e-03
  3.564361e+00    5.292158e-01   7.101465e-03
  3.566571e+00    5.475221e-01   7.237247e-03
  3.568782e+00    5.518935e-01   7.280414e-03
  3.570992e+00    5.462444e-01   7.256926e-03
  3.573203e+00    5.564883e-01   7.339088e-03
  3.575413e+00    5.377371e-01   7.228170e-03
  3.577624e+00    5.397924e-01   7.256129e-03
  3.579834e+00    5.487650e-01   7.330239e-03
  3.582045e+00    5.437288e-01   7.310676e-03
  3.584255e+00    5.487364e-01   7.358459e-03
  3.586465e+00    5.370978e-01   7.293992e-03
  3.588676e+00    5.321106e-01   7.274144e-03
  3.590886e+00    5.471883e-01   7.390369e-03
  3.593097e+00    5.539095e-01   7.450308e-03
  3.595307e+00    5.638949e-01   7.531515e-03
  3.597518e+00    5.359693e-01   7.356846e-03
  3.599728e+00    5.342219e-01   7.358946e-03
  3.601939e+00    5.272703e-01   7.324875e-03
  3.604149e+00    5.387918e-01   7.418855e-03
  3.606360e+00    5.430671e-01   7.462543e-03
  3.608570e+00    5.391210e-01   7.449536e-03
  3.610780e+00    5.410277e-01   7.473888e-03
  3.612991e+00    5.384070e-01   7.465746e-03
  3.615201e+00    5.489663e-01   7.548565e-03
  3.617412e+00    5.378220e-01   7.478829e-03
  3.619622e+00    5.498329e-01   7.567919e-03
  3.621833e+00    5.290639e-01   7.430296e-03
  3.624043e+00    5.624752e-01   7.671052e-03
  3.626254e+00    5.483850e-01   7.584209e-03
  3.628464e+00    5.524620e-01   7.623523e-03
  3.630675e+00    5.303351e-01   7.483370e-03
  3.632885e+00    5.344503e-01   7.526784e-03
  3.635095e+00    5.433381e-01   7.603636e-03
  3.637306e+00    5.424817e-01   7.612141e-03
  3.639516e+00    5.400087e-01   7.609389e-03
  3.641727e+00    5.450081e-01   7.659276e-03
  3.643937e+00    5.322972e-01   7.583926e-03
  3.646148e+00    5.396642e-01   7.650972e-03
  3.648358e+00    5.260311e-01   7.568466e-03
  3.650569e+00    5.309567e-01   7.618506e-03
  3.652779e+00    5.352056e-01   7.663732e-03
  3.654990e+00    5.425796e-01   7.731371e-03
  3.657200e+00    5.546740e-01   7.832271e-03
  3.659410e+00    5.462433e-01   7.787715e-03
  3.661621e+00    5.439221e-01   7.786375e-03
  3.663831e+00    5.377771e-01   7.757527e-03
  3.666042e+00    5.399701e-01   7.788602e-03
  3.668252e+00    5.272828e-01   7.711691e-03
  3.670463e+00    5.146768e-01   7.633997e-03
  3.672673e+00    5.345830e-01   7.795663e-03
  3.674884e+00    5.396531e-01   7.848084e-03
  3.677094e+00    5.397948e-01   7.864781e-03
  3.679305e+00    5.395432e-01   7.878604e-03
  3.681515e+00    5.339074e-01   7.853055e-03
  3.683726e+00    5.318512e-01   7.853738e-03
  3.685936e+00    5.368032e-01   7.906030e-03
  3.688146e+00    5.266559e-01   7.846737e-03
  3.690357e+00    5.242529e-01   7.844651e-03
  3.692567e+00    5.443999e-01   8.010395e-03
  3.694778e+00    5.204266e-01   7.848013e-03
  3.696988e+00    5.124986e-01   7.803735e-03
  3.699199e+00    5.195495e-01   7.873395e-03
  3.701409e+00    5.279114e-01   7.952909e-03
  3.703620e+00    5.106952e-01   7.838267e-03
  3.705830e+00    5.170698e-01   7.903305e-03
  3.708041e+00    5.296204e-01   8.015299e-03
  3.710251e+00    5.560094e-01   8.229820e-03
  3.712461e+00    5.435045e-01   8.153825e-03
  3.714672e+00    5.142244e-01   7.947773e-03
  3.716882e+00    5.046673e-01   7.890003e-03
  3.719093e+00    5.189501e-01   8.017962e-03
  3.721303e+00    5.213587e-01   8.053548e-03
  3.723514e+00    5.210046e-01   8.068117e-03
  3.725724e+00    5.147187e-01   8.036393e-03
  3.727935e+00    5.064575e-01   7.988890e-03
  3.730145e+00    5.104576e-01   8.037627e-03
  3.732356e+00    5.139006e-01   8.082127e-03
  3.734566e+00    5.130395e-01   8.092918e-03
  3.736776e+00    5.221452e-01   8.182256e-03
  3.738987e+00    5.265412e-01   8.234597e-03
  3.741197e+00    4.878136e-01   7.943564e-03
  3.743408e+00    5.052092e-01   8.101786e-03
  3.745618e+00    5.324890e-01   8.336364e-03
  3.747829e+00    5.037004e-01   8.125848e-03
  3.750039e+00    5.304090e-01   8.357192e-03
  3.752250e+00    5.264083e-01   8.344369e-03
  3.754460e+00    5.151870e-01   8.273605e-03
  3.756671e+00    5.139852e-01   8.282803e-03
  3.758881e+00    4.980664e-01   8.171999e-03
  3.761091e+00    5.158980e-01   8.336258e-03
  3.763302e+00    4.867177e-01   8.115773e-03
  3.765512e+00    5.014156e-01   8.256453e-03
  3.767723e+00    5.192811e-01   8.421936e-03
  3.769933e+00    5.048611e-01   8.323413e-03
  3.772144e+00    4.868160e-01   8.192570e-03
  3.774354e+00    5.059791e-01   8.372042e-03
  3.776565e+00    5.023158e-01   8.361526e-03
  3.778775e+00    5.171037e-01   8.503870e-03
  3.780986e+00    5.020073e-01   8.399152e-03
  3.783196e+00    4.901006e-01   8.318868e-03
  3.785407e+00    4.945186e-01   8.376554e-03
  3.787617e+00    5.199531e-01   8.610344e-03
  3.789827e+00    5.041191e-01   8.498835e-03
  3.792038e+00    5.056549e-01   8.532637e-03
  3.794248e+00    5.158802e-01   8.639994e-03
  3.796459e+00    5.106736e-01   8.617830e-03
  3.798669e+00    5.182945e-01   8.703599e-03
  3.800880e+00    4.988782e-01   8.560463e-03
  3.803090e+00    4.910056e-01   8.514277e-03
  3.805301e+00    4.962764e-01   8.581861e-03
  3.807511e+00    5.176176e-01   8.786756e-03
  3.809722e+00    5.179555e-01   8.812368e-03
  3.811932e+00    4.840225e-01   8.540611e-03
  3.814142e+00    4.971694e-01   8.678681e-03
  3.816353e+00    5.002736e-01   8.728571e-03
  3.818563e+00    5.060437e-01   8.802076e-03
  3.820774e+00    4.979450e-01   8.754488e-03
  3.822984e+00    5.103071e-01   8.886129e-03
  3.825195e+00    5.054936e-01   8.868092e-03
  3.827405e+00    5.130753e-01   8.958557e-03
  3.829616e+00    4.902263e-01   8.780734e-03
  3.831826e+00    4.939877e-01   8.838397e-03
  3.834037e+00    5.064331e-01   8.973798e-03
  3.836247e+00    4.917701e-01   8.867512e-03
  3.838457e+00    4.681152e-01   8.675876e-03
  3.840668e+00    4.864215e-01   8.868863e-03
  3.842878e+00    4.835919e-01   8.868177e-03
  3.845089e+00    4.839727e-01   8.896995e-03
  3.847299e+00    4.791381e-01   8.877792e-03
  3.849510e+00    4.818658e-01   8.928499e-03
  3.851720e+00    4.989265e-01   9.106700e-03
  3.853931e+00    4.900648e-01   9.044368e-03
  3.856141e+00    5.160298e-01   9.300254e-03
  3.858352e+00    5.027097e-01   9.198936e-03
  3.860562e+00    5.261658e-01   9.430914e-03
  3.862772e+00    4.999187e-01   9.212487e-03
  3.864983e+00    4.936651e-01   9.174298e-03
  3.867193e+00    4.986383e-01   9.240310e-03
  3.869404e+00    5.023304e-01   9.294379e-03
  3.871614e+00    4.868546e-01   9.169989e-03
  3.873825e+00    5.109867e-01   9.415172e-03
  3.876035e+00    4.930261e-01   9.268788e-03
  3.878246e+00    5.044682e-01   9.401842e-03
  3.880456e+00    4.977145e-01   9.367815e-03
  3.882667e+00    4.813622e-01   9.241633e-03
  3.884877e+00    5.022631e-01   9.470213e-03
  3.887087e+00    5.172472e-01   9.641174e-03
  3.889298e+00    4.856667e-01   9.372400e-03
  3.891508e+00    4.959747e-01   9.502008e-03
  3.893719e+00    4.910951e-01   9.486187e-03
  3.895929e+00    4.985142e-01   9.589259e-03
  3.898140e+00    5.008152e-01   9.643364e-03
  3.900350e+00    4.968933e-01   9.637870e-03
  3.902561e+00    4.781472e-01   9.486323e-03
  3.904771e+00    4.718377e-01   9.455688e-03
  3.906982e+00    5.039470e-01   9.805765e-03
  3.909192e+00    4.997306e-01   9.798486e-03
  3.911403e+00    5.281510e-01   1.010869e-02
  3.913613e+00    4.939455e-01   9.810319e-03
  3.915823e+00    4.801335e-01   9.706629e-03
  3.918034e+00    5.074251e-01   1.001464e-02
  3.920244e+00    4.859382e-01   9.835954e-03
  3.922455e+00    4.817601e-01   9.829465e-03
  3.924665e+00    4.886104e-01   9.935550e-03
  3.926876e+00    5.011656e-01   1.009990e-02
  3.929086e+00    5.010925e-01   1.013712e-02
  3.931297e+00    4.854791e-01   1.001271e-02
  3.933507e+00    4.757177e-01   9.940020e-03
  3.935718e+00    4.829095e-01   1.004353e-02
  3.937928e+00    5.099079e-01   1.035063e-02
  3.940138e+00    4.791845e-01   1.006300e-02
  3.942349e+00    5.115017e-01   1.042737e-02
  3.944559e+00    4.974315e-01   1.031335e-02
  3.946770e+00    5.133373e-01   1.050789e-02
  3.948980e+00    5.023977e-01   1.042655e-02
  3.951191e+00    4.996518e-01   1.042928e-02
  3.953401e+00    4.806312e-01   1.026007e-02
  3.955612e+00    4.840326e-01   1.032780e-02
  3.957822e+00    4.961183e-01   1.048795e-02
  3.960033e+00    4.914120e-01   1.047095e-02
  3.962243e+00    4.915742e-01   1.050568e-02
  3.964453e+00    4.785863e-01   1.039891e-02
  3.966664e+00    4.709814e-01   1.034867e-02
  3.968874e+00    5.045061e-01   1.073968e-02
  3.971085e+00    5.014998e-01   1.072998e-02
  3.973295e+00    4.933691e-01   1.066423e-02
  3.975506e+00    4.959570e-01   1.071399e-02
  3.977716e+00    4.886603e-01   1.065705e-02
  3.979927e+00    4.730266e-01   1.050692e-02
  3.982137e+00    4.952279e-01   1.077324e-02
  3.984348e+00    4.806001e-01   1.063541e-02
  3.986558e+00    4.984657e-01   1.085381e-02
  3.988768e+00    4.841008e-01   1.071939e-02
  3.990979e+00    5.023083e-01   1.094210e-02
  3.993189e+00    4.780287e-01   1.069744e-02
  3.995400e+00    4.630355e-01   1.055124e-02
  3.997610e+00    5.122518e-01   1.112849e-02
  3.999821e+00    4.924439e-01   1.094904e-02
  4.002031e+00    5.172762e-01   1.126132e-02
  4.004242e+00    4.848731e-01   1.094151e-02
  4.006452e+00    4.616780e-01   1.071491e-02
  4.008663e+00    5.132933e-01   1.133919e-02
  4.010873e+00    4.877922e-01   1.109408e-02
  4.013084e+00    4.764718e-01   1.100513e-02
  4.015294e+00    4.809543e-01   1.109762e-02
  4.017504e+00    4.871486e-01   1.121089e-02
  4.019715e+00    4.639770e-01   1.098257e-02
  4.021925e+00    4.965982e-01   1.140561e-02
  4.024136e+00    4.799305e-01   1.125616e-02
  4.026346e+00    4.809884e-01   1.131250e-02
  4.028557e+00    5.090945e-01   1.168372e-02
  4.030767e+00    4.866095e-01   1.146871e-02
  4.032978e+00    4.618853e-01   1.121878e-02
  4.035188e+00    4.724159e-01   1.139144e-02
  4.037399e+00    5.088190e-01   1.187112e-02
  4.039609e+00    4.884764e-01   1.167934e-02
  4.041819e+00    4.852286e-01   1.168938e-02
  4.044030e+00    4.680912e-01   1.153008e-02
  4.046240e+00    4.950521e-01   1.190807e-02
  4.048451e+00    4.798226e-01   1.177419e-02
  4.050661e+00    4.759536e-01   1.177774e-02
  4.052872e+00    4.489473e-01   1.148964e-02
  4.055082e+00    4.353165e-01   1.136451e-02
  4.057293e+00    4.388240e-01   1.146161e-02
  4.059503e+00    4.580491e-01   1.176307e-02
  4.061714e+00    4.842852e-01   1.215198e-02
  4.063924e+00    4.780177e-01   1.212959e-02
  4.066134e+00    4.643350e-01   1.201103e-02
  4.068345e+00    4.847237e-01   1.233110e-02
  4.070555e+00    5.169107e-01   1.279519e-02
  4.072766e+00    4.834336e-01   1.243499e-02
  4.074976e+00    4.902162e-01   1.258440e-02
  4.077187e+00    4.795772e-01   1.250889e-02
  4.079397e+00    5.004112e-01   1.284289e-02
  4.081608e+00    4.982913e-01   1.288245e-02
  4.083818e+00    4.679216e-01   1.254860e-02
  4.086029e+00    5.077180e-01   1.314020e-02
  4.088239e+00    4.839095e-01   1.289759e-02
  4.090449e+00    4.796307e-01   1.290992e-02
  4.092660e+00    5.077764e-01   1.335636e-02
  4.094870e+00    5.047109e-01   1.339026e-02
  4.097081e+00    4.747781e-01   1.305805e-02
  4.099291e+00    4.948093e-01   1.338591e-02
  4.101502e+00    5.140634e-01   1.369478e-02
  4.103712e+00    5.224704e-01   1.385779e-02
  4.105923e+00    5.100867e-01   1.374555e-02
  4.108133e+00    4.861415e-01   1.347080e-02
  4.110344e+00    5.078468e-01   1.382086e-02
  4.112554e+00    5.170749e-01   1.400098e-02
  4.114764e+00    5.162188e-01   1.404555e-02
  4.116975e+00    4.934251e-01   1.378620e-02
  4.119185e+00    5.059246e-01   1.401627e-02
  4.121396e+00    4.872382e-01   1.381199e-02
  4.123606e+00    4.966404e-01   1.400162e-02
  4.125817e+00    4.949269e-01   1.403614e-02
  4.128027e+00    4.459901e-01   1.338028e-02
  4.130238e+00    4.676879e-01   1.376062e-02
  4.132448e+00    4.423725e-01   1.344112e-02
  4.134659e+00    4.739732e-01   1.397271e-02
  4.136869e+00    4.792196e-01   1.411249e-02
  4.139080e+00    5.195687e-01   1.476084e-02
  4.141290e+00    5.068051e-01   1.464298e-02
  4.143500e+00    4.697139e-01   1.416206e-02
  4.145711e+00    4.867736e-01   1.448427e-02
  4.147921e+00    5.037700e-01   1.480244e-02
  4.150132e+00    4.936715e-01   1.472347e-02
  4.152342e+00    4.355854e-01   1.389704e-02
  4.154553e+00    5.329915e-01   1.544565e-02
  4.156763e+00    5.249481e-01   1.540450e-02
  4.158974e+00    5.000839e-01   1.511085e-02
  4.161184e+00    4.821143e-01   1.491058e-02
  4.163395e+00    5.208773e-01   1.557746e-02
  4.165605e+00    4.950121e-01   1.526472e-02
  4.167815e+00    5.111146e-01   1.559193e-02
  4.170026e+00    5.302163e-01   1.596438e-02
  4.172236e+00    4.942367e-01   1.549647e-02
  4.174447e+00    4.804606e-01   1.536210e-02
  4.176657e+00    4.734055e-01   1.533237e-02
  4.178868e+00    4.525703e-01   1.507588e-02
  4.181078e+00    4.901773e-01   1.577825e-02
  4.183289e+00    4.862787e-01   1.580513e-02
  4.185499e+00    5.040002e-01   1.618562e-02
  4.187710e+00    5.044764e-01   1.628807e-02
  4.189920e+00    4.745817e-01   1.589339e-02
  4.192130e+00    4.461303e-01   1.550361e-02
  4.194341e+00    4.891023e-01   1.633295e-02
  4.196551e+00    4.667276e-01   1.605569e-02
  4.198762e+00    4.581643e-01   1.600872e-02
  4.200972e+00    4.892952e-01   1.665087e-02
  4.203183e+00    4.598599e-01   1.624873e-02
  4.205393e+00    4.581876e-01   1.632686e-02
  4.207604e+00    5.507500e-01   1.802249e-02
  4.209814e+00    5.329406e-01   1.785019e-02
  4.212025e+00    5.116538e-01   1.761424e-02
  4.214235e+00    4.773399e-01   1.713399e-02
  4.216445e+00    4.418597e-01   1.660397e-02
  4.218656e+00    4.551658e-01   1.697849e-02
  4.220866e+00    4.864531e-01   1.768200e-02
  4.223077e+00    5.356567e-01   1.869793e-02
  4.225287e+00    4.493952e-01   1.726081e-02
  4.227498e+00    5.381144e-01   1.903616e-02
  4.229708e+00    4.962913e-01   1.842990e-02
  4.231919e+00    4.711933e-01   1.810656e-02
  4.234129e+00    5.593141e-01   1.989248e-02
  4.236340e+00    4.940056e-01   1.885516e-02
  4.238550e+00    4.738765e-01   1.862996e-02
  4.240761e+00    5.046868e-01   1.939562e-02
  4.242971e+00    5.557376e-01   2.053992e-02
  4.245181e+00    4.686418e-01   1.903885e-02
  4.247392e+00    4.821042e-01   1.949095e-02
  4.249602e+00    4.779410e-01   1.959937e-02
  4.251813e+00    4.302860e-01   1.877984e-02
  4.254023e+00    4.361843e-01   1.909868e-02
  4.256234e+00    5.252403e-01   2.118124e-02
  4.258444e+00    5.058525e-01   2.100477e-02
  4.260655e+00    5.061314e-01   2.124161e-02
  4.262865e+00    5.582517e-01   2.256142e-02
  4.265076e+00    4.554315e-01   2.060993e-02
  4.267286e+00    5.475122e-01   2.286530e-02
  4.269496e+00    4.952186e-01   2.201118e-02
  4.271707e+00    6.126079e-01   2.478427e-02
  4.273917e+00    4.961218e-01   2.259217e-02
  4.276128e+00    4.071681e-01   2.073871e-02
  4.278338e+00    4.826861e-01   2.288137e-02
  4.280549e+00    4.445848e-01   2.227494e-02
  4.282759e+00    5.023923e-01   2.401871e-02
  4.284970e+00    4.985754e-01   2.428173e-02
  4.287180e+00    5.638236e-01   2.613147e-02
  4.289391e+00    4.228837e-01   2.280098e-02
  4.291601e+00    4.181809e-01   2.285457e-02
  4.293811e+00    4.523424e-01   2.395542e-02
  4.296022e+00    4.402929e-01   2.382391e-02
  4.298232e+00    4.774062e-01   2.501603e-02
  4.300443e+00    4.112005e-01   2.340838e-02
  4.302653e+00    4.885385e-01   2.573539e-02
  4.304864e+00    4.570608e-01   2.510834e-02
  4.307074e+00    4.577137e-01   2.535224e-02
  4.309285e+00    3.921187e-01   2.367782e-02
  4.311495e+00    4.695666e-01   2.615358e-02
  4.313706e+00    5.307543e-01   2.806702e-02
  4.315916e+00    4.351732e-01   2.566454e-02
  4.318126e+00    4.028634e-01   2.493747e-02
  4.320337e+00    4.209954e-01   2.575096e-02
  4.322547e+00    5.107775e-01   2.866458e-02
  4.324758e+00    3.966059e-01   2.552095e-02
  4.326968e+00    5.221723e-01   2.961376e-02
  4.329179e+00    4.837024e-01   2.881668e-02
  4.331389e+00    4.589982e-01   2.839390e-02
  4.333600e+00    4.905147e-01   2.970281e-02
  4.335810e+00    4.678222e-01   2.935341e-02
  4.338021e+00    5.010749e-01   3.076739e-02
  4.340231e+00    4.507824e-01   2.954887e-02
  4.342442e+00    5.312319e-01   3.250730e-02
  4.344652e+00    4.483879e-01   3.027047e-02
  4.346862e+00    4.633465e-01   3.120356e-02
  4.349073e+00    4.450167e-01   3.102406e-02
  4.351283e+00    4.974100e-01   3.328918e-02
  4.353494e+00    5.234041e-01   3.467613e-02
  4.355704e+00    3.575245e-01   2.912121e-02
  4.357915e+00    3.874965e-01   3.082123e-02
  4.360125e+00    4.635389e-01   3.428470e-02
  4.362336e+00    6.352568e-01   4.086825e-02
  4.364546e+00    4.163686e-01   3.368950e-02
  4.366757e+00    4.637801e-01   3.626265e-02
  4.368967e+00    3.225797e-01   3.084613e-02
  4.371177e+00    4.660299e-01   3.786363e-02
  4.373388e+00    5.507886e-01   4.208438e-02
  4.375598e+00    3.229550e-01   3.295975e-02
  4.377809e+00    3.579599e-01   3.557789e-02
  4.380019e+00    3.296525e-01   3.500129e-02
  4.382230e+00    4.307426e-01   4.112303e-02
  4.384440e+00    4.560998e-01   4.353829e-02
  4.386651e+00    6.021343e-01   5.156554e-02
  4.388861e+00    4.551387e-01   4.633822e-02
  4.391072e+00    3.216992e-01   4.032570e-02
  4.393282e+00    3.255895e-01   4.213754e-02
  4.395492e+00    4.670665e-01   5.256267e-02
  4.397703e+00    4.177694e-01   5.198590e-02
  4.399913e+00    3.004459e-01   4.631942e-02
  4.402124e+00    3.426569e-01   5.226772e-02
  4.404334e+00    4.348905e-01   6.259467e-02
  4.406545e+00    1.155591e-01   3.467092e-02
  4.408755e+00    3.443165e-01   6.489650e-02
  4.410966e+00    3.049105e-01   6.759723e-02
  4.413176e+00   -8.428792e-02            nan
  4.415387e+00   -7.626900e-01            nan
  4.417597e+00   -1.914176e+00            nan
  4.419807e+00   -3.766224e-01            nan
