# == pyFAI calibration ==
# Distance Sample to Detector: 0.216 m
# PONI: 1.166e-01, 1.308e-01 m
# Rotations: 0.000000 0.000000 0.000000 rad
# 
# == Fit2d calibration ==
# Distance Sample-beamCenter: 216.000 mm
# Center: x=1744.293, y=1555.000 pix
# Tilt: 0.000 deg  TiltPlanRot: 0.000 deg
# 
# Detector Eiger 9M	 PixelSize= 7.500e-05, 7.500e-05 m
#    Detector has a mask: True 
#    Detector has a dark current: False 
#    detector has a flat field: False 
# 
# Wavelength: 9.8e-11 m
# Mask applied: from detector
# Dark current applied: False
# Flat field applied: False
# Polarization factor: None
# Normalization factor: 1.0
# 
# Headers of the input frame:
# {
# "_array_data.header_convention": "SLS_1.0",
# "_array_data.header_contents": "# Detector: Dectris Eiger 9M, S/N E-18-0102\r\n# Pixel_size 75e-6 m x 75e-6 m\r\n# Silicon sensor, thickness 0.000450 m\r\n# Exposure_time 0.024997 s\r\n# Exposure_period 0.025000 s\r\n# Count_cutoff 62318 counts\r\n# Wavelength 0.980106 A\r\n# Detector_distance 0.215992 m\r\n# Beam_xy (1555, 1744) pixels\r\n# Start_angle 0.000000 deg.\r\n# Angle_increment 0.000000 deg.",
# "Content-Type": "application/octet-stream;",
# "conversions": "x-CBF_BYTE_OFFSET",
# "Content-Transfer-Encoding": "BINARY",
# "X-Binary-Size": "10166608",
# "X-Binary-ID": "1",
# "X-Binary-Element-Type": "signed 32-bit integer",
# "X-Binary-Element-Byte-Order": "LITTLE_ENDIAN",
# "Content-MD5": "owPs/YB/P90QcGq7Tedh7w==",
# "X-Binary-Number-of-Elements": "10166590",
# "X-Binary-Size-Fastest-Dimension": "3110",
# "X-Binary-Size-Second-Dimension": "3269",
# "X-Binary-Size-Padding": "4095"
# }
# --> H:/Proxima2a_2019-04-05/RAW_DATA/C5_gel17_position5/C5_mesh_1_data.cbf/C5_mesh_1_data.cbf000164.dat
#        q_A^-1              I           sigma 
  1.105228e-03    1.176988e+00   5.870473e-01
  3.315685e-03    1.601840e+00   4.163465e-01
  5.526141e-03    1.239698e+00   2.832240e-01
  7.736597e-03    1.182518e+00   2.336814e-01
  9.947054e-03    1.389970e+00   2.233465e-01
  1.215751e-02    1.240296e+00   1.907793e-01
  1.436797e-02    1.172858e+00   1.706469e-01
  1.657842e-02    1.443501e+00   1.762191e-01
  1.878888e-02    1.401024e+00   1.630746e-01
  2.099934e-02    1.381302e+00   1.531956e-01
  2.320979e-02    1.375622e+00   1.454060e-01
  2.542025e-02    1.474714e+00   1.438677e-01
  2.763070e-02    1.646307e+00   1.457960e-01
  2.984116e-02    1.606161e+00   1.385706e-01
  3.205162e-02    1.602434e+00   1.335599e-01
  3.426207e-02    1.609241e+00   1.294450e-01
  3.647253e-02    1.467772e+00   1.198171e-01
  3.868299e-02    1.301909e+00   1.095812e-01
  4.089344e-02    1.303263e+00   1.066342e-01
  4.310390e-02    1.264875e+00   1.023170e-01
  4.531436e-02    1.547864e+00   1.103906e-01
  4.752481e-02    1.417256e+00   1.031438e-01
  4.973527e-02    1.407271e+00   1.004710e-01
  5.194572e-02    1.503287e+00   1.016071e-01
  5.415618e-02    1.631731e+00   1.036724e-01
  5.636664e-02    1.521770e+00   9.813859e-02
  5.857709e-02    1.394067e+00   9.214173e-02
  6.078755e-02    1.372133e+00   8.973367e-02
  6.299801e-02    1.562384e+00   9.405681e-02
  6.520846e-02    1.510314e+00   9.089594e-02
  6.741892e-02    1.435409e+00   8.714402e-02
  6.962938e-02    1.636502e+00   9.156395e-02
  7.183983e-02    1.646796e+00   9.042574e-02
  7.405029e-02    1.396076e+00   8.200416e-02
  7.626074e-02    1.349358e+00   7.944269e-02
  7.847120e-02    1.494428e+00   8.241599e-02
  8.068166e-02    1.562349e+00   8.310504e-02
  8.289211e-02    1.383669e+00   7.715834e-02
  8.510257e-02    1.461169e+00   7.825273e-02
  8.731303e-02    1.530134e+00   7.905503e-02
  8.952348e-02    1.438594e+00   7.570361e-02
  9.173394e-02    1.453219e+00   7.516219e-02
  9.394439e-02    1.396466e+00   7.280554e-02
  9.615485e-02    1.463912e+00   7.367960e-02
  9.836531e-02    1.469558e+00   7.298537e-02
  1.005758e-01    1.479994e+00   7.243515e-02
  1.027862e-01    1.484834e+00   7.176735e-02
  1.049967e-01    1.567050e+00   7.294598e-02
  1.072071e-01    1.492586e+00   7.045317e-02
  1.094176e-01    1.451347e+00   6.876666e-02
  1.116280e-01    1.523416e+00   6.975076e-02
  1.138385e-01    1.554808e+00   6.977689e-02
  1.160490e-01    1.561188e+00   6.924998e-02
  1.182594e-01    1.566567e+00   6.871631e-02
  1.204699e-01    1.599575e+00   6.879596e-02
  1.226803e-01    1.547224e+00   6.704570e-02
  1.248908e-01    1.630578e+00   6.821537e-02
  1.271012e-01    1.711068e+00   6.926709e-02
  1.293117e-01    1.632508e+00   6.707667e-02
  1.315222e-01    1.587501e+00   6.558585e-02
  1.337326e-01    1.641328e+00   6.613377e-02
  1.359431e-01    1.628250e+00   6.590834e-02
  1.381535e-01    1.642460e+00   6.708384e-02
  1.403640e-01    1.614555e+00   6.679872e-02
  1.425744e-01    1.662677e+00   6.789516e-02
  1.447849e-01    1.555176e+00   6.567873e-02
  1.469953e-01    1.634963e+00   6.730028e-02
  1.492058e-01    1.538711e+00   6.521334e-02
  1.514163e-01    1.510118e+00   6.449731e-02
  1.536267e-01    1.609354e+00   6.645277e-02
  1.558372e-01    1.675593e+00   6.765683e-02
  1.580476e-01    1.687058e+00   6.772320e-02
  1.602581e-01    1.602820e+00   6.584311e-02
  1.624685e-01    1.660446e+00   6.683280e-02
  1.646790e-01    1.665781e+00   6.674787e-02
  1.668895e-01    1.724109e+00   6.771029e-02
  1.690999e-01    1.631896e+00   6.567690e-02
  1.713104e-01    1.598356e+00   6.479674e-02
  1.735208e-01    1.740191e+00   6.740034e-02
  1.757313e-01    1.854724e+00   6.936496e-02
  1.779417e-01    1.768360e+00   6.750987e-02
  1.801522e-01    1.812638e+00   6.813211e-02
  1.823626e-01    1.844044e+00   6.849108e-02
  1.845731e-01    1.805300e+00   6.754822e-02
  1.867836e-01    1.965566e+00   7.024490e-02
  1.889940e-01    2.001256e+00   7.064817e-02
  1.912045e-01    2.016187e+00   7.067443e-02
  1.934149e-01    1.927806e+00   6.887675e-02
  1.956254e-01    1.911213e+00   6.835350e-02
  1.978358e-01    1.949873e+00   6.880475e-02
  2.000463e-01    2.094395e+00   7.107273e-02
  2.022568e-01    2.065163e+00   7.034337e-02
  2.044672e-01    2.048080e+00   6.981182e-02
  2.066777e-01    2.110845e+00   7.063825e-02
  2.088881e-01    1.992770e+00   6.840961e-02
  2.110986e-01    2.043252e+00   6.903311e-02
  2.133090e-01    2.077179e+00   6.937766e-02
  2.155195e-01    1.986292e+00   6.761780e-02
  2.177300e-01    1.987160e+00   6.710128e-02
  2.199404e-01    1.984033e+00   6.528171e-02
  2.221509e-01    1.965658e+00   6.391174e-02
  2.243613e-01    1.950465e+00   6.285718e-02
  2.265718e-01    2.000294e+00   6.295341e-02
  2.287822e-01    2.063738e+00   6.331108e-02
  2.309927e-01    2.079556e+00   6.297428e-02
  2.332031e-01    2.172468e+00   6.381481e-02
  2.354136e-01    2.169608e+00   6.325594e-02
  2.376241e-01    2.139943e+00   6.233438e-02
  2.398345e-01    2.169177e+00   6.229425e-02
  2.420450e-01    2.143122e+00   6.147648e-02
  2.442554e-01    2.243000e+00   6.245942e-02
  2.464659e-01    2.101267e+00   6.004797e-02
  2.486763e-01    2.112461e+00   5.981193e-02
  2.508868e-01    2.123982e+00   5.959646e-02
  2.530973e-01    2.267986e+00   6.120181e-02
  2.553077e-01    2.160363e+00   5.936977e-02
  2.575182e-01    2.089129e+00   5.803733e-02
  2.597286e-01    2.115845e+00   5.806772e-02
  2.619391e-01    2.048402e+00   5.680584e-02
  2.641495e-01    2.039747e+00   5.637195e-02
  2.663600e-01    2.051170e+00   5.621872e-02
  2.685704e-01    2.091511e+00   5.646111e-02
  2.707809e-01    2.108220e+00   5.638531e-02
  2.729914e-01    2.187170e+00   5.713208e-02
  2.752018e-01    2.173536e+00   5.665733e-02
  2.774123e-01    2.021156e+00   5.435611e-02
  2.796227e-01    2.050524e+00   5.447878e-02
  2.818332e-01    2.009887e+00   5.366718e-02
  2.840436e-01    1.989438e+00   5.313465e-02
  2.862541e-01    1.977084e+00   5.271479e-02
  2.884646e-01    2.025485e+00   5.310292e-02
  2.906750e-01    1.954825e+00   5.192110e-02
  2.928855e-01    1.896436e+00   5.090283e-02
  2.950959e-01    1.932547e+00   5.114912e-02
  2.973064e-01    1.964949e+00   5.134434e-02
  2.995168e-01    1.973833e+00   5.122721e-02
  3.017273e-01    1.950426e+00   5.069807e-02
  3.039377e-01    1.942097e+00   5.036817e-02
  3.061482e-01    1.921430e+00   4.988274e-02
  3.083587e-01    1.924990e+00   4.971280e-02
  3.105691e-01    1.936064e+00   4.964265e-02
  3.127796e-01    1.912483e+00   4.913197e-02
  3.149900e-01    1.964438e+00   4.958738e-02
  3.172005e-01    1.917329e+00   4.878891e-02
  3.194109e-01    1.851320e+00   4.774378e-02
  3.216214e-01    1.900069e+00   4.817092e-02
  3.238319e-01    1.918802e+00   4.821601e-02
  3.260423e-01    1.937682e+00   4.825966e-02
  3.282528e-01    1.902034e+00   4.762334e-02
  3.304632e-01    1.895598e+00   4.735851e-02
  3.326737e-01    1.888727e+00   4.708817e-02
  3.348841e-01    1.847402e+00   4.638958e-02
  3.370946e-01    1.854028e+00   4.629785e-02
  3.393050e-01    1.791646e+00   4.533990e-02
  3.415155e-01    1.809533e+00   4.539433e-02
  3.437260e-01    1.803362e+00   4.514891e-02
  3.459364e-01    1.808368e+00   4.504428e-02
  3.481469e-01    1.768414e+00   4.438129e-02
  3.503573e-01    1.838931e+00   4.509265e-02
  3.525678e-01    1.853654e+00   4.511146e-02
  3.547782e-01    1.790477e+00   4.417581e-02
  3.569887e-01    1.814849e+00   4.431785e-02
  3.591992e-01    1.806182e+00   4.405548e-02
  3.614096e-01    1.796459e+00   4.378440e-02
  3.636201e-01    1.850688e+00   4.428417e-02
  3.658305e-01    1.839520e+00   4.399974e-02
  3.680410e-01    1.868858e+00   4.419670e-02
  3.702514e-01    1.898913e+00   4.440082e-02
  3.724619e-01    1.879764e+00   4.402597e-02
  3.746724e-01    1.801815e+00   4.295968e-02
  3.768828e-01    1.780739e+00   4.256395e-02
  3.790933e-01    1.781919e+00   4.243933e-02
  3.813037e-01    1.762268e+00   4.206658e-02
  3.835142e-01    1.799667e+00   4.237097e-02
  3.857246e-01    1.809953e+00   4.235438e-02
  3.879351e-01    1.809936e+00   4.221709e-02
  3.901455e-01    1.813933e+00   4.212914e-02
  3.923560e-01    1.769768e+00   4.148083e-02
  3.945665e-01    1.812360e+00   4.184389e-02
  3.967769e-01    1.864074e+00   4.230380e-02
  3.989874e-01    1.786904e+00   4.128955e-02
  4.011978e-01    1.793808e+00   4.124202e-02
  4.034083e-01    1.807329e+00   4.127007e-02
  4.056187e-01    1.775017e+00   4.077350e-02
  4.078292e-01    1.808727e+00   4.103429e-02
  4.100397e-01    1.801510e+00   4.082732e-02
  4.122501e-01    1.802431e+00   4.071555e-02
  4.144606e-01    1.860746e+00   4.124629e-02
  4.166710e-01    1.831004e+00   4.079367e-02
  4.188815e-01    1.811771e+00   4.045898e-02
  4.210919e-01    1.830158e+00   4.054460e-02
  4.233024e-01    1.803498e+00   4.012983e-02
  4.255128e-01    1.774564e+00   3.969155e-02
  4.277233e-01    1.792279e+00   3.977455e-02
  4.299338e-01    1.805982e+00   3.981144e-02
  4.321442e-01    1.864961e+00   4.034051e-02
  4.343547e-01    1.809857e+00   3.962774e-02
  4.365651e-01    1.753107e+00   3.889066e-02
  4.387756e-01    1.821623e+00   3.953234e-02
  4.409860e-01    1.820861e+00   3.941460e-02
  4.431965e-01    1.788488e+00   3.895463e-02
  4.454070e-01    1.738792e+00   3.830275e-02
  4.476174e-01    1.748170e+00   3.830044e-02
  4.498279e-01    1.762289e+00   3.835018e-02
  4.520383e-01    1.736006e+00   3.795866e-02
  4.542488e-01    1.754782e+00   3.806048e-02
  4.564592e-01    1.699602e+00   3.735679e-02
  4.586697e-01    1.733995e+00   3.763271e-02
  4.608801e-01    1.781724e+00   3.804495e-02
  4.630906e-01    1.781624e+00   3.794315e-02
  4.653011e-01    1.763167e+00   3.764685e-02
  4.675115e-01    1.678242e+00   3.663228e-02
  4.697220e-01    1.697565e+00   3.674609e-02
  4.719324e-01    1.703661e+00   3.671679e-02
  4.741429e-01    1.738415e+00   3.699384e-02
  4.763533e-01    1.714200e+00   3.664111e-02
  4.785638e-01    1.729815e+00   3.671253e-02
  4.807743e-01    1.708388e+00   3.639166e-02
  4.829847e-01    1.720114e+00   3.642409e-02
  4.851952e-01    1.696898e+00   3.608591e-02
  4.874056e-01    1.665326e+00   3.565850e-02
  4.896161e-01    1.675783e+00   3.568155e-02
  4.918265e-01    1.682925e+00   3.566872e-02
  4.940370e-01    1.676303e+00   3.551059e-02
  4.962475e-01    1.699548e+00   3.566765e-02
  4.984579e-01    1.720230e+00   3.579558e-02
  5.006684e-01    1.735384e+00   3.586522e-02
  5.028788e-01    1.767740e+00   3.611035e-02
  5.050893e-01    1.680717e+00   3.512466e-02
  5.072997e-01    1.665763e+00   3.488360e-02
  5.095102e-01    1.677305e+00   3.492040e-02
  5.117206e-01    1.701393e+00   3.508663e-02
  5.139311e-01    1.678387e+00   3.476613e-02
  5.161416e-01    1.670579e+00   3.460320e-02
  5.183520e-01    1.674522e+00   3.456168e-02
  5.205625e-01    1.641177e+00   3.413568e-02
  5.227729e-01    1.652752e+00   3.417595e-02
  5.249834e-01    1.686611e+00   3.444409e-02
  5.271938e-01    1.710386e+00   3.460508e-02
  5.294043e-01    1.736028e+00   3.478306e-02
  5.316148e-01    1.755495e+00   3.489743e-02
  5.338252e-01    1.812046e+00   3.537403e-02
  5.360357e-01    1.780504e+00   3.498498e-02
  5.382461e-01    1.743096e+00   3.453726e-02
  5.404566e-01    1.770131e+00   3.472487e-02
  5.426670e-01    1.747232e+00   3.442180e-02
  5.448775e-01    1.721010e+00   3.408620e-02
  5.470879e-01    1.779855e+00   3.458673e-02
  5.492984e-01    1.780400e+00   3.451511e-02
  5.515089e-01    1.779036e+00   3.442536e-02
  5.537193e-01    1.812529e+00   3.467135e-02
  5.559298e-01    1.786307e+00   3.434415e-02
  5.581402e-01    1.810005e+00   3.449567e-02
  5.603507e-01    1.775415e+00   3.409012e-02
  5.625611e-01    1.794355e+00   3.419710e-02
  5.647716e-01    1.810592e+00   3.427688e-02
  5.669821e-01    1.782658e+00   3.393813e-02
  5.691925e-01    1.791294e+00   3.394720e-02
  5.714030e-01    1.788833e+00   3.385155e-02
  5.736134e-01    1.777375e+00   3.367119e-02
  5.758239e-01    1.741859e+00   3.326195e-02
  5.780343e-01    1.672668e+00   3.252565e-02
  5.802448e-01    1.710567e+00   3.282323e-02
  5.824552e-01    1.688455e+00   3.254196e-02
  5.846657e-01    1.655715e+00   3.215775e-02
  5.868762e-01    1.630300e+00   3.184354e-02
  5.890866e-01    1.644585e+00   3.191639e-02
  5.912971e-01    1.663373e+00   3.203173e-02
  5.935075e-01    1.637089e+00   3.171198e-02
  5.957180e-01    1.622805e+00   3.150854e-02
  5.979284e-01    1.611282e+00   3.133238e-02
  6.001389e-01    1.631046e+00   3.145976e-02
  6.023494e-01    1.660748e+00   3.168046e-02
  6.045598e-01    1.655990e+00   3.157065e-02
  6.067703e-01    1.655807e+00   3.150540e-02
  6.089807e-01    1.643617e+00   3.132614e-02
  6.111912e-01    1.651471e+00   3.133817e-02
  6.134016e-01    1.674933e+00   3.149705e-02
  6.156121e-01    1.691803e+00   3.159234e-02
  6.178226e-01    1.726056e+00   3.184740e-02
  6.200330e-01    1.673991e+00   3.130152e-02
  6.222435e-01    1.690559e+00   3.139373e-02
  6.244539e-01    1.679204e+00   3.122685e-02
  6.266644e-01    1.725052e+00   3.158855e-02
  6.288748e-01    1.694222e+00   3.124407e-02
  6.310853e-01    1.703760e+00   3.127104e-02
  6.332957e-01    1.747899e+00   3.161239e-02
  6.355062e-01    1.690866e+00   3.103197e-02
  6.377167e-01    1.688692e+00   3.095249e-02
  6.399271e-01    1.724459e+00   3.121864e-02
  6.421376e-01    1.678260e+00   3.073884e-02
  6.443480e-01    1.668066e+00   3.058704e-02
  6.465585e-01    1.684207e+00   3.067644e-02
  6.487689e-01    1.706213e+00   3.081791e-02
  6.509794e-01    1.683893e+00   3.055793e-02
  6.531899e-01    1.628894e+00   2.999823e-02
  6.554003e-01    1.609147e+00   2.975977e-02
  6.576108e-01    1.623406e+00   2.983568e-02
  6.598212e-01    1.646470e+00   2.999106e-02
  6.620317e-01    1.637087e+00   2.985004e-02
  6.642421e-01    1.635472e+00   2.978011e-02
  6.664526e-01    1.626786e+00   2.964622e-02
  6.686630e-01    1.586074e+00   2.921877e-02
  6.708735e-01    1.600278e+00   2.929546e-02
  6.730840e-01    1.638376e+00   2.958810e-02
  6.752944e-01    1.598617e+00   2.917374e-02
  6.775049e-01    1.608052e+00   2.920656e-02
  6.797153e-01    1.621264e+00   2.927321e-02
  6.819258e-01    1.605517e+00   2.907817e-02
  6.841362e-01    1.575276e+00   2.875120e-02
  6.863467e-01    1.569553e+00   2.864753e-02
  6.885572e-01    1.610445e+00   2.896632e-02
  6.907676e-01    1.628555e+00   2.907652e-02
  6.929781e-01    1.627743e+00   2.901761e-02
  6.951885e-01    1.633448e+00   2.901695e-02
  6.973990e-01    1.614513e+00   2.879725e-02
  6.996094e-01    1.622389e+00   2.881663e-02
  7.018199e-01    1.609680e+00   2.865316e-02
  7.040303e-01    1.601555e+00   2.853055e-02
  7.062408e-01    1.566582e+00   2.816790e-02
  7.084513e-01    1.574592e+00   2.819069e-02
  7.106617e-01    1.585703e+00   2.824082e-02
  7.128722e-01    1.584070e+00   2.817745e-02
  7.150826e-01    1.599838e+00   2.826853e-02
  7.172931e-01    1.577786e+00   2.802464e-02
  7.195035e-01    1.565257e+00   2.786515e-02
  7.217140e-01    1.575085e+00   2.800195e-02
  7.239245e-01    1.563117e+00   2.812128e-02
  7.261349e-01    1.567640e+00   2.827030e-02
  7.283454e-01    1.542697e+00   2.811615e-02
  7.305558e-01    1.554675e+00   2.827875e-02
  7.327663e-01    1.548387e+00   2.826364e-02
  7.349767e-01    1.562925e+00   2.841234e-02
  7.371872e-01    1.549730e+00   2.828102e-02
  7.393976e-01    1.559726e+00   2.835794e-02
  7.416081e-01    1.553985e+00   2.828959e-02
  7.438186e-01    1.576018e+00   2.834508e-02
  7.460290e-01    1.543495e+00   2.775978e-02
  7.482395e-01    1.538138e+00   2.754238e-02
  7.504499e-01    1.544010e+00   2.745996e-02
  7.526604e-01    1.579247e+00   2.765480e-02
  7.548708e-01    1.608220e+00   2.781698e-02
  7.570813e-01    1.544823e+00   2.721270e-02
  7.592918e-01    1.572796e+00   2.742281e-02
  7.615022e-01    1.538607e+00   2.708971e-02
  7.637127e-01    1.563337e+00   2.727387e-02
  7.659231e-01    1.568989e+00   2.729120e-02
  7.681336e-01    1.592607e+00   2.746404e-02
  7.703440e-01    1.575778e+00   2.728734e-02
  7.725545e-01    1.582956e+00   2.731844e-02
  7.747650e-01    1.617172e+00   2.757339e-02
  7.769754e-01    1.609743e+00   2.745673e-02
  7.791859e-01    1.588922e+00   2.722487e-02
  7.813963e-01    1.571229e+00   2.702039e-02
  7.836068e-01    1.589426e+00   2.712434e-02
  7.858172e-01    1.600392e+00   2.716686e-02
  7.880277e-01    1.586541e+00   2.699759e-02
  7.902381e-01    1.632444e+00   2.733559e-02
  7.924486e-01    1.630603e+00   2.726958e-02
  7.946591e-01    1.607189e+00   2.702468e-02
  7.968695e-01    1.643806e+00   2.728191e-02
  7.990800e-01    1.626794e+00   2.709188e-02
  8.012904e-01    1.634882e+00   2.711214e-02
  8.035009e-01    1.662303e+00   2.728993e-02
  8.057113e-01    1.710148e+00   2.763200e-02
  8.079218e-01    1.724671e+00   2.770121e-02
  8.101323e-01    1.687755e+00   2.735662e-02
  8.123427e-01    1.667994e+00   2.714962e-02
  8.145532e-01    1.707003e+00   2.741827e-02
  8.167636e-01    1.660767e+00   2.699893e-02
  8.189741e-01    1.632394e+00   2.672267e-02
  8.211845e-01    1.660119e+00   2.690347e-02
  8.233950e-01    1.689175e+00   2.709376e-02
  8.256054e-01    1.694968e+00   2.709522e-02
  8.278159e-01    1.629661e+00   2.652424e-02
  8.300264e-01    1.623110e+00   2.642798e-02
  8.322368e-01    1.625620e+00   2.640545e-02
  8.344473e-01    1.655385e+00   2.660250e-02
  8.366577e-01    1.637398e+00   2.641503e-02
  8.388682e-01    1.650572e+00   2.647867e-02
  8.410786e-01    1.652957e+00   2.645557e-02
  8.432891e-01    1.645507e+00   2.635397e-02
  8.454996e-01    1.639691e+00   2.626569e-02
  8.477100e-01    1.676531e+00   2.651697e-02
  8.499205e-01    1.684329e+00   2.653684e-02
  8.521309e-01    1.654579e+00   2.626042e-02
  8.543414e-01    1.648523e+00   2.617143e-02
  8.565518e-01    1.625917e+00   2.595090e-02
  8.587623e-01    1.610112e+00   2.578426e-02
  8.609727e-01    1.598644e+00   2.565242e-02
  8.631832e-01    1.637164e+00   2.591961e-02
  8.653937e-01    1.618505e+00   2.573188e-02
  8.676041e-01    1.622406e+00   2.572399e-02
  8.698146e-01    1.636876e+00   2.579897e-02
  8.720250e-01    1.612065e+00   2.556367e-02
  8.742355e-01    1.624932e+00   2.562642e-02
  8.764459e-01    1.621604e+00   2.556112e-02
  8.786564e-01    1.576233e+00   2.516342e-02
  8.808669e-01    1.588304e+00   2.522130e-02
  8.830773e-01    1.589279e+00   2.519104e-02
  8.852878e-01    1.602666e+00   2.525900e-02
  8.874982e-01    1.579362e+00   2.503828e-02
  8.897087e-01    1.584899e+00   2.504467e-02
  8.919191e-01    1.565211e+00   2.485127e-02
  8.941296e-01    1.586944e+00   2.498608e-02
  8.963401e-01    1.600479e+00   2.505599e-02
  8.985505e-01    1.569216e+00   2.477343e-02
  9.007610e-01    1.584891e+00   2.486032e-02
  9.029714e-01    1.570550e+00   2.471207e-02
  9.051819e-01    1.596505e+00   2.487824e-02
  9.073923e-01    1.627588e+00   2.508238e-02
  9.096028e-01    1.611596e+00   2.492381e-02
  9.118132e-01    1.610684e+00   2.488042e-02
  9.140237e-01    1.590649e+00   2.468867e-02
  9.162342e-01    1.574268e+00   2.452694e-02
  9.184446e-01    1.604165e+00   2.472292e-02
  9.206551e-01    1.588617e+00   2.456737e-02
  9.228655e-01    1.583741e+00   2.449456e-02
  9.250760e-01    1.643812e+00   2.491896e-02
  9.272864e-01    1.654962e+00   2.496853e-02
  9.294969e-01    1.668188e+00   2.503157e-02
  9.317074e-01    1.637056e+00   2.476184e-02
  9.339178e-01    1.622778e+00   2.461997e-02
  9.361283e-01    1.629046e+00   2.463108e-02
  9.383387e-01    1.641151e+00   2.468882e-02
  9.405492e-01    1.622319e+00   2.451248e-02
  9.427596e-01    1.631723e+00   2.454803e-02
  9.449701e-01    1.620969e+00   2.443376e-02
  9.471805e-01    1.619198e+00   2.438582e-02
  9.493910e-01    1.644264e+00   2.454010e-02
  9.516015e-01    1.693148e+00   2.486747e-02
  9.538119e-01    1.721753e+00   2.504228e-02
  9.560224e-01    1.730041e+00   2.506716e-02
  9.582328e-01    1.720630e+00   2.496535e-02
  9.604433e-01    1.724164e+00   2.495559e-02
  9.626537e-01    1.753472e+00   2.513294e-02
  9.648642e-01    1.766073e+00   2.518854e-02
  9.670747e-01    1.769053e+00   2.517503e-02
  9.692851e-01    1.789261e+00   2.528475e-02
  9.714956e-01    1.808437e+00   2.538404e-02
  9.737060e-01    1.803502e+00   2.531609e-02
  9.759165e-01    1.830378e+00   2.546804e-02
  9.781269e-01    1.850385e+00   2.557339e-02
  9.803374e-01    1.811685e+00   2.526953e-02
  9.825478e-01    1.810753e+00   2.522971e-02
  9.847583e-01    1.804510e+00   2.515197e-02
  9.869688e-01    1.750997e+00   2.474306e-02
  9.891792e-01    1.751552e+00   2.471409e-02
  9.913897e-01    1.761366e+00   2.474978e-02
  9.936001e-01    1.782354e+00   2.486421e-02
  9.958106e-01    1.843561e+00   2.525315e-02
  9.980210e-01    1.807582e+00   2.497311e-02
  1.000231e+00    1.704252e+00   2.438163e-02
  1.002442e+00    1.665307e+00   2.422950e-02
  1.004652e+00    1.612322e+00   2.390743e-02
  1.006863e+00    1.609929e+00   2.393926e-02
  1.009073e+00    1.618785e+00   2.404173e-02
  1.011284e+00    1.604592e+00   2.396813e-02
  1.013494e+00    1.613018e+00   2.405480e-02
  1.015705e+00    1.631056e+00   2.421178e-02
  1.017915e+00    1.612499e+00   2.409026e-02
  1.020126e+00    1.599752e+00   2.401106e-02
  1.022336e+00    1.644283e+00   2.435493e-02
  1.024547e+00    1.650580e+00   2.441313e-02
  1.026757e+00    1.600729e+00   2.405014e-02
  1.028967e+00    1.561463e+00   2.376105e-02
  1.031178e+00    1.559919e+00   2.375551e-02
  1.033388e+00    1.624659e+00   2.424864e-02
  1.035599e+00    1.704378e+00   2.484005e-02
  1.037809e+00    1.744755e+00   2.513610e-02
  1.040020e+00    1.594461e+00   2.403040e-02
  1.042230e+00    1.524617e+00   2.350013e-02
  1.044441e+00    1.495191e+00   2.327200e-02
  1.046651e+00    1.494894e+00   2.326986e-02
  1.048862e+00    1.519673e+00   2.346113e-02
  1.051072e+00    1.496872e+00   2.328211e-02
  1.053282e+00    1.545532e+00   2.365653e-02
  1.055493e+00    1.530359e+00   2.353579e-02
  1.057703e+00    1.530221e+00   2.353317e-02
  1.059914e+00    1.591953e+00   2.399875e-02
  1.062124e+00    1.605252e+00   2.409461e-02
  1.064335e+00    1.567828e+00   2.380856e-02
  1.066545e+00    1.513910e+00   2.338952e-02
  1.068756e+00    1.510324e+00   2.335802e-02
  1.070966e+00    1.525460e+00   2.346812e-02
  1.073177e+00    1.554326e+00   2.368291e-02
  1.075387e+00    1.498997e+00   2.325230e-02
  1.077597e+00    1.492028e+00   2.319088e-02
  1.079808e+00    1.478383e+00   2.295119e-02
  1.082018e+00    1.495865e+00   2.289530e-02
  1.084229e+00    1.518641e+00   2.295673e-02
  1.086439e+00    1.498554e+00   2.271569e-02
  1.088650e+00    1.445732e+00   2.223631e-02
  1.090860e+00    1.412658e+00   2.191382e-02
  1.093071e+00    1.436262e+00   2.203425e-02
  1.095281e+00    1.420367e+00   2.185527e-02
  1.097492e+00    1.418869e+00   2.178931e-02
  1.099702e+00    1.428767e+00   2.181401e-02
  1.101912e+00    1.448629e+00   2.191610e-02
  1.104123e+00    1.447235e+00   2.185715e-02
  1.106333e+00    1.425382e+00   2.164719e-02
  1.108544e+00    1.426744e+00   2.161333e-02
  1.110754e+00    1.390437e+00   2.129409e-02
  1.112965e+00    1.401527e+00   2.133857e-02
  1.115175e+00    1.394617e+00   2.124512e-02
  1.117386e+00    1.407488e+00   2.130376e-02
  1.119596e+00    1.381505e+00   2.106876e-02
  1.121807e+00    1.400392e+00   2.117357e-02
  1.124017e+00    1.415722e+00   2.125240e-02
  1.126228e+00    1.410974e+00   2.118091e-02
  1.128438e+00    1.371493e+00   2.084609e-02
  1.130648e+00    1.402954e+00   2.104944e-02
  1.132859e+00    1.417578e+00   2.112428e-02
  1.135069e+00    1.399812e+00   2.095667e-02
  1.137280e+00    1.370352e+00   2.070220e-02
  1.139490e+00    1.407316e+00   2.094624e-02
  1.141701e+00    1.377853e+00   2.069282e-02
  1.143911e+00    1.332210e+00   2.031591e-02
  1.146122e+00    1.355175e+00   2.045854e-02
  1.148332e+00    1.376414e+00   2.058640e-02
  1.150543e+00    1.398683e+00   2.072119e-02
  1.152753e+00    1.395600e+00   2.066730e-02
  1.154963e+00    1.368602e+00   2.043542e-02
  1.157174e+00    1.391560e+00   2.057574e-02
  1.159384e+00    1.389273e+00   2.052881e-02
  1.161595e+00    1.392233e+00   2.052055e-02
  1.163805e+00    1.439009e+00   2.083244e-02
  1.166016e+00    1.444149e+00   2.083936e-02
  1.168226e+00    1.495383e+00   2.117551e-02
  1.170437e+00    1.485223e+00   2.107363e-02
  1.172647e+00    1.437587e+00   2.070327e-02
  1.174858e+00    1.447751e+00   2.074737e-02
  1.177068e+00    1.505946e+00   2.113053e-02
  1.179278e+00    1.611472e+00   2.182725e-02
  1.181489e+00    1.607628e+00   2.177188e-02
  1.183699e+00    1.552178e+00   2.136364e-02
  1.185910e+00    1.518374e+00   2.110035e-02
  1.188120e+00    1.481388e+00   2.081390e-02
  1.190331e+00    1.417665e+00   2.033394e-02
  1.192541e+00    1.390772e+00   2.011239e-02
  1.194752e+00    1.382990e+00   2.002870e-02
  1.196962e+00    1.354501e+00   1.979556e-02
  1.199173e+00    1.357398e+00   1.979015e-02
  1.201383e+00    1.354871e+00   1.974452e-02
  1.203593e+00    1.319672e+00   1.946181e-02
  1.205804e+00    1.325294e+00   1.947753e-02
  1.208014e+00    1.340019e+00   1.955869e-02
  1.210225e+00    1.350553e+00   1.961008e-02
  1.212435e+00    1.348169e+00   1.956800e-02
  1.214646e+00    1.357769e+00   1.961135e-02
  1.216856e+00    1.377968e+00   1.973097e-02
  1.219067e+00    1.366729e+00   1.962571e-02
  1.221277e+00    1.352317e+00   1.949692e-02
  1.223488e+00    1.369581e+00   1.959503e-02
  1.225698e+00    1.356012e+00   1.947078e-02
  1.227909e+00    1.345762e+00   1.936690e-02
  1.230119e+00    1.400513e+00   1.972449e-02
  1.232329e+00    1.416298e+00   1.980389e-02
  1.234540e+00    1.372621e+00   1.946560e-02
  1.236750e+00    1.361315e+00   1.935487e-02
  1.238961e+00    1.356583e+00   1.929416e-02
  1.241171e+00    1.351953e+00   1.923702e-02
  1.243382e+00    1.350155e+00   1.920069e-02
  1.245592e+00    1.344755e+00   1.913822e-02
  1.247803e+00    1.312003e+00   1.888041e-02
  1.250013e+00    1.351475e+00   1.913872e-02
  1.252224e+00    1.356483e+00   1.915089e-02
  1.254434e+00    1.366075e+00   1.919456e-02
  1.256644e+00    1.368134e+00   1.918569e-02
  1.258855e+00    1.349643e+00   1.903232e-02
  1.261065e+00    1.335108e+00   1.890632e-02
  1.263276e+00    1.334553e+00   1.887956e-02
  1.265486e+00    1.334529e+00   1.885667e-02
  1.267697e+00    1.336438e+00   1.884722e-02
  1.269907e+00    1.356117e+00   1.896275e-02
  1.272118e+00    1.339531e+00   1.882395e-02
  1.274328e+00    1.343819e+00   1.883136e-02
  1.276539e+00    1.320921e+00   1.864770e-02
  1.278749e+00    1.317414e+00   1.860091e-02
  1.280959e+00    1.321476e+00   1.860726e-02
  1.283170e+00    1.354042e+00   1.881269e-02
  1.285380e+00    1.363055e+00   1.885264e-02
  1.287591e+00    1.365166e+00   1.884507e-02
  1.289801e+00    1.360266e+00   1.878993e-02
  1.292012e+00    1.354399e+00   1.873222e-02
  1.294222e+00    1.342961e+00   1.863678e-02
  1.296433e+00    1.347314e+00   1.865135e-02
  1.298643e+00    1.339388e+00   1.858002e-02
  1.300854e+00    1.354235e+00   1.866626e-02
  1.303064e+00    1.376473e+00   1.879949e-02
  1.305274e+00    1.347481e+00   1.857905e-02
  1.307485e+00    1.328721e+00   1.842787e-02
  1.309695e+00    1.361095e+00   1.862869e-02
  1.311906e+00    1.354144e+00   1.855933e-02
  1.314116e+00    1.362618e+00   1.859641e-02
  1.316327e+00    1.361754e+00   1.856873e-02
  1.318537e+00    1.384892e+00   1.870366e-02
  1.320748e+00    1.389725e+00   1.871440e-02
  1.322958e+00    1.380041e+00   1.862834e-02
  1.325169e+00    1.353948e+00   1.843035e-02
  1.327379e+00    1.340679e+00   1.831806e-02
  1.329589e+00    1.382781e+00   1.858214e-02
  1.331800e+00    1.408991e+00   1.873628e-02
  1.334010e+00    1.423758e+00   1.881301e-02
  1.336221e+00    1.389829e+00   1.856543e-02
  1.338431e+00    1.360186e+00   1.834542e-02
  1.340642e+00    1.369024e+00   1.846952e-02
  1.342852e+00    1.407990e+00   1.883335e-02
  1.345063e+00    1.383321e+00   1.871775e-02
  1.347273e+00    1.352574e+00   1.854382e-02
  1.349484e+00    1.345060e+00   1.851987e-02
  1.351694e+00    1.327271e+00   1.841951e-02
  1.353905e+00    1.330672e+00   1.846095e-02
  1.356115e+00    1.337667e+00   1.852440e-02
  1.358325e+00    1.314401e+00   1.837573e-02
  1.360536e+00    1.321071e+00   1.843379e-02
  1.362746e+00    1.323581e+00   1.846077e-02
  1.364957e+00    1.319541e+00   1.844015e-02
  1.367167e+00    1.345312e+00   1.862650e-02
  1.369378e+00    1.334822e+00   1.855973e-02
  1.371588e+00    1.351750e+00   1.868221e-02
  1.373799e+00    1.343683e+00   1.863005e-02
  1.376009e+00    1.317402e+00   1.845033e-02
  1.378220e+00    1.286336e+00   1.823396e-02
  1.380430e+00    1.302775e+00   1.835277e-02
  1.382640e+00    1.320747e+00   1.847984e-02
  1.384851e+00    1.299028e+00   1.832814e-02
  1.387061e+00    1.311596e+00   1.841688e-02
  1.389272e+00    1.295536e+00   1.830399e-02
  1.391482e+00    1.287455e+00   1.824613e-02
  1.393693e+00    1.297887e+00   1.831903e-02
  1.395903e+00    1.286806e+00   1.823917e-02
  1.398114e+00    1.288066e+00   1.824673e-02
  1.400324e+00    1.270689e+00   1.812108e-02
  1.402535e+00    1.317275e+00   1.844793e-02
  1.404745e+00    1.288095e+00   1.824009e-02
  1.406955e+00    1.288678e+00   1.824150e-02
  1.409166e+00    1.274350e+00   1.813652e-02
  1.411376e+00    1.246813e+00   1.793638e-02
  1.413587e+00    1.264252e+00   1.805759e-02
  1.415797e+00    1.249794e+00   1.795052e-02
  1.418008e+00    1.262151e+00   1.799731e-02
  1.420218e+00    1.242823e+00   1.771086e-02
  1.422429e+00    1.260217e+00   1.774937e-02
  1.424639e+00    1.281132e+00   1.783109e-02
  1.426850e+00    1.299545e+00   1.790343e-02
  1.429060e+00    1.265274e+00   1.761690e-02
  1.431270e+00    1.261585e+00   1.754702e-02
  1.433481e+00    1.271657e+00   1.757595e-02
  1.435691e+00    1.277197e+00   1.757566e-02
  1.437902e+00    1.262334e+00   1.743674e-02
  1.440112e+00    1.259216e+00   1.737999e-02
  1.442323e+00    1.290398e+00   1.756055e-02
  1.444533e+00    1.281265e+00   1.746562e-02
  1.446744e+00    1.276743e+00   1.740357e-02
  1.448954e+00    1.261009e+00   1.726589e-02
  1.451165e+00    1.255410e+00   1.719795e-02
  1.453375e+00    1.270711e+00   1.727436e-02
  1.455586e+00    1.276413e+00   1.728486e-02
  1.457796e+00    1.294851e+00   1.738146e-02
  1.460006e+00    1.276213e+00   1.722862e-02
  1.462217e+00    1.246220e+00   1.699897e-02
  1.464427e+00    1.268947e+00   1.712767e-02
  1.466638e+00    1.268179e+00   1.709718e-02
  1.468848e+00    1.268046e+00   1.707096e-02
  1.471059e+00    1.269860e+00   1.705808e-02
  1.473269e+00    1.253755e+00   1.692532e-02
  1.475480e+00    1.260640e+00   1.694804e-02
  1.477690e+00    1.277992e+00   1.704036e-02
  1.479901e+00    1.262660e+00   1.691406e-02
  1.482111e+00    1.250264e+00   1.680764e-02
  1.484321e+00    1.272614e+00   1.693404e-02
  1.486532e+00    1.280917e+00   1.696675e-02
  1.488742e+00    1.267430e+00   1.685451e-02
  1.490953e+00    1.263678e+00   1.680694e-02
  1.493163e+00    1.280490e+00   1.689595e-02
  1.495374e+00    1.252653e+00   1.668988e-02
  1.497584e+00    1.257696e+00   1.670183e-02
  1.499795e+00    1.248481e+00   1.661898e-02
  1.502005e+00    1.245226e+00   1.657574e-02
  1.504216e+00    1.241344e+00   1.652899e-02
  1.506426e+00    1.243325e+00   1.652149e-02
  1.508636e+00    1.244598e+00   1.650959e-02
  1.510847e+00    1.260419e+00   1.659235e-02
  1.513057e+00    1.260978e+00   1.657089e-02
  1.515268e+00    1.261511e+00   1.654861e-02
  1.517478e+00    1.261495e+00   1.652327e-02
  1.519689e+00    1.269903e+00   1.655313e-02
  1.521899e+00    1.246544e+00   1.637716e-02
  1.524110e+00    1.244500e+00   1.634343e-02
  1.526320e+00    1.283852e+00   1.657999e-02
  1.528531e+00    1.276855e+00   1.651479e-02
  1.530741e+00    1.255466e+00   1.635670e-02
  1.532951e+00    1.241938e+00   1.624880e-02
  1.535162e+00    1.243995e+00   1.634867e-02
  1.537372e+00    1.220125e+00   1.625718e-02
  1.539583e+00    1.229944e+00   1.635644e-02
  1.541793e+00    1.240195e+00   1.643139e-02
  1.544004e+00    1.252092e+00   1.651027e-02
  1.546214e+00    1.233073e+00   1.638291e-02
  1.548425e+00    1.233804e+00   1.638802e-02
  1.550635e+00    1.230274e+00   1.637418e-02
  1.552846e+00    1.242104e+00   1.646235e-02
  1.555056e+00    1.231912e+00   1.635343e-02
  1.557266e+00    1.209154e+00   1.609278e-02
  1.559477e+00    1.238263e+00   1.622635e-02
  1.561687e+00    1.243460e+00   1.622973e-02
  1.563898e+00    1.251133e+00   1.626251e-02
  1.566108e+00    1.271482e+00   1.637810e-02
  1.568319e+00    1.253256e+00   1.624463e-02
  1.570529e+00    1.246203e+00   1.617369e-02
  1.572740e+00    1.248416e+00   1.616039e-02
  1.574950e+00    1.255630e+00   1.618059e-02
  1.577161e+00    1.251349e+00   1.612743e-02
  1.579371e+00    1.250143e+00   1.609594e-02
  1.581582e+00    1.248167e+00   1.606342e-02
  1.583792e+00    1.250019e+00   1.605726e-02
  1.586002e+00    1.247993e+00   1.602660e-02
  1.588213e+00    1.256422e+00   1.606331e-02
  1.590423e+00    1.253682e+00   1.602564e-02
  1.592634e+00    1.260563e+00   1.604778e-02
  1.594844e+00    1.269432e+00   1.608251e-02
  1.597055e+00    1.262620e+00   1.601866e-02
  1.599265e+00    1.242874e+00   1.587217e-02
  1.601476e+00    1.228889e+00   1.576241e-02
  1.603686e+00    1.243368e+00   1.583521e-02
  1.605897e+00    1.213073e+00   1.562116e-02
  1.608107e+00    1.218648e+00   1.563760e-02
  1.610317e+00    1.225187e+00   1.566029e-02
  1.612528e+00    1.202425e+00   1.549521e-02
  1.614738e+00    1.203838e+00   1.548557e-02
  1.616949e+00    1.204015e+00   1.546791e-02
  1.619159e+00    1.210101e+00   1.548833e-02
  1.621370e+00    1.182486e+00   1.529242e-02
  1.623580e+00    1.170845e+00   1.519895e-02
  1.625791e+00    1.161170e+00   1.511812e-02
  1.628001e+00    1.166562e+00   1.513520e-02
  1.630212e+00    1.153332e+00   1.503166e-02
  1.632422e+00    1.160946e+00   1.506351e-02
  1.634632e+00    1.147452e+00   1.495865e-02
  1.636843e+00    1.148123e+00   1.494570e-02
  1.639053e+00    1.139938e+00   1.487529e-02
  1.641264e+00    1.148418e+00   1.491358e-02
  1.643474e+00    1.149394e+00   1.490263e-02
  1.645685e+00    1.139584e+00   1.482237e-02
  1.647895e+00    1.139939e+00   1.480819e-02
  1.650106e+00    1.119228e+00   1.465630e-02
  1.652316e+00    1.120179e+00   1.464622e-02
  1.654527e+00    1.123698e+00   1.465270e-02
  1.656737e+00    1.106269e+00   1.452227e-02
  1.658947e+00    1.112112e+00   1.454443e-02
  1.661158e+00    1.111494e+00   1.452423e-02
  1.663368e+00    1.114688e+00   1.452913e-02
  1.665579e+00    1.108249e+00   1.447104e-02
  1.667789e+00    1.074838e+00   1.423530e-02
  1.670000e+00    1.105167e+00   1.441930e-02
  1.672210e+00    1.093316e+00   1.432601e-02
  1.674421e+00    1.093848e+00   1.431426e-02
  1.676631e+00    1.095198e+00   1.430726e-02
  1.678842e+00    1.074998e+00   1.415911e-02
  1.681052e+00    1.080965e+00   1.418305e-02
  1.683263e+00    1.073495e+00   1.411893e-02
  1.685473e+00    1.062780e+00   1.403332e-02
  1.687683e+00    1.067241e+00   1.404741e-02
  1.689894e+00    1.083261e+00   1.413666e-02
  1.692104e+00    1.096448e+00   1.420740e-02
  1.694315e+00    1.086040e+00   1.412521e-02
  1.696525e+00    1.068137e+00   1.399316e-02
  1.698736e+00    1.045948e+00   1.383237e-02
  1.700946e+00    1.006718e+00   1.355573e-02
  1.703157e+00    1.026515e+00   1.367393e-02
  1.705367e+00    1.033292e+00   1.370464e-02
  1.707578e+00    1.028429e+00   1.365792e-02
  1.709788e+00    1.018024e+00   1.357474e-02
  1.711998e+00    1.022635e+00   1.359057e-02
  1.714209e+00    1.023478e+00   1.358184e-02
  1.716419e+00    1.018022e+00   1.353145e-02
  1.718630e+00    1.022932e+00   1.354982e-02
  1.720840e+00    1.015448e+00   1.348607e-02
  1.723051e+00    9.896724e-01   1.330019e-02
  1.725261e+00    9.988953e-01   1.334749e-02
  1.727472e+00    1.006077e+00   1.338130e-02
  1.729682e+00    1.018852e+00   1.345250e-02
  1.731893e+00    1.052138e+00   1.365626e-02
  1.734103e+00    1.176794e+00   1.442774e-02
  1.736313e+00    1.133798e+00   1.414693e-02
  1.738524e+00    1.032099e+00   1.348349e-02
  1.740734e+00    9.973706e-01   1.324100e-02
  1.742945e+00    9.720147e-01   1.305830e-02
  1.745155e+00    9.777226e-01   1.308324e-02
  1.747366e+00    9.620391e-01   1.296427e-02
  1.749576e+00    9.754865e-01   1.304094e-02
  1.751787e+00    9.717590e-01   1.300275e-02
  1.753997e+00    9.714746e-01   1.298751e-02
  1.756208e+00    9.771832e-01   1.301241e-02
  1.758418e+00    9.656637e-01   1.292241e-02
  1.760628e+00    9.675984e-01   1.292200e-02
  1.762839e+00    9.948826e-01   1.308948e-02
  1.765049e+00    9.998279e-01   1.310865e-02
  1.767260e+00    9.565084e-01   1.280872e-02
  1.769470e+00    9.283215e-01   1.260578e-02
  1.771681e+00    9.387043e-01   1.266302e-02
  1.773891e+00    9.365439e-01   1.263549e-02
  1.776102e+00    9.306582e-01   1.258296e-02
  1.778312e+00    9.519773e-01   1.271348e-02
  1.780523e+00    9.857338e-01   1.292387e-02
  1.782733e+00    1.145406e+00   1.391729e-02
  1.784944e+00    1.137617e+00   1.385580e-02
  1.787154e+00    9.836072e-01   1.287091e-02
  1.789364e+00    9.643680e-01   1.273168e-02
  1.791575e+00    9.841986e-01   1.284899e-02
  1.793785e+00    9.949295e-01   1.290600e-02
  1.795996e+00    9.585684e-01   1.265518e-02
  1.798206e+00    9.777802e-01   1.276845e-02
  1.800417e+00    9.821424e-01   1.278379e-02
  1.802627e+00    9.408531e-01   1.250009e-02
  1.804838e+00    9.147096e-01   1.231305e-02
  1.807048e+00    9.005094e-01   1.220432e-02
  1.809259e+00    9.031357e-01   1.220854e-02
  1.811469e+00    9.646146e-01   1.260175e-02
  1.813679e+00    9.430873e-01   1.244508e-02
  1.815890e+00    8.872489e-01   1.205635e-02
  1.818100e+00    9.038763e-01   1.215363e-02
  1.820311e+00    8.832189e-01   1.199927e-02
  1.822521e+00    8.932598e-01   1.205239e-02
  1.824732e+00    9.727174e-01   1.256152e-02
  1.826942e+00    9.939299e-01   1.268473e-02
  1.829153e+00    9.206359e-01   1.219619e-02
  1.831363e+00    8.953902e-01   1.201564e-02
  1.833574e+00    9.330280e-01   1.225356e-02
  1.835784e+00    9.816362e-01   1.255663e-02
  1.837994e+00    9.376113e-01   1.225976e-02
  1.840205e+00    8.729062e-01   1.181800e-02
  1.842415e+00    8.553503e-01   1.168688e-02
  1.844626e+00    8.452982e-01   1.160663e-02
  1.846836e+00    8.498107e-01   1.162625e-02
  1.849047e+00    8.396504e-01   1.154511e-02
  1.851257e+00    8.358719e-01   1.150969e-02
  1.853468e+00    8.449844e-01   1.156354e-02
  1.855678e+00    8.529826e-01   1.160929e-02
  1.857889e+00    8.418632e-01   1.152497e-02
  1.860099e+00    8.582345e-01   1.162784e-02
  1.862309e+00    8.567389e-01   1.160921e-02
  1.864520e+00    8.520346e-01   1.156873e-02
  1.866730e+00    8.540791e-01   1.157322e-02
  1.868941e+00    8.581859e-01   1.159003e-02
  1.871151e+00    8.515494e-01   1.153375e-02
  1.873362e+00    8.375174e-01   1.142706e-02
  1.875572e+00    8.423808e-01   1.144929e-02
  1.877783e+00    8.583952e-01   1.154611e-02
  1.879993e+00    8.751470e-01   1.164690e-02
  1.882204e+00    8.539982e-01   1.149435e-02
  1.884414e+00    8.410727e-01   1.139598e-02
  1.886624e+00    8.453975e-01   1.141415e-02
  1.888835e+00    8.456574e-01   1.140493e-02
  1.891045e+00    8.337027e-01   1.131316e-02
  1.893256e+00    8.392672e-01   1.133977e-02
  1.895466e+00    8.457988e-01   1.137258e-02
  1.897677e+00    8.340974e-01   1.128273e-02
  1.899887e+00    8.226833e-01   1.119436e-02
  1.902098e+00    8.518563e-01   1.138012e-02
  1.904308e+00    8.381513e-01   1.127759e-02
  1.906519e+00    8.578176e-01   1.139810e-02
  1.908729e+00    8.553315e-01   1.137082e-02
  1.910940e+00    8.466669e-01   1.130181e-02
  1.913150e+00    8.256973e-01   1.115041e-02
  1.915360e+00    8.410793e-01   1.124304e-02
  1.917571e+00    8.350236e-01   1.119155e-02
  1.919781e+00    8.310257e-01   1.115398e-02
  1.921992e+00    8.328071e-01   1.115523e-02
  1.924202e+00    8.166000e-01   1.103539e-02
  1.926413e+00    8.111093e-01   1.098795e-02
  1.928623e+00    8.164407e-01   1.101345e-02
  1.930834e+00    8.240603e-01   1.105423e-02
  1.933044e+00    7.946090e-01   1.084435e-02
  1.935255e+00    7.863248e-01   1.077749e-02
  1.937465e+00    7.920884e-01   1.080661e-02
  1.939675e+00    7.679240e-01   1.062993e-02
  1.941886e+00    7.785447e-01   1.069306e-02
  1.944096e+00    7.928301e-01   1.078060e-02
  1.946307e+00    7.888831e-01   1.074349e-02
  1.948517e+00    7.910241e-01   1.074766e-02
  1.950728e+00    7.968993e-01   1.077726e-02
  1.952938e+00    7.960580e-01   1.076151e-02
  1.955149e+00    8.026019e-01   1.079535e-02
  1.957359e+00    8.025199e-01   1.078474e-02
  1.959570e+00    7.842078e-01   1.065018e-02
  1.961780e+00    7.830473e-01   1.063244e-02
  1.963990e+00    7.867966e-01   1.064779e-02
  1.966201e+00    7.809941e-01   1.059844e-02
  1.968411e+00    7.848847e-01   1.061470e-02
  1.970622e+00    7.545440e-01   1.039764e-02
  1.972832e+00    7.776414e-01   1.054565e-02
  1.975043e+00    7.837777e-01   1.057716e-02
  1.977253e+00    7.832001e-01   1.056332e-02
  1.979464e+00    7.772337e-01   1.051303e-02
  1.981674e+00    7.840002e-01   1.054841e-02
  1.983885e+00    7.733418e-01   1.046651e-02
  1.986095e+00    7.644461e-01   1.039652e-02
  1.988305e+00    7.780110e-01   1.047848e-02
  1.990516e+00    7.717748e-01   1.042651e-02
  1.992726e+00    7.788877e-01   1.046478e-02
  1.994937e+00    7.725298e-01   1.041189e-02
  1.997147e+00    7.661486e-01   1.035912e-02
  1.999358e+00    7.813879e-01   1.045174e-02
  2.001568e+00    7.749538e-01   1.039781e-02
  2.003779e+00    7.674431e-01   1.033542e-02
  2.005989e+00    7.578503e-01   1.025871e-02
  2.008200e+00    7.696999e-01   1.032707e-02
  2.010410e+00    7.715930e-01   1.032800e-02
  2.012621e+00    7.766855e-01   1.035027e-02
  2.014831e+00    7.599871e-01   1.022698e-02
  2.017041e+00    7.726572e-01   1.030145e-02
  2.019252e+00    7.769652e-01   1.032010e-02
  2.021462e+00    7.771023e-01   1.031143e-02
  2.023673e+00    7.536813e-01   1.014553e-02
  2.025883e+00    7.555683e-01   1.014875e-02
  2.028094e+00    7.469229e-01   1.008098e-02
  2.030304e+00    7.542378e-01   1.012072e-02
  2.032515e+00    7.505553e-01   1.008677e-02
  2.034725e+00    7.568741e-01   1.011969e-02
  2.036936e+00    7.600508e-01   1.013157e-02
  2.039146e+00    7.632501e-01   1.014325e-02
  2.041356e+00    7.480294e-01   1.003203e-02
  2.043567e+00    7.468246e-01   1.001468e-02
  2.045777e+00    7.556751e-01   1.006460e-02
  2.047988e+00    7.410575e-01   9.957518e-03
  2.050198e+00    7.469187e-01   9.988396e-03
  2.052409e+00    7.397147e-01   9.932535e-03
  2.054619e+00    7.413285e-01   9.936043e-03
  2.056830e+00    7.413146e-01   9.928817e-03
  2.059040e+00    7.408144e-01   9.918002e-03
  2.061251e+00    7.347667e-01   9.870273e-03
  2.063461e+00    7.355179e-01   9.867778e-03
  2.065671e+00    7.427949e-01   9.907792e-03
  2.067882e+00    7.409564e-01   9.886572e-03
  2.070092e+00    7.381607e-01   9.858753e-03
  2.072303e+00    7.328803e-01   9.814381e-03
  2.074513e+00    7.446624e-01   9.883631e-03
  2.076724e+00    7.418523e-01   9.855531e-03
  2.078934e+00    7.434967e-01   9.857434e-03
  2.081145e+00    7.485639e-01   9.881857e-03
  2.083355e+00    7.366546e-01   9.793789e-03
  2.085566e+00    7.510478e-01   9.880037e-03
  2.087776e+00    7.349245e-01   9.763937e-03
  2.089986e+00    7.299237e-01   9.721930e-03
  2.092197e+00    7.242680e-01   9.675314e-03
  2.094407e+00    7.336264e-01   9.728394e-03
  2.096618e+00    7.582216e-01   9.881103e-03
  2.098828e+00    7.666058e-01   9.926077e-03
  2.101039e+00    7.442272e-01   9.771065e-03
  2.103249e+00    7.310053e-01   9.675226e-03
  2.105460e+00    7.305211e-01   9.662986e-03
  2.107670e+00    7.250234e-01   9.617859e-03
  2.109881e+00    7.197446e-01   9.573649e-03
  2.112091e+00    7.361220e-01   9.672918e-03
  2.114301e+00    7.223147e-01   9.573013e-03
  2.116512e+00    7.039950e-01   9.442142e-03
  2.118722e+00    7.070612e-01   9.453956e-03
  2.120933e+00    7.180202e-01   9.518089e-03
  2.123143e+00    7.111825e-01   9.463812e-03
  2.125354e+00    7.091600e-01   9.441845e-03
  2.127564e+00    7.150922e-01   9.472553e-03
  2.129775e+00    7.001069e-01   9.364142e-03
  2.131985e+00    6.925718e-01   9.304689e-03
  2.134196e+00    7.125894e-01   9.429599e-03
  2.136406e+00    7.063464e-01   9.379522e-03
  2.138617e+00    7.065288e-01   9.372282e-03
  2.140827e+00    7.042485e-01   9.373154e-03
  2.143037e+00    7.106340e-01   9.461154e-03
  2.145248e+00    7.117140e-01   9.490415e-03
  2.147458e+00    7.042448e-01   9.455644e-03
  2.149669e+00    7.094975e-01   9.502726e-03
  2.151879e+00    7.121892e-01   9.530035e-03
  2.154090e+00    7.204472e-01   9.592540e-03
  2.156300e+00    7.079147e-01   9.515389e-03
  2.158511e+00    7.014846e-01   9.477376e-03
  2.160721e+00    7.053206e-01   9.508099e-03
  2.162932e+00    6.935698e-01   9.432298e-03
  2.165142e+00    6.873486e-01   9.392891e-03
  2.167352e+00    6.812458e-01   9.353981e-03
  2.169563e+00    6.703209e-01   9.280607e-03
  2.171773e+00    6.818410e-01   9.362407e-03
  2.173984e+00    7.068973e-01   9.534325e-03
  2.176194e+00    6.971814e-01   9.469778e-03
  2.178405e+00    7.032947e-01   9.511916e-03
  2.180615e+00    6.837815e-01   9.379709e-03
  2.182826e+00    6.844854e-01   9.385211e-03
  2.185036e+00    6.786490e-01   9.345166e-03
  2.187247e+00    6.568326e-01   9.193682e-03
  2.189457e+00    6.759184e-01   9.325868e-03
  2.191667e+00    6.953229e-01   9.458627e-03
  2.193878e+00    6.859293e-01   9.393964e-03
  2.196088e+00    6.770021e-01   9.331940e-03
  2.198299e+00    6.895592e-01   9.416996e-03
  2.200509e+00    6.842036e-01   9.379295e-03
  2.202720e+00    7.017483e-01   9.497629e-03
  2.204930e+00    6.830221e-01   9.368808e-03
  2.207141e+00    6.798558e-01   9.345941e-03
  2.209351e+00    6.848335e-01   9.378215e-03
  2.211562e+00    6.801215e-01   9.344271e-03
  2.213772e+00    6.829338e-01   9.307834e-03
  2.215982e+00    6.894672e-01   9.307609e-03
  2.218193e+00    6.749487e-01   9.179467e-03
  2.220403e+00    6.863269e-01   9.231722e-03
  2.222614e+00    6.825554e-01   9.185248e-03
  2.224824e+00    6.686551e-01   9.071913e-03
  2.227035e+00    6.651835e-01   9.030999e-03
  2.229245e+00    6.612670e-01   8.987514e-03
  2.231456e+00    6.742585e-01   9.059738e-03
  2.233666e+00    6.689861e-01   9.009173e-03
  2.235877e+00    6.641836e-01   8.962587e-03
  2.238087e+00    6.563884e-01   8.896479e-03
  2.240298e+00    6.673863e-01   8.956949e-03
  2.242508e+00    6.725579e-01   8.976425e-03
  2.244718e+00    6.708944e-01   8.949486e-03
  2.246929e+00    6.716682e-01   8.940185e-03
  2.249139e+00    6.740453e-01   8.943537e-03
  2.251350e+00    6.864620e-01   9.013665e-03
  2.253560e+00    7.013361e-01   9.098927e-03
  2.255771e+00    7.147638e-01   9.173803e-03
  2.257981e+00    7.184677e-01   9.185933e-03
  2.260192e+00    7.122748e-01   9.134735e-03
  2.262402e+00    7.451634e-01   9.331751e-03
  2.264613e+00    7.891115e-01   9.591176e-03
  2.266823e+00    7.835712e-01   9.546193e-03
  2.269033e+00    7.298608e-01   9.202311e-03
  2.271244e+00    7.005429e-01   9.004893e-03
  2.273454e+00    7.296167e-01   9.179040e-03
  2.275665e+00    7.948932e-01   9.569589e-03
  2.277875e+00    7.611941e-01   9.353942e-03
  2.280086e+00    6.820050e-01   8.843809e-03
  2.282296e+00    6.669914e-01   8.736429e-03
  2.284507e+00    6.653022e-01   8.715184e-03
  2.286717e+00    6.733439e-01   8.758125e-03
  2.288928e+00    6.622638e-01   8.675865e-03
  2.291138e+00    6.549300e-01   8.618284e-03
  2.293348e+00    6.443186e-01   8.538716e-03
  2.295559e+00    6.501272e-01   8.567833e-03
  2.297769e+00    6.691644e-01   8.683034e-03
  2.299980e+00    6.609286e-01   8.620051e-03
  2.302190e+00    6.550190e-01   8.572280e-03
  2.304401e+00    6.558619e-01   8.568453e-03
  2.306611e+00    6.520865e-01   8.534557e-03
  2.308822e+00    6.490805e-01   8.506483e-03
  2.311032e+00    6.455653e-01   8.476997e-03
  2.313243e+00    6.374519e-01   8.417357e-03
  2.315453e+00    6.462812e-01   8.467871e-03
  2.317663e+00    6.392151e-01   8.412403e-03
  2.319874e+00    6.519338e-01   8.486910e-03
  2.322084e+00    6.381716e-01   8.387947e-03
  2.324295e+00    6.333539e-01   8.348078e-03
  2.326505e+00    6.354451e-01   8.352856e-03
  2.328716e+00    6.403279e-01   8.376348e-03
  2.330926e+00    6.410420e-01   8.372254e-03
  2.333137e+00    6.407424e-01   8.361922e-03
  2.335347e+00    6.401918e-01   8.349458e-03
  2.337558e+00    6.517648e-01   8.416300e-03
  2.339768e+00    6.447840e-01   8.362486e-03
  2.341979e+00    6.461676e-01   8.363061e-03
  2.344189e+00    6.253181e-01   8.218706e-03
  2.346399e+00    6.376309e-01   8.290718e-03
  2.348610e+00    6.311873e-01   8.240303e-03
  2.350820e+00    6.401616e-01   8.290448e-03
  2.353031e+00    6.290281e-01   8.209808e-03
  2.355241e+00    6.291944e-01   8.202841e-03
  2.357452e+00    6.399370e-01   8.264117e-03
  2.359662e+00    6.312772e-01   8.199793e-03
  2.361873e+00    6.230492e-01   8.137980e-03
  2.364083e+00    6.344844e-01   8.204316e-03
  2.366294e+00    6.338207e-01   8.191848e-03
  2.368504e+00    6.403948e-01   8.226092e-03
  2.370714e+00    6.368526e-01   8.195149e-03
  2.372925e+00    6.360897e-01   8.182143e-03
  2.375135e+00    6.270440e-01   8.115676e-03
  2.377346e+00    6.281965e-01   8.115150e-03
  2.379556e+00    6.311638e-01   8.126356e-03
  2.381767e+00    6.187683e-01   8.038303e-03
  2.383977e+00    6.243131e-01   8.066294e-03
  2.386188e+00    6.197377e-01   8.028760e-03
  2.388398e+00    6.228094e-01   8.040642e-03
  2.390609e+00    6.310375e-01   8.085769e-03
  2.392819e+00    6.294414e-01   8.067693e-03
  2.395029e+00    6.240020e-01   8.025040e-03
  2.397240e+00    6.245648e-01   8.020732e-03
  2.399450e+00    6.033618e-01   7.875667e-03
  2.401661e+00    5.954235e-01   7.816108e-03
  2.403871e+00    6.184360e-01   7.957892e-03
  2.406082e+00    6.202214e-01   7.961901e-03
  2.408292e+00    6.121730e-01   7.902261e-03
  2.410503e+00    5.994123e-01   7.812032e-03
  2.412713e+00    6.014201e-01   7.817338e-03
  2.414924e+00    6.012995e-01   7.809102e-03
  2.417134e+00    6.030977e-01   7.813137e-03
  2.419344e+00    6.021900e-01   7.799872e-03
  2.421555e+00    5.969743e-01   7.758519e-03
  2.423765e+00    6.103598e-01   7.837567e-03
  2.425976e+00    6.062535e-01   7.803316e-03
  2.428186e+00    5.799357e-01   7.624958e-03
  2.430397e+00    5.800260e-01   7.618166e-03
  2.432607e+00    5.987933e-01   7.733143e-03
  2.434818e+00    5.937421e-01   7.692925e-03
  2.437028e+00    5.896461e-01   7.659229e-03
  2.439239e+00    5.902311e-01   7.655379e-03
  2.441449e+00    5.810316e-01   7.588371e-03
  2.443659e+00    5.674165e-01   7.491738e-03
  2.445870e+00    5.635404e-01   7.478066e-03
  2.448080e+00    5.770206e-01   7.601592e-03
  2.450291e+00    5.858814e-01   7.676496e-03
  2.452501e+00    5.578419e-01   7.501518e-03
  2.454712e+00    5.639639e-01   7.550936e-03
  2.456922e+00    5.667204e-01   7.575952e-03
  2.459133e+00    5.666388e-01   7.580846e-03
  2.461343e+00    5.673238e-01   7.589771e-03
  2.463554e+00    5.649354e-01   7.577255e-03
  2.465764e+00    5.565524e-01   7.523952e-03
  2.467975e+00    5.566128e-01   7.526628e-03
  2.470185e+00    5.547944e-01   7.516564e-03
  2.472395e+00    5.670829e-01   7.600592e-03
  2.474606e+00    5.472305e-01   7.467948e-03
  2.476816e+00    5.474885e-01   7.470395e-03
  2.479027e+00    5.511582e-01   7.496262e-03
  2.481237e+00    5.590914e-01   7.550302e-03
  2.483448e+00    5.348930e-01   7.385401e-03
  2.485658e+00    5.465095e-01   7.464996e-03
  2.487869e+00    5.514913e-01   7.499009e-03
  2.490079e+00    5.434182e-01   7.443395e-03
  2.492290e+00    5.444170e-01   7.449790e-03
  2.494500e+00    5.456446e-01   7.457452e-03
  2.496710e+00    5.521103e-01   7.500791e-03
  2.498921e+00    5.479064e-01   7.471190e-03
  2.501131e+00    5.493785e-01   7.480244e-03
  2.503342e+00    5.435506e-01   7.439211e-03
  2.505552e+00    5.239004e-01   7.302352e-03
  2.507763e+00    5.381957e-01   7.399894e-03
  2.509973e+00    5.270227e-01   7.321298e-03
  2.512184e+00    5.198498e-01   7.269688e-03
  2.514394e+00    5.220067e-01   7.275436e-03
  2.516605e+00    5.346961e-01   7.315897e-03
  2.518815e+00    5.322821e-01   7.270897e-03
  2.521025e+00    5.237443e-01   7.191396e-03
  2.523236e+00    5.432259e-01   7.305646e-03
  2.525446e+00    5.338805e-01   7.226811e-03
  2.527657e+00    5.341406e-01   7.213844e-03
  2.529867e+00    5.325065e-01   7.188526e-03
  2.532078e+00    5.346900e-01   7.188056e-03
  2.534288e+00    5.247782e-01   7.107267e-03
  2.536499e+00    5.171439e-01   7.043498e-03
  2.538709e+00    5.252494e-01   7.087485e-03
  2.540920e+00    5.256155e-01   7.079288e-03
  2.543130e+00    5.305881e-01   7.102279e-03
  2.545340e+00    5.236449e-01   7.045588e-03
  2.547551e+00    5.253323e-01   7.046956e-03
  2.549761e+00    5.305644e-01   7.072324e-03
  2.551972e+00    5.191408e-01   6.986429e-03
  2.554182e+00    5.176440e-01   6.967211e-03
  2.556393e+00    5.248852e-01   7.006642e-03
  2.558603e+00    5.201591e-01   6.965961e-03
  2.560814e+00    5.142354e-01   6.917524e-03
  2.563024e+00    5.305213e-01   7.017524e-03
  2.565235e+00    5.258098e-01   6.976745e-03
  2.567445e+00    5.237113e-01   6.953205e-03
  2.569656e+00    5.109029e-01   6.857977e-03
  2.571866e+00    5.152372e-01   6.877660e-03
  2.574076e+00    5.131117e-01   6.854236e-03
  2.576287e+00    5.186021e-01   6.882458e-03
  2.578497e+00    5.195065e-01   6.880592e-03
  2.580708e+00    5.101770e-01   6.810484e-03
  2.582918e+00    5.146118e-01   6.832246e-03
  2.585129e+00    5.051829e-01   6.761718e-03
  2.587339e+00    5.098491e-01   6.785188e-03
  2.589550e+00    5.153278e-01   6.814000e-03
  2.591760e+00    5.245742e-01   6.867015e-03
  2.593971e+00    5.120579e-01   6.777087e-03
  2.596181e+00    5.125054e-01   6.773801e-03
  2.598391e+00    5.046260e-01   6.716384e-03
  2.600602e+00    5.131584e-01   6.766977e-03
  2.602812e+00    5.157468e-01   6.776449e-03
  2.605023e+00    5.196264e-01   6.794640e-03
  2.607233e+00    5.106401e-01   6.728488e-03
  2.609444e+00    5.077927e-01   6.702450e-03
  2.611654e+00    5.158889e-01   6.748287e-03
  2.613865e+00    5.207489e-01   6.772867e-03
  2.616075e+00    5.207265e-01   6.765483e-03
  2.618286e+00    5.258290e-01   6.791415e-03
  2.620496e+00    5.134545e-01   6.704275e-03
  2.622706e+00    5.066159e-01   6.653730e-03
  2.624917e+00    4.971960e-01   6.585765e-03
  2.627127e+00    5.107949e-01   6.669447e-03
  2.629338e+00    5.040230e-01   6.619107e-03
  2.631548e+00    5.151043e-01   6.685236e-03
  2.633759e+00    5.029849e-01   6.598973e-03
  2.635969e+00    5.131453e-01   6.658515e-03
  2.638180e+00    5.120794e-01   6.644555e-03
  2.640390e+00    4.968219e-01   6.538257e-03
  2.642601e+00    4.868969e-01   6.466011e-03
  2.644811e+00    4.965787e-01   6.522967e-03
  2.647021e+00    4.878874e-01   6.459129e-03
  2.649232e+00    4.926083e-01   6.483632e-03
  2.651442e+00    4.941795e-01   6.487493e-03
  2.653653e+00    5.004809e-01   6.521923e-03
  2.655863e+00    4.962195e-01   6.487433e-03
  2.658074e+00    5.012677e-01   6.513713e-03
  2.660284e+00    4.983509e-01   6.488377e-03
  2.662495e+00    4.903286e-01   6.429229e-03
  2.664705e+00    4.993880e-01   6.481769e-03
  2.666916e+00    4.986299e-01   6.470362e-03
  2.669126e+00    4.978513e-01   6.458860e-03
  2.671337e+00    4.908888e-01   6.406975e-03
  2.673547e+00    4.882719e-01   6.383524e-03
  2.675757e+00    4.949384e-01   6.420525e-03
  2.677968e+00    4.926703e-01   6.399274e-03
  2.680178e+00    4.938542e-01   6.400556e-03
  2.682389e+00    4.910432e-01   6.375938e-03
  2.684599e+00    4.944312e-01   6.391698e-03
  2.686810e+00    4.935912e-01   6.379644e-03
  2.689020e+00    4.916610e-01   6.360885e-03
  2.691231e+00    4.951282e-01   6.376937e-03
  2.693441e+00    4.839008e-01   6.298132e-03
  2.695652e+00    4.947018e-01   6.361485e-03
  2.697862e+00    4.824910e-01   6.276187e-03
  2.700072e+00    4.720353e-01   6.201850e-03
  2.702283e+00    4.863342e-01   6.288865e-03
  2.704493e+00    5.045639e-01   6.399266e-03
  2.706704e+00    4.896787e-01   6.297758e-03
  2.708914e+00    4.869058e-01   6.273947e-03
  2.711125e+00    4.815333e-01   6.233033e-03
  2.713335e+00    4.803705e-01   6.219444e-03
  2.715546e+00    4.951276e-01   6.307737e-03
  2.717756e+00    4.993600e-01   6.328689e-03
  2.719967e+00    4.810379e-01   6.205320e-03
  2.722177e+00    4.813617e-01   6.201301e-03
  2.724387e+00    4.877715e-01   6.236337e-03
  2.726598e+00    4.812199e-01   6.188284e-03
  2.728808e+00    4.859827e-01   6.212673e-03
  2.731019e+00    4.883009e-01   6.221323e-03
  2.733229e+00    4.906666e-01   6.230545e-03
  2.735440e+00    4.801451e-01   6.157127e-03
  2.737650e+00    4.852827e-01   6.183956e-03
  2.739861e+00    4.828545e-01   6.162398e-03
  2.742071e+00    4.867606e-01   6.181509e-03
  2.744282e+00    4.809703e-01   6.138405e-03
  2.746492e+00    4.762185e-01   6.102000e-03
  2.748702e+00    4.820674e-01   6.133456e-03
  2.750913e+00    4.785724e-01   6.105400e-03
  2.753123e+00    4.793011e-01   6.103955e-03
  2.755334e+00    4.935114e-01   6.187623e-03
  2.757544e+00    4.752644e-01   6.066448e-03
  2.759755e+00    4.813201e-01   6.099085e-03
  2.761965e+00    4.682004e-01   6.009472e-03
  2.764176e+00    4.886542e-01   6.133298e-03
  2.766386e+00    4.791635e-01   6.067667e-03
  2.768597e+00    4.716581e-01   6.014144e-03
  2.770807e+00    4.633346e-01   5.955055e-03
  2.773017e+00    4.709446e-01   5.997835e-03
  2.775228e+00    4.812896e-01   6.057555e-03
  2.777438e+00    4.769148e-01   6.024183e-03
  2.779649e+00    4.802845e-01   6.039494e-03
  2.781859e+00    4.789973e-01   6.025647e-03
  2.784070e+00    4.789001e-01   6.019145e-03
  2.786280e+00    4.978332e-01   6.131100e-03
  2.788491e+00    4.783760e-01   6.004253e-03
  2.790701e+00    4.800400e-01   6.008997e-03
  2.792912e+00    4.933952e-01   6.085955e-03
  2.795122e+00    4.831207e-01   6.016486e-03
  2.797333e+00    4.765430e-01   5.969815e-03
  2.799543e+00    4.819535e-01   5.997693e-03
  2.801753e+00    4.928750e-01   6.059324e-03
  2.803964e+00    4.792204e-01   5.969116e-03
  2.806174e+00    4.844978e-01   5.995676e-03
  2.808385e+00    4.824567e-01   5.976195e-03
  2.810595e+00    4.894705e-01   6.012490e-03
  2.812806e+00    4.856537e-01   5.982333e-03
  2.815016e+00    4.794884e-01   5.939465e-03
  2.817227e+00    4.790523e-01   5.962820e-03
  2.819437e+00    4.747130e-01   5.946856e-03
  2.821648e+00    4.558196e-01   5.829558e-03
  2.823858e+00    4.612067e-01   5.869164e-03
  2.826068e+00    4.658611e-01   5.903643e-03
  2.828279e+00    4.756835e-01   5.969619e-03
  2.830489e+00    4.723279e-01   5.951861e-03
  2.832700e+00    4.630283e-01   5.895512e-03
  2.834910e+00    4.775535e-01   5.989341e-03
  2.837121e+00    4.679933e-01   5.930798e-03
  2.839331e+00    4.685763e-01   5.935723e-03
  2.841542e+00    4.598662e-01   5.881289e-03
  2.843752e+00    4.718568e-01   5.958255e-03
  2.845963e+00    4.767323e-01   5.989361e-03
  2.848173e+00    4.702557e-01   5.948625e-03
  2.850383e+00    4.710110e-01   5.953701e-03
  2.852594e+00    4.551920e-01   5.852790e-03
  2.854804e+00    4.704370e-01   5.949481e-03
  2.857015e+00    4.751563e-01   5.978806e-03
  2.859225e+00    4.677651e-01   5.931877e-03
  2.861436e+00    4.591813e-01   5.876561e-03
  2.863646e+00    4.663412e-01   5.922217e-03
  2.865857e+00    4.557074e-01   5.854664e-03
  2.868067e+00    4.468586e-01   5.797738e-03
  2.870278e+00    4.525459e-01   5.834188e-03
  2.872488e+00    4.651777e-01   5.913860e-03
  2.874698e+00    4.617753e-01   5.891183e-03
  2.876909e+00    4.608268e-01   5.883791e-03
  2.879119e+00    4.584309e-01   5.866867e-03
  2.881330e+00    4.569747e-01   5.856070e-03
  2.883540e+00    4.580948e-01   5.861876e-03
  2.885751e+00    4.652551e-01   5.905842e-03
  2.887961e+00    4.709539e-01   5.940009e-03
  2.890172e+00    4.683452e-01   5.921915e-03
  2.892382e+00    4.679068e-01   5.917328e-03
  2.894593e+00    4.630346e-01   5.884634e-03
  2.896803e+00    4.551516e-01   5.832340e-03
  2.899014e+00    4.686102e-01   5.916006e-03
  2.901224e+00    4.601137e-01   5.860159e-03
  2.903434e+00    4.571860e-01   5.839541e-03
  2.905645e+00    4.582345e-01   5.844000e-03
  2.907855e+00    4.635272e-01   5.875549e-03
  2.910066e+00    4.629621e-01   5.869886e-03
  2.912276e+00    4.610208e-01   5.855440e-03
  2.914487e+00    4.564351e-01   5.823786e-03
  2.916697e+00    4.644397e-01   5.872393e-03
  2.918908e+00    4.586350e-01   5.833588e-03
  2.921118e+00    4.587059e-01   5.831331e-03
  2.923329e+00    4.616740e-01   5.847842e-03
  2.925539e+00    4.511581e-01   5.778605e-03
  2.927749e+00    4.539277e-01   5.793993e-03
  2.929960e+00    4.550046e-01   5.798104e-03
  2.932170e+00    4.473410e-01   5.746766e-03
  2.934381e+00    4.506501e-01   5.765550e-03
  2.936591e+00    4.485574e-01   5.749593e-03
  2.938802e+00    4.548325e-01   5.786964e-03
  2.941012e+00    4.500063e-01   5.753864e-03
  2.943223e+00    4.507857e-01   5.756157e-03
  2.945433e+00    4.695126e-01   5.870704e-03
  2.947644e+00    4.584011e-01   5.796697e-03
  2.949854e+00    4.411288e-01   5.682238e-03
  2.952064e+00    4.285161e-01   5.596297e-03
  2.954275e+00    4.575522e-01   5.778354e-03
  2.956485e+00    4.561242e-01   5.765174e-03
  2.958696e+00    4.512429e-01   5.729874e-03
  2.960906e+00    4.547456e-01   5.747886e-03
  2.963117e+00    4.483778e-01   5.703055e-03
  2.965327e+00    4.527380e-01   5.726797e-03
  2.967538e+00    4.699083e-01   5.831440e-03
  2.969748e+00    4.597757e-01   5.765403e-03
  2.971959e+00    4.438208e-01   5.661383e-03
  2.974169e+00    4.524860e-01   5.713780e-03
  2.976379e+00    4.661188e-01   5.796273e-03
  2.978590e+00    4.543436e-01   5.719464e-03
  2.980800e+00    4.579876e-01   5.739533e-03
  2.983011e+00    4.787807e-01   5.865510e-03
  2.985221e+00    4.608888e-01   5.751693e-03
  2.987432e+00    4.587060e-01   5.734937e-03
  2.989642e+00    4.553032e-01   5.710980e-03
  2.991853e+00    4.634110e-01   5.758312e-03
  2.994063e+00    4.510995e-01   5.678399e-03
  2.996274e+00    4.559345e-01   5.705550e-03
  2.998484e+00    4.542948e-01   5.692594e-03
  3.000694e+00    4.444082e-01   5.626895e-03
  3.002905e+00    4.423244e-01   5.610762e-03
  3.005115e+00    4.636533e-01   5.741454e-03
  3.007326e+00    4.518597e-01   5.664802e-03
  3.009536e+00    4.559771e-01   5.687293e-03
  3.011747e+00    4.512516e-01   5.654844e-03
  3.013957e+00    4.507525e-01   5.648536e-03
  3.016168e+00    4.499474e-01   5.640247e-03
  3.018378e+00    4.615767e-01   5.709587e-03
  3.020589e+00    4.545209e-01   5.662582e-03
  3.022799e+00    4.486907e-01   5.622985e-03
  3.025010e+00    4.584475e-01   5.680536e-03
  3.027220e+00    4.504091e-01   5.627409e-03
  3.029430e+00    4.647941e-01   5.713272e-03
  3.031641e+00    4.603602e-01   5.682802e-03
  3.033851e+00    4.491356e-01   5.609571e-03
  3.036062e+00    4.632379e-01   5.694148e-03
  3.038272e+00    4.598058e-01   5.669411e-03
  3.040483e+00    4.624356e-01   5.682336e-03
  3.042693e+00    4.497796e-01   5.600790e-03
  3.044904e+00    4.410627e-01   5.542259e-03
  3.047114e+00    4.570082e-01   5.636710e-03
  3.049325e+00    4.590905e-01   5.645120e-03
  3.051535e+00    4.493644e-01   5.580602e-03
  3.053745e+00    4.613813e-01   5.649934e-03
  3.055956e+00    4.588007e-01   5.629488e-03
  3.058166e+00    4.566790e-01   5.612179e-03
  3.060377e+00    4.528098e-01   5.583555e-03
  3.062587e+00    4.520234e-01   5.574074e-03
  3.064798e+00    4.479721e-01   5.544788e-03
  3.067008e+00    4.518976e-01   5.564285e-03
  3.069219e+00    4.427040e-01   5.502928e-03
  3.071429e+00    4.419036e-01   5.494461e-03
  3.073640e+00    4.470662e-01   5.523138e-03
  3.075850e+00    4.515052e-01   5.546899e-03
  3.078060e+00    4.657483e-01   5.630541e-03
  3.080271e+00    4.524556e-01   5.546141e-03
  3.082481e+00    4.508997e-01   5.533141e-03
  3.084692e+00    4.446216e-01   5.491099e-03
  3.086902e+00    4.570740e-01   5.564214e-03
  3.089113e+00    4.362453e-01   5.432415e-03
  3.091323e+00    4.511418e-01   5.521003e-03
  3.093534e+00    4.395531e-01   5.446300e-03
  3.095744e+00    4.401305e-01   5.446522e-03
  3.097955e+00    4.438452e-01   5.465918e-03
  3.100165e+00    4.549981e-01   5.530808e-03
  3.102375e+00    4.449836e-01   5.466201e-03
  3.104586e+00    4.441957e-01   5.457856e-03
  3.106796e+00    4.454186e-01   5.461865e-03
  3.109007e+00    4.477469e-01   5.472897e-03
  3.111217e+00    4.473304e-01   5.466654e-03
  3.113428e+00    4.591428e-01   5.534872e-03
  3.115638e+00    4.582539e-01   5.526275e-03
  3.117849e+00    4.518760e-01   5.483904e-03
  3.120059e+00    4.471554e-01   5.451724e-03
  3.122270e+00    4.435441e-01   5.426405e-03
  3.124480e+00    4.446499e-01   5.429474e-03
  3.126691e+00    4.563212e-01   5.496672e-03
  3.128901e+00    4.460865e-01   5.431551e-03
  3.131111e+00    4.487532e-01   5.443909e-03
  3.133322e+00    4.449964e-01   5.417614e-03
  3.135532e+00    4.453930e-01   5.416620e-03
  3.137743e+00    4.504684e-01   5.443902e-03
  3.139953e+00    4.554204e-01   5.469999e-03
  3.142164e+00    4.424555e-01   5.403601e-03
  3.144374e+00    4.283108e-01   5.344470e-03
  3.146585e+00    4.341410e-01   5.395139e-03
  3.148795e+00    4.386797e-01   5.434003e-03
  3.151006e+00    4.329913e-01   5.407121e-03
  3.153216e+00    4.409489e-01   5.463705e-03
  3.155426e+00    4.536235e-01   5.548067e-03
  3.157637e+00    4.409220e-01   5.475374e-03
  3.159847e+00    4.496177e-01   5.534036e-03
  3.162058e+00    4.431488e-01   5.498529e-03
  3.164268e+00    4.306291e-01   5.424306e-03
  3.166479e+00    4.444443e-01   5.514297e-03
  3.168689e+00    4.425846e-01   5.506139e-03
  3.170900e+00    4.396406e-01   5.490965e-03
  3.173110e+00    4.434423e-01   5.517540e-03
  3.175321e+00    4.424358e-01   5.513782e-03
  3.177531e+00    4.301190e-01   5.439209e-03
  3.179741e+00    4.285099e-01   5.431073e-03
  3.181952e+00    4.483700e-01   5.557632e-03
  3.184162e+00    4.411755e-01   5.515069e-03
  3.186373e+00    4.483529e-01   5.561386e-03
  3.188583e+00    4.355305e-01   5.483049e-03
  3.190794e+00    4.323238e-01   5.464579e-03
  3.193004e+00    4.256369e-01   5.423382e-03
  3.195215e+00    4.385224e-01   5.506367e-03
  3.197425e+00    4.326184e-01   5.470390e-03
  3.199636e+00    4.384448e-01   5.506315e-03
  3.201846e+00    4.379062e-01   5.502348e-03
  3.204056e+00    4.297712e-01   5.451870e-03
  3.206267e+00    4.311170e-01   5.461243e-03
  3.208477e+00    4.302491e-01   5.456671e-03
  3.210688e+00    4.124755e-01   5.343588e-03
  3.212898e+00    4.355979e-01   5.491899e-03
  3.215109e+00    4.322970e-01   5.471804e-03
  3.217319e+00    4.353402e-01   5.491679e-03
  3.219530e+00    4.155359e-01   5.365696e-03
  3.221740e+00    4.408497e-01   5.527261e-03
  3.223951e+00    4.328685e-01   5.477500e-03
  3.226161e+00    4.290715e-01   5.453597e-03
  3.228372e+00    4.267404e-01   5.439297e-03
  3.230582e+00    4.298993e-01   5.459516e-03
  3.232792e+00    4.230101e-01   5.415844e-03
  3.235003e+00    4.187246e-01   5.388555e-03
  3.237213e+00    4.290082e-01   5.454443e-03
  3.239424e+00    4.213725e-01   5.405674e-03
  3.241634e+00    4.265276e-01   5.438775e-03
  3.243845e+00    4.254445e-01   5.431931e-03
  3.246055e+00    4.338742e-01   5.485193e-03
  3.248266e+00    4.303498e-01   5.463096e-03
  3.250476e+00    4.243073e-01   5.424282e-03
  3.252687e+00    4.151311e-01   5.365258e-03
  3.254897e+00    4.225894e-01   5.413087e-03
  3.257107e+00    4.282596e-01   5.448977e-03
  3.259318e+00    4.316025e-01   5.469975e-03
  3.261528e+00    4.162116e-01   5.371437e-03
  3.263739e+00    4.181607e-01   5.383422e-03
  3.265949e+00    4.225717e-01   5.411627e-03
  3.268160e+00    4.189203e-01   5.387776e-03
  3.270370e+00    4.272129e-01   5.440333e-03
  3.272581e+00    4.354621e-01   5.492321e-03
  3.274791e+00    4.285761e-01   5.448210e-03
  3.277002e+00    4.217892e-01   5.404329e-03
  3.279212e+00    4.229622e-01   5.411456e-03
  3.281422e+00    4.273883e-01   5.439123e-03
  3.283633e+00    4.276334e-01   5.439990e-03
  3.285843e+00    4.378181e-01   5.504048e-03
  3.288054e+00    4.294993e-01   5.450574e-03
  3.290264e+00    4.231617e-01   5.409894e-03
  3.292475e+00    4.273291e-01   5.435638e-03
  3.294685e+00    4.275843e-01   5.436601e-03
  3.296896e+00    4.319067e-01   5.463270e-03
  3.299106e+00    4.381801e-01   5.502229e-03
  3.301317e+00    4.213245e-01   5.394343e-03
  3.303527e+00    4.352292e-01   5.482160e-03
  3.305737e+00    4.241566e-01   5.410917e-03
  3.307948e+00    4.134562e-01   5.341590e-03
  3.310158e+00    4.248421e-01   5.413768e-03
  3.312369e+00    4.222437e-01   5.396303e-03
  3.314579e+00    4.268476e-01   5.424742e-03
  3.316790e+00    4.075530e-01   5.300019e-03
  3.319000e+00    4.291595e-01   5.437482e-03
  3.321211e+00    4.407493e-01   5.509814e-03
  3.323421e+00    4.470817e-01   5.548005e-03
  3.325632e+00    4.386767e-01   5.494711e-03
  3.327842e+00    4.452161e-01   5.534584e-03
  3.330052e+00    4.298835e-01   5.437356e-03
  3.332263e+00    4.142719e-01   5.336708e-03
  3.334473e+00    4.354466e-01   5.470460e-03
  3.336684e+00    4.179099e-01   5.357939e-03
  3.338894e+00    4.140027e-01   5.331969e-03
  3.341105e+00    4.040502e-01   5.266337e-03
  3.343315e+00    4.015021e-01   5.248570e-03
  3.345526e+00    4.044923e-01   5.267187e-03
  3.347736e+00    4.204845e-01   5.368894e-03
  3.349947e+00    4.294706e-01   5.425030e-03
  3.352157e+00    4.151136e-01   5.332404e-03
  3.354368e+00    4.172811e-01   5.345028e-03
  3.356578e+00    4.178888e-01   5.347886e-03
  3.358788e+00    4.175937e-01   5.344674e-03
  3.360999e+00    4.220021e-01   5.371563e-03
  3.363209e+00    4.296327e-01   5.418884e-03
  3.365420e+00    4.200909e-01   5.356845e-03
  3.367630e+00    4.272986e-01   5.401574e-03
  3.369841e+00    4.214247e-01   5.362892e-03
  3.372051e+00    4.150316e-01   5.320090e-03
  3.374262e+00    4.089185e-01   5.278341e-03
  3.376472e+00    4.237483e-01   5.370719e-03
  3.378683e+00    4.269723e-01   5.388596e-03
  3.380893e+00    4.247519e-01   5.372206e-03
  3.383103e+00    4.191026e-01   5.333620e-03
  3.385314e+00    4.230005e-01   5.356141e-03
  3.387524e+00    4.161823e-01   5.310053e-03
  3.389735e+00    4.228420e-01   5.349722e-03
  3.391945e+00    4.258350e-01   5.364867e-03
  3.394156e+00    4.057620e-01   5.232740e-03
  3.396366e+00    4.162310e-01   5.296382e-03
  3.398577e+00    4.141377e-01   5.279967e-03
  3.400787e+00    4.236102e-01   5.352122e-03
  3.402998e+00    4.049104e-01   5.270509e-03
  3.405208e+00    3.918201e-01   5.204877e-03
  3.407418e+00    4.225007e-01   5.421031e-03
  3.409629e+00    3.930990e-01   5.242864e-03
  3.411839e+00    3.990810e-01   5.294329e-03
  3.414050e+00    4.009633e-01   5.317877e-03
  3.416260e+00    3.892278e-01   5.249045e-03
  3.418471e+00    4.006216e-01   5.334820e-03
  3.420681e+00    3.845428e-01   5.235086e-03
  3.422892e+00    3.766235e-01   5.188740e-03
  3.425102e+00    3.794561e-01   5.215927e-03
  3.427313e+00    3.775560e-01   5.209953e-03
  3.429523e+00    3.911703e-01   5.310137e-03
  3.431733e+00    3.930635e-01   5.329682e-03
  3.433944e+00    4.091813e-01   5.444583e-03
  3.436154e+00    3.910842e-01   5.329122e-03
  3.438365e+00    3.766128e-01   5.235474e-03
  3.440575e+00    3.816338e-01   5.276200e-03
  3.442786e+00    3.855787e-01   5.309038e-03
  3.444996e+00    3.939084e-01   5.371730e-03
  3.447207e+00    3.623109e-01   5.156974e-03
  3.449417e+00    3.720783e-01   5.266842e-03
  3.451628e+00    3.746488e-01   5.314697e-03
  3.453838e+00    3.675893e-01   5.285540e-03
  3.456049e+00    3.631631e-01   5.277424e-03
  3.458259e+00    3.561737e-01   5.247990e-03
  3.460469e+00    3.703129e-01   5.371020e-03
  3.462680e+00    3.716827e-01   5.400171e-03
  3.464890e+00    3.617434e-01   5.345152e-03
  3.467101e+00    3.746257e-01   5.457135e-03
  3.469311e+00    3.816044e-01   5.524519e-03
  3.471522e+00    3.999974e-01   5.673015e-03
  3.473732e+00    3.989228e-01   5.681796e-03
  3.475943e+00    3.986084e-01   5.695547e-03
  3.478153e+00    4.002360e-01   5.722872e-03
  3.480364e+00    4.166605e-01   5.854700e-03
  3.482574e+00    4.134688e-01   5.847753e-03
  3.484784e+00    4.225725e-01   5.926867e-03
  3.486995e+00    4.196619e-01   5.921596e-03
  3.489205e+00    4.315119e-01   6.019399e-03
  3.491416e+00    4.405290e-01   6.097146e-03
  3.493626e+00    4.528194e-01   6.196469e-03
  3.495837e+00    4.572657e-01   6.241890e-03
  3.498047e+00    4.454424e-01   6.175143e-03
  3.500258e+00    4.582607e-01   6.278058e-03
  3.502468e+00    4.522780e-01   6.251332e-03
  3.504679e+00    4.714166e-01   6.396866e-03
  3.506889e+00    4.664677e-01   6.377675e-03
  3.509099e+00    4.780543e-01   6.470820e-03
  3.511310e+00    4.930805e-01   6.586489e-03
  3.513520e+00    4.775458e-01   6.496232e-03
  3.515731e+00    5.049639e-01   6.694776e-03
  3.517941e+00    4.905178e-01   6.612705e-03
  3.520152e+00    4.965830e-01   6.667797e-03
  3.522362e+00    4.923929e-01   6.653957e-03
  3.524573e+00    5.199159e-01   6.851853e-03
  3.526783e+00    5.181304e-01   6.853559e-03
  3.528994e+00    5.255110e-01   6.914545e-03
  3.531204e+00    5.174028e-01   6.873384e-03
  3.533414e+00    5.064139e-01   6.811874e-03
  3.535625e+00    5.297180e-01   6.979203e-03
  3.537835e+00    5.565218e-01   7.165994e-03
  3.540046e+00    5.525735e-01   7.149640e-03
  3.542256e+00    5.429982e-01   7.094972e-03
  3.544467e+00    5.398523e-01   7.082060e-03
  3.546677e+00    5.463791e-01   7.132374e-03
  3.548888e+00    5.408008e-01   7.103429e-03
  3.551098e+00    5.415911e-01   7.115908e-03
  3.553309e+00    5.447668e-01   7.144992e-03
  3.555519e+00    5.494670e-01   7.187181e-03
  3.557729e+00    5.424933e-01   7.153214e-03
  3.559940e+00    5.444900e-01   7.178028e-03
  3.562150e+00    5.351565e-01   7.127934e-03
  3.564361e+00    5.290615e-01   7.100454e-03
  3.566571e+00    5.307986e-01   7.125855e-03
  3.568782e+00    5.420597e-01   7.215257e-03
  3.570992e+00    5.309397e-01   7.154532e-03
  3.573203e+00    5.413145e-01   7.238337e-03
  3.575413e+00    5.294901e-01   7.172532e-03
  3.577624e+00    5.366753e-01   7.235140e-03
  3.579834e+00    5.498307e-01   7.337349e-03
  3.582045e+00    5.486990e-01   7.344031e-03
  3.584255e+00    5.201187e-01   7.164018e-03
  3.586465e+00    5.247728e-01   7.209799e-03
  3.588676e+00    5.365219e-01   7.304252e-03
  3.590886e+00    5.275551e-01   7.256563e-03
  3.593097e+00    5.173317e-01   7.200154e-03
  3.595307e+00    5.328625e-01   7.321312e-03
  3.597518e+00    5.169685e-01   7.225277e-03
  3.599728e+00    5.310342e-01   7.336914e-03
  3.601939e+00    5.572982e-01   7.530547e-03
  3.604149e+00    5.427696e-01   7.446233e-03
  3.606360e+00    5.368017e-01   7.419346e-03
  3.608570e+00    5.501386e-01   7.525304e-03
  3.610780e+00    5.331901e-01   7.419538e-03
  3.612991e+00    5.119228e-01   7.279827e-03
  3.615201e+00    5.282954e-01   7.405065e-03
  3.617412e+00    5.364410e-01   7.469241e-03
  3.619622e+00    5.433792e-01   7.523361e-03
  3.621833e+00    5.330786e-01   7.458439e-03
  3.624043e+00    5.321695e-01   7.461555e-03
  3.626254e+00    5.347170e-01   7.489082e-03
  3.628464e+00    5.506341e-01   7.610891e-03
  3.630675e+00    5.314879e-01   7.491510e-03
  3.632885e+00    5.344789e-01   7.526971e-03
  3.635095e+00    5.412523e-01   7.589049e-03
  3.637306e+00    5.201543e-01   7.453851e-03
  3.639516e+00    5.374454e-01   7.591286e-03
  3.641727e+00    5.390800e-01   7.617492e-03
  3.643937e+00    5.257132e-01   7.536903e-03
  3.646148e+00    5.290808e-01   7.575557e-03
  3.648358e+00    5.260074e-01   7.568297e-03
  3.650569e+00    5.365312e-01   7.658388e-03
  3.652779e+00    5.381860e-01   7.685025e-03
  3.654990e+00    5.528784e-01   7.804451e-03
  3.657200e+00    5.010975e-01   7.444402e-03
  3.659410e+00    5.505705e-01   7.818478e-03
  3.661621e+00    5.209550e-01   7.620246e-03
  3.663831e+00    5.467727e-01   7.822085e-03
  3.666042e+00    5.495625e-01   7.857469e-03
  3.668252e+00    5.395141e-01   7.800651e-03
  3.670463e+00    5.306746e-01   7.751722e-03
  3.672673e+00    5.333825e-01   7.786922e-03
  3.674884e+00    5.385823e-01   7.840280e-03
  3.677094e+00    5.477111e-01   7.922228e-03
  3.679305e+00    5.472162e-01   7.934449e-03
  3.681515e+00    5.355386e-01   7.865031e-03
  3.683726e+00    5.381175e-01   7.899868e-03
  3.685936e+00    5.450009e-01   7.966184e-03
  3.688146e+00    5.301357e-01   7.872617e-03
  3.690357e+00    5.155684e-01   7.779424e-03
  3.692567e+00    5.378289e-01   7.961862e-03
  3.694778e+00    5.506561e-01   8.072696e-03
  3.696988e+00    5.251104e-01   7.899215e-03
  3.699199e+00    5.231551e-01   7.900658e-03
  3.701409e+00    5.299083e-01   7.967923e-03
  3.703620e+00    5.438238e-01   8.088501e-03
  3.705830e+00    5.172687e-01   7.904840e-03
  3.708041e+00    5.208539e-01   7.948744e-03
  3.710251e+00    5.110509e-01   7.890031e-03
  3.712461e+00    5.114157e-01   7.909491e-03
  3.714672e+00    5.074556e-01   7.895240e-03
  3.716882e+00    5.330759e-01   8.108998e-03
  3.719093e+00    5.376869e-01   8.161450e-03
  3.721303e+00    5.386801e-01   8.186251e-03
  3.723514e+00    5.114316e-01   7.993684e-03
  3.725724e+00    4.953229e-01   7.883520e-03
  3.727935e+00    5.156392e-01   8.060951e-03
  3.730145e+00    5.252653e-01   8.153388e-03
  3.732356e+00    5.276107e-01   8.189235e-03
  3.734566e+00    5.295768e-01   8.222277e-03
  3.736776e+00    5.112824e-01   8.096746e-03
  3.738987e+00    5.005071e-01   8.028435e-03
  3.741197e+00    5.018958e-01   8.057375e-03
  3.743408e+00    5.027468e-01   8.082109e-03
  3.745618e+00    4.896721e-01   7.994138e-03
  3.747829e+00    5.212698e-01   8.266313e-03
  3.750039e+00    5.270875e-01   8.331005e-03
  3.752250e+00    5.003033e-01   8.134826e-03
  3.754460e+00    5.206343e-01   8.317225e-03
  3.756671e+00    4.873914e-01   8.065705e-03
  3.758881e+00    4.868961e-01   8.079793e-03
  3.761091e+00    5.372661e-01   8.507147e-03
  3.763302e+00    5.260403e-01   8.437236e-03
  3.765512e+00    5.111508e-01   8.336281e-03
  3.767723e+00    5.058418e-01   8.312201e-03
  3.769933e+00    5.031984e-01   8.309714e-03
  3.772144e+00    5.087410e-01   8.374991e-03
  3.774354e+00    5.158205e-01   8.453091e-03
  3.776565e+00    5.071096e-01   8.401338e-03
  3.778775e+00    5.300416e-01   8.609575e-03
  3.780986e+00    5.364092e-01   8.682153e-03
  3.783196e+00    5.196494e-01   8.566023e-03
  3.785407e+00    5.061200e-01   8.474208e-03
  3.787617e+00    4.825669e-01   8.295099e-03
  3.789827e+00    4.830485e-01   8.319252e-03
  3.792038e+00    4.859518e-01   8.364797e-03
  3.794248e+00    4.916515e-01   8.434617e-03
  3.796459e+00    4.795634e-01   8.351222e-03
  3.798669e+00    4.961359e-01   8.515521e-03
  3.800880e+00    4.796781e-01   8.394129e-03
  3.803090e+00    4.918299e-01   8.521368e-03
  3.805301e+00    4.951399e-01   8.572009e-03
  3.807511e+00    5.019816e-01   8.653075e-03
  3.809722e+00    5.015688e-01   8.671796e-03
  3.811932e+00    5.043901e-01   8.718495e-03
  3.814142e+00    4.809318e-01   8.535753e-03
  3.816353e+00    5.103451e-01   8.816026e-03
  3.818563e+00    5.132400e-01   8.864425e-03
  3.820774e+00    5.184230e-01   8.932688e-03
  3.822984e+00    5.042219e-01   8.833020e-03
  3.825195e+00    4.782428e-01   8.625733e-03
  3.827405e+00    5.070174e-01   8.905494e-03
  3.829616e+00    4.928395e-01   8.804106e-03
  3.831826e+00    5.158201e-01   9.031586e-03
  3.834037e+00    5.002990e-01   8.919301e-03
  3.836247e+00    4.792248e-01   8.753676e-03
  3.838457e+00    5.049583e-01   9.010781e-03
  3.840668e+00    5.417164e-01   9.359357e-03
  3.842878e+00    5.369222e-01   9.344439e-03
  3.845089e+00    5.024619e-01   9.065357e-03
  3.847299e+00    4.967751e-01   9.039713e-03
  3.849510e+00    4.730752e-01   8.846648e-03
  3.851720e+00    4.937948e-01   9.059807e-03
  3.853931e+00    5.029102e-01   9.162081e-03
  3.856141e+00    5.127887e-01   9.271067e-03
  3.858352e+00    5.090622e-01   9.256818e-03
  3.860562e+00    5.090137e-01   9.275994e-03
  3.862772e+00    4.841224e-01   9.065733e-03
  3.864983e+00    4.858293e-01   9.101227e-03
  3.867193e+00    5.008335e-01   9.260559e-03
  3.869404e+00    4.834611e-01   9.118184e-03
  3.871614e+00    5.001027e-01   9.293902e-03
  3.873825e+00    5.186067e-01   9.485113e-03
  3.876035e+00    4.815212e-01   9.160027e-03
  3.878246e+00    4.974100e-01   9.335794e-03
  3.880456e+00    4.798870e-01   9.198541e-03
  3.882667e+00    5.079472e-01   9.493428e-03
  3.884877e+00    4.899625e-01   9.353538e-03
  3.887087e+00    5.125013e-01   9.596821e-03
  3.889298e+00    5.386677e-01   9.870540e-03
  3.891508e+00    5.112085e-01   9.646839e-03
  3.893719e+00    5.279208e-01   9.835437e-03
  3.895929e+00    4.861926e-01   9.470029e-03
  3.898140e+00    5.087314e-01   9.719253e-03
  3.900350e+00    4.878186e-01   9.549491e-03
  3.902561e+00    5.035043e-01   9.734570e-03
  3.904771e+00    4.819890e-01   9.556944e-03
  3.906982e+00    4.805198e-01   9.575084e-03
  3.909192e+00    5.079916e-01   9.879178e-03
  3.911403e+00    4.766786e-01   9.603521e-03
  3.913613e+00    4.635470e-01   9.503567e-03
  3.915823e+00    4.851639e-01   9.757318e-03
  3.918034e+00    4.858202e-01   9.799147e-03
  3.920244e+00    5.094222e-01   1.007080e-02
  3.922455e+00    5.157008e-01   1.016986e-02
  3.924665e+00    4.855216e-01   9.904043e-03
  3.926876e+00    4.735586e-01   9.817855e-03
  3.929086e+00    4.828262e-01   9.950642e-03
  3.931297e+00    5.162979e-01   1.032554e-02
  3.933507e+00    4.834565e-01   1.002062e-02
  3.935718e+00    4.883086e-01   1.009950e-02
  3.937928e+00    5.003535e-01   1.025320e-02
  3.940138e+00    5.068944e-01   1.034984e-02
  3.942349e+00    4.783181e-01   1.008358e-02
  3.944559e+00    4.903083e-01   1.023918e-02
  3.946770e+00    4.802200e-01   1.016332e-02
  3.948980e+00    4.786829e-01   1.017749e-02
  3.951191e+00    4.925013e-01   1.035435e-02
  3.953401e+00    4.877836e-01   1.033606e-02
  3.955612e+00    5.073735e-01   1.057388e-02
  3.957822e+00    5.013924e-01   1.054361e-02
  3.960033e+00    4.709947e-01   1.025109e-02
  3.962243e+00    4.982793e-01   1.057708e-02
  3.964453e+00    4.708675e-01   1.031470e-02
  3.966664e+00    5.003004e-01   1.066595e-02
  3.968874e+00    5.088125e-01   1.078540e-02
  3.971085e+00    4.947761e-01   1.065780e-02
  3.973295e+00    4.814385e-01   1.053454e-02
  3.975506e+00    4.896510e-01   1.064564e-02
  3.977716e+00    5.276009e-01   1.107343e-02
  3.979927e+00    4.900695e-01   1.069461e-02
  3.982137e+00    5.075964e-01   1.090690e-02
  3.984348e+00    5.079174e-01   1.093350e-02
  3.986558e+00    5.028995e-01   1.090201e-02
  3.988768e+00    5.111102e-01   1.101437e-02
  3.990979e+00    4.631216e-01   1.050668e-02
  3.993189e+00    4.825323e-01   1.074762e-02
  3.995400e+00    4.631089e-01   1.055213e-02
  3.997610e+00    4.803661e-01   1.077651e-02
  3.999821e+00    4.804844e-01   1.081531e-02
  4.002031e+00    4.721530e-01   1.075901e-02
  4.004242e+00    4.670552e-01   1.073852e-02
  4.006452e+00    4.611483e-01   1.070877e-02
  4.008663e+00    4.878431e-01   1.105452e-02
  4.010873e+00    4.903743e-01   1.112334e-02
  4.013084e+00    4.980493e-01   1.125166e-02
  4.015294e+00    4.825577e-01   1.111616e-02
  4.017504e+00    4.823997e-01   1.115602e-02
  4.019715e+00    5.071985e-01   1.148272e-02
  4.021925e+00    5.027058e-01   1.147561e-02
  4.024136e+00    4.698763e-01   1.113758e-02
  4.026346e+00    5.126502e-01   1.167879e-02
  4.028557e+00    4.979486e-01   1.155531e-02
  4.030767e+00    4.818236e-01   1.141205e-02
  4.032978e+00    4.627724e-01   1.122949e-02
  4.035188e+00    4.709716e-01   1.137413e-02
  4.037399e+00    4.835704e-01   1.157281e-02
  4.039609e+00    4.770418e-01   1.154180e-02
  4.041819e+00    5.387197e-01   1.231672e-02
  4.044030e+00    4.904072e-01   1.180193e-02
  4.046240e+00    4.606480e-01   1.148674e-02
  4.048451e+00    4.873568e-01   1.186630e-02
  4.050661e+00    4.972238e-01   1.203795e-02
  4.052872e+00    5.067459e-01   1.220678e-02
  4.055082e+00    4.820803e-01   1.195948e-02
  4.057293e+00    4.313522e-01   1.136351e-02
  4.059503e+00    4.795494e-01   1.203608e-02
  4.061714e+00    4.634299e-01   1.188743e-02
  4.063924e+00    4.768341e-01   1.211449e-02
  4.066134e+00    5.188818e-01   1.269697e-02
  4.068345e+00    4.994428e-01   1.251692e-02
  4.070555e+00    4.738156e-01   1.225030e-02
  4.072766e+00    4.723774e-01   1.229190e-02
  4.074976e+00    4.720644e-01   1.234914e-02
  4.077187e+00    4.782901e-01   1.249211e-02
  4.079397e+00    4.725040e-01   1.247977e-02
  4.081608e+00    4.499406e-01   1.224143e-02
  4.083818e+00    4.675030e-01   1.254289e-02
  4.086029e+00    4.491114e-01   1.235863e-02
  4.088239e+00    4.567594e-01   1.253042e-02
  4.090449e+00    5.022001e-01   1.321016e-02
  4.092660e+00    5.252013e-01   1.358368e-02
  4.094870e+00    4.979356e-01   1.330002e-02
  4.097081e+00    5.033832e-01   1.344575e-02
  4.099291e+00    4.781763e-01   1.315909e-02
  4.101502e+00    4.420448e-01   1.269935e-02
  4.103712e+00    4.417375e-01   1.274213e-02
  4.105923e+00    4.653006e-01   1.312821e-02
  4.108133e+00    4.926296e-01   1.356042e-02
  4.110344e+00    4.772589e-01   1.339805e-02
  4.112554e+00    5.023287e-01   1.380000e-02
  4.114764e+00    4.547188e-01   1.318243e-02
  4.116975e+00    4.568086e-01   1.326471e-02
  4.119185e+00    4.717291e-01   1.353439e-02
  4.121396e+00    4.986751e-01   1.397307e-02
  4.123606e+00    4.593962e-01   1.346655e-02
  4.125817e+00    4.873475e-01   1.392808e-02
  4.128027e+00    4.752173e-01   1.381168e-02
  4.130238e+00    4.983529e-01   1.420458e-02
  4.132448e+00    5.131608e-01   1.447664e-02
  4.134659e+00    5.263727e-01   1.472481e-02
  4.136869e+00    4.474399e-01   1.363669e-02
  4.139080e+00    4.641663e-01   1.395151e-02
  4.141290e+00    4.935865e-01   1.445088e-02
  4.143500e+00    4.696788e-01   1.416158e-02
  4.145711e+00    4.716003e-01   1.425670e-02
  4.147921e+00    4.636638e-01   1.420101e-02
  4.150132e+00    5.324376e-01   1.529028e-02
  4.152342e+00    5.158951e-01   1.512427e-02
  4.154553e+00    4.519137e-01   1.422248e-02
  4.156763e+00    4.885180e-01   1.486031e-02
  4.158974e+00    4.798643e-01   1.480225e-02
  4.161184e+00    5.082538e-01   1.530924e-02
  4.163395e+00    5.185542e-01   1.554279e-02
  4.165605e+00    5.079786e-01   1.546340e-02
  4.167815e+00    4.717393e-01   1.497934e-02
  4.170026e+00    5.095878e-01   1.565064e-02
  4.172236e+00    4.409331e-01   1.463706e-02
  4.174447e+00    4.762816e-01   1.529476e-02
  4.176657e+00    5.405051e-01   1.638307e-02
  4.178868e+00    4.850377e-01   1.560731e-02
  4.181078e+00    4.996130e-01   1.592920e-02
  4.183289e+00    4.903739e-01   1.587177e-02
  4.185499e+00    4.877368e-01   1.592245e-02
  4.187710e+00    4.874974e-01   1.601161e-02
  4.189920e+00    4.549446e-01   1.556098e-02
  4.192130e+00    5.020202e-01   1.644622e-02
  4.194341e+00    4.617674e-01   1.586973e-02
  4.196551e+00    4.585901e-01   1.591529e-02
  4.198762e+00    4.837571e-01   1.644960e-02
  4.200972e+00    5.220709e-01   1.719960e-02
  4.203183e+00    4.127902e-01   1.539479e-02
  4.205393e+00    4.446662e-01   1.608424e-02
  4.207604e+00    4.615845e-01   1.649924e-02
  4.209814e+00    4.882406e-01   1.708530e-02
  4.212025e+00    4.461583e-01   1.644789e-02
  4.214235e+00    5.430882e-01   1.827590e-02
  4.216445e+00    4.835309e-01   1.736924e-02
  4.218656e+00    4.330312e-01   1.656067e-02
  4.220866e+00    4.323030e-01   1.666908e-02
  4.223077e+00    4.987393e-01   1.804163e-02
  4.225287e+00    4.791561e-01   1.782336e-02
  4.227498e+00    5.253918e-01   1.880953e-02
  4.229708e+00    5.318131e-01   1.907824e-02
  4.231919e+00    4.990749e-01   1.863462e-02
  4.234129e+00    5.342596e-01   1.944193e-02
  4.236340e+00    4.309482e-01   1.761066e-02
  4.238550e+00    5.241549e-01   1.959337e-02
  4.240761e+00    4.905823e-01   1.912320e-02
  4.242971e+00    4.361386e-01   1.819580e-02
  4.245181e+00    5.087606e-01   1.983674e-02
  4.247392e+00    5.501081e-01   2.082027e-02
  4.249602e+00    5.042380e-01   2.013161e-02
  4.251813e+00    4.709071e-01   1.964602e-02
  4.254023e+00    5.233411e-01   2.092012e-02
  4.256234e+00    4.339337e-01   1.925254e-02
  4.258444e+00    5.998452e-01   2.287256e-02
  4.260655e+00    5.245406e-01   2.162479e-02
  4.262865e+00    4.831688e-01   2.098905e-02
  4.265076e+00    5.230953e-01   2.208793e-02
  4.267286e+00    4.859557e-01   2.154188e-02
  4.269496e+00    4.244776e-01   2.037895e-02
  4.271707e+00    4.612168e-01   2.150453e-02
  4.273917e+00    4.360328e-01   2.117989e-02
  4.276128e+00    4.272033e-01   2.124246e-02
  4.278338e+00    4.782966e-01   2.277744e-02
  4.280549e+00    4.503865e-01   2.241997e-02
  4.282759e+00    5.190760e-01   2.441430e-02
  4.284970e+00    4.810100e-01   2.385070e-02
  4.287180e+00    4.387722e-01   2.305152e-02
  4.289391e+00    5.305827e-01   2.553957e-02
  4.291601e+00    4.597152e-01   2.396253e-02
  4.293811e+00    5.122167e-01   2.549191e-02
  4.296022e+00    4.469761e-01   2.400469e-02
  4.298232e+00    5.045775e-01   2.571744e-02
  4.300443e+00    4.621135e-01   2.481486e-02
  4.302653e+00    5.042452e-01   2.614600e-02
  4.304864e+00    5.200599e-01   2.678272e-02
  4.307074e+00    5.150452e-01   2.689303e-02
  4.309285e+00    4.909298e-01   2.649408e-02
  4.311495e+00    5.162068e-01   2.742223e-02
  4.313706e+00    4.837116e-01   2.679408e-02
  4.315916e+00    4.910465e-01   2.726184e-02
  4.318126e+00    5.131505e-01   2.814517e-02
  4.320337e+00    4.371923e-01   2.624098e-02
  4.322547e+00    5.515821e-01   2.978782e-02
  4.324758e+00    4.679415e-01   2.772165e-02
  4.326968e+00    4.742196e-01   2.822123e-02
  4.329179e+00    3.745410e-01   2.535666e-02
  4.331389e+00    3.938048e-01   2.630066e-02
  4.333600e+00    4.521704e-01   2.851802e-02
  4.335810e+00    4.813702e-01   2.977522e-02
  4.338021e+00    4.253603e-01   2.834837e-02
  4.340231e+00    4.506271e-01   2.954304e-02
  4.342442e+00    5.476177e-01   3.300431e-02
  4.344652e+00    5.998858e-01   3.501382e-02
  4.346862e+00    3.489945e-01   2.708048e-02
  4.349073e+00    5.004417e-01   3.289896e-02
  4.351283e+00    4.411822e-01   3.135283e-02
  4.353494e+00    3.357231e-01   2.777063e-02
  4.355704e+00    5.397430e-01   3.578019e-02
  4.357915e+00    4.721913e-01   3.402328e-02
  4.360125e+00    5.372477e-01   3.691033e-02
  4.362336e+00    5.186323e-01   3.692741e-02
  4.364546e+00    4.255312e-01   3.405723e-02
  4.366757e+00    5.393162e-01   3.910418e-02
  4.368967e+00    4.674232e-01   3.713058e-02
  4.371177e+00    4.821331e-01   3.851349e-02
  4.373388e+00    4.460047e-01   3.786941e-02
  4.375598e+00    4.442581e-01   3.865641e-02
  4.377809e+00    3.826510e-01   3.678456e-02
  4.380019e+00    3.423704e-01   3.567091e-02
  4.382230e+00    2.308425e-01   3.010529e-02
  4.384440e+00    4.903187e-01   4.513999e-02
  4.386651e+00    4.459778e-01   4.437956e-02
  4.388861e+00    5.977105e-01   5.309881e-02
  4.391072e+00    3.818117e-01   4.393405e-02
  4.393282e+00    2.474559e-01   3.673334e-02
  4.395492e+00    4.055282e-01   4.897929e-02
  4.397703e+00    2.374472e-01   3.919129e-02
  4.399913e+00    4.130041e-01   5.430702e-02
  4.402124e+00    2.243239e-01   4.229001e-02
  4.404334e+00    5.140775e-01   6.805167e-02
  4.406545e+00    2.714591e-01   5.313795e-02
  4.408755e+00    3.270763e-01   6.325088e-02
  4.410966e+00    9.288321e-02   3.730513e-02
  4.413176e+00    2.475855e-01   6.894605e-02
  4.415387e+00   -6.652688e-01            nan
  4.417597e+00   -1.909909e+00            nan
  4.419807e+00    2.807437e-01   1.902519e-01
