# == pyFAI calibration ==
# Distance Sample to Detector: 0.216 m
# PONI: 1.166e-01, 1.308e-01 m
# Rotations: 0.000000 0.000000 0.000000 rad
# 
# == Fit2d calibration ==
# Distance Sample-beamCenter: 216.000 mm
# Center: x=1744.293, y=1555.000 pix
# Tilt: 0.000 deg  TiltPlanRot: 0.000 deg
# 
# Detector Eiger 9M	 PixelSize= 7.500e-05, 7.500e-05 m
#    Detector has a mask: True 
#    Detector has a dark current: False 
#    detector has a flat field: False 
# 
# Wavelength: 9.8e-11 m
# Mask applied: from detector
# Dark current applied: False
# Flat field applied: False
# Polarization factor: None
# Normalization factor: 1.0
# 
# Headers of the input frame:
# {
# "_array_data.header_convention": "SLS_1.0",
# "_array_data.header_contents": "# Detector: Dectris Eiger 9M, S/N E-18-0102\r\n# Pixel_size 75e-6 m x 75e-6 m\r\n# Silicon sensor, thickness 0.000450 m\r\n# Exposure_time 0.024997 s\r\n# Exposure_period 0.025000 s\r\n# Count_cutoff 62318 counts\r\n# Wavelength 0.980106 A\r\n# Detector_distance 0.215992 m\r\n# Beam_xy (1555, 1744) pixels\r\n# Start_angle 0.000000 deg.\r\n# Angle_increment 0.000000 deg.",
# "Content-Type": "application/octet-stream;",
# "conversions": "x-CBF_BYTE_OFFSET",
# "Content-Transfer-Encoding": "BINARY",
# "X-Binary-Size": "10166600",
# "X-Binary-ID": "1",
# "X-Binary-Element-Type": "signed 32-bit integer",
# "X-Binary-Element-Byte-Order": "LITTLE_ENDIAN",
# "Content-MD5": "kfAd+eyYurUHo6jqivfejw==",
# "X-Binary-Number-of-Elements": "10166590",
# "X-Binary-Size-Fastest-Dimension": "3110",
# "X-Binary-Size-Second-Dimension": "3269",
# "X-Binary-Size-Padding": "4095"
# }
# --> H:/Proxima2a_2019-04-05/RAW_DATA/C5_gel17_position5/C5_mesh_1_data.cbf/C5_mesh_1_data.cbf000067.dat
#        q_A^-1              I           sigma 
  1.105228e-03    1.287040e+00   6.138794e-01
  3.315685e-03    1.188639e+00   3.586496e-01
  5.526141e-03    1.872136e+00   3.480493e-01
  7.736597e-03    1.659697e+00   2.768437e-01
  9.947054e-03    1.537353e+00   2.348894e-01
  1.215751e-02    1.314329e+00   1.963906e-01
  1.436797e-02    1.344134e+00   1.826825e-01
  1.657842e-02    1.403909e+00   1.737856e-01
  1.878888e-02    1.399682e+00   1.629965e-01
  2.099934e-02    1.412569e+00   1.549198e-01
  2.320979e-02    1.361355e+00   1.446500e-01
  2.542025e-02    1.417601e+00   1.410543e-01
  2.763070e-02    1.434893e+00   1.361132e-01
  2.984116e-02    1.392504e+00   1.290253e-01
  3.205162e-02    1.411132e+00   1.253343e-01
  3.426207e-02    1.337054e+00   1.179911e-01
  3.647253e-02    1.416866e+00   1.177211e-01
  3.868299e-02    1.348153e+00   1.115104e-01
  4.089344e-02    1.367643e+00   1.092363e-01
  4.310390e-02    1.515547e+00   1.119976e-01
  4.531436e-02    1.382844e+00   1.043404e-01
  4.752481e-02    1.389001e+00   1.021105e-01
  4.973527e-02    1.447462e+00   1.018956e-01
  5.194572e-02    1.282170e+00   9.383737e-02
  5.415618e-02    1.356665e+00   9.453116e-02
  5.636664e-02    1.454023e+00   9.592922e-02
  5.857709e-02    1.383885e+00   9.180460e-02
  6.078755e-02    1.471316e+00   9.292025e-02
  6.299801e-02    1.517798e+00   9.270507e-02
  6.520846e-02    1.490621e+00   9.030137e-02
  6.741892e-02    1.395186e+00   8.591438e-02
  6.962938e-02    1.472680e+00   8.686014e-02
  7.183983e-02    1.460160e+00   8.514758e-02
  7.405029e-02    1.504844e+00   8.513869e-02
  7.626074e-02    1.446608e+00   8.225567e-02
  7.847120e-02    1.526040e+00   8.328312e-02
  8.068166e-02    1.384884e+00   7.824293e-02
  8.289211e-02    1.360798e+00   7.651799e-02
  8.510257e-02    1.426334e+00   7.731433e-02
  8.731303e-02    1.412067e+00   7.594382e-02
  8.952348e-02    1.382102e+00   7.420233e-02
  9.173394e-02    1.455071e+00   7.521004e-02
  9.394439e-02    1.470656e+00   7.471449e-02
  9.615485e-02    1.487612e+00   7.427359e-02
  9.836531e-02    1.571919e+00   7.548445e-02
  1.005758e-01    1.470535e+00   7.220334e-02
  1.027862e-01    1.498875e+00   7.210585e-02
  1.049967e-01    1.525283e+00   7.196729e-02
  1.072071e-01    1.572308e+00   7.231020e-02
  1.094176e-01    1.536331e+00   7.075137e-02
  1.116280e-01    1.540386e+00   7.013819e-02
  1.138385e-01    1.556656e+00   6.981835e-02
  1.160490e-01    1.606292e+00   7.024319e-02
  1.182594e-01    1.540267e+00   6.813706e-02
  1.204699e-01    1.533481e+00   6.735963e-02
  1.226803e-01    1.561449e+00   6.735322e-02
  1.248908e-01    1.551675e+00   6.654446e-02
  1.271012e-01    1.595182e+00   6.688033e-02
  1.293117e-01    1.568775e+00   6.575430e-02
  1.315222e-01    1.545063e+00   6.470328e-02
  1.337326e-01    1.557966e+00   6.443244e-02
  1.359431e-01    1.595564e+00   6.524348e-02
  1.381535e-01    1.485448e+00   6.379683e-02
  1.403640e-01    1.536733e+00   6.516898e-02
  1.425744e-01    1.557322e+00   6.570889e-02
  1.447849e-01    1.549306e+00   6.555465e-02
  1.469953e-01    1.576474e+00   6.608552e-02
  1.492058e-01    1.543163e+00   6.530760e-02
  1.514163e-01    1.553488e+00   6.541690e-02
  1.536267e-01    1.546255e+00   6.513702e-02
  1.558372e-01    1.608998e+00   6.629872e-02
  1.580476e-01    1.607563e+00   6.610837e-02
  1.602581e-01    1.551286e+00   6.477597e-02
  1.624685e-01    1.594001e+00   6.548195e-02
  1.646790e-01    1.616454e+00   6.575219e-02
  1.668895e-01    1.623445e+00   6.570388e-02
  1.690999e-01    1.660606e+00   6.625210e-02
  1.713104e-01    1.707489e+00   6.697231e-02
  1.735208e-01    1.769743e+00   6.797025e-02
  1.757313e-01    1.833247e+00   6.896219e-02
  1.779417e-01    1.900265e+00   6.998241e-02
  1.801522e-01    1.825123e+00   6.836639e-02
  1.823626e-01    1.904650e+00   6.960746e-02
  1.845731e-01    1.900222e+00   6.930131e-02
  1.867836e-01    1.840647e+00   6.797611e-02
  1.889940e-01    1.852933e+00   6.797971e-02
  1.912045e-01    1.977623e+00   6.999525e-02
  1.934149e-01    1.943441e+00   6.915549e-02
  1.956254e-01    1.900209e+00   6.815644e-02
  1.978358e-01    1.889607e+00   6.773312e-02
  2.000463e-01    1.870324e+00   6.716333e-02
  2.022568e-01    2.015143e+00   6.948623e-02
  2.044672e-01    2.037671e+00   6.963421e-02
  2.066777e-01    1.954554e+00   6.797285e-02
  2.088881e-01    1.976312e+00   6.812653e-02
  2.110986e-01    2.001490e+00   6.832401e-02
  2.133090e-01    1.957425e+00   6.734807e-02
  2.155195e-01    1.976947e+00   6.745854e-02
  2.177300e-01    1.980705e+00   6.699219e-02
  2.199404e-01    1.858916e+00   6.318983e-02
  2.221509e-01    1.839553e+00   6.182766e-02
  2.243613e-01    1.923701e+00   6.242442e-02
  2.265718e-01    1.972300e+00   6.251135e-02
  2.287822e-01    2.115159e+00   6.409494e-02
  2.309927e-01    2.129872e+00   6.373158e-02
  2.332031e-01    2.132049e+00   6.321839e-02
  2.354136e-01    2.120898e+00   6.254182e-02
  2.376241e-01    2.155129e+00   6.255516e-02
  2.398345e-01    2.148004e+00   6.198950e-02
  2.420450e-01    2.043099e+00   6.002472e-02
  2.442554e-01    2.141658e+00   6.103209e-02
  2.464659e-01    2.104597e+00   6.009553e-02
  2.486763e-01    2.092497e+00   5.952863e-02
  2.508868e-01    2.149274e+00   5.995024e-02
  2.530973e-01    2.151367e+00   5.960758e-02
  2.553077e-01    2.133295e+00   5.899665e-02
  2.575182e-01    2.018931e+00   5.705393e-02
  2.597286e-01    1.988354e+00   5.629108e-02
  2.619391e-01    2.045191e+00   5.676128e-02
  2.641495e-01    2.077420e+00   5.689015e-02
  2.663600e-01    1.997536e+00   5.547884e-02
  2.685704e-01    2.003169e+00   5.525584e-02
  2.707809e-01    2.029348e+00   5.532052e-02
  2.729914e-01    2.042367e+00   5.520848e-02
  2.752018e-01    2.066761e+00   5.524815e-02
  2.774123e-01    2.003326e+00   5.411585e-02
  2.796227e-01    1.965279e+00   5.333434e-02
  2.818332e-01    1.976373e+00   5.321787e-02
  2.840436e-01    1.979464e+00   5.300130e-02
  2.862541e-01    1.944715e+00   5.228148e-02
  2.884646e-01    1.923373e+00   5.174705e-02
  2.906750e-01    1.949015e+00   5.184387e-02
  2.928855e-01    1.974320e+00   5.193757e-02
  2.950959e-01    1.974298e+00   5.169871e-02
  2.973064e-01    1.980299e+00   5.154452e-02
  2.995168e-01    1.875326e+00   4.993258e-02
  3.017273e-01    1.897162e+00   5.000100e-02
  3.039377e-01    1.902481e+00   4.985180e-02
  3.061482e-01    1.888695e+00   4.945600e-02
  3.083587e-01    1.881280e+00   4.914516e-02
  3.105691e-01    1.913125e+00   4.934768e-02
  3.127796e-01    1.909259e+00   4.909054e-02
  3.149900e-01    1.874644e+00   4.844085e-02
  3.172005e-01    1.821314e+00   4.755157e-02
  3.194109e-01    1.859628e+00   4.785079e-02
  3.216214e-01    1.834046e+00   4.732663e-02
  3.238319e-01    1.812455e+00   4.686081e-02
  3.260423e-01    1.818332e+00   4.674979e-02
  3.282528e-01    1.811531e+00   4.647651e-02
  3.304632e-01    1.857961e+00   4.688599e-02
  3.326737e-01    1.877350e+00   4.694611e-02
  3.348841e-01    1.820655e+00   4.605255e-02
  3.370946e-01    1.814355e+00   4.579982e-02
  3.393050e-01    1.784669e+00   4.525154e-02
  3.415155e-01    1.816490e+00   4.548151e-02
  3.437260e-01    1.796809e+00   4.506679e-02
  3.459364e-01    1.858320e+00   4.566216e-02
  3.481469e-01    1.878149e+00   4.573758e-02
  3.503573e-01    1.824250e+00   4.491231e-02
  3.525678e-01    1.822088e+00   4.472572e-02
  3.547782e-01    1.850542e+00   4.491066e-02
  3.569887e-01    1.814745e+00   4.431661e-02
  3.591992e-01    1.805608e+00   4.404848e-02
  3.614096e-01    1.771103e+00   4.347431e-02
  3.636201e-01    1.781513e+00   4.344865e-02
  3.658305e-01    1.768548e+00   4.314261e-02
  3.680410e-01    1.782257e+00   4.316052e-02
  3.702514e-01    1.756932e+00   4.270869e-02
  3.724619e-01    1.745326e+00   4.242243e-02
  3.746724e-01    1.766788e+00   4.254004e-02
  3.768828e-01    1.791321e+00   4.269025e-02
  3.790933e-01    1.748164e+00   4.203544e-02
  3.813037e-01    1.698990e+00   4.130443e-02
  3.835142e-01    1.720757e+00   4.143165e-02
  3.857246e-01    1.771525e+00   4.190233e-02
  3.879351e-01    1.801874e+00   4.212296e-02
  3.901455e-01    1.809412e+00   4.207660e-02
  3.923560e-01    1.813066e+00   4.198520e-02
  3.945665e-01    1.784484e+00   4.152086e-02
  3.967769e-01    1.749133e+00   4.097879e-02
  3.989874e-01    1.772648e+00   4.112452e-02
  4.011978e-01    1.781086e+00   4.109551e-02
  4.034083e-01    1.774040e+00   4.088823e-02
  4.056187e-01    1.757671e+00   4.057379e-02
  4.078292e-01    1.740984e+00   4.025850e-02
  4.100397e-01    1.807994e+00   4.090071e-02
  4.122501e-01    1.811867e+00   4.082199e-02
  4.144606e-01    1.792982e+00   4.048828e-02
  4.166710e-01    1.786013e+00   4.028936e-02
  4.188815e-01    1.797409e+00   4.029830e-02
  4.210919e-01    1.831167e+00   4.055577e-02
  4.233024e-01    1.799428e+00   4.008452e-02
  4.255128e-01    1.793486e+00   3.990259e-02
  4.277233e-01    1.806516e+00   3.993222e-02
  4.299338e-01    1.796505e+00   3.970684e-02
  4.321442e-01    1.809633e+00   3.973761e-02
  4.343547e-01    1.795132e+00   3.946618e-02
  4.365651e-01    1.766298e+00   3.903672e-02
  4.387756e-01    1.734282e+00   3.857299e-02
  4.409860e-01    1.722271e+00   3.833269e-02
  4.431965e-01    1.720725e+00   3.820952e-02
  4.454070e-01    1.710790e+00   3.799307e-02
  4.476174e-01    1.691242e+00   3.767167e-02
  4.498279e-01    1.648527e+00   3.709170e-02
  4.520383e-01    1.696882e+00   3.752848e-02
  4.542488e-01    1.720954e+00   3.769184e-02
  4.564592e-01    1.717488e+00   3.755284e-02
  4.586697e-01    1.688521e+00   3.713601e-02
  4.608801e-01    1.690186e+00   3.705476e-02
  4.630906e-01    1.731556e+00   3.740621e-02
  4.653011e-01    1.694709e+00   3.690876e-02
  4.675115e-01    1.672341e+00   3.656781e-02
  4.697220e-01    1.675260e+00   3.650389e-02
  4.719324e-01    1.681909e+00   3.648164e-02
  4.741429e-01    1.660426e+00   3.615451e-02
  4.763533e-01    1.665661e+00   3.611863e-02
  4.785638e-01    1.672807e+00   3.610251e-02
  4.807743e-01    1.692658e+00   3.622373e-02
  4.829847e-01    1.718476e+00   3.640675e-02
  4.851952e-01    1.709293e+00   3.621747e-02
  4.874056e-01    1.689021e+00   3.591128e-02
  4.896161e-01    1.685050e+00   3.578008e-02
  4.918265e-01    1.691173e+00   3.575603e-02
  4.940370e-01    1.676072e+00   3.550813e-02
  4.962475e-01    1.697437e+00   3.564550e-02
  4.984579e-01    1.659602e+00   3.515912e-02
  5.006684e-01    1.667679e+00   3.515866e-02
  5.028788e-01    1.663354e+00   3.502794e-02
  5.050893e-01    1.687088e+00   3.519117e-02
  5.072997e-01    1.659172e+00   3.481452e-02
  5.095102e-01    1.650566e+00   3.464093e-02
  5.117206e-01    1.684144e+00   3.490832e-02
  5.139311e-01    1.627819e+00   3.423839e-02
  5.161416e-01    1.633946e+00   3.422170e-02
  5.183520e-01    1.618896e+00   3.398278e-02
  5.205625e-01    1.667176e+00   3.440500e-02
  5.227729e-01    1.629551e+00   3.393523e-02
  5.249834e-01    1.676467e+00   3.434036e-02
  5.271938e-01    1.702496e+00   3.452516e-02
  5.294043e-01    1.725142e+00   3.467384e-02
  5.316148e-01    1.782314e+00   3.516297e-02
  5.338252e-01    1.763725e+00   3.489920e-02
  5.360357e-01    1.736054e+00   3.454552e-02
  5.382461e-01    1.725413e+00   3.436163e-02
  5.404566e-01    1.762482e+00   3.464974e-02
  5.426670e-01    1.775737e+00   3.470144e-02
  5.448775e-01    1.752202e+00   3.439371e-02
  5.470879e-01    1.748127e+00   3.427707e-02
  5.492984e-01    1.765996e+00   3.437519e-02
  5.515089e-01    1.774599e+00   3.438241e-02
  5.537193e-01    1.774334e+00   3.430409e-02
  5.559298e-01    1.748381e+00   3.397762e-02
  5.581402e-01    1.709010e+00   3.351945e-02
  5.603507e-01    1.792707e+00   3.425571e-02
  5.625611e-01    1.785605e+00   3.411362e-02
  5.647716e-01    1.791201e+00   3.409283e-02
  5.669821e-01    1.819526e+00   3.428727e-02
  5.691925e-01    1.777097e+00   3.381243e-02
  5.714030e-01    1.773902e+00   3.370996e-02
  5.736134e-01    1.733579e+00   3.325378e-02
  5.758239e-01    1.723577e+00   3.308691e-02
  5.780343e-01    1.697561e+00   3.276680e-02
  5.802448e-01    1.715972e+00   3.287503e-02
  5.824552e-01    1.662704e+00   3.229288e-02
  5.846657e-01    1.661928e+00   3.221801e-02
  5.868762e-01    1.661196e+00   3.214387e-02
  5.890866e-01    1.616927e+00   3.164688e-02
  5.912971e-01    1.617487e+00   3.158681e-02
  5.935075e-01    1.662023e+00   3.195256e-02
  5.957180e-01    1.591776e+00   3.120587e-02
  5.979284e-01    1.603189e+00   3.125359e-02
  6.001389e-01    1.617403e+00   3.132791e-02
  6.023494e-01    1.648061e+00   3.155923e-02
  6.045598e-01    1.633117e+00   3.135185e-02
  6.067703e-01    1.627496e+00   3.123492e-02
  6.089807e-01    1.616112e+00   3.106290e-02
  6.111912e-01    1.653373e+00   3.135622e-02
  6.134016e-01    1.638212e+00   3.114987e-02
  6.156121e-01    1.658130e+00   3.127636e-02
  6.178226e-01    1.689642e+00   3.150966e-02
  6.200330e-01    1.668579e+00   3.125088e-02
  6.222435e-01    1.711662e+00   3.158906e-02
  6.244539e-01    1.675019e+00   3.118791e-02
  6.266644e-01    1.687907e+00   3.124660e-02
  6.288748e-01    1.681765e+00   3.112900e-02
  6.310853e-01    1.694232e+00   3.118348e-02
  6.332957e-01    1.759007e+00   3.171267e-02
  6.355062e-01    1.745049e+00   3.152525e-02
  6.377167e-01    1.710481e+00   3.115156e-02
  6.399271e-01    1.672408e+00   3.074388e-02
  6.421376e-01    1.699214e+00   3.093012e-02
  6.443480e-01    1.727682e+00   3.112884e-02
  6.465585e-01    1.689030e+00   3.072034e-02
  6.487689e-01    1.664737e+00   3.044102e-02
  6.509794e-01    1.669729e+00   3.042914e-02
  6.531899e-01    1.665148e+00   3.033022e-02
  6.554003e-01    1.640812e+00   3.005116e-02
  6.576108e-01    1.634419e+00   2.993672e-02
  6.598212e-01    1.612152e+00   2.967686e-02
  6.620317e-01    1.578272e+00   2.930892e-02
  6.642421e-01    1.578392e+00   2.925582e-02
  6.664526e-01    1.564802e+00   2.907593e-02
  6.686630e-01    1.568226e+00   2.905390e-02
  6.708735e-01    1.576031e+00   2.907269e-02
  6.730840e-01    1.570811e+00   2.897159e-02
  6.752944e-01    1.579137e+00   2.899544e-02
  6.775049e-01    1.556298e+00   2.873273e-02
  6.797153e-01    1.563132e+00   2.874361e-02
  6.819258e-01    1.550640e+00   2.857688e-02
  6.841362e-01    1.583876e+00   2.882958e-02
  6.863467e-01    1.568240e+00   2.863554e-02
  6.885572e-01    1.578231e+00   2.867514e-02
  6.907676e-01    1.599716e+00   2.881791e-02
  6.929781e-01    1.616018e+00   2.891293e-02
  6.951885e-01    1.575470e+00   2.849733e-02
  6.973990e-01    1.570005e+00   2.839753e-02
  6.996094e-01    1.593038e+00   2.855479e-02
  7.018199e-01    1.579405e+00   2.838242e-02
  7.040303e-01    1.567592e+00   2.822642e-02
  7.062408e-01    1.588430e+00   2.836361e-02
  7.084513e-01    1.605701e+00   2.846783e-02
  7.106617e-01    1.560250e+00   2.801325e-02
  7.128722e-01    1.576082e+00   2.810631e-02
  7.150826e-01    1.567914e+00   2.798507e-02
  7.172931e-01    1.553810e+00   2.781091e-02
  7.195035e-01    1.534675e+00   2.759158e-02
  7.217140e-01    1.545290e+00   2.773585e-02
  7.239245e-01    1.528375e+00   2.780699e-02
  7.261349e-01    1.538097e+00   2.800265e-02
  7.283454e-01    1.555318e+00   2.823092e-02
  7.305558e-01    1.545267e+00   2.819305e-02
  7.327663e-01    1.583911e+00   2.858601e-02
  7.349767e-01    1.586870e+00   2.862916e-02
  7.371872e-01    1.523290e+00   2.803875e-02
  7.393976e-01    1.573879e+00   2.848627e-02
  7.416081e-01    1.589629e+00   2.861222e-02
  7.438186e-01    1.572106e+00   2.830987e-02
  7.460290e-01    1.536434e+00   2.769621e-02
  7.482395e-01    1.531862e+00   2.748612e-02
  7.504499e-01    1.552834e+00   2.753831e-02
  7.526604e-01    1.561664e+00   2.750044e-02
  7.548708e-01    1.562874e+00   2.742201e-02
  7.570813e-01    1.541338e+00   2.718197e-02
  7.592918e-01    1.571988e+00   2.741577e-02
  7.615022e-01    1.555357e+00   2.723676e-02
  7.637127e-01    1.544465e+00   2.710877e-02
  7.659231e-01    1.543087e+00   2.706498e-02
  7.681336e-01    1.548948e+00   2.708499e-02
  7.703440e-01    1.570402e+00   2.724075e-02
  7.725545e-01    1.556627e+00   2.709029e-02
  7.747650e-01    1.657546e+00   2.791547e-02
  7.769754e-01    1.591036e+00   2.729674e-02
  7.791859e-01    1.596537e+00   2.729001e-02
  7.813963e-01    1.593941e+00   2.721499e-02
  7.836068e-01    1.627268e+00   2.744533e-02
  7.858172e-01    1.649625e+00   2.758156e-02
  7.880277e-01    1.676906e+00   2.775580e-02
  7.902381e-01    1.650590e+00   2.748711e-02
  7.924486e-01    1.652510e+00   2.745215e-02
  7.946591e-01    1.651441e+00   2.739420e-02
  7.968695e-01    1.625986e+00   2.713365e-02
  7.990800e-01    1.597281e+00   2.684499e-02
  8.012904e-01    1.622915e+00   2.701274e-02
  8.035009e-01    1.610453e+00   2.686095e-02
  8.057113e-01    1.636044e+00   2.702671e-02
  8.079218e-01    1.649557e+00   2.709126e-02
  8.101323e-01    1.633180e+00   2.691069e-02
  8.123427e-01    1.646271e+00   2.697223e-02
  8.145532e-01    1.635479e+00   2.683771e-02
  8.167636e-01    1.627530e+00   2.672738e-02
  8.189741e-01    1.617548e+00   2.660087e-02
  8.211845e-01    1.645435e+00   2.678423e-02
  8.233950e-01    1.631833e+00   2.662992e-02
  8.256054e-01    1.651524e+00   2.674570e-02
  8.278159e-01    1.649746e+00   2.668719e-02
  8.300264e-01    1.640638e+00   2.657030e-02
  8.322368e-01    1.648033e+00   2.658686e-02
  8.344473e-01    1.631745e+00   2.641189e-02
  8.366577e-01    1.612532e+00   2.621367e-02
  8.388682e-01    1.642005e+00   2.640988e-02
  8.410786e-01    1.621594e+00   2.620337e-02
  8.432891e-01    1.626876e+00   2.620434e-02
  8.454996e-01    1.605489e+00   2.599033e-02
  8.477100e-01    1.577538e+00   2.572219e-02
  8.499205e-01    1.613087e+00   2.596955e-02
  8.521309e-01    1.617994e+00   2.596847e-02
  8.543414e-01    1.591625e+00   2.571581e-02
  8.565518e-01    1.578802e+00   2.557213e-02
  8.587623e-01    1.623900e+00   2.589440e-02
  8.609727e-01    1.621132e+00   2.583224e-02
  8.631832e-01    1.601225e+00   2.563354e-02
  8.653937e-01    1.572603e+00   2.536437e-02
  8.676041e-01    1.600705e+00   2.555139e-02
  8.698146e-01    1.566499e+00   2.523826e-02
  8.720250e-01    1.573764e+00   2.525815e-02
  8.742355e-01    1.616259e+00   2.555795e-02
  8.764459e-01    1.592962e+00   2.533437e-02
  8.786564e-01    1.569207e+00   2.510727e-02
  8.808669e-01    1.567482e+00   2.505544e-02
  8.830773e-01    1.553169e+00   2.490322e-02
  8.852878e-01    1.554167e+00   2.487387e-02
  8.874982e-01    1.570487e+00   2.496784e-02
  8.897087e-01    1.571417e+00   2.493791e-02
  8.919191e-01    1.583392e+00   2.499518e-02
  8.941296e-01    1.579648e+00   2.492858e-02
  8.963401e-01    1.561620e+00   2.474994e-02
  8.985505e-01    1.533302e+00   2.448833e-02
  9.007610e-01    1.556632e+00   2.463766e-02
  9.029714e-01    1.579282e+00   2.478067e-02
  9.051819e-01    1.562728e+00   2.461367e-02
  9.073923e-01    1.596410e+00   2.484095e-02
  9.096028e-01    1.644476e+00   2.517676e-02
  9.118132e-01    1.658848e+00   2.524967e-02
  9.140237e-01    1.607046e+00   2.481561e-02
  9.162342e-01    1.616979e+00   2.485742e-02
  9.184446e-01    1.615756e+00   2.481209e-02
  9.206551e-01    1.611388e+00   2.474282e-02
  9.228655e-01    1.587342e+00   2.452240e-02
  9.250760e-01    1.600475e+00   2.458829e-02
  9.272864e-01    1.594351e+00   2.450705e-02
  9.294969e-01    1.585506e+00   2.440335e-02
  9.317074e-01    1.588254e+00   2.438997e-02
  9.339178e-01    1.590487e+00   2.437378e-02
  9.361283e-01    1.628812e+00   2.462932e-02
  9.383387e-01    1.632778e+00   2.462575e-02
  9.405492e-01    1.632814e+00   2.459164e-02
  9.427596e-01    1.638049e+00   2.459556e-02
  9.449701e-01    1.679915e+00   2.487405e-02
  9.471805e-01    1.689275e+00   2.490792e-02
  9.493910e-01    1.688226e+00   2.486601e-02
  9.516015e-01    1.727944e+00   2.512169e-02
  9.538119e-01    1.709774e+00   2.495503e-02
  9.560224e-01    1.719761e+00   2.499256e-02
  9.582328e-01    1.722435e+00   2.497846e-02
  9.604433e-01    1.752624e+00   2.516068e-02
  9.626537e-01    1.753869e+00   2.513582e-02
  9.648642e-01    1.763843e+00   2.517263e-02
  9.670747e-01    1.765073e+00   2.514670e-02
  9.692851e-01    1.782499e+00   2.523693e-02
  9.714956e-01    1.819903e+00   2.546438e-02
  9.737060e-01    1.787346e+00   2.520245e-02
  9.759165e-01    1.799320e+00   2.525105e-02
  9.781269e-01    1.776666e+00   2.505879e-02
  9.803374e-01    1.770454e+00   2.498031e-02
  9.825478e-01    1.818700e+00   2.528501e-02
  9.847583e-01    1.820572e+00   2.526366e-02
  9.869688e-01    1.830868e+00   2.530109e-02
  9.891792e-01    1.829845e+00   2.526039e-02
  9.913897e-01    1.816005e+00   2.513075e-02
  9.936001e-01    1.780719e+00   2.485281e-02
  9.958106e-01    1.803780e+00   2.497922e-02
  9.980210e-01    1.786221e+00   2.482508e-02
  1.000231e+00    1.828802e+00   2.525684e-02
  1.002442e+00    1.759158e+00   2.490291e-02
  1.004652e+00    1.689127e+00   2.447024e-02
  1.006863e+00    1.629815e+00   2.408667e-02
  1.009073e+00    1.582377e+00   2.376985e-02
  1.011284e+00    1.563797e+00   2.366148e-02
  1.013494e+00    1.591507e+00   2.389386e-02
  1.015705e+00    1.557104e+00   2.365655e-02
  1.017915e+00    1.519035e+00   2.338167e-02
  1.020126e+00    1.502982e+00   2.327351e-02
  1.022336e+00    1.514894e+00   2.337706e-02
  1.024547e+00    1.548509e+00   2.364621e-02
  1.026757e+00    1.534157e+00   2.354473e-02
  1.028967e+00    1.529440e+00   2.351613e-02
  1.031178e+00    1.534291e+00   2.355958e-02
  1.033388e+00    1.491820e+00   2.323619e-02
  1.035599e+00    1.483845e+00   2.317738e-02
  1.037809e+00    1.522038e+00   2.347700e-02
  1.040020e+00    1.522568e+00   2.348239e-02
  1.042230e+00    1.488107e+00   2.321702e-02
  1.044441e+00    1.487311e+00   2.321060e-02
  1.046651e+00    1.505687e+00   2.335372e-02
  1.048862e+00    1.493173e+00   2.325566e-02
  1.051072e+00    1.533779e+00   2.356737e-02
  1.053282e+00    1.511665e+00   2.339594e-02
  1.055493e+00    1.466865e+00   2.304237e-02
  1.057703e+00    1.438315e+00   2.281554e-02
  1.059914e+00    1.441182e+00   2.283407e-02
  1.062124e+00    1.459584e+00   2.297536e-02
  1.064335e+00    1.470781e+00   2.305991e-02
  1.066545e+00    1.463780e+00   2.299900e-02
  1.068756e+00    1.476656e+00   2.309621e-02
  1.070966e+00    1.483290e+00   2.314147e-02
  1.073177e+00    1.481927e+00   2.312477e-02
  1.075387e+00    1.468832e+00   2.301716e-02
  1.077597e+00    1.430763e+00   2.270976e-02
  1.079808e+00    1.426921e+00   2.254819e-02
  1.082018e+00    1.416592e+00   2.228040e-02
  1.084229e+00    1.404671e+00   2.207850e-02
  1.086439e+00    1.439445e+00   2.226317e-02
  1.088650e+00    1.420645e+00   2.204253e-02
  1.090860e+00    1.410593e+00   2.189781e-02
  1.093071e+00    1.412657e+00   2.185244e-02
  1.095281e+00    1.411908e+00   2.179011e-02
  1.097492e+00    1.384946e+00   2.152726e-02
  1.099702e+00    1.409308e+00   2.166495e-02
  1.101912e+00    1.413303e+00   2.164724e-02
  1.104123e+00    1.401523e+00   2.150918e-02
  1.106333e+00    1.424684e+00   2.164188e-02
  1.108544e+00    1.420724e+00   2.156769e-02
  1.110754e+00    1.392244e+00   2.130790e-02
  1.112965e+00    1.402494e+00   2.134595e-02
  1.115175e+00    1.396983e+00   2.126312e-02
  1.117386e+00    1.403621e+00   2.127449e-02
  1.119596e+00    1.373887e+00   2.101058e-02
  1.121807e+00    1.374865e+00   2.097972e-02
  1.124017e+00    1.383032e+00   2.100560e-02
  1.126228e+00    1.383547e+00   2.097404e-02
  1.128438e+00    1.360231e+00   2.076033e-02
  1.130648e+00    1.385345e+00   2.091693e-02
  1.132859e+00    1.409914e+00   2.106709e-02
  1.135069e+00    1.378535e+00   2.079680e-02
  1.137280e+00    1.360163e+00   2.062509e-02
  1.139490e+00    1.386659e+00   2.079196e-02
  1.141701e+00    1.369190e+00   2.062765e-02
  1.143911e+00    1.333251e+00   2.032385e-02
  1.146122e+00    1.357240e+00   2.047412e-02
  1.148332e+00    1.364374e+00   2.049617e-02
  1.150543e+00    1.399203e+00   2.072505e-02
  1.152753e+00    1.348023e+00   2.031196e-02
  1.154963e+00    1.355941e+00   2.034067e-02
  1.157174e+00    1.378213e+00   2.047684e-02
  1.159384e+00    1.359013e+00   2.030401e-02
  1.161595e+00    1.330752e+00   2.006237e-02
  1.163805e+00    1.331836e+00   2.004168e-02
  1.166016e+00    1.325423e+00   1.996437e-02
  1.168226e+00    1.373479e+00   2.029405e-02
  1.170437e+00    1.375465e+00   2.028001e-02
  1.172647e+00    1.357009e+00   2.011468e-02
  1.174858e+00    1.400207e+00   2.040385e-02
  1.177068e+00    1.411491e+00   2.045717e-02
  1.179278e+00    1.419356e+00   2.048490e-02
  1.181489e+00    1.416512e+00   2.043680e-02
  1.183699e+00    1.409547e+00   2.035842e-02
  1.185910e+00    1.357395e+00   1.995049e-02
  1.188120e+00    1.361261e+00   1.995212e-02
  1.190331e+00    1.382931e+00   2.008328e-02
  1.192541e+00    1.368177e+00   1.994834e-02
  1.194752e+00    1.391827e+00   2.009257e-02
  1.196962e+00    1.394440e+00   2.008530e-02
  1.199173e+00    1.394254e+00   2.005702e-02
  1.201383e+00    1.387514e+00   1.998096e-02
  1.203593e+00    1.368864e+00   1.982122e-02
  1.205804e+00    1.365360e+00   1.976977e-02
  1.208014e+00    1.358389e+00   1.969231e-02
  1.210225e+00    1.344099e+00   1.956317e-02
  1.212435e+00    1.340077e+00   1.950917e-02
  1.214646e+00    1.349193e+00   1.954933e-02
  1.216856e+00    1.353425e+00   1.955446e-02
  1.219067e+00    1.342846e+00   1.945348e-02
  1.221277e+00    1.344597e+00   1.944117e-02
  1.223488e+00    1.346234e+00   1.942732e-02
  1.225698e+00    1.340562e+00   1.935952e-02
  1.227909e+00    1.357174e+00   1.944887e-02
  1.230119e+00    1.343022e+00   1.931541e-02
  1.232329e+00    1.331181e+00   1.919959e-02
  1.234540e+00    1.307529e+00   1.899845e-02
  1.236750e+00    1.292762e+00   1.886123e-02
  1.238961e+00    1.337992e+00   1.916149e-02
  1.241171e+00    1.349632e+00   1.922050e-02
  1.243382e+00    1.352889e+00   1.922012e-02
  1.245592e+00    1.358977e+00   1.923915e-02
  1.247803e+00    1.343287e+00   1.910418e-02
  1.250013e+00    1.333259e+00   1.900933e-02
  1.252224e+00    1.329988e+00   1.896292e-02
  1.254434e+00    1.341603e+00   1.902186e-02
  1.256644e+00    1.374750e+00   1.923199e-02
  1.258855e+00    1.400112e+00   1.938491e-02
  1.261065e+00    1.400379e+00   1.936295e-02
  1.263276e+00    1.378434e+00   1.918745e-02
  1.265486e+00    1.368802e+00   1.909727e-02
  1.267697e+00    1.316433e+00   1.870566e-02
  1.269907e+00    1.311651e+00   1.864925e-02
  1.272118e+00    1.357354e+00   1.894876e-02
  1.274328e+00    1.353471e+00   1.889886e-02
  1.276539e+00    1.363122e+00   1.894325e-02
  1.278749e+00    1.331356e+00   1.869908e-02
  1.280959e+00    1.321024e+00   1.860409e-02
  1.283170e+00    1.353355e+00   1.880790e-02
  1.285380e+00    1.359834e+00   1.883035e-02
  1.287591e+00    1.360419e+00   1.881226e-02
  1.289801e+00    1.375177e+00   1.889263e-02
  1.292012e+00    1.350290e+00   1.870378e-02
  1.294222e+00    1.369308e+00   1.881870e-02
  1.296433e+00    1.348949e+00   1.866266e-02
  1.298643e+00    1.378105e+00   1.884664e-02
  1.300854e+00    1.388801e+00   1.890298e-02
  1.303064e+00    1.396222e+00   1.893388e-02
  1.305274e+00    1.371140e+00   1.874146e-02
  1.307485e+00    1.363087e+00   1.866466e-02
  1.309695e+00    1.392676e+00   1.884357e-02
  1.311906e+00    1.384194e+00   1.876413e-02
  1.314116e+00    1.359622e+00   1.857597e-02
  1.316327e+00    1.366120e+00   1.859847e-02
  1.318537e+00    1.369203e+00   1.859741e-02
  1.320748e+00    1.402041e+00   1.879712e-02
  1.322958e+00    1.439970e+00   1.902852e-02
  1.325169e+00    1.406607e+00   1.878532e-02
  1.327379e+00    1.403724e+00   1.874383e-02
  1.329589e+00    1.393611e+00   1.865477e-02
  1.331800e+00    1.409836e+00   1.874191e-02
  1.334010e+00    1.386134e+00   1.856277e-02
  1.336221e+00    1.372190e+00   1.844723e-02
  1.338431e+00    1.370918e+00   1.841765e-02
  1.340642e+00    1.361911e+00   1.842151e-02
  1.342852e+00    1.330052e+00   1.830468e-02
  1.345063e+00    1.378697e+00   1.868641e-02
  1.347273e+00    1.373263e+00   1.868511e-02
  1.349484e+00    1.382863e+00   1.877830e-02
  1.351694e+00    1.387543e+00   1.883310e-02
  1.353905e+00    1.368979e+00   1.872479e-02
  1.356115e+00    1.376872e+00   1.879388e-02
  1.358325e+00    1.435352e+00   1.920256e-02
  1.360536e+00    1.544445e+00   1.993137e-02
  1.362746e+00    1.545027e+00   1.994542e-02
  1.364957e+00    1.408338e+00   1.905055e-02
  1.367167e+00    1.347868e+00   1.864419e-02
  1.369378e+00    1.337640e+00   1.857931e-02
  1.371588e+00    1.321999e+00   1.847547e-02
  1.373799e+00    1.331611e+00   1.854617e-02
  1.376009e+00    1.344383e+00   1.863828e-02
  1.378220e+00    1.344138e+00   1.863915e-02
  1.380430e+00    1.314178e+00   1.843293e-02
  1.382640e+00    1.310288e+00   1.840653e-02
  1.384851e+00    1.299341e+00   1.833035e-02
  1.387061e+00    1.259977e+00   1.805084e-02
  1.389272e+00    1.269090e+00   1.811619e-02
  1.391482e+00    1.294864e+00   1.829856e-02
  1.393693e+00    1.310432e+00   1.840736e-02
  1.395903e+00    1.291826e+00   1.827472e-02
  1.398114e+00    1.311218e+00   1.840996e-02
  1.400324e+00    1.361638e+00   1.875835e-02
  1.402535e+00    1.432245e+00   1.923614e-02
  1.404745e+00    1.409425e+00   1.907981e-02
  1.406955e+00    1.376917e+00   1.885570e-02
  1.409166e+00    1.315248e+00   1.842524e-02
  1.411376e+00    1.313931e+00   1.841283e-02
  1.413587e+00    1.291178e+00   1.824889e-02
  1.415797e+00    1.271706e+00   1.810720e-02
  1.418008e+00    1.288635e+00   1.818514e-02
  1.420218e+00    1.298731e+00   1.810483e-02
  1.422429e+00    1.280618e+00   1.789248e-02
  1.424639e+00    1.259475e+00   1.767973e-02
  1.426850e+00    1.270676e+00   1.770345e-02
  1.429060e+00    1.292329e+00   1.780425e-02
  1.431270e+00    1.266249e+00   1.757944e-02
  1.433481e+00    1.277546e+00   1.761660e-02
  1.435691e+00    1.296161e+00   1.770565e-02
  1.437902e+00    1.283098e+00   1.757958e-02
  1.440112e+00    1.249344e+00   1.731174e-02
  1.442323e+00    1.254759e+00   1.731636e-02
  1.444533e+00    1.256780e+00   1.729792e-02
  1.446744e+00    1.260799e+00   1.729455e-02
  1.448954e+00    1.236370e+00   1.709638e-02
  1.451165e+00    1.267865e+00   1.728303e-02
  1.453375e+00    1.282036e+00   1.735117e-02
  1.455586e+00    1.267601e+00   1.722509e-02
  1.457796e+00    1.266935e+00   1.719307e-02
  1.460006e+00    1.279594e+00   1.725142e-02
  1.462217e+00    1.251359e+00   1.703398e-02
  1.464427e+00    1.253849e+00   1.702549e-02
  1.466638e+00    1.253224e+00   1.699606e-02
  1.468848e+00    1.271598e+00   1.709485e-02
  1.471059e+00    1.259564e+00   1.698878e-02
  1.473269e+00    1.240297e+00   1.683424e-02
  1.475480e+00    1.247264e+00   1.685790e-02
  1.477690e+00    1.228547e+00   1.670747e-02
  1.479901e+00    1.228137e+00   1.668122e-02
  1.482111e+00    1.243626e+00   1.676296e-02
  1.484321e+00    1.253101e+00   1.680372e-02
  1.486532e+00    1.250875e+00   1.676660e-02
  1.488742e+00    1.234235e+00   1.663232e-02
  1.490953e+00    1.249523e+00   1.671254e-02
  1.493163e+00    1.255830e+00   1.673246e-02
  1.495374e+00    1.256043e+00   1.671245e-02
  1.497584e+00    1.240900e+00   1.658993e-02
  1.499795e+00    1.233812e+00   1.652106e-02
  1.502005e+00    1.258874e+00   1.666633e-02
  1.504216e+00    1.248584e+00   1.657714e-02
  1.506426e+00    1.258586e+00   1.662256e-02
  1.508636e+00    1.282477e+00   1.675896e-02
  1.510847e+00    1.257654e+00   1.657414e-02
  1.513057e+00    1.249633e+00   1.649618e-02
  1.515268e+00    1.256505e+00   1.651575e-02
  1.517478e+00    1.219404e+00   1.624529e-02
  1.519689e+00    1.223484e+00   1.624778e-02
  1.521899e+00    1.256116e+00   1.643989e-02
  1.524110e+00    1.254538e+00   1.640924e-02
  1.526320e+00    1.241373e+00   1.630341e-02
  1.528531e+00    1.238636e+00   1.626575e-02
  1.530741e+00    1.218582e+00   1.611463e-02
  1.532951e+00    1.236471e+00   1.621300e-02
  1.535162e+00    1.244236e+00   1.635023e-02
  1.537372e+00    1.271659e+00   1.659696e-02
  1.539583e+00    1.254286e+00   1.651751e-02
  1.541793e+00    1.250897e+00   1.650213e-02
  1.544004e+00    1.237298e+00   1.641245e-02
  1.546214e+00    1.252085e+00   1.650872e-02
  1.548425e+00    1.240978e+00   1.643560e-02
  1.550635e+00    1.230117e+00   1.637312e-02
  1.552846e+00    1.247204e+00   1.649613e-02
  1.555056e+00    1.231870e+00   1.635314e-02
  1.557266e+00    1.235170e+00   1.626498e-02
  1.559477e+00    1.249587e+00   1.630039e-02
  1.561687e+00    1.258383e+00   1.632683e-02
  1.563898e+00    1.255612e+00   1.629160e-02
  1.566108e+00    1.248265e+00   1.622789e-02
  1.568319e+00    1.264418e+00   1.631680e-02
  1.570529e+00    1.278866e+00   1.638428e-02
  1.572740e+00    1.278957e+00   1.635686e-02
  1.574950e+00    1.268611e+00   1.626401e-02
  1.577161e+00    1.248000e+00   1.610584e-02
  1.579371e+00    1.260490e+00   1.616240e-02
  1.581582e+00    1.248737e+00   1.606709e-02
  1.583792e+00    1.240801e+00   1.599796e-02
  1.586002e+00    1.201853e+00   1.572756e-02
  1.588213e+00    1.239070e+00   1.595199e-02
  1.590423e+00    1.233499e+00   1.589612e-02
  1.592634e+00    1.231530e+00   1.586189e-02
  1.594844e+00    1.290014e+00   1.621237e-02
  1.597055e+00    1.306345e+00   1.629365e-02
  1.599265e+00    1.307520e+00   1.627972e-02
  1.601476e+00    1.262003e+00   1.597339e-02
  1.603686e+00    1.221150e+00   1.569309e-02
  1.605897e+00    1.242458e+00   1.580921e-02
  1.608107e+00    1.252030e+00   1.585033e-02
  1.610317e+00    1.231400e+00   1.569995e-02
  1.612528e+00    1.226167e+00   1.564744e-02
  1.614738e+00    1.235240e+00   1.568623e-02
  1.616949e+00    1.232869e+00   1.565217e-02
  1.619159e+00    1.242028e+00   1.569131e-02
  1.621370e+00    1.261132e+00   1.579276e-02
  1.623580e+00    1.232287e+00   1.559266e-02
  1.625791e+00    1.206479e+00   1.541026e-02
  1.628001e+00    1.212560e+00   1.543071e-02
  1.630212e+00    1.204494e+00   1.536146e-02
  1.632422e+00    1.176313e+00   1.516288e-02
  1.634632e+00    1.168610e+00   1.509594e-02
  1.636843e+00    1.181376e+00   1.516058e-02
  1.639053e+00    1.189109e+00   1.519273e-02
  1.641264e+00    1.179117e+00   1.511161e-02
  1.643474e+00    1.146054e+00   1.488095e-02
  1.645685e+00    1.164229e+00   1.498179e-02
  1.647895e+00    1.126046e+00   1.471769e-02
  1.650106e+00    1.126449e+00   1.470349e-02
  1.652316e+00    1.141641e+00   1.478585e-02
  1.654527e+00    1.135816e+00   1.473150e-02
  1.656737e+00    1.121767e+00   1.462363e-02
  1.658947e+00    1.114003e+00   1.455680e-02
  1.661158e+00    1.108210e+00   1.450276e-02
  1.663368e+00    1.107689e+00   1.448344e-02
  1.665579e+00    1.106648e+00   1.446057e-02
  1.667789e+00    1.090775e+00   1.434045e-02
  1.670000e+00    1.100312e+00   1.438758e-02
  1.672210e+00    1.085189e+00   1.427269e-02
  1.674421e+00    1.069275e+00   1.415255e-02
  1.676631e+00    1.099281e+00   1.433389e-02
  1.678842e+00    1.091231e+00   1.426563e-02
  1.681052e+00    1.076658e+00   1.415476e-02
  1.683263e+00    1.049077e+00   1.395745e-02
  1.685473e+00    1.059572e+00   1.401210e-02
  1.687683e+00    1.051355e+00   1.394248e-02
  1.689894e+00    1.053393e+00   1.394041e-02
  1.692104e+00    1.047245e+00   1.388496e-02
  1.694315e+00    1.050456e+00   1.389187e-02
  1.696525e+00    1.065150e+00   1.397358e-02
  1.698736e+00    1.065691e+00   1.396229e-02
  1.700946e+00    1.048330e+00   1.383306e-02
  1.703157e+00    1.022775e+00   1.364901e-02
  1.705367e+00    1.011505e+00   1.355939e-02
  1.707578e+00    1.021119e+00   1.360929e-02
  1.709788e+00    1.033384e+00   1.367676e-02
  1.711998e+00    9.892286e-01   1.336677e-02
  1.714209e+00    9.900373e-01   1.335810e-02
  1.716419e+00    1.030282e+00   1.361267e-02
  1.718630e+00    1.031819e+00   1.360856e-02
  1.720840e+00    1.019401e+00   1.351230e-02
  1.723051e+00    9.967278e-01   1.334751e-02
  1.725261e+00    9.971128e-01   1.333558e-02
  1.727472e+00    9.876142e-01   1.325796e-02
  1.729682e+00    9.553991e-01   1.302688e-02
  1.731893e+00    9.802830e-01   1.318172e-02
  1.734103e+00    9.929293e-01   1.325282e-02
  1.736313e+00    9.815464e-01   1.316279e-02
  1.738524e+00    9.804081e-01   1.314147e-02
  1.740734e+00    9.823658e-01   1.314101e-02
  1.742945e+00    9.688921e-01   1.303731e-02
  1.745155e+00    9.729547e-01   1.305129e-02
  1.747366e+00    9.760969e-01   1.305865e-02
  1.749576e+00    9.557237e-01   1.290817e-02
  1.751787e+00    9.685075e-01   1.298096e-02
  1.753997e+00    9.781238e-01   1.303190e-02
  1.756208e+00    9.574544e-01   1.288038e-02
  1.758418e+00    9.330913e-01   1.270260e-02
  1.760628e+00    9.292489e-01   1.266334e-02
  1.762839e+00    9.430343e-01   1.274385e-02
  1.765049e+00    9.547393e-01   1.280964e-02
  1.767260e+00    9.612570e-01   1.284045e-02
  1.769470e+00    9.606135e-01   1.282315e-02
  1.771681e+00    9.340963e-01   1.263192e-02
  1.773891e+00    9.241376e-01   1.255150e-02
  1.776102e+00    9.162702e-01   1.248534e-02
  1.778312e+00    9.036633e-01   1.238666e-02
  1.780523e+00    9.055188e-01   1.238690e-02
  1.782733e+00    9.172972e-01   1.245466e-02
  1.784944e+00    8.963147e-01   1.229879e-02
  1.787154e+00    9.031737e-01   1.233341e-02
  1.789364e+00    9.040212e-01   1.232690e-02
  1.791575e+00    9.030688e-01   1.230803e-02
  1.793785e+00    9.098650e-01   1.234193e-02
  1.795996e+00    8.975527e-01   1.224580e-02
  1.798206e+00    8.989799e-01   1.224313e-02
  1.800417e+00    9.162009e-01   1.234716e-02
  1.802627e+00    9.099861e-01   1.229332e-02
  1.804838e+00    9.309293e-01   1.242173e-02
  1.807048e+00    9.310422e-01   1.240951e-02
  1.809259e+00    9.060922e-01   1.222851e-02
  1.811469e+00    9.164326e-01   1.228302e-02
  1.813679e+00    8.983380e-01   1.214622e-02
  1.815890e+00    8.718996e-01   1.195161e-02
  1.818100e+00    8.877125e-01   1.204446e-02
  1.820311e+00    8.952399e-01   1.208063e-02
  1.822521e+00    9.109935e-01   1.217146e-02
  1.824732e+00    8.917797e-01   1.202759e-02
  1.826942e+00    9.011666e-01   1.207829e-02
  1.829153e+00    9.220225e-01   1.220532e-02
  1.831363e+00    9.341142e-01   1.227272e-02
  1.833574e+00    9.508732e-01   1.237020e-02
  1.835784e+00    9.454666e-01   1.232314e-02
  1.837994e+00    9.277520e-01   1.219511e-02
  1.840205e+00    8.802661e-01   1.186772e-02
  1.842415e+00    8.357587e-01   1.155227e-02
  1.844626e+00    8.569734e-01   1.168649e-02
  1.846836e+00    8.716852e-01   1.177492e-02
  1.849047e+00    8.604828e-01   1.168747e-02
  1.851257e+00    8.347424e-01   1.150191e-02
  1.853468e+00    8.555411e-01   1.163555e-02
  1.855678e+00    8.486085e-01   1.157949e-02
  1.857889e+00    8.649576e-01   1.168196e-02
  1.860099e+00    8.623417e-01   1.165565e-02
  1.862309e+00    8.585868e-01   1.162171e-02
  1.864520e+00    8.569982e-01   1.160239e-02
  1.866730e+00    8.484387e-01   1.153493e-02
  1.868941e+00    8.828837e-01   1.175562e-02
  1.871151e+00    8.595929e-01   1.158809e-02
  1.873362e+00    8.605791e-01   1.158332e-02
  1.875572e+00    8.476585e-01   1.148511e-02
  1.877783e+00    8.495001e-01   1.148614e-02
  1.879993e+00    8.454995e-01   1.144791e-02
  1.882204e+00    8.413551e-01   1.140895e-02
  1.884414e+00    8.362600e-01   1.136333e-02
  1.886624e+00    8.272570e-01   1.129103e-02
  1.888835e+00    8.292321e-01   1.129361e-02
  1.891045e+00    8.276913e-01   1.127231e-02
  1.893256e+00    8.286458e-01   1.126778e-02
  1.895466e+00    8.156105e-01   1.116779e-02
  1.897677e+00    8.124828e-01   1.113558e-02
  1.899887e+00    8.242044e-01   1.120469e-02
  1.902098e+00    8.337001e-01   1.125821e-02
  1.904308e+00    8.360879e-01   1.126369e-02
  1.906519e+00    8.403052e-01   1.128117e-02
  1.908729e+00    8.380687e-01   1.125548e-02
  1.910940e+00    8.226691e-01   1.114049e-02
  1.913150e+00    8.304141e-01   1.118220e-02
  1.915360e+00    8.103639e-01   1.103585e-02
  1.917571e+00    8.098232e-01   1.102137e-02
  1.919781e+00    8.108504e-01   1.101774e-02
  1.921992e+00    8.167692e-01   1.104730e-02
  1.924202e+00    8.058981e-01   1.096284e-02
  1.926413e+00    7.927553e-01   1.086292e-02
  1.928623e+00    7.997669e-01   1.090041e-02
  1.930834e+00    8.166906e-01   1.100468e-02
  1.933044e+00    8.069583e-01   1.092828e-02
  1.935255e+00    8.089233e-01   1.093125e-02
  1.937465e+00    8.101345e-01   1.092903e-02
  1.939675e+00    8.059574e-01   1.088997e-02
  1.941886e+00    7.973173e-01   1.082122e-02
  1.944096e+00    8.088303e-01   1.088883e-02
  1.946307e+00    8.099209e-01   1.088580e-02
  1.948517e+00    7.943427e-01   1.077019e-02
  1.950728e+00    8.025134e-01   1.081516e-02
  1.952938e+00    8.256283e-01   1.095955e-02
  1.955149e+00    8.211595e-01   1.091946e-02
  1.957359e+00    8.039603e-01   1.079441e-02
  1.959570e+00    7.913929e-01   1.069887e-02
  1.961780e+00    7.968038e-01   1.072542e-02
  1.963990e+00    7.849674e-01   1.063541e-02
  1.966201e+00    7.855626e-01   1.062940e-02
  1.968411e+00    7.963135e-01   1.069169e-02
  1.970622e+00    8.094862e-01   1.076952e-02
  1.972832e+00    7.835552e-01   1.058570e-02
  1.975043e+00    7.825103e-01   1.056859e-02
  1.977253e+00    7.959646e-01   1.064906e-02
  1.979464e+00    7.717498e-01   1.047587e-02
  1.981674e+00    7.855464e-01   1.055880e-02
  1.983885e+00    7.900065e-01   1.057868e-02
  1.986095e+00    7.704628e-01   1.043737e-02
  1.988305e+00    7.533472e-01   1.031105e-02
  1.990516e+00    7.642324e-01   1.037543e-02
  1.992726e+00    7.760070e-01   1.044542e-02
  1.994937e+00    7.737734e-01   1.042025e-02
  1.997147e+00    7.859761e-01   1.049231e-02
  1.999358e+00    7.859514e-01   1.048222e-02
  2.001568e+00    7.843110e-01   1.046040e-02
  2.003779e+00    7.568261e-01   1.026368e-02
  2.005989e+00    7.687098e-01   1.033194e-02
  2.008200e+00    7.930671e-01   1.048265e-02
  2.010410e+00    7.965957e-01   1.049402e-02
  2.012621e+00    7.676030e-01   1.028957e-02
  2.014831e+00    7.727833e-01   1.031271e-02
  2.017041e+00    7.896632e-01   1.041420e-02
  2.019252e+00    7.738609e-01   1.029947e-02
  2.021462e+00    7.618278e-01   1.020958e-02
  2.023673e+00    7.552646e-01   1.015618e-02
  2.025883e+00    7.601249e-01   1.017931e-02
  2.028094e+00    7.530760e-01   1.012241e-02
  2.030304e+00    7.562660e-01   1.013434e-02
  2.032515e+00    7.428991e-01   1.003517e-02
  2.034725e+00    7.654479e-01   1.017687e-02
  2.036936e+00    7.561437e-01   1.010548e-02
  2.039146e+00    7.746373e-01   1.021863e-02
  2.041356e+00    7.684900e-01   1.016831e-02
  2.043567e+00    7.582856e-01   1.009124e-02
  2.045777e+00    7.443021e-01   9.988579e-03
  2.047988e+00    7.562454e-01   1.005902e-02
  2.050198e+00    7.466974e-01   9.986943e-03
  2.052409e+00    7.362150e-01   9.908996e-03
  2.054619e+00    7.773021e-01   1.017425e-02
  2.056830e+00    7.720464e-01   1.013254e-02
  2.059040e+00    7.735524e-01   1.013478e-02
  2.061251e+00    7.610608e-01   1.004533e-02
  2.063461e+00    7.542266e-01   9.992497e-03
  2.065671e+00    7.363891e-01   9.864989e-03
  2.067882e+00    7.316279e-01   9.824134e-03
  2.070092e+00    7.312312e-01   9.812377e-03
  2.072303e+00    7.334638e-01   9.818287e-03
  2.074513e+00    7.260955e-01   9.759643e-03
  2.076724e+00    7.293690e-01   9.772254e-03
  2.078934e+00    7.418700e-01   9.846646e-03
  2.081145e+00    7.361209e-01   9.799376e-03
  2.083355e+00    7.431922e-01   9.837155e-03
  2.085566e+00    7.371802e-01   9.788401e-03
  2.087776e+00    7.234498e-01   9.687414e-03
  2.089986e+00    7.230699e-01   9.676169e-03
  2.092197e+00    7.339185e-01   9.739555e-03
  2.094407e+00    7.326037e-01   9.721623e-03
  2.096618e+00    7.111093e-01   9.569205e-03
  2.098828e+00    7.112557e-01   9.561017e-03
  2.101039e+00    7.170051e-01   9.590698e-03
  2.103249e+00    7.212240e-01   9.610272e-03
  2.105460e+00    7.065102e-01   9.502870e-03
  2.107670e+00    7.153019e-01   9.553141e-03
  2.109881e+00    7.259744e-01   9.615005e-03
  2.112091e+00    7.090420e-01   9.493332e-03
  2.114301e+00    7.050618e-01   9.457994e-03
  2.116512e+00    6.931325e-01   9.369007e-03
  2.118722e+00    7.009482e-01   9.413002e-03
  2.120933e+00    7.045218e-01   9.428198e-03
  2.123143e+00    7.003390e-01   9.391377e-03
  2.125354e+00    6.939229e-01   9.339875e-03
  2.127564e+00    6.903272e-01   9.307078e-03
  2.129775e+00    6.986806e-01   9.354582e-03
  2.131985e+00    7.116833e-01   9.432201e-03
  2.134196e+00    6.912403e-01   9.287288e-03
  2.136406e+00    7.059699e-01   9.377002e-03
  2.138617e+00    7.042706e-01   9.357306e-03
  2.140827e+00    6.956824e-01   9.315979e-03
  2.143037e+00    7.089040e-01   9.449608e-03
  2.145248e+00    7.160658e-01   9.519409e-03
  2.147458e+00    6.992674e-01   9.422162e-03
  2.149669e+00    6.903412e-01   9.373575e-03
  2.151879e+00    6.972621e-01   9.429630e-03
  2.154090e+00    7.094181e-01   9.518821e-03
  2.156300e+00    7.170142e-01   9.576350e-03
  2.158511e+00    6.987460e-01   9.458865e-03
  2.160721e+00    6.906399e-01   9.408626e-03
  2.162932e+00    6.834579e-01   9.363292e-03
  2.165142e+00    6.758895e-01   9.314242e-03
  2.167352e+00    6.956282e-01   9.452213e-03
  2.169563e+00    6.859942e-01   9.388463e-03
  2.171773e+00    6.883861e-01   9.407256e-03
  2.173984e+00    6.851705e-01   9.386661e-03
  2.176194e+00    6.808178e-01   9.357993e-03
  2.178405e+00    6.806287e-01   9.357383e-03
  2.180615e+00    6.794668e-01   9.350057e-03
  2.182826e+00    6.983594e-01   9.479842e-03
  2.185036e+00    6.844602e-01   9.385095e-03
  2.187247e+00    6.835527e-01   9.378802e-03
  2.189457e+00    6.780908e-01   9.340878e-03
  2.191667e+00    6.812151e-01   9.362172e-03
  2.193878e+00    6.838425e-01   9.379649e-03
  2.196088e+00    6.855646e-01   9.390783e-03
  2.198299e+00    6.805140e-01   9.355024e-03
  2.200509e+00    6.866807e-01   9.396263e-03
  2.202720e+00    6.884691e-01   9.407336e-03
  2.204930e+00    6.704130e-01   9.281930e-03
  2.207141e+00    6.671727e-01   9.258361e-03
  2.209351e+00    6.819236e-01   9.358255e-03
  2.211562e+00    6.844388e-01   9.373886e-03
  2.213772e+00    6.751958e-01   9.254962e-03
  2.215982e+00    6.693192e-01   9.170598e-03
  2.218193e+00    6.864354e-01   9.257240e-03
  2.220403e+00    6.870028e-01   9.236269e-03
  2.222614e+00    6.807578e-01   9.173140e-03
  2.224824e+00    6.773409e-01   9.130647e-03
  2.227035e+00    6.589393e-01   8.988507e-03
  2.229245e+00    6.781403e-01   9.101457e-03
  2.231456e+00    6.760409e-01   9.071715e-03
  2.233666e+00    6.654690e-01   8.985458e-03
  2.235877e+00    6.834465e-01   9.091604e-03
  2.238087e+00    6.766249e-01   9.032596e-03
  2.240298e+00    6.733431e-01   8.996848e-03
  2.242508e+00    6.442831e-01   8.785709e-03
  2.244718e+00    6.673189e-01   8.925600e-03
  2.246929e+00    6.564829e-01   8.838550e-03
  2.249139e+00    6.540422e-01   8.809838e-03
  2.251350e+00    6.608761e-01   8.844096e-03
  2.253560e+00    6.642694e-01   8.855217e-03
  2.255771e+00    6.666670e-01   8.859782e-03
  2.257981e+00    6.572128e-01   8.785623e-03
  2.260192e+00    6.664132e-01   8.835755e-03
  2.262402e+00    6.690324e-01   8.842243e-03
  2.264613e+00    6.595044e-01   8.768244e-03
  2.266823e+00    6.531063e-01   8.715281e-03
  2.269033e+00    6.770990e-01   8.863418e-03
  2.271244e+00    6.974787e-01   8.985158e-03
  2.273454e+00    7.447261e-01   9.273603e-03
  2.275665e+00    7.369488e-01   9.214242e-03
  2.277875e+00    7.032347e-01   8.990748e-03
  2.280086e+00    6.769807e-01   8.811154e-03
  2.282296e+00    6.732270e-01   8.777186e-03
  2.284507e+00    6.593548e-01   8.676136e-03
  2.286717e+00    6.710494e-01   8.743192e-03
  2.288928e+00    6.584796e-01   8.651036e-03
  2.291138e+00    6.585872e-01   8.642315e-03
  2.293348e+00    6.580846e-01   8.629440e-03
  2.295559e+00    6.594000e-01   8.628737e-03
  2.297769e+00    6.495408e-01   8.554770e-03
  2.299980e+00    6.447571e-01   8.513935e-03
  2.302190e+00    6.504948e-01   8.542630e-03
  2.304401e+00    6.514242e-01   8.539401e-03
  2.306611e+00    6.621632e-01   8.600248e-03
  2.308822e+00    6.557637e-01   8.550173e-03
  2.311032e+00    6.354961e-01   8.410630e-03
  2.313243e+00    6.372698e-01   8.416140e-03
  2.315453e+00    6.513828e-01   8.501235e-03
  2.317663e+00    6.444736e-01   8.446935e-03
  2.319874e+00    6.391634e-01   8.403376e-03
  2.322084e+00    6.340275e-01   8.360675e-03
  2.324295e+00    6.287652e-01   8.317773e-03
  2.326505e+00    6.365017e-01   8.359798e-03
  2.328716e+00    6.423351e-01   8.389467e-03
  2.330926e+00    6.431205e-01   8.385820e-03
  2.333137e+00    6.323881e-01   8.307223e-03
  2.335347e+00    6.352323e-01   8.317063e-03
  2.337558e+00    6.287229e-01   8.266184e-03
  2.339768e+00    6.389166e-01   8.324357e-03
  2.341979e+00    6.307247e-01   8.262516e-03
  2.344189e+00    6.287271e-01   8.241074e-03
  2.346399e+00    6.392735e-01   8.301392e-03
  2.348610e+00    6.427506e-01   8.315431e-03
  2.350820e+00    6.451455e-01   8.322672e-03
  2.353031e+00    6.284472e-01   8.206006e-03
  2.355241e+00    6.390508e-01   8.266842e-03
  2.357452e+00    6.213563e-01   8.143268e-03
  2.359662e+00    6.252046e-01   8.160235e-03
  2.361873e+00    6.355816e-01   8.219432e-03
  2.364083e+00    6.243657e-01   8.138621e-03
  2.366294e+00    6.295547e-01   8.164253e-03
  2.368504e+00    6.282578e-01   8.147750e-03
  2.370714e+00    6.256052e-01   8.122484e-03
  2.372925e+00    6.285633e-01   8.133573e-03
  2.375135e+00    6.250784e-01   8.102950e-03
  2.377346e+00    6.219432e-01   8.074665e-03
  2.379556e+00    6.199906e-01   8.054102e-03
  2.381767e+00    6.142857e-01   8.009132e-03
  2.383977e+00    6.189997e-01   8.031894e-03
  2.386188e+00    6.108658e-01   7.971087e-03
  2.388398e+00    6.210295e-01   8.029141e-03
  2.390609e+00    6.137574e-01   7.974306e-03
  2.392819e+00    6.031374e-01   7.897314e-03
  2.395029e+00    6.008393e-01   7.874683e-03
  2.397240e+00    6.147074e-01   7.957174e-03
  2.399450e+00    6.090089e-01   7.912434e-03
  2.401661e+00    6.056464e-01   7.882918e-03
  2.403871e+00    5.982244e-01   7.826796e-03
  2.406082e+00    6.038817e-01   7.856311e-03
  2.408292e+00    6.026560e-01   7.840592e-03
  2.410503e+00    5.937763e-01   7.775219e-03
  2.412713e+00    5.988393e-01   7.800533e-03
  2.414924e+00    5.995579e-01   7.797796e-03
  2.417134e+00    6.080914e-01   7.845410e-03
  2.419344e+00    6.083264e-01   7.839514e-03
  2.421555e+00    6.089596e-01   7.836017e-03
  2.423765e+00    5.926682e-01   7.723154e-03
  2.425976e+00    5.827411e-01   7.650487e-03
  2.428186e+00    5.948413e-01   7.722326e-03
  2.430397e+00    5.951633e-01   7.716929e-03
  2.432607e+00    6.132357e-01   7.825839e-03
  2.434818e+00    6.040235e-01   7.759253e-03
  2.437028e+00    5.863630e-01   7.637886e-03
  2.439239e+00    5.854506e-01   7.624307e-03
  2.441449e+00    5.792723e-01   7.576875e-03
  2.443659e+00    5.822525e-01   7.589031e-03
  2.445870e+00    5.889766e-01   7.644978e-03
  2.448080e+00    5.759218e-01   7.594370e-03
  2.450291e+00    5.595607e-01   7.502077e-03
  2.452501e+00    5.635554e-01   7.539832e-03
  2.454712e+00    5.847098e-01   7.688559e-03
  2.456922e+00    5.730415e-01   7.618091e-03
  2.459133e+00    5.764365e-01   7.646097e-03
  2.461343e+00    5.674594e-01   7.590689e-03
  2.463554e+00    5.717265e-01   7.622661e-03
  2.465764e+00    5.646467e-01   7.578460e-03
  2.467975e+00    5.612208e-01   7.557720e-03
  2.470185e+00    5.501173e-01   7.484836e-03
  2.472395e+00    5.356170e-01   7.386717e-03
  2.474606e+00    5.379148e-01   7.404077e-03
  2.476816e+00    5.565271e-01   7.531825e-03
  2.479027e+00    5.516537e-01   7.499628e-03
  2.481237e+00    5.465828e-01   7.465361e-03
  2.483448e+00    5.295940e-01   7.348724e-03
  2.485658e+00    5.375210e-01   7.403363e-03
  2.487869e+00    5.422662e-01   7.436019e-03
  2.490079e+00    5.400064e-01   7.419989e-03
  2.492290e+00    5.382973e-01   7.407804e-03
  2.494500e+00    5.352116e-01   7.385808e-03
  2.496710e+00    5.382541e-01   7.406077e-03
  2.498921e+00    5.342457e-01   7.377461e-03
  2.501131e+00    5.111244e-01   7.215133e-03
  2.503342e+00    5.217307e-01   7.288332e-03
  2.505552e+00    5.353892e-01   7.382002e-03
  2.507763e+00    5.245636e-01   7.305576e-03
  2.509973e+00    5.144855e-01   7.233682e-03
  2.512184e+00    5.355126e-01   7.378382e-03
  2.514394e+00    5.292037e-01   7.325429e-03
  2.516605e+00    5.184485e-01   7.203907e-03
  2.518815e+00    5.173068e-01   7.167868e-03
  2.521025e+00    5.158287e-01   7.136859e-03
  2.523236e+00    5.189676e-01   7.140670e-03
  2.525446e+00    5.125988e-01   7.081297e-03
  2.527657e+00    5.186132e-01   7.108220e-03
  2.529867e+00    5.285065e-01   7.161468e-03
  2.532078e+00    5.260230e-01   7.129573e-03
  2.534288e+00    5.179763e-01   7.061030e-03
  2.536499e+00    5.246818e-01   7.094663e-03
  2.538709e+00    5.186318e-01   7.042681e-03
  2.540920e+00    5.178186e-01   7.026600e-03
  2.543130e+00    5.253207e-01   7.066927e-03
  2.545340e+00    5.254661e-01   7.057824e-03
  2.547551e+00    5.262284e-01   7.052986e-03
  2.549761e+00    5.180769e-01   6.988585e-03
  2.551972e+00    5.051154e-01   6.891423e-03
  2.554182e+00    5.106710e-01   6.920112e-03
  2.556393e+00    5.222365e-01   6.988950e-03
  2.558603e+00    5.177512e-01   6.949807e-03
  2.560814e+00    5.108718e-01   6.894867e-03
  2.563024e+00    5.035346e-01   6.836734e-03
  2.565235e+00    5.046625e-01   6.834986e-03
  2.567445e+00    5.249971e-01   6.961730e-03
  2.569656e+00    5.200677e-01   6.919219e-03
  2.571866e+00    5.014295e-01   6.784891e-03
  2.574076e+00    5.139289e-01   6.859674e-03
  2.576287e+00    5.212249e-01   6.899847e-03
  2.578497e+00    5.148353e-01   6.849585e-03
  2.580708e+00    5.109242e-01   6.815469e-03
  2.582918e+00    5.008643e-01   6.740388e-03
  2.585129e+00    4.978579e-01   6.712509e-03
  2.587339e+00    4.950927e-01   6.686281e-03
  2.589550e+00    5.154306e-01   6.814664e-03
  2.591760e+00    5.029040e-01   6.723698e-03
  2.593971e+00    5.106534e-01   6.767769e-03
  2.596181e+00    5.078725e-01   6.743122e-03
  2.598391e+00    5.142537e-01   6.780133e-03
  2.600602e+00    5.021399e-01   6.693959e-03
  2.602812e+00    5.046062e-01   6.702855e-03
  2.605023e+00    5.025314e-01   6.681937e-03
  2.607233e+00    5.173277e-01   6.772390e-03
  2.609444e+00    5.080777e-01   6.704345e-03
  2.611654e+00    5.034489e-01   6.666435e-03
  2.613865e+00    5.092707e-01   6.697807e-03
  2.616075e+00    5.065130e-01   6.672513e-03
  2.618286e+00    4.990264e-01   6.616065e-03
  2.620496e+00    4.947032e-01   6.580711e-03
  2.622706e+00    5.004204e-01   6.612911e-03
  2.624917e+00    4.984147e-01   6.593833e-03
  2.627127e+00    4.989741e-01   6.591827e-03
  2.629338e+00    4.969760e-01   6.572676e-03
  2.631548e+00    5.012048e-01   6.594413e-03
  2.633759e+00    4.968221e-01   6.558435e-03
  2.635969e+00    4.951103e-01   6.540450e-03
  2.638180e+00    4.957114e-01   6.537509e-03
  2.640390e+00    4.975759e-01   6.543180e-03
  2.642601e+00    5.021539e-01   6.566569e-03
  2.644811e+00    4.962237e-01   6.520622e-03
  2.647021e+00    4.995316e-01   6.535744e-03
  2.649232e+00    5.036165e-01   6.555687e-03
  2.651442e+00    4.967037e-01   6.504050e-03
  2.653653e+00    4.971498e-01   6.500185e-03
  2.655863e+00    4.879227e-01   6.432970e-03
  2.658074e+00    4.805004e-01   6.377365e-03
  2.660284e+00    4.787732e-01   6.359642e-03
  2.662495e+00    4.846709e-01   6.392031e-03
  2.664705e+00    5.039675e-01   6.511412e-03
  2.666916e+00    4.941961e-01   6.441545e-03
  2.669126e+00    4.929829e-01   6.427188e-03
  2.671337e+00    5.033457e-01   6.487745e-03
  2.673547e+00    5.052754e-01   6.493746e-03
  2.675757e+00    4.992698e-01   6.448542e-03
  2.677968e+00    4.897754e-01   6.380457e-03
  2.680178e+00    4.876713e-01   6.360366e-03
  2.682389e+00    4.834367e-01   6.326359e-03
  2.684599e+00    4.826893e-01   6.315350e-03
  2.686810e+00    4.792452e-01   6.286259e-03
  2.689020e+00    4.845472e-01   6.314680e-03
  2.691231e+00    4.974565e-01   6.391915e-03
  2.693441e+00    4.895841e-01   6.335014e-03
  2.695652e+00    4.848771e-01   6.297999e-03
  2.697862e+00    4.878804e-01   6.311140e-03
  2.700072e+00    4.763990e-01   6.230452e-03
  2.702283e+00    4.802737e-01   6.249570e-03
  2.704493e+00    4.834195e-01   6.263745e-03
  2.706704e+00    4.842728e-01   6.262896e-03
  2.708914e+00    4.850186e-01   6.261776e-03
  2.711125e+00    4.839050e-01   6.248366e-03
  2.713335e+00    4.726006e-01   6.168939e-03
  2.715546e+00    4.856085e-01   6.246817e-03
  2.717756e+00    4.727950e-01   6.158049e-03
  2.719967e+00    4.837009e-01   6.222457e-03
  2.722177e+00    4.914616e-01   6.266035e-03
  2.724387e+00    4.893468e-01   6.246387e-03
  2.726598e+00    4.917502e-01   6.255627e-03
  2.728808e+00    4.851616e-01   6.207429e-03
  2.731019e+00    4.816562e-01   6.178851e-03
  2.733229e+00    4.820721e-01   6.175737e-03
  2.735440e+00    4.632469e-01   6.047817e-03
  2.737650e+00    4.704278e-01   6.088563e-03
  2.739861e+00    4.837343e-01   6.168006e-03
  2.742071e+00    4.911725e-01   6.209462e-03
  2.744282e+00    4.818293e-01   6.143876e-03
  2.746492e+00    4.945853e-01   6.218555e-03
  2.748702e+00    4.809710e-01   6.126489e-03
  2.750913e+00    4.779756e-01   6.101600e-03
  2.753123e+00    4.733672e-01   6.066052e-03
  2.755334e+00    4.822460e-01   6.116588e-03
  2.757544e+00    4.744076e-01   6.060977e-03
  2.759755e+00    4.778553e-01   6.077089e-03
  2.761965e+00    4.730758e-01   6.040690e-03
  2.764176e+00    4.690232e-01   6.008835e-03
  2.766386e+00    4.720418e-01   6.022399e-03
  2.768597e+00    4.715059e-01   6.013162e-03
  2.770807e+00    4.859563e-01   6.098693e-03
  2.773017e+00    4.733752e-01   6.013314e-03
  2.775228e+00    4.674201e-01   5.969634e-03
  2.777438e+00    4.734991e-01   6.002562e-03
  2.779649e+00    4.759969e-01   6.012488e-03
  2.781859e+00    4.781502e-01   6.020305e-03
  2.784070e+00    4.947662e-01   6.118048e-03
  2.786280e+00    4.729160e-01   5.975700e-03
  2.788491e+00    4.781279e-01   6.002674e-03
  2.790701e+00    4.831618e-01   6.028528e-03
  2.792912e+00    4.815298e-01   6.012314e-03
  2.795122e+00    4.685431e-01   5.925039e-03
  2.797333e+00    4.602855e-01   5.867079e-03
  2.799543e+00    4.695885e-01   5.920280e-03
  2.801753e+00    4.703067e-01   5.918959e-03
  2.803964e+00    4.714115e-01   5.920277e-03
  2.806174e+00    4.639402e-01   5.867111e-03
  2.808385e+00    4.646896e-01   5.865114e-03
  2.810595e+00    4.662989e-01   5.868444e-03
  2.812806e+00    4.746035e-01   5.913890e-03
  2.815016e+00    4.486844e-01   5.745512e-03
  2.817227e+00    4.692127e-01   5.901258e-03
  2.819437e+00    4.589587e-01   5.847343e-03
  2.821648e+00    4.621759e-01   5.870050e-03
  2.823858e+00    4.671884e-01   5.907104e-03
  2.826068e+00    4.742534e-01   5.956586e-03
  2.828279e+00    4.739296e-01   5.958607e-03
  2.830489e+00    4.632409e-01   5.894328e-03
  2.832700e+00    4.680003e-01   5.927087e-03
  2.834910e+00    4.632497e-01   5.898954e-03
  2.837121e+00    4.814049e-01   6.015180e-03
  2.839331e+00    4.711584e-01   5.952053e-03
  2.841542e+00    4.618320e-01   5.893854e-03
  2.843752e+00    4.596166e-01   5.880468e-03
  2.845963e+00    4.656423e-01   5.919289e-03
  2.848173e+00    4.597690e-01   5.881928e-03
  2.850383e+00    4.639425e-01   5.908848e-03
  2.852594e+00    4.723921e-01   5.962340e-03
  2.854804e+00    4.598432e-01   5.882113e-03
  2.857015e+00    4.578739e-01   5.869076e-03
  2.859225e+00    4.654465e-01   5.917150e-03
  2.861436e+00    4.745409e-01   5.974033e-03
  2.863646e+00    4.687355e-01   5.937412e-03
  2.865857e+00    4.542032e-01   5.844988e-03
  2.868067e+00    4.731116e-01   5.965611e-03
  2.870278e+00    4.668799e-01   5.925871e-03
  2.872488e+00    4.453358e-01   5.786382e-03
  2.874698e+00    4.642526e-01   5.906935e-03
  2.876909e+00    4.630622e-01   5.898062e-03
  2.879119e+00    4.522455e-01   5.827144e-03
  2.881330e+00    4.538492e-01   5.836023e-03
  2.883540e+00    4.599358e-01   5.873618e-03
  2.885751e+00    4.702658e-01   5.937571e-03
  2.887961e+00    4.677619e-01   5.919845e-03
  2.890172e+00    4.716323e-01   5.942663e-03
  2.892382e+00    4.547413e-01   5.833494e-03
  2.894593e+00    4.674338e-01   5.912502e-03
  2.896803e+00    4.531327e-01   5.819412e-03
  2.899014e+00    4.537914e-01   5.821713e-03
  2.901224e+00    4.482649e-01   5.784204e-03
  2.903434e+00    4.527362e-01   5.811050e-03
  2.905645e+00    4.544661e-01   5.819916e-03
  2.907855e+00    4.574182e-01   5.836719e-03
  2.910066e+00    4.386139e-01   5.713440e-03
  2.912276e+00    4.429988e-01   5.739843e-03
  2.914487e+00    4.572517e-01   5.828989e-03
  2.916697e+00    4.592147e-01   5.839276e-03
  2.918908e+00    4.488270e-01   5.770871e-03
  2.921118e+00    4.581345e-01   5.827692e-03
  2.923329e+00    4.587334e-01   5.829198e-03
  2.925539e+00    4.409443e-01   5.712816e-03
  2.927749e+00    4.537919e-01   5.793131e-03
  2.929960e+00    4.525567e-01   5.782482e-03
  2.932170e+00    4.542677e-01   5.791077e-03
  2.934381e+00    4.623904e-01   5.840173e-03
  2.936591e+00    4.459659e-01   5.732964e-03
  2.938802e+00    4.421680e-01   5.705833e-03
  2.941012e+00    4.547319e-01   5.783992e-03
  2.943223e+00    4.487681e-01   5.743262e-03
  2.945433e+00    4.484084e-01   5.737263e-03
  2.947644e+00    4.549349e-01   5.774715e-03
  2.949854e+00    4.642851e-01   5.829460e-03
  2.952064e+00    4.494699e-01   5.731508e-03
  2.954275e+00    4.477913e-01   5.716409e-03
  2.956485e+00    4.476232e-01   5.711182e-03
  2.958696e+00    4.579455e-01   5.772265e-03
  2.960906e+00    4.493870e-01   5.713929e-03
  2.963117e+00    4.414883e-01   5.659058e-03
  2.965327e+00    4.505409e-01   5.712910e-03
  2.967538e+00    4.462919e-01   5.683010e-03
  2.969748e+00    4.540413e-01   5.729322e-03
  2.971959e+00    4.503712e-01   5.703011e-03
  2.974169e+00    4.428225e-01   5.652444e-03
  2.976379e+00    4.558350e-01   5.731987e-03
  2.978590e+00    4.469800e-01   5.672914e-03
  2.980800e+00    4.611799e-01   5.759506e-03
  2.983011e+00    4.428661e-01   5.641243e-03
  2.985221e+00    4.355337e-01   5.591247e-03
  2.987432e+00    4.459843e-01   5.654842e-03
  2.989642e+00    4.567533e-01   5.720064e-03
  2.991853e+00    4.673807e-01   5.782912e-03
  2.994063e+00    4.584743e-01   5.724635e-03
  2.996274e+00    4.453197e-01   5.638752e-03
  2.998484e+00    4.443276e-01   5.629800e-03
  3.000694e+00    4.453216e-01   5.632658e-03
  3.002905e+00    4.549946e-01   5.690553e-03
  3.005115e+00    4.453827e-01   5.627212e-03
  3.007326e+00    4.420985e-01   5.603282e-03
  3.009536e+00    4.329744e-01   5.541985e-03
  3.011747e+00    4.433819e-01   5.605309e-03
  3.013957e+00    4.432982e-01   5.601633e-03
  3.016168e+00    4.491586e-01   5.635292e-03
  3.018378e+00    4.541906e-01   5.663735e-03
  3.020589e+00    4.394363e-01   5.567824e-03
  3.022799e+00    4.288381e-01   5.497184e-03
  3.025010e+00    4.412789e-01   5.573140e-03
  3.027220e+00    4.404152e-01   5.564638e-03
  3.029430e+00    4.449973e-01   5.590273e-03
  3.031641e+00    4.455874e-01   5.590868e-03
  3.033851e+00    4.469701e-01   5.596049e-03
  3.036062e+00    4.428692e-01   5.567548e-03
  3.038272e+00    4.475110e-01   5.593103e-03
  3.040483e+00    4.481980e-01   5.594182e-03
  3.042693e+00    4.461741e-01   5.578282e-03
  3.044904e+00    4.485705e-01   5.589239e-03
  3.047114e+00    4.521568e-01   5.606717e-03
  3.049325e+00    4.582544e-01   5.639972e-03
  3.051535e+00    4.510546e-01   5.591097e-03
  3.053745e+00    4.414787e-01   5.526737e-03
  3.055956e+00    4.365707e-01   5.491410e-03
  3.058166e+00    4.438354e-01   5.532678e-03
  3.060377e+00    4.550200e-01   5.597173e-03
  3.062587e+00    4.497720e-01   5.560172e-03
  3.064798e+00    4.403764e-01   5.497581e-03
  3.067008e+00    4.662907e-01   5.652198e-03
  3.069219e+00    4.564697e-01   5.587825e-03
  3.071429e+00    4.444129e-01   5.510063e-03
  3.073640e+00    4.311817e-01   5.424121e-03
  3.075850e+00    4.423500e-01   5.490373e-03
  3.078060e+00    4.529861e-01   5.552874e-03
  3.080271e+00    4.521502e-01   5.544258e-03
  3.082481e+00    4.362937e-01   5.442784e-03
  3.084692e+00    4.458490e-01   5.498681e-03
  3.086902e+00    4.356569e-01   5.432288e-03
  3.089113e+00    4.354835e-01   5.427668e-03
  3.091323e+00    4.574991e-01   5.559759e-03
  3.093534e+00    4.513642e-01   5.518989e-03
  3.095744e+00    4.356176e-01   5.418527e-03
  3.097955e+00    4.467793e-01   5.483958e-03
  3.100165e+00    4.489860e-01   5.494146e-03
  3.102375e+00    4.440356e-01   5.460372e-03
  3.104586e+00    4.499536e-01   5.493131e-03
  3.106796e+00    4.221968e-01   5.317575e-03
  3.109007e+00    4.507222e-01   5.491047e-03
  3.111217e+00    4.410726e-01   5.428286e-03
  3.113428e+00    4.382295e-01   5.407366e-03
  3.115638e+00    4.396249e-01   5.412764e-03
  3.117849e+00    4.434516e-01   5.432543e-03
  3.120059e+00    4.443871e-01   5.434819e-03
  3.122270e+00    4.371699e-01   5.387281e-03
  3.124480e+00    4.336751e-01   5.362056e-03
  3.126691e+00    4.356354e-01   5.370637e-03
  3.128901e+00    4.459365e-01   5.430629e-03
  3.131111e+00    4.539533e-01   5.475361e-03
  3.133322e+00    4.394295e-01   5.383621e-03
  3.135532e+00    4.426562e-01   5.399951e-03
  3.137743e+00    4.472985e-01   5.424721e-03
  3.139953e+00    4.351936e-01   5.347151e-03
  3.142164e+00    4.335892e-01   5.349168e-03
  3.144374e+00    4.402845e-01   5.418656e-03
  3.146585e+00    4.546919e-01   5.521356e-03
  3.148795e+00    4.484353e-01   5.494098e-03
  3.151006e+00    4.339112e-01   5.412865e-03
  3.153216e+00    4.296713e-01   5.393385e-03
  3.155426e+00    4.397850e-01   5.462785e-03
  3.157637e+00    4.308062e-01   5.412211e-03
  3.159847e+00    4.451001e-01   5.506151e-03
  3.162058e+00    4.333959e-01   5.437678e-03
  3.164268e+00    4.396516e-01   5.480835e-03
  3.166479e+00    4.476976e-01   5.534449e-03
  3.168689e+00    4.407928e-01   5.494987e-03
  3.170900e+00    4.367178e-01   5.472677e-03
  3.173110e+00    4.336894e-01   5.456529e-03
  3.175321e+00    4.284504e-01   5.425938e-03
  3.177531e+00    4.322652e-01   5.452759e-03
  3.179741e+00    4.334549e-01   5.462320e-03
  3.181952e+00    4.405657e-01   5.509059e-03
  3.184162e+00    4.352113e-01   5.477671e-03
  3.186373e+00    4.251927e-01   5.415827e-03
  3.188583e+00    4.444966e-01   5.539199e-03
  3.190794e+00    4.362405e-01   5.489285e-03
  3.193004e+00    4.372731e-01   5.497017e-03
  3.195215e+00    4.251913e-01   5.422020e-03
  3.197425e+00    4.257762e-01   5.426960e-03
  3.199636e+00    4.276851e-01   5.438337e-03
  3.201846e+00    4.256929e-01   5.425063e-03
  3.204056e+00    4.209660e-01   5.395740e-03
  3.206267e+00    4.229324e-01   5.409145e-03
  3.208477e+00    4.432298e-01   5.538365e-03
  3.210688e+00    4.290363e-01   5.449828e-03
  3.212898e+00    4.241813e-01   5.419438e-03
  3.215109e+00    4.400190e-01   5.520470e-03
  3.217319e+00    4.253727e-01   5.428442e-03
  3.219530e+00    4.168273e-01   5.374027e-03
  3.221740e+00    4.198450e-01   5.393980e-03
  3.223951e+00    4.441664e-01   5.548507e-03
  3.226161e+00    4.407941e-01   5.527598e-03
  3.228372e+00    4.219837e-01   5.408905e-03
  3.230582e+00    4.258559e-01   5.433781e-03
  3.232792e+00    4.370889e-01   5.505215e-03
  3.235003e+00    4.182598e-01   5.385587e-03
  3.237213e+00    4.278235e-01   5.446886e-03
  3.239424e+00    4.276974e-01   5.446103e-03
  3.241634e+00    4.266472e-01   5.439547e-03
  3.243845e+00    4.164292e-01   5.374057e-03
  3.246055e+00    4.152102e-01   5.365932e-03
  3.248266e+00    4.216250e-01   5.407415e-03
  3.250476e+00    4.216441e-01   5.407261e-03
  3.252687e+00    4.202718e-01   5.398341e-03
  3.254897e+00    4.146745e-01   5.362172e-03
  3.257107e+00    4.201610e-01   5.397212e-03
  3.259318e+00    4.253070e-01   5.429932e-03
  3.261528e+00    4.312496e-01   5.467596e-03
  3.263739e+00    4.143531e-01   5.358871e-03
  3.265949e+00    4.215105e-01   5.404814e-03
  3.268160e+00    4.313771e-01   5.467300e-03
  3.270370e+00    4.201111e-01   5.394939e-03
  3.272581e+00    4.146135e-01   5.359234e-03
  3.274791e+00    4.140453e-01   5.355047e-03
  3.277002e+00    4.181325e-01   5.380853e-03
  3.279212e+00    4.218076e-01   5.404061e-03
  3.281422e+00    4.250177e-01   5.424016e-03
  3.283633e+00    4.271896e-01   5.437159e-03
  3.285843e+00    4.310507e-01   5.461360e-03
  3.288054e+00    4.231728e-01   5.410285e-03
  3.290264e+00    4.277692e-01   5.439264e-03
  3.292475e+00    4.183376e-01   5.378140e-03
  3.294685e+00    4.248997e-01   5.419512e-03
  3.296896e+00    4.186485e-01   5.378761e-03
  3.299106e+00    4.242533e-01   5.414075e-03
  3.301317e+00    4.185081e-01   5.376301e-03
  3.303527e+00    4.203336e-01   5.387515e-03
  3.305737e+00    4.328277e-01   5.465947e-03
  3.307948e+00    4.311538e-01   5.454705e-03
  3.310158e+00    4.270979e-01   5.428132e-03
  3.312369e+00    4.141003e-01   5.344027e-03
  3.314579e+00    4.208559e-01   5.386531e-03
  3.316790e+00    4.052482e-01   5.285013e-03
  3.319000e+00    4.088966e-01   5.307568e-03
  3.321211e+00    4.249489e-01   5.410146e-03
  3.323421e+00    4.306871e-01   5.445333e-03
  3.325632e+00    4.268135e-01   5.419923e-03
  3.327842e+00    4.116446e-01   5.321810e-03
  3.330052e+00    4.323516e-01   5.452938e-03
  3.332263e+00    4.323458e-01   5.451873e-03
  3.334473e+00    4.202946e-01   5.374468e-03
  3.336684e+00    4.169931e-01   5.352037e-03
  3.338894e+00    4.194722e-01   5.367083e-03
  3.341105e+00    4.184394e-01   5.359259e-03
  3.343315e+00    4.215860e-01   5.378253e-03
  3.345526e+00    4.139441e-01   5.328373e-03
  3.347736e+00    4.202952e-01   5.367705e-03
  3.349947e+00    4.286380e-01   5.419761e-03
  3.352157e+00    4.143459e-01   5.327479e-03
  3.354368e+00    4.156339e-01   5.334456e-03
  3.356578e+00    4.251158e-01   5.393927e-03
  3.358788e+00    4.161495e-01   5.335444e-03
  3.360999e+00    4.134222e-01   5.316678e-03
  3.363209e+00    4.201065e-01   5.358451e-03
  3.365420e+00    4.240803e-01   5.382231e-03
  3.367630e+00    4.179222e-01   5.341981e-03
  3.369841e+00    4.281186e-01   5.405315e-03
  3.372051e+00    4.195216e-01   5.348798e-03
  3.374262e+00    4.129152e-01   5.304063e-03
  3.376472e+00    4.182576e-01   5.335820e-03
  3.378683e+00    4.171457e-01   5.326230e-03
  3.380893e+00    4.058347e-01   5.251205e-03
  3.383103e+00    4.141856e-01   5.302246e-03
  3.385314e+00    4.134379e-01   5.295254e-03
  3.387524e+00    4.096935e-01   5.268500e-03
  3.389735e+00    4.032940e-01   5.224588e-03
  3.391945e+00    4.283053e-01   5.380419e-03
  3.394156e+00    4.204881e-01   5.326841e-03
  3.396366e+00    4.049283e-01   5.223975e-03
  3.398577e+00    4.098496e-01   5.252567e-03
  3.400787e+00    4.075535e-01   5.249711e-03
  3.402998e+00    4.092519e-01   5.298675e-03
  3.405208e+00    3.984788e-01   5.248939e-03
  3.407418e+00    4.004326e-01   5.277564e-03
  3.409629e+00    3.873881e-01   5.204617e-03
  3.411839e+00    3.992991e-01   5.295782e-03
  3.414050e+00    3.816388e-01   5.188164e-03
  3.416260e+00    3.797464e-01   5.184709e-03
  3.418471e+00    3.835770e-01   5.220088e-03
  3.420681e+00    3.963940e-01   5.315143e-03
  3.422892e+00    3.828861e-01   5.231708e-03
  3.425102e+00    3.774723e-01   5.202270e-03
  3.427313e+00    3.790922e-01   5.220528e-03
  3.429523e+00    3.911799e-01   5.310211e-03
  3.431733e+00    3.902225e-01   5.310411e-03
  3.433944e+00    3.774540e-01   5.229232e-03
  3.436154e+00    3.838122e-01   5.279320e-03
  3.438365e+00    3.868507e-01   5.306166e-03
  3.440575e+00    3.798259e-01   5.263702e-03
  3.442786e+00    3.785301e-01   5.260278e-03
  3.444996e+00    3.836988e-01   5.301658e-03
  3.447207e+00    3.656839e-01   5.180921e-03
  3.449417e+00    3.574443e-01   5.162248e-03
  3.451628e+00    3.706032e-01   5.285909e-03
  3.453838e+00    3.699974e-01   5.302828e-03
  3.456049e+00    3.726622e-01   5.345973e-03
  3.458259e+00    3.710100e-01   5.356172e-03
  3.460469e+00    3.770766e-01   5.419900e-03
  3.462680e+00    3.530348e-01   5.262928e-03
  3.464890e+00    3.519178e-01   5.272072e-03
  3.467101e+00    3.622684e-01   5.366355e-03
  3.469311e+00    3.868430e-01   5.562305e-03
  3.471522e+00    3.813815e-01   5.539482e-03
  3.473732e+00    3.715207e-01   5.483137e-03
  3.475943e+00    4.005466e-01   5.709388e-03
  3.478153e+00    4.131260e-01   5.814270e-03
  3.480364e+00    4.202593e-01   5.879945e-03
  3.482574e+00    4.129702e-01   5.844224e-03
  3.484784e+00    4.296946e-01   5.976595e-03
  3.486995e+00    4.214485e-01   5.934188e-03
  3.489205e+00    4.283303e-01   5.997198e-03
  3.491416e+00    4.451782e-01   6.129190e-03
  3.493626e+00    4.453980e-01   6.145518e-03
  3.495837e+00    4.421249e-01   6.137667e-03
  3.498047e+00    4.585348e-01   6.265238e-03
  3.500258e+00    4.476652e-01   6.205052e-03
  3.502468e+00    4.551231e-01   6.270957e-03
  3.504679e+00    4.876119e-01   6.505816e-03
  3.506889e+00    4.742050e-01   6.430345e-03
  3.509099e+00    4.806271e-01   6.488225e-03
  3.511310e+00    4.802945e-01   6.500517e-03
  3.513520e+00    4.870304e-01   6.560449e-03
  3.515731e+00    4.783894e-01   6.516227e-03
  3.517941e+00    5.027447e-01   6.694579e-03
  3.520152e+00    5.085936e-01   6.747947e-03
  3.522362e+00    5.002694e-01   6.706995e-03
  3.524573e+00    5.063245e-01   6.761698e-03
  3.526783e+00    5.270557e-01   6.912329e-03
  3.528994e+00    5.007163e-01   6.749438e-03
  3.531204e+00    5.242649e-01   6.918829e-03
  3.533414e+00    5.316977e-01   6.979828e-03
  3.535625e+00    5.451005e-01   7.079838e-03
  3.537835e+00    5.321743e-01   7.007508e-03
  3.540046e+00    5.288886e-01   6.994703e-03
  3.542256e+00    5.398684e-01   7.074519e-03
  3.544467e+00    5.423846e-01   7.098636e-03
  3.546677e+00    5.469829e-01   7.136314e-03
  3.548888e+00    5.495021e-01   7.160328e-03
  3.551098e+00    5.408493e-01   7.111061e-03
  3.553309e+00    5.397927e-01   7.112304e-03
  3.555519e+00    5.384238e-01   7.114589e-03
  3.557729e+00    5.351526e-01   7.104654e-03
  3.559940e+00    5.342961e-01   7.110503e-03
  3.562150e+00    5.295733e-01   7.090643e-03
  3.564361e+00    5.550911e-01   7.273007e-03
  3.566571e+00    5.394149e-01   7.183498e-03
  3.568782e+00    5.519826e-01   7.280957e-03
  3.570992e+00    5.717049e-01   7.424132e-03
  3.573203e+00    5.467550e-01   7.274641e-03
  3.575413e+00    5.275851e-01   7.159595e-03
  3.577624e+00    5.291385e-01   7.184194e-03
  3.579834e+00    5.285445e-01   7.193903e-03
  3.582045e+00    5.562315e-01   7.394237e-03
  3.584255e+00    5.502159e-01   7.368386e-03
  3.586465e+00    5.385910e-01   7.304111e-03
  3.588676e+00    5.539057e-01   7.421630e-03
  3.590886e+00    5.378249e-01   7.326896e-03
  3.593097e+00    5.383590e-01   7.344975e-03
  3.595307e+00    5.421521e-01   7.384874e-03
  3.597518e+00    5.423366e-01   7.400434e-03
  3.599728e+00    5.490512e-01   7.460364e-03
  3.601939e+00    5.401146e-01   7.413537e-03
  3.604149e+00    5.256810e-01   7.328087e-03
  3.606360e+00    5.316680e-01   7.383751e-03
  3.608570e+00    5.484574e-01   7.513804e-03
  3.610780e+00    5.443133e-01   7.496516e-03
  3.612991e+00    5.244101e-01   7.368103e-03
  3.615201e+00    5.213725e-01   7.356382e-03
  3.617412e+00    5.369924e-01   7.473053e-03
  3.619622e+00    5.416285e-01   7.511257e-03
  3.621833e+00    5.344509e-01   7.468025e-03
  3.624043e+00    5.335238e-01   7.471044e-03
  3.626254e+00    5.290794e-01   7.449524e-03
  3.628464e+00    5.227814e-01   7.415887e-03
  3.630675e+00    5.430186e-01   7.572309e-03
  3.632885e+00    5.427698e-01   7.585145e-03
  3.635095e+00    5.420575e-01   7.594701e-03
  3.637306e+00    5.248814e-01   7.487626e-03
  3.639516e+00    5.238726e-01   7.494837e-03
  3.641727e+00    5.366713e-01   7.600450e-03
  3.643937e+00    5.274393e-01   7.549265e-03
  3.646148e+00    5.456941e-01   7.693560e-03
  3.648358e+00    5.479147e-01   7.724288e-03
  3.650569e+00    5.395250e-01   7.679739e-03
  3.652779e+00    5.296568e-01   7.623941e-03
  3.654990e+00    5.072892e-01   7.475715e-03
  3.657200e+00    5.306208e-01   7.660558e-03
  3.659410e+00    5.374759e-01   7.724946e-03
  3.661621e+00    5.324043e-01   7.703534e-03
  3.663831e+00    5.187057e-01   7.618718e-03
  3.666042e+00    5.137062e-01   7.596802e-03
  3.668252e+00    5.238764e-01   7.686748e-03
  3.670463e+00    5.269929e-01   7.724769e-03
  3.672673e+00    5.390846e-01   7.828440e-03
  3.674884e+00    5.222053e-01   7.720178e-03
  3.677094e+00    5.304397e-01   7.796315e-03
  3.679305e+00    5.291577e-01   7.802442e-03
  3.681515e+00    5.230603e-01   7.772849e-03
  3.683726e+00    5.386394e-01   7.903690e-03
  3.685936e+00    5.397367e-01   7.927634e-03
  3.688146e+00    5.183105e-01   7.784292e-03
  3.690357e+00    5.382776e-01   7.948914e-03
  3.692567e+00    5.247650e-01   7.864580e-03
  3.694778e+00    5.300539e-01   7.920269e-03
  3.696988e+00    5.157313e-01   7.828335e-03
  3.699199e+00    5.131686e-01   7.824886e-03
  3.701409e+00    5.157337e-01   7.860658e-03
  3.703620e+00    5.249853e-01   7.947160e-03
  3.705830e+00    5.146264e-01   7.884618e-03
  3.708041e+00    5.088857e-01   7.856857e-03
  3.710251e+00    5.215164e-01   7.970454e-03
  3.712461e+00    5.322589e-01   8.069014e-03
  3.714672e+00    5.319116e-01   8.083271e-03
  3.716882e+00    5.211419e-01   8.017751e-03
  3.719093e+00    5.212396e-01   8.035639e-03
  3.721303e+00    5.052491e-01   7.928182e-03
  3.723514e+00    4.893588e-01   7.819231e-03
  3.725724e+00    5.114493e-01   8.010796e-03
  3.727935e+00    5.174443e-01   8.075101e-03
  3.730145e+00    5.074277e-01   8.013750e-03
  3.732356e+00    5.060083e-01   8.019858e-03
  3.734566e+00    4.801477e-01   7.829173e-03
  3.736776e+00    4.925842e-01   7.947271e-03
  3.738987e+00    4.902743e-01   7.945953e-03
  3.741197e+00    4.999536e-01   8.041736e-03
  3.743408e+00    5.128768e-01   8.163100e-03
  3.745618e+00    5.153763e-01   8.201288e-03
  3.747829e+00    5.159768e-01   8.224279e-03
  3.750039e+00    4.980233e-01   8.098047e-03
  3.752250e+00    5.065035e-01   8.185087e-03
  3.754460e+00    4.847288e-01   8.025297e-03
  3.756671e+00    5.096557e-01   8.247828e-03
  3.758881e+00    5.160028e-01   8.317864e-03
  3.761091e+00    5.089972e-01   8.280295e-03
  3.763302e+00    4.971927e-01   8.202644e-03
  3.765512e+00    4.935609e-01   8.191566e-03
  3.767723e+00    5.371977e-01   8.565926e-03
  3.769933e+00    5.103368e-01   8.368512e-03
  3.772144e+00    4.952116e-01   8.262839e-03
  3.774354e+00    5.195138e-01   8.483314e-03
  3.776565e+00    4.874879e-01   8.237217e-03
  3.778775e+00    4.842092e-01   8.228917e-03
  3.780986e+00    5.229266e-01   8.572338e-03
  3.783196e+00    5.173686e-01   8.547185e-03
  3.785407e+00    5.003449e-01   8.425763e-03
  3.787617e+00    5.089657e-01   8.518880e-03
  3.789827e+00    4.921910e-01   8.397678e-03
  3.792038e+00    4.985411e-01   8.472429e-03
  3.794248e+00    4.805714e-01   8.339056e-03
  3.796459e+00    5.009986e-01   8.535776e-03
  3.798669e+00    5.322226e-01   8.819784e-03
  3.800880e+00    4.958815e-01   8.534733e-03
  3.803090e+00    5.097700e-01   8.675436e-03
  3.805301e+00    5.032781e-01   8.642181e-03
  3.807511e+00    5.144178e-01   8.759566e-03
  3.809722e+00    5.032381e-01   8.686244e-03
  3.811932e+00    5.029447e-01   8.705962e-03
  3.814142e+00    5.054572e-01   8.750711e-03
  3.816353e+00    4.890423e-01   8.630063e-03
  3.818563e+00    5.165044e-01   8.892577e-03
  3.820774e+00    5.034667e-01   8.802860e-03
  3.822984e+00    5.002563e-01   8.798280e-03
  3.825195e+00    4.638235e-01   8.494664e-03
  3.827405e+00    5.119510e-01   8.948719e-03
  3.829616e+00    4.869223e-01   8.751104e-03
  3.831826e+00    4.807470e-01   8.719151e-03
  3.834037e+00    5.011405e-01   8.926756e-03
  3.836247e+00    5.165207e-01   9.087861e-03
  3.838457e+00    5.067614e-01   9.026923e-03
  3.840668e+00    5.143172e-01   9.119619e-03
  3.842878e+00    5.025939e-01   9.040771e-03
  3.845089e+00    4.683775e-01   8.752487e-03
  3.847299e+00    4.854345e-01   8.935870e-03
  3.849510e+00    5.038666e-01   9.130090e-03
  3.851720e+00    5.012984e-01   9.128328e-03
  3.853931e+00    4.955485e-01   9.094784e-03
  3.856141e+00    5.009234e-01   9.163181e-03
  3.858352e+00    5.202312e-01   9.357842e-03
  3.860562e+00    4.867132e-01   9.070512e-03
  3.862772e+00    4.946718e-01   9.163998e-03
  3.864983e+00    4.748749e-01   8.997997e-03
  3.867193e+00    4.769419e-01   9.037022e-03
  3.869404e+00    4.695852e-01   8.986354e-03
  3.871614e+00    4.845316e-01   9.148081e-03
  3.873825e+00    4.992608e-01   9.306480e-03
  3.876035e+00    5.078708e-01   9.407363e-03
  3.878246e+00    4.581291e-01   8.959583e-03
  3.880456e+00    4.970210e-01   9.361266e-03
  3.882667e+00    5.001842e-01   9.420630e-03
  3.884877e+00    4.830299e-01   9.287131e-03
  3.887087e+00    4.914500e-01   9.397694e-03
  3.889298e+00    4.701095e-01   9.221066e-03
  3.891508e+00    4.663318e-01   9.213719e-03
  3.893719e+00    4.630996e-01   9.211832e-03
  3.895929e+00    4.919926e-01   9.526249e-03
  3.898140e+00    4.907172e-01   9.545673e-03
  3.900350e+00    4.856915e-01   9.528668e-03
  3.902561e+00    4.511437e-01   9.214539e-03
  3.904771e+00    4.840080e-01   9.576843e-03
  3.906982e+00    4.857950e-01   9.627535e-03
  3.909192e+00    4.804260e-01   9.607429e-03
  3.911403e+00    4.943098e-01   9.779398e-03
  3.913613e+00    4.927946e-01   9.798870e-03
  3.915823e+00    4.753068e-01   9.657721e-03
  3.918034e+00    4.892241e-01   9.833390e-03
  3.920244e+00    4.775374e-01   9.750592e-03
  3.922455e+00    4.884129e-01   9.897071e-03
  3.924665e+00    4.764596e-01   9.811220e-03
  3.926876e+00    4.974381e-01   1.006232e-02
  3.929086e+00    4.900202e-01   1.002445e-02
  3.931297e+00    4.980586e-01   1.014159e-02
  3.933507e+00    4.926031e-01   1.011491e-02
  3.935718e+00    4.858801e-01   1.007440e-02
  3.937928e+00    4.909907e-01   1.015679e-02
  3.940138e+00    5.009598e-01   1.028905e-02
  3.942349e+00    5.127015e-01   1.043966e-02
  3.944559e+00    5.024081e-01   1.036482e-02
  3.946770e+00    4.915180e-01   1.028218e-02
  3.948980e+00    4.839045e-01   1.023282e-02
  3.951191e+00    4.704961e-01   1.012046e-02
  3.953401e+00    4.785062e-01   1.023727e-02
  3.955612e+00    4.887805e-01   1.037835e-02
  3.957822e+00    4.746267e-01   1.025826e-02
  3.960033e+00    4.935814e-01   1.049401e-02
  3.962243e+00    5.037087e-01   1.063453e-02
  3.964453e+00    5.002274e-01   1.063138e-02
  3.966664e+00    5.201851e-01   1.087587e-02
  3.968874e+00    5.440028e-01   1.115215e-02
  3.971085e+00    5.032405e-01   1.074860e-02
  3.973295e+00    5.119194e-01   1.086290e-02
  3.975506e+00    4.832641e-01   1.057600e-02
  3.977716e+00    5.221910e-01   1.101656e-02
  3.979927e+00    4.875680e-01   1.066726e-02
  3.982137e+00    4.981457e-01   1.080491e-02
  3.984348e+00    4.847901e-01   1.068169e-02
  3.986558e+00    4.796238e-01   1.064671e-02
  3.988768e+00    4.801628e-01   1.067570e-02
  3.990979e+00    4.576545e-01   1.044444e-02
  3.993189e+00    4.808915e-01   1.072941e-02
  3.995400e+00    4.782075e-01   1.072270e-02
  3.997610e+00    5.036464e-01   1.103467e-02
  3.999821e+00    4.736231e-01   1.073781e-02
  4.002031e+00    4.690684e-01   1.072372e-02
  4.004242e+00    4.719592e-01   1.079473e-02
  4.006452e+00    4.666641e-01   1.077260e-02
  4.008663e+00    5.238882e-01   1.145557e-02
  4.010873e+00    5.249552e-01   1.150902e-02
  4.013084e+00    4.837731e-01   1.108917e-02
  4.015294e+00    4.714653e-01   1.098757e-02
  4.017504e+00    4.892240e-01   1.123473e-02
  4.019715e+00    4.713334e-01   1.106938e-02
  4.021925e+00    4.757352e-01   1.116345e-02
  4.024136e+00    4.643992e-01   1.107249e-02
  4.026346e+00    4.797253e-01   1.129765e-02
  4.028557e+00    4.544455e-01   1.103881e-02
  4.030767e+00    4.874541e-01   1.147860e-02
  4.032978e+00    4.824647e-01   1.146591e-02
  4.035188e+00    4.852001e-01   1.154461e-02
  4.037399e+00    4.774676e-01   1.149962e-02
  4.039609e+00    4.790563e-01   1.156617e-02
  4.041819e+00    4.708676e-01   1.151503e-02
  4.044030e+00    4.729535e-01   1.158988e-02
  4.046240e+00    4.983142e-01   1.194712e-02
  4.048451e+00    4.784082e-01   1.175689e-02
  4.050661e+00    5.201392e-01   1.231219e-02
  4.052872e+00    5.034304e-01   1.216679e-02
  4.055082e+00    4.763614e-01   1.188834e-02
  4.057293e+00    4.514152e-01   1.162490e-02
  4.059503e+00    4.615033e-01   1.180729e-02
  4.061714e+00    4.779541e-01   1.207231e-02
  4.063924e+00    4.720911e-01   1.205417e-02
  4.066134e+00    4.417917e-01   1.171590e-02
  4.068345e+00    4.326217e-01   1.164956e-02
  4.070555e+00    4.569542e-01   1.203017e-02
  4.072766e+00    5.078275e-01   1.274490e-02
  4.074976e+00    5.031466e-01   1.274916e-02
  4.077187e+00    4.901213e-01   1.264581e-02
  4.079397e+00    4.440966e-01   1.209861e-02
  4.081608e+00    4.724261e-01   1.254362e-02
  4.083818e+00    4.656897e-01   1.251852e-02
  4.086029e+00    4.627734e-01   1.254518e-02
  4.088239e+00    4.639642e-01   1.262891e-02
  4.090449e+00    4.652908e-01   1.271557e-02
  4.092660e+00    4.790968e-01   1.297375e-02
  4.094870e+00    4.739495e-01   1.297575e-02
  4.097081e+00    5.003089e-01   1.340448e-02
  4.099291e+00    5.030318e-01   1.349672e-02
  4.101502e+00    4.870040e-01   1.332960e-02
  4.103712e+00    4.636960e-01   1.305498e-02
  4.105923e+00    5.364103e-01   1.409582e-02
  4.108133e+00    4.837208e-01   1.343709e-02
  4.110344e+00    4.698667e-01   1.329417e-02
  4.112554e+00    4.813301e-01   1.350831e-02
  4.114764e+00    4.293827e-01   1.281000e-02
  4.116975e+00    4.399646e-01   1.301782e-02
  4.119185e+00    4.573435e-01   1.332639e-02
  4.121396e+00    4.578896e-01   1.338946e-02
  4.123606e+00    4.810887e-01   1.378067e-02
  4.125817e+00    4.815245e-01   1.384477e-02
  4.128027e+00    4.958085e-01   1.410770e-02
  4.130238e+00    5.123456e-01   1.440255e-02
  4.132448e+00    4.932964e-01   1.419376e-02
  4.134659e+00    5.141864e-01   1.455327e-02
  4.136869e+00    5.180398e-01   1.467306e-02
  4.139080e+00    4.850099e-01   1.426153e-02
  4.141290e+00    4.777814e-01   1.421762e-02
  4.143500e+00    5.047928e-01   1.468120e-02
  4.145711e+00    4.666627e-01   1.418193e-02
  4.147921e+00    4.734560e-01   1.435016e-02
  4.150132e+00    5.184288e-01   1.508809e-02
  4.152342e+00    4.670609e-01   1.439034e-02
  4.154553e+00    4.849388e-01   1.473311e-02
  4.156763e+00    4.791882e-01   1.471766e-02
  4.158974e+00    4.762538e-01   1.474646e-02
  4.161184e+00    4.941977e-01   1.509627e-02
  4.163395e+00    4.498685e-01   1.447681e-02
  4.165605e+00    4.790358e-01   1.501634e-02
  4.167815e+00    5.184349e-01   1.570310e-02
  4.170026e+00    5.030015e-01   1.554932e-02
  4.172236e+00    4.586500e-01   1.492819e-02
  4.174447e+00    4.293793e-01   1.452270e-02
  4.176657e+00    4.604085e-01   1.512020e-02
  4.178868e+00    4.820491e-01   1.555917e-02
  4.181078e+00    5.208272e-01   1.626384e-02
  4.183289e+00    5.083638e-01   1.616030e-02
  4.185499e+00    4.926708e-01   1.600247e-02
  4.187710e+00    5.382971e-01   1.682535e-02
  4.189920e+00    4.994961e-01   1.630515e-02
  4.192130e+00    4.885232e-01   1.622371e-02
  4.194341e+00    4.987612e-01   1.649310e-02
  4.196551e+00    5.144265e-01   1.685642e-02
  4.198762e+00    4.454345e-01   1.578496e-02
  4.200972e+00    4.918514e-01   1.669417e-02
  4.203183e+00    3.997249e-01   1.514918e-02
  4.205393e+00    4.403048e-01   1.600524e-02
  4.207604e+00    5.233021e-01   1.756769e-02
  4.209814e+00    4.513224e-01   1.642669e-02
  4.212025e+00    4.700476e-01   1.688267e-02
  4.214235e+00    4.791012e-01   1.716537e-02
  4.216445e+00    4.908418e-01   1.750030e-02
  4.218656e+00    4.949729e-01   1.770511e-02
  4.220866e+00    5.201438e-01   1.828444e-02
  4.223077e+00    4.844052e-01   1.778081e-02
  4.225287e+00    5.149817e-01   1.847725e-02
  4.227498e+00    4.984776e-01   1.832186e-02
  4.229708e+00    4.692104e-01   1.792008e-02
  4.231919e+00    4.642659e-01   1.797280e-02
  4.234129e+00    4.757586e-01   1.834666e-02
  4.236340e+00    4.555595e-01   1.810653e-02
  4.238550e+00    4.728061e-01   1.860884e-02
  4.240761e+00    4.502958e-01   1.832123e-02
  4.242971e+00    4.287001e-01   1.803984e-02
  4.245181e+00    4.653435e-01   1.897150e-02
  4.247392e+00    4.920449e-01   1.969101e-02
  4.249602e+00    4.998492e-01   2.004357e-02
  4.251813e+00    4.724897e-01   1.967927e-02
  4.254023e+00    4.263262e-01   1.888155e-02
  4.256234e+00    4.979205e-01   2.062323e-02
  4.258444e+00    4.980849e-01   2.084302e-02
  4.260655e+00    4.760372e-01   2.060034e-02
  4.262865e+00    4.401068e-01   2.003226e-02
  4.265076e+00    4.397144e-01   2.025080e-02
  4.267286e+00    4.829175e-01   2.147460e-02
  4.269496e+00    4.483727e-01   2.094431e-02
  4.271707e+00    4.485914e-01   2.120819e-02
  4.273917e+00    4.918815e-01   2.249517e-02
  4.276128e+00    4.446030e-01   2.167100e-02
  4.278338e+00    4.925293e-01   2.311370e-02
  4.280549e+00    4.162670e-01   2.155347e-02
  4.282759e+00    4.717770e-01   2.327576e-02
  4.284970e+00    5.095212e-01   2.454689e-02
  4.287180e+00    5.101789e-01   2.485719e-02
  4.289391e+00    4.833845e-01   2.437726e-02
  4.291601e+00    5.067317e-01   2.515795e-02
  4.293811e+00    5.168641e-01   2.560695e-02
  4.296022e+00    4.925219e-01   2.519743e-02
  4.298232e+00    5.554675e-01   2.698386e-02
  4.300443e+00    4.802594e-01   2.529751e-02
  4.302653e+00    4.077392e-01   2.351155e-02
  4.304864e+00    4.112338e-01   2.381628e-02
  4.307074e+00    4.889526e-01   2.620269e-02
  4.309285e+00    4.498256e-01   2.536097e-02
  4.311495e+00    4.980087e-01   2.693390e-02
  4.313706e+00    4.682809e-01   2.636418e-02
  4.315916e+00    3.798664e-01   2.397779e-02
  4.318126e+00    5.000016e-01   2.778186e-02
  4.320337e+00    4.052748e-01   2.526551e-02
  4.322547e+00    4.417331e-01   2.665627e-02
  4.324758e+00    5.003471e-01   2.866559e-02
  4.326968e+00    4.494312e-01   2.747380e-02
  4.329179e+00    4.644833e-01   2.823705e-02
  4.331389e+00    5.965323e-01   3.236975e-02
  4.333600e+00    5.358139e-01   3.104497e-02
  4.335810e+00    4.282854e-01   2.808567e-02
  4.338021e+00    4.281276e-01   2.843952e-02
  4.340231e+00    3.810268e-01   2.716685e-02
  4.342442e+00    5.078644e-01   3.178343e-02
  4.344652e+00    3.520234e-01   2.682267e-02
  4.346862e+00    3.456248e-01   2.694783e-02
  4.349073e+00    5.133457e-01   3.332189e-02
  4.351283e+00    4.018432e-01   2.992055e-02
  4.353494e+00    4.206365e-01   3.108614e-02
  4.355704e+00    4.448662e-01   3.248363e-02
  4.357915e+00    3.716130e-01   3.018346e-02
  4.360125e+00    4.091288e-01   3.221001e-02
  4.362336e+00    4.708507e-01   3.518400e-02
  4.364546e+00    4.633844e-01   3.554030e-02
  4.366757e+00    5.563111e-01   3.971486e-02
  4.368967e+00    4.862656e-01   3.787233e-02
  4.371177e+00    4.995492e-01   3.920162e-02
  4.373388e+00    4.837445e-01   3.943902e-02
  4.375598e+00    6.549783e-01   4.693842e-02
  4.377809e+00    4.129383e-01   3.821154e-02
  4.380019e+00    4.202619e-01   3.952154e-02
  4.382230e+00    2.433590e-01   3.091181e-02
  4.384440e+00    2.550121e-01   3.255503e-02
  4.386651e+00    3.483377e-01   3.922001e-02
  4.388861e+00    3.732494e-01   4.196111e-02
  4.391072e+00    4.672799e-01   4.860160e-02
  4.393282e+00    5.389305e-01   5.420920e-02
  4.395492e+00    4.699788e-01   5.272918e-02
  4.397703e+00    4.436437e-01   5.357123e-02
  4.399913e+00    4.034071e-01   5.367065e-02
  4.402124e+00    2.564169e-01   4.521485e-02
  4.404334e+00    5.344521e-01   6.938712e-02
  4.406545e+00    1.085295e-01   3.360387e-02
  4.408755e+00    1.793503e-01   4.683064e-02
  4.410966e+00    3.167976e-01   6.890354e-02
  4.413176e+00    1.922199e-01   6.074800e-02
  4.415387e+00   -5.177505e-01            nan
  4.417597e+00   -1.756009e+00            nan
  4.419807e+00    2.807437e-01   1.902519e-01
