# == pyFAI calibration ==
# Distance Sample to Detector: 0.216 m
# PONI: 1.166e-01, 1.308e-01 m
# Rotations: 0.000000 0.000000 0.000000 rad
# 
# == Fit2d calibration ==
# Distance Sample-beamCenter: 216.000 mm
# Center: x=1744.293, y=1555.000 pix
# Tilt: 0.000 deg  TiltPlanRot: 0.000 deg
# 
# Detector Eiger 9M	 PixelSize= 7.500e-05, 7.500e-05 m
#    Detector has a mask: True 
#    Detector has a dark current: False 
#    detector has a flat field: False 
# 
# Wavelength: 9.8e-11 m
# Mask applied: from detector
# Dark current applied: False
# Flat field applied: False
# Polarization factor: None
# Normalization factor: 1.0
# 
# Headers of the input frame:
# {
# "_array_data.header_convention": "SLS_1.0",
# "_array_data.header_contents": "# Detector: Dectris Eiger 9M, S/N E-18-0102\r\n# Pixel_size 75e-6 m x 75e-6 m\r\n# Silicon sensor, thickness 0.000450 m\r\n# Exposure_time 0.024997 s\r\n# Exposure_period 0.025000 s\r\n# Count_cutoff 62318 counts\r\n# Wavelength 0.980106 A\r\n# Detector_distance 0.215992 m\r\n# Beam_xy (1555, 1744) pixels\r\n# Start_angle 0.000000 deg.\r\n# Angle_increment 0.000000 deg.",
# "Content-Type": "application/octet-stream;",
# "conversions": "x-CBF_BYTE_OFFSET",
# "Content-Transfer-Encoding": "BINARY",
# "X-Binary-Size": "10166590",
# "X-Binary-ID": "1",
# "X-Binary-Element-Type": "signed 32-bit integer",
# "X-Binary-Element-Byte-Order": "LITTLE_ENDIAN",
# "Content-MD5": "Mejb+98onV1YFugu6s4afg==",
# "X-Binary-Number-of-Elements": "10166590",
# "X-Binary-Size-Fastest-Dimension": "3110",
# "X-Binary-Size-Second-Dimension": "3269",
# "X-Binary-Size-Padding": "4095"
# }
# --> H:/Proxima2a_2019-04-05/RAW_DATA/C5_gel17_position5/C5_mesh_1_data.cbf/C5_mesh_1_data.cbf000187.dat
#        q_A^-1              I           sigma 
  1.105228e-03    1.634976e+00   6.918989e-01
  3.315685e-03    1.585203e+00   4.141788e-01
  5.526141e-03    1.751902e+00   3.366875e-01
  7.736597e-03    1.587992e+00   2.707973e-01
  9.947054e-03    1.492068e+00   2.314040e-01
  1.215751e-02    1.384302e+00   2.015506e-01
  1.436797e-02    1.316168e+00   1.807721e-01
  1.657842e-02    1.309339e+00   1.678303e-01
  1.878888e-02    1.328597e+00   1.588035e-01
  2.099934e-02    1.296766e+00   1.484338e-01
  2.320979e-02    1.218338e+00   1.368412e-01
  2.542025e-02    1.251057e+00   1.325098e-01
  2.763070e-02    1.440992e+00   1.364021e-01
  2.984116e-02    1.535448e+00   1.354859e-01
  3.205162e-02    1.541932e+00   1.310143e-01
  3.426207e-02    1.502995e+00   1.250990e-01
  3.647253e-02    1.398814e+00   1.169687e-01
  3.868299e-02    1.622468e+00   1.223302e-01
  4.089344e-02    1.600557e+00   1.181725e-01
  4.310390e-02    1.429853e+00   1.087852e-01
  4.531436e-02    1.397773e+00   1.049021e-01
  4.752481e-02    1.318803e+00   9.949679e-02
  4.973527e-02    1.334626e+00   9.784339e-02
  5.194572e-02    1.441521e+00   9.949778e-02
  5.415618e-02    1.387232e+00   9.559020e-02
  5.636664e-02    1.406163e+00   9.433722e-02
  5.857709e-02    1.356266e+00   9.088390e-02
  6.078755e-02    1.378417e+00   8.993893e-02
  6.299801e-02    1.447129e+00   9.052114e-02
  6.520846e-02    1.406479e+00   8.771572e-02
  6.741892e-02    1.427590e+00   8.690635e-02
  6.962938e-02    1.502660e+00   8.773981e-02
  7.183983e-02    1.442126e+00   8.462014e-02
  7.405029e-02    1.440248e+00   8.329134e-02
  7.626074e-02    1.499866e+00   8.375616e-02
  7.847120e-02    1.405412e+00   7.992373e-02
  8.068166e-02    1.394373e+00   7.851052e-02
  8.289211e-02    1.478510e+00   7.975885e-02
  8.510257e-02    1.476906e+00   7.867301e-02
  8.731303e-02    1.539005e+00   7.928384e-02
  8.952348e-02    1.629408e+00   8.056796e-02
  9.173394e-02    1.562931e+00   7.794780e-02
  9.394439e-02    1.389837e+00   7.263252e-02
  9.615485e-02    1.429142e+00   7.279934e-02
  9.836531e-02    1.450908e+00   7.252076e-02
  1.005758e-01    1.474458e+00   7.229955e-02
  1.027862e-01    1.467238e+00   7.134084e-02
  1.049967e-01    1.438358e+00   6.988654e-02
  1.072071e-01    1.456622e+00   6.959918e-02
  1.094176e-01    1.477479e+00   6.938300e-02
  1.116280e-01    1.541301e+00   7.015900e-02
  1.138385e-01    1.523184e+00   6.906364e-02
  1.160490e-01    1.627245e+00   7.069984e-02
  1.182594e-01    1.617131e+00   6.981647e-02
  1.204699e-01    1.554942e+00   6.782937e-02
  1.226803e-01    1.574454e+00   6.763310e-02
  1.248908e-01    1.660247e+00   6.883318e-02
  1.271012e-01    1.634293e+00   6.769526e-02
  1.293117e-01    1.687623e+00   6.819954e-02
  1.315222e-01    1.714062e+00   6.815008e-02
  1.337326e-01    1.695955e+00   6.722531e-02
  1.359431e-01    1.573118e+00   6.478292e-02
  1.381535e-01    1.543721e+00   6.503617e-02
  1.403640e-01    1.559365e+00   6.564710e-02
  1.425744e-01    1.563799e+00   6.584539e-02
  1.447849e-01    1.565938e+00   6.590560e-02
  1.469953e-01    1.560171e+00   6.574291e-02
  1.492058e-01    1.595199e+00   6.639956e-02
  1.514163e-01    1.642428e+00   6.726348e-02
  1.536267e-01    1.667751e+00   6.764768e-02
  1.558372e-01    1.759845e+00   6.933693e-02
  1.580476e-01    1.763178e+00   6.923416e-02
  1.602581e-01    1.694467e+00   6.769938e-02
  1.624685e-01    1.641379e+00   6.644797e-02
  1.646790e-01    1.736023e+00   6.814066e-02
  1.668895e-01    1.724052e+00   6.770919e-02
  1.690999e-01    1.666061e+00   6.636081e-02
  1.713104e-01    1.692419e+00   6.667614e-02
  1.735208e-01    1.741000e+00   6.741601e-02
  1.757313e-01    1.823816e+00   6.878459e-02
  1.779417e-01    1.779489e+00   6.772198e-02
  1.801522e-01    1.770159e+00   6.732906e-02
  1.823626e-01    1.876160e+00   6.908491e-02
  1.845731e-01    1.923701e+00   6.972814e-02
  1.867836e-01    1.910713e+00   6.925782e-02
  1.889940e-01    1.873923e+00   6.836368e-02
  1.912045e-01    1.918602e+00   6.894286e-02
  1.934149e-01    1.970845e+00   6.964134e-02
  1.956254e-01    2.026702e+00   7.038841e-02
  1.978358e-01    1.974722e+00   6.924179e-02
  2.000463e-01    1.939648e+00   6.839672e-02
  2.022568e-01    1.932084e+00   6.803917e-02
  2.044672e-01    1.917661e+00   6.755250e-02
  2.066777e-01    2.037037e+00   6.939228e-02
  2.088881e-01    2.052958e+00   6.943502e-02
  2.110986e-01    1.962377e+00   6.765313e-02
  2.133090e-01    2.033432e+00   6.864318e-02
  2.155195e-01    2.025091e+00   6.827502e-02
  2.177300e-01    1.988857e+00   6.712992e-02
  2.199404e-01    1.942880e+00   6.460115e-02
  2.221509e-01    1.948046e+00   6.362479e-02
  2.243613e-01    1.945968e+00   6.278466e-02
  2.265718e-01    2.041067e+00   6.359177e-02
  2.287822e-01    2.071898e+00   6.343611e-02
  2.309927e-01    2.028916e+00   6.220280e-02
  2.332031e-01    2.099919e+00   6.274023e-02
  2.354136e-01    2.139666e+00   6.281792e-02
  2.376241e-01    2.217117e+00   6.344843e-02
  2.398345e-01    2.211819e+00   6.290357e-02
  2.420450e-01    2.126852e+00   6.124269e-02
  2.442554e-01    2.192585e+00   6.175347e-02
  2.464659e-01    2.199356e+00   6.143352e-02
  2.486763e-01    2.146113e+00   6.028647e-02
  2.508868e-01    2.112603e+00   5.943662e-02
  2.530973e-01    2.079034e+00   5.859695e-02
  2.553077e-01    2.080634e+00   5.826392e-02
  2.575182e-01    2.090560e+00   5.805720e-02
  2.597286e-01    2.087706e+00   5.768028e-02
  2.619391e-01    2.113823e+00   5.770583e-02
  2.641495e-01    2.079794e+00   5.692263e-02
  2.663600e-01    2.138992e+00   5.740962e-02
  2.685704e-01    2.083798e+00   5.635693e-02
  2.707809e-01    1.994407e+00   5.484223e-02
  2.729914e-01    2.043083e+00   5.521814e-02
  2.752018e-01    2.048566e+00   5.500443e-02
  2.774123e-01    1.972874e+00   5.370295e-02
  2.796227e-01    1.950330e+00   5.313111e-02
  2.818332e-01    1.971437e+00   5.315135e-02
  2.840436e-01    1.969469e+00   5.286732e-02
  2.862541e-01    2.009064e+00   5.313942e-02
  2.884646e-01    1.970430e+00   5.237627e-02
  2.906750e-01    1.940051e+00   5.172450e-02
  2.928855e-01    1.970464e+00   5.188683e-02
  2.950959e-01    1.978021e+00   5.174742e-02
  2.973064e-01    1.929208e+00   5.087525e-02
  2.995168e-01    1.968548e+00   5.115857e-02
  3.017273e-01    2.028622e+00   5.170437e-02
  3.039377e-01    1.919387e+00   5.007283e-02
  3.061482e-01    1.886102e+00   4.942201e-02
  3.083587e-01    1.936586e+00   4.986234e-02
  3.105691e-01    1.916854e+00   4.939575e-02
  3.127796e-01    1.906997e+00   4.906145e-02
  3.149900e-01    1.973946e+00   4.970725e-02
  3.172005e-01    1.920979e+00   4.883531e-02
  3.194109e-01    1.878628e+00   4.809463e-02
  3.216214e-01    1.917025e+00   4.838539e-02
  3.238319e-01    1.933266e+00   4.839741e-02
  3.260423e-01    1.940401e+00   4.829352e-02
  3.282528e-01    1.862150e+00   4.712138e-02
  3.304632e-01    1.892519e+00   4.732003e-02
  3.326737e-01    1.866769e+00   4.681364e-02
  3.348841e-01    1.866478e+00   4.662846e-02
  3.370946e-01    1.903412e+00   4.691039e-02
  3.393050e-01    1.899352e+00   4.668281e-02
  3.415155e-01    1.873647e+00   4.619153e-02
  3.437260e-01    1.834993e+00   4.554314e-02
  3.459364e-01    1.865357e+00   4.574854e-02
  3.481469e-01    1.821920e+00   4.504772e-02
  3.503573e-01    1.816805e+00   4.482056e-02
  3.525678e-01    1.785369e+00   4.427277e-02
  3.547782e-01    1.798996e+00   4.428076e-02
  3.569887e-01    1.906486e+00   4.542295e-02
  3.591992e-01    1.877615e+00   4.491821e-02
  3.614096e-01    1.814156e+00   4.399956e-02
  3.636201e-01    1.742351e+00   4.296844e-02
  3.658305e-01    1.840866e+00   4.401583e-02
  3.680410e-01    1.787399e+00   4.322277e-02
  3.702514e-01    1.753767e+00   4.267019e-02
  3.724619e-01    1.761735e+00   4.262139e-02
  3.746724e-01    1.824648e+00   4.323098e-02
  3.768828e-01    1.870363e+00   4.362193e-02
  3.790933e-01    1.843590e+00   4.316748e-02
  3.813037e-01    1.810605e+00   4.263959e-02
  3.835142e-01    1.751999e+00   4.180609e-02
  3.857246e-01    1.760090e+00   4.176687e-02
  3.879351e-01    1.823960e+00   4.238033e-02
  3.901455e-01    1.739062e+00   4.125052e-02
  3.923560e-01    1.770867e+00   4.149371e-02
  3.945665e-01    1.790213e+00   4.158745e-02
  3.967769e-01    1.808626e+00   4.166985e-02
  3.989874e-01    1.820525e+00   4.167617e-02
  4.011978e-01    1.772507e+00   4.099642e-02
  4.034083e-01    1.765550e+00   4.079027e-02
  4.056187e-01    1.759110e+00   4.059039e-02
  4.078292e-01    1.840641e+00   4.139470e-02
  4.100397e-01    1.855097e+00   4.143008e-02
  4.122501e-01    1.835444e+00   4.108674e-02
  4.144606e-01    1.826197e+00   4.086159e-02
  4.166710e-01    1.775014e+00   4.016512e-02
  4.188815e-01    1.773898e+00   4.003386e-02
  4.210919e-01    1.842902e+00   4.068552e-02
  4.233024e-01    1.756538e+00   3.960392e-02
  4.255128e-01    1.839507e+00   4.041130e-02
  4.277233e-01    1.828241e+00   4.017161e-02
  4.299338e-01    1.809776e+00   3.985323e-02
  4.321442e-01    1.815515e+00   3.980215e-02
  4.343547e-01    1.762021e+00   3.910052e-02
  4.365651e-01    1.708571e+00   3.839351e-02
  4.387756e-01    1.711787e+00   3.832200e-02
  4.409860e-01    1.737010e+00   3.849636e-02
  4.431965e-01    1.727445e+00   3.828406e-02
  4.454070e-01    1.758388e+00   3.851796e-02
  4.476174e-01    1.724164e+00   3.803657e-02
  4.498279e-01    1.774870e+00   3.848680e-02
  4.520383e-01    1.762329e+00   3.824538e-02
  4.542488e-01    1.706413e+00   3.753227e-02
  4.564592e-01    1.767446e+00   3.809508e-02
  4.586697e-01    1.730250e+00   3.759208e-02
  4.608801e-01    1.740148e+00   3.759845e-02
  4.630906e-01    1.718356e+00   3.726336e-02
  4.653011e-01    1.710236e+00   3.707745e-02
  4.675115e-01    1.727378e+00   3.716465e-02
  4.697220e-01    1.741577e+00   3.721941e-02
  4.719324e-01    1.682410e+00   3.648707e-02
  4.741429e-01    1.678238e+00   3.634792e-02
  4.763533e-01    1.671088e+00   3.617742e-02
  4.785638e-01    1.691101e+00   3.629938e-02
  4.807743e-01    1.672149e+00   3.600361e-02
  4.829847e-01    1.735525e+00   3.658688e-02
  4.851952e-01    1.734145e+00   3.647980e-02
  4.874056e-01    1.760742e+00   3.666582e-02
  4.896161e-01    1.685651e+00   3.578648e-02
  4.918265e-01    1.685059e+00   3.569132e-02
  4.940370e-01    1.739801e+00   3.617691e-02
  4.962475e-01    1.701814e+00   3.569144e-02
  4.984579e-01    1.661165e+00   3.517568e-02
  5.006684e-01    1.651852e+00   3.499141e-02
  5.028788e-01    1.683572e+00   3.524018e-02
  5.050893e-01    1.678173e+00   3.509805e-02
  5.072997e-01    1.723996e+00   3.548810e-02
  5.095102e-01    1.695979e+00   3.511427e-02
  5.117206e-01    1.650522e+00   3.455810e-02
  5.139311e-01    1.660710e+00   3.458256e-02
  5.161416e-01    1.673758e+00   3.463611e-02
  5.183520e-01    1.700737e+00   3.483117e-02
  5.205625e-01    1.612468e+00   3.383582e-02
  5.227729e-01    1.628551e+00   3.392479e-02
  5.249834e-01    1.684945e+00   3.442708e-02
  5.271938e-01    1.709661e+00   3.459775e-02
  5.294043e-01    1.687690e+00   3.429539e-02
  5.316148e-01    1.739370e+00   3.473678e-02
  5.338252e-01    1.725086e+00   3.451480e-02
  5.360357e-01    1.753491e+00   3.471856e-02
  5.382461e-01    1.731767e+00   3.442486e-02
  5.404566e-01    1.702407e+00   3.405409e-02
  5.426670e-01    1.775401e+00   3.469815e-02
  5.448775e-01    1.758386e+00   3.445434e-02
  5.470879e-01    1.791440e+00   3.469911e-02
  5.492984e-01    1.749786e+00   3.421708e-02
  5.515089e-01    1.747699e+00   3.412082e-02
  5.537193e-01    1.813483e+00   3.468047e-02
  5.559298e-01    1.747220e+00   3.396633e-02
  5.581402e-01    1.771175e+00   3.412363e-02
  5.603507e-01    1.827140e+00   3.458314e-02
  5.625611e-01    1.824427e+00   3.448245e-02
  5.647716e-01    1.803624e+00   3.421088e-02
  5.669821e-01    1.774213e+00   3.385763e-02
  5.691925e-01    1.790608e+00   3.394071e-02
  5.714030e-01    1.722603e+00   3.321898e-02
  5.736134e-01    1.673789e+00   3.267528e-02
  5.758239e-01    1.717355e+00   3.302713e-02
  5.780343e-01    1.706647e+00   3.285437e-02
  5.802448e-01    1.679535e+00   3.252413e-02
  5.824552e-01    1.663523e+00   3.230082e-02
  5.846657e-01    1.639788e+00   3.200270e-02
  5.868762e-01    1.626818e+00   3.180953e-02
  5.890866e-01    1.658767e+00   3.205371e-02
  5.912971e-01    1.656205e+00   3.196264e-02
  5.935075e-01    1.621340e+00   3.155908e-02
  5.957180e-01    1.595443e+00   3.124179e-02
  5.979284e-01    1.597751e+00   3.120055e-02
  6.001389e-01    1.608324e+00   3.123986e-02
  6.023494e-01    1.652624e+00   3.160289e-02
  6.045598e-01    1.658093e+00   3.159069e-02
  6.067703e-01    1.640329e+00   3.135783e-02
  6.089807e-01    1.633455e+00   3.122913e-02
  6.111912e-01    1.654312e+00   3.136512e-02
  6.134016e-01    1.704819e+00   3.177680e-02
  6.156121e-01    1.692622e+00   3.160002e-02
  6.178226e-01    1.672374e+00   3.134823e-02
  6.200330e-01    1.668637e+00   3.125143e-02
  6.222435e-01    1.691851e+00   3.140571e-02
  6.244539e-01    1.702268e+00   3.144057e-02
  6.266644e-01    1.721492e+00   3.155594e-02
  6.288748e-01    1.710784e+00   3.139640e-02
  6.310853e-01    1.748993e+00   3.168345e-02
  6.332957e-01    1.724918e+00   3.140388e-02
  6.355062e-01    1.696952e+00   3.108777e-02
  6.377167e-01    1.666265e+00   3.074627e-02
  6.399271e-01    1.706280e+00   3.105365e-02
  6.421376e-01    1.708722e+00   3.101654e-02
  6.443480e-01    1.698633e+00   3.086602e-02
  6.465585e-01    1.693051e+00   3.075688e-02
  6.487689e-01    1.731871e+00   3.104876e-02
  6.509794e-01    1.698254e+00   3.068794e-02
  6.531899e-01    1.681642e+00   3.048008e-02
  6.554003e-01    1.605432e+00   2.972542e-02
  6.576108e-01    1.599473e+00   2.961493e-02
  6.598212e-01    1.604549e+00   2.960678e-02
  6.620317e-01    1.642116e+00   2.989585e-02
  6.642421e-01    1.636948e+00   2.979354e-02
  6.664526e-01    1.615249e+00   2.954090e-02
  6.686630e-01    1.592595e+00   2.927877e-02
  6.708735e-01    1.608377e+00   2.936952e-02
  6.730840e-01    1.621901e+00   2.943896e-02
  6.752944e-01    1.628209e+00   2.944251e-02
  6.775049e-01    1.621621e+00   2.932954e-02
  6.797153e-01    1.606040e+00   2.913544e-02
  6.819258e-01    1.608091e+00   2.910145e-02
  6.841362e-01    1.594933e+00   2.893004e-02
  6.863467e-01    1.616139e+00   2.906956e-02
  6.885572e-01    1.623373e+00   2.908234e-02
  6.907676e-01    1.599172e+00   2.881305e-02
  6.929781e-01    1.565951e+00   2.846151e-02
  6.951885e-01    1.592597e+00   2.865179e-02
  6.973990e-01    1.599608e+00   2.866402e-02
  6.996094e-01    1.586772e+00   2.849858e-02
  7.018199e-01    1.556505e+00   2.817590e-02
  7.040303e-01    1.571483e+00   2.826143e-02
  7.062408e-01    1.573920e+00   2.823377e-02
  7.084513e-01    1.592147e+00   2.834741e-02
  7.106617e-01    1.594349e+00   2.831770e-02
  7.128722e-01    1.620721e+00   2.850154e-02
  7.150826e-01    1.611786e+00   2.837391e-02
  7.172931e-01    1.582496e+00   2.806643e-02
  7.195035e-01    1.589158e+00   2.807707e-02
  7.217140e-01    1.618695e+00   2.838697e-02
  7.239245e-01    1.568206e+00   2.816701e-02
  7.261349e-01    1.570058e+00   2.829209e-02
  7.283454e-01    1.556400e+00   2.824075e-02
  7.305558e-01    1.560978e+00   2.833601e-02
  7.327663e-01    1.544558e+00   2.822867e-02
  7.349767e-01    1.611018e+00   2.884615e-02
  7.371872e-01    1.555884e+00   2.833715e-02
  7.393976e-01    1.543072e+00   2.820612e-02
  7.416081e-01    1.513925e+00   2.792259e-02
  7.438186e-01    1.587616e+00   2.844918e-02
  7.460290e-01    1.516344e+00   2.751454e-02
  7.482395e-01    1.545652e+00   2.760956e-02
  7.504499e-01    1.562432e+00   2.762330e-02
  7.526604e-01    1.563075e+00   2.751286e-02
  7.548708e-01    1.537119e+00   2.719511e-02
  7.570813e-01    1.584908e+00   2.756348e-02
  7.592918e-01    1.582039e+00   2.750327e-02
  7.615022e-01    1.588182e+00   2.752266e-02
  7.637127e-01    1.564276e+00   2.728208e-02
  7.659231e-01    1.582761e+00   2.741070e-02
  7.681336e-01    1.567286e+00   2.724486e-02
  7.703440e-01    1.563554e+00   2.718129e-02
  7.725545e-01    1.577249e+00   2.726914e-02
  7.747650e-01    1.629550e+00   2.767873e-02
  7.769754e-01    1.589245e+00   2.728136e-02
  7.791859e-01    1.566224e+00   2.702971e-02
  7.813963e-01    1.567006e+00   2.698406e-02
  7.836068e-01    1.562773e+00   2.689596e-02
  7.858172e-01    1.574522e+00   2.694638e-02
  7.880277e-01    1.624187e+00   2.731600e-02
  7.902381e-01    1.610778e+00   2.715361e-02
  7.924486e-01    1.554637e+00   2.662679e-02
  7.946591e-01    1.604665e+00   2.700344e-02
  7.968695e-01    1.604617e+00   2.695474e-02
  7.990800e-01    1.607299e+00   2.692905e-02
  8.012904e-01    1.595326e+00   2.678216e-02
  8.035009e-01    1.601380e+00   2.678517e-02
  8.057113e-01    1.596205e+00   2.669562e-02
  8.079218e-01    1.615999e+00   2.681427e-02
  8.101323e-01    1.632231e+00   2.690285e-02
  8.123427e-01    1.645790e+00   2.696831e-02
  8.145532e-01    1.649743e+00   2.695448e-02
  8.167636e-01    1.653186e+00   2.693721e-02
  8.189741e-01    1.649989e+00   2.686632e-02
  8.211845e-01    1.617136e+00   2.655289e-02
  8.233950e-01    1.650358e+00   2.678065e-02
  8.256054e-01    1.615780e+00   2.645470e-02
  8.278159e-01    1.643961e+00   2.664035e-02
  8.300264e-01    1.625985e+00   2.645136e-02
  8.322368e-01    1.667261e+00   2.674150e-02
  8.344473e-01    1.650309e+00   2.656170e-02
  8.366577e-01    1.645536e+00   2.648058e-02
  8.388682e-01    1.643326e+00   2.642050e-02
  8.410786e-01    1.630383e+00   2.627429e-02
  8.432891e-01    1.634477e+00   2.626548e-02
  8.454996e-01    1.629847e+00   2.618674e-02
  8.477100e-01    1.608773e+00   2.597561e-02
  8.499205e-01    1.622436e+00   2.604469e-02
  8.521309e-01    1.629188e+00   2.605816e-02
  8.543414e-01    1.611280e+00   2.587410e-02
  8.565518e-01    1.593627e+00   2.569193e-02
  8.587623e-01    1.614030e+00   2.581559e-02
  8.609727e-01    1.620805e+00   2.582961e-02
  8.631832e-01    1.600975e+00   2.563155e-02
  8.653937e-01    1.594703e+00   2.554197e-02
  8.676041e-01    1.592888e+00   2.548891e-02
  8.698146e-01    1.619801e+00   2.566404e-02
  8.720250e-01    1.612964e+00   2.557081e-02
  8.742355e-01    1.560529e+00   2.511344e-02
  8.764459e-01    1.600998e+00   2.539818e-02
  8.786564e-01    1.628469e+00   2.557698e-02
  8.808669e-01    1.589937e+00   2.523426e-02
  8.830773e-01    1.588045e+00   2.518128e-02
  8.852878e-01    1.595614e+00   2.520335e-02
  8.874982e-01    1.606207e+00   2.525020e-02
  8.897087e-01    1.580850e+00   2.501263e-02
  8.919191e-01    1.584776e+00   2.500612e-02
  8.941296e-01    1.562598e+00   2.479368e-02
  8.963401e-01    1.608059e+00   2.511523e-02
  8.985505e-01    1.584066e+00   2.489040e-02
  9.007610e-01    1.620593e+00   2.513874e-02
  9.029714e-01    1.610556e+00   2.502484e-02
  9.051819e-01    1.587133e+00   2.480511e-02
  9.073923e-01    1.618485e+00   2.501213e-02
  9.096028e-01    1.592642e+00   2.477682e-02
  9.118132e-01    1.575824e+00   2.460968e-02
  9.140237e-01    1.608823e+00   2.482931e-02
  9.162342e-01    1.635701e+00   2.500090e-02
  9.184446e-01    1.647521e+00   2.505481e-02
  9.206551e-01    1.640288e+00   2.496369e-02
  9.228655e-01    1.663513e+00   2.510389e-02
  9.250760e-01    1.622198e+00   2.475460e-02
  9.272864e-01    1.618440e+00   2.469148e-02
  9.294969e-01    1.653904e+00   2.492416e-02
  9.317074e-01    1.676604e+00   2.505915e-02
  9.339178e-01    1.672189e+00   2.499198e-02
  9.361283e-01    1.675604e+00   2.498060e-02
  9.383387e-01    1.685876e+00   2.502296e-02
  9.405492e-01    1.658923e+00   2.478747e-02
  9.427596e-01    1.667396e+00   2.481492e-02
  9.449701e-01    1.673898e+00   2.482946e-02
  9.471805e-01    1.661739e+00   2.470409e-02
  9.493910e-01    1.682571e+00   2.482431e-02
  9.516015e-01    1.727608e+00   2.511926e-02
  9.538119e-01    1.709373e+00   2.495209e-02
  9.560224e-01    1.717909e+00   2.497912e-02
  9.582328e-01    1.716714e+00   2.493692e-02
  9.604433e-01    1.768683e+00   2.527571e-02
  9.626537e-01    1.810976e+00   2.554173e-02
  9.648642e-01    1.784403e+00   2.531895e-02
  9.670747e-01    1.755053e+00   2.507521e-02
  9.692851e-01    1.777122e+00   2.519884e-02
  9.714956e-01    1.834994e+00   2.556973e-02
  9.737060e-01    1.860750e+00   2.571474e-02
  9.759165e-01    1.858131e+00   2.566040e-02
  9.781269e-01    1.868412e+00   2.569764e-02
  9.803374e-01    1.888068e+00   2.579673e-02
  9.825478e-01    1.846820e+00   2.547974e-02
  9.847583e-01    1.829043e+00   2.532238e-02
  9.869688e-01    1.779312e+00   2.494232e-02
  9.891792e-01    1.767198e+00   2.482423e-02
  9.913897e-01    1.776042e+00   2.485267e-02
  9.936001e-01    1.756860e+00   2.468576e-02
  9.958106e-01    1.739192e+00   2.452793e-02
  9.980210e-01    1.717884e+00   2.434557e-02
  1.000231e+00    1.675060e+00   2.417192e-02
  1.002442e+00    1.643108e+00   2.406744e-02
  1.004652e+00    1.641110e+00   2.411993e-02
  1.006863e+00    1.605446e+00   2.390590e-02
  1.009073e+00    1.598836e+00   2.389314e-02
  1.011284e+00    1.598434e+00   2.392209e-02
  1.013494e+00    1.586973e+00   2.385980e-02
  1.015705e+00    1.624092e+00   2.416003e-02
  1.017915e+00    1.653632e+00   2.439556e-02
  1.020126e+00    1.693510e+00   2.470465e-02
  1.022336e+00    1.732746e+00   2.500151e-02
  1.024547e+00    1.749248e+00   2.513221e-02
  1.026757e+00    1.709512e+00   2.485392e-02
  1.028967e+00    1.621490e+00   2.421348e-02
  1.031178e+00    1.564562e+00   2.379085e-02
  1.033388e+00    1.565380e+00   2.380216e-02
  1.035599e+00    1.577193e+00   2.389528e-02
  1.037809e+00    1.626894e+00   2.427222e-02
  1.040020e+00    1.662258e+00   2.453594e-02
  1.042230e+00    1.708434e+00   2.487645e-02
  1.044441e+00    1.744131e+00   2.513478e-02
  1.046651e+00    1.750888e+00   2.518360e-02
  1.048862e+00    1.721749e+00   2.497232e-02
  1.051072e+00    1.647532e+00   2.442574e-02
  1.053282e+00    1.559054e+00   2.375981e-02
  1.055493e+00    1.514454e+00   2.341317e-02
  1.057703e+00    1.493771e+00   2.325121e-02
  1.059914e+00    1.490681e+00   2.322289e-02
  1.062124e+00    1.495456e+00   2.325599e-02
  1.064335e+00    1.515566e+00   2.340836e-02
  1.066545e+00    1.477574e+00   2.310714e-02
  1.068756e+00    1.466692e+00   2.301814e-02
  1.070966e+00    1.499693e+00   2.326908e-02
  1.073177e+00    1.470764e+00   2.303751e-02
  1.075387e+00    1.458721e+00   2.293779e-02
  1.077597e+00    1.450491e+00   2.286577e-02
  1.079808e+00    1.442069e+00   2.266758e-02
  1.082018e+00    1.423257e+00   2.233273e-02
  1.084229e+00    1.398965e+00   2.203363e-02
  1.086439e+00    1.440981e+00   2.227502e-02
  1.088650e+00    1.432719e+00   2.213601e-02
  1.090860e+00    1.409694e+00   2.189082e-02
  1.093071e+00    1.387591e+00   2.165771e-02
  1.095281e+00    1.412000e+00   2.179079e-02
  1.097492e+00    1.423818e+00   2.182729e-02
  1.099702e+00    1.430305e+00   2.182574e-02
  1.101912e+00    1.453714e+00   2.195453e-02
  1.104123e+00    1.426163e+00   2.169744e-02
  1.106333e+00    1.428960e+00   2.167434e-02
  1.108544e+00    1.459746e+00   2.186186e-02
  1.110754e+00    1.431676e+00   2.160756e-02
  1.112965e+00    1.413853e+00   2.143222e-02
  1.115175e+00    1.404210e+00   2.131806e-02
  1.117386e+00    1.382059e+00   2.111044e-02
  1.119596e+00    1.386142e+00   2.110407e-02
  1.121807e+00    1.402662e+00   2.119073e-02
  1.124017e+00    1.372658e+00   2.092669e-02
  1.126228e+00    1.364048e+00   2.082571e-02
  1.128438e+00    1.393740e+00   2.101447e-02
  1.130648e+00    1.389075e+00   2.094510e-02
  1.132859e+00    1.378488e+00   2.083098e-02
  1.135069e+00    1.377776e+00   2.079106e-02
  1.137280e+00    1.368387e+00   2.068737e-02
  1.139490e+00    1.341545e+00   2.045093e-02
  1.141701e+00    1.369260e+00   2.062815e-02
  1.143911e+00    1.379561e+00   2.067381e-02
  1.146122e+00    1.342503e+00   2.036268e-02
  1.148332e+00    1.382200e+00   2.062961e-02
  1.150543e+00    1.389038e+00   2.064964e-02
  1.152753e+00    1.399004e+00   2.069247e-02
  1.154963e+00    1.384576e+00   2.055435e-02
  1.157174e+00    1.348816e+00   2.025729e-02
  1.159384e+00    1.333392e+00   2.011169e-02
  1.161595e+00    1.365117e+00   2.031975e-02
  1.163805e+00    1.357987e+00   2.023747e-02
  1.166016e+00    1.358902e+00   2.021497e-02
  1.168226e+00    1.347603e+00   2.010198e-02
  1.170437e+00    1.365713e+00   2.020798e-02
  1.172647e+00    1.370141e+00   2.021178e-02
  1.174858e+00    1.366913e+00   2.015983e-02
  1.177068e+00    1.381095e+00   2.023570e-02
  1.179278e+00    1.362225e+00   2.006840e-02
  1.181489e+00    1.392734e+00   2.026453e-02
  1.183699e+00    1.418719e+00   2.042454e-02
  1.185910e+00    1.379521e+00   2.011243e-02
  1.188120e+00    1.360400e+00   1.994582e-02
  1.190331e+00    1.370827e+00   1.999520e-02
  1.192541e+00    1.354975e+00   1.985188e-02
  1.194752e+00    1.338636e+00   1.970490e-02
  1.196962e+00    1.358554e+00   1.982515e-02
  1.199173e+00    1.343804e+00   1.969080e-02
  1.201383e+00    1.342542e+00   1.965448e-02
  1.203593e+00    1.352117e+00   1.969958e-02
  1.205804e+00    1.362741e+00   1.975080e-02
  1.208014e+00    1.368617e+00   1.976629e-02
  1.210225e+00    1.368743e+00   1.974170e-02
  1.212435e+00    1.352812e+00   1.960167e-02
  1.214646e+00    1.319638e+00   1.933402e-02
  1.216856e+00    1.340771e+00   1.946282e-02
  1.219067e+00    1.341665e+00   1.944493e-02
  1.221277e+00    1.347323e+00   1.946088e-02
  1.223488e+00    1.329761e+00   1.930808e-02
  1.225698e+00    1.333370e+00   1.930753e-02
  1.227909e+00    1.331216e+00   1.926196e-02
  1.230119e+00    1.342505e+00   1.931170e-02
  1.232329e+00    1.339245e+00   1.925764e-02
  1.234540e+00    1.368321e+00   1.943506e-02
  1.236750e+00    1.395136e+00   1.959383e-02
  1.238961e+00    1.388389e+00   1.951903e-02
  1.241171e+00    1.369744e+00   1.936318e-02
  1.243382e+00    1.355081e+00   1.923569e-02
  1.245592e+00    1.338524e+00   1.909383e-02
  1.247803e+00    1.353335e+00   1.917548e-02
  1.250013e+00    1.357201e+00   1.917924e-02
  1.252224e+00    1.353421e+00   1.912926e-02
  1.254434e+00    1.319908e+00   1.886746e-02
  1.256644e+00    1.301667e+00   1.871383e-02
  1.258855e+00    1.333709e+00   1.891963e-02
  1.261065e+00    1.320930e+00   1.880566e-02
  1.263276e+00    1.340526e+00   1.892177e-02
  1.265486e+00    1.332730e+00   1.884396e-02
  1.267697e+00    1.313905e+00   1.868767e-02
  1.269907e+00    1.342162e+00   1.886492e-02
  1.272118e+00    1.342288e+00   1.884331e-02
  1.274328e+00    1.319675e+00   1.866144e-02
  1.276539e+00    1.324597e+00   1.867362e-02
  1.278749e+00    1.326426e+00   1.866442e-02
  1.280959e+00    1.335976e+00   1.870908e-02
  1.283170e+00    1.339870e+00   1.871397e-02
  1.285380e+00    1.352574e+00   1.878002e-02
  1.287591e+00    1.318518e+00   1.852032e-02
  1.289801e+00    1.320098e+00   1.851041e-02
  1.292012e+00    1.320897e+00   1.849910e-02
  1.294222e+00    1.330674e+00   1.855132e-02
  1.296433e+00    1.334092e+00   1.855960e-02
  1.298643e+00    1.363814e+00   1.874866e-02
  1.300854e+00    1.358994e+00   1.869905e-02
  1.303064e+00    1.363661e+00   1.871179e-02
  1.305274e+00    1.366892e+00   1.871238e-02
  1.307485e+00    1.358163e+00   1.863092e-02
  1.309695e+00    1.376133e+00   1.873132e-02
  1.311906e+00    1.391638e+00   1.881450e-02
  1.314116e+00    1.416091e+00   1.895779e-02
  1.316327e+00    1.387479e+00   1.874332e-02
  1.318537e+00    1.349494e+00   1.846308e-02
  1.320748e+00    1.364731e+00   1.854535e-02
  1.322958e+00    1.344220e+00   1.838498e-02
  1.325169e+00    1.349354e+00   1.839904e-02
  1.327379e+00    1.346262e+00   1.835616e-02
  1.329589e+00    1.386042e+00   1.860404e-02
  1.331800e+00    1.390633e+00   1.861382e-02
  1.334010e+00    1.400250e+00   1.865704e-02
  1.336221e+00    1.372696e+00   1.845064e-02
  1.338431e+00    1.391640e+00   1.855632e-02
  1.340642e+00    1.394186e+00   1.863850e-02
  1.342852e+00    1.375738e+00   1.861641e-02
  1.345063e+00    1.356725e+00   1.853693e-02
  1.347273e+00    1.324570e+00   1.835085e-02
  1.349484e+00    1.351207e+00   1.856213e-02
  1.351694e+00    1.352496e+00   1.859371e-02
  1.353905e+00    1.358832e+00   1.865528e-02
  1.356115e+00    1.341808e+00   1.855305e-02
  1.358325e+00    1.323050e+00   1.843609e-02
  1.360536e+00    1.326821e+00   1.847386e-02
  1.362746e+00    1.347272e+00   1.862524e-02
  1.364957e+00    1.353197e+00   1.867386e-02
  1.367167e+00    1.318531e+00   1.844017e-02
  1.369378e+00    1.303999e+00   1.834419e-02
  1.371588e+00    1.321076e+00   1.846902e-02
  1.373799e+00    1.314301e+00   1.842522e-02
  1.376009e+00    1.316341e+00   1.844289e-02
  1.378220e+00    1.315665e+00   1.844066e-02
  1.380430e+00    1.307840e+00   1.838843e-02
  1.382640e+00    1.291062e+00   1.827100e-02
  1.384851e+00    1.283893e+00   1.822105e-02
  1.387061e+00    1.299194e+00   1.832959e-02
  1.389272e+00    1.312451e+00   1.842309e-02
  1.391482e+00    1.310361e+00   1.840774e-02
  1.393693e+00    1.291055e+00   1.827076e-02
  1.395903e+00    1.276245e+00   1.816417e-02
  1.398114e+00    1.263944e+00   1.807506e-02
  1.400324e+00    1.249610e+00   1.797017e-02
  1.402535e+00    1.259619e+00   1.803968e-02
  1.404745e+00    1.274202e+00   1.814143e-02
  1.406955e+00    1.290435e+00   1.825394e-02
  1.409166e+00    1.293724e+00   1.827384e-02
  1.411376e+00    1.274459e+00   1.813416e-02
  1.413587e+00    1.250129e+00   1.795645e-02
  1.415797e+00    1.233637e+00   1.783412e-02
  1.418008e+00    1.250802e+00   1.791620e-02
  1.420218e+00    1.240636e+00   1.769528e-02
  1.422429e+00    1.242482e+00   1.762402e-02
  1.424639e+00    1.275651e+00   1.779291e-02
  1.426850e+00    1.270946e+00   1.770534e-02
  1.429060e+00    1.254814e+00   1.754392e-02
  1.431270e+00    1.258446e+00   1.752519e-02
  1.433481e+00    1.283160e+00   1.765526e-02
  1.435691e+00    1.263616e+00   1.748196e-02
  1.437902e+00    1.266459e+00   1.746521e-02
  1.440112e+00    1.267035e+00   1.743386e-02
  1.442323e+00    1.280985e+00   1.749640e-02
  1.444533e+00    1.273246e+00   1.741087e-02
  1.446744e+00    1.306283e+00   1.760373e-02
  1.448954e+00    1.286862e+00   1.744200e-02
  1.451165e+00    1.263615e+00   1.725406e-02
  1.453375e+00    1.261923e+00   1.721454e-02
  1.455586e+00    1.239154e+00   1.703072e-02
  1.457796e+00    1.236259e+00   1.698365e-02
  1.460006e+00    1.251196e+00   1.705890e-02
  1.462217e+00    1.278449e+00   1.721737e-02
  1.464427e+00    1.262730e+00   1.708566e-02
  1.466638e+00    1.284280e+00   1.720538e-02
  1.468848e+00    1.242437e+00   1.689772e-02
  1.471059e+00    1.235831e+00   1.682794e-02
  1.473269e+00    1.262370e+00   1.698339e-02
  1.475480e+00    1.259416e+00   1.693982e-02
  1.477690e+00    1.281478e+00   1.706358e-02
  1.479901e+00    1.236133e+00   1.673544e-02
  1.482111e+00    1.248294e+00   1.679440e-02
  1.484321e+00    1.279272e+00   1.697827e-02
  1.486532e+00    1.270893e+00   1.690024e-02
  1.488742e+00    1.254827e+00   1.677050e-02
  1.490953e+00    1.259980e+00   1.678232e-02
  1.493163e+00    1.253598e+00   1.671759e-02
  1.495374e+00    1.255066e+00   1.670595e-02
  1.497584e+00    1.223942e+00   1.647618e-02
  1.499795e+00    1.225765e+00   1.646707e-02
  1.502005e+00    1.272720e+00   1.675773e-02
  1.504216e+00    1.261271e+00   1.666114e-02
  1.506426e+00    1.235645e+00   1.647039e-02
  1.508636e+00    1.246940e+00   1.652512e-02
  1.510847e+00    1.257911e+00   1.657582e-02
  1.513057e+00    1.277252e+00   1.667749e-02
  1.515268e+00    1.274354e+00   1.663263e-02
  1.517478e+00    1.272634e+00   1.659607e-02
  1.519689e+00    1.256931e+00   1.646839e-02
  1.521899e+00    1.245230e+00   1.636850e-02
  1.524110e+00    1.279192e+00   1.656968e-02
  1.526320e+00    1.251598e+00   1.637041e-02
  1.528531e+00    1.262466e+00   1.642148e-02
  1.530741e+00    1.243273e+00   1.627707e-02
  1.532951e+00    1.230435e+00   1.617340e-02
  1.535162e+00    1.230751e+00   1.626139e-02
  1.537372e+00    1.241456e+00   1.639869e-02
  1.539583e+00    1.211737e+00   1.623493e-02
  1.541793e+00    1.228458e+00   1.635345e-02
  1.544004e+00    1.252699e+00   1.651426e-02
  1.546214e+00    1.240758e+00   1.643389e-02
  1.548425e+00    1.228492e+00   1.635269e-02
  1.550635e+00    1.229949e+00   1.637203e-02
  1.552846e+00    1.215048e+00   1.628207e-02
  1.555056e+00    1.225410e+00   1.631020e-02
  1.557266e+00    1.250605e+00   1.636629e-02
  1.559477e+00    1.254611e+00   1.633313e-02
  1.561687e+00    1.250330e+00   1.627450e-02
  1.563898e+00    1.234779e+00   1.615588e-02
  1.566108e+00    1.260347e+00   1.630623e-02
  1.568319e+00    1.254237e+00   1.625098e-02
  1.570529e+00    1.263432e+00   1.628511e-02
  1.572740e+00    1.272529e+00   1.631572e-02
  1.574950e+00    1.266198e+00   1.624853e-02
  1.577161e+00    1.258144e+00   1.617116e-02
  1.579371e+00    1.231188e+00   1.597345e-02
  1.581582e+00    1.223623e+00   1.590470e-02
  1.583792e+00    1.255571e+00   1.609287e-02
  1.586002e+00    1.260311e+00   1.610552e-02
  1.588213e+00    1.239006e+00   1.595160e-02
  1.590423e+00    1.234267e+00   1.590105e-02
  1.592634e+00    1.249318e+00   1.597605e-02
  1.594844e+00    1.238475e+00   1.588522e-02
  1.597055e+00    1.237345e+00   1.585751e-02
  1.599265e+00    1.257621e+00   1.596604e-02
  1.601476e+00    1.247851e+00   1.588357e-02
  1.603686e+00    1.237265e+00   1.579629e-02
  1.605897e+00    1.227291e+00   1.571244e-02
  1.608107e+00    1.243492e+00   1.579619e-02
  1.610317e+00    1.235464e+00   1.572583e-02
  1.612528e+00    1.245897e+00   1.577282e-02
  1.614738e+00    1.266570e+00   1.588393e-02
  1.616949e+00    1.231652e+00   1.564446e-02
  1.619159e+00    1.187298e+00   1.534170e-02
  1.621370e+00    1.203152e+00   1.542547e-02
  1.623580e+00    1.201551e+00   1.539695e-02
  1.625791e+00    1.206818e+00   1.541242e-02
  1.628001e+00    1.198368e+00   1.534015e-02
  1.630212e+00    1.180410e+00   1.520711e-02
  1.632422e+00    1.176207e+00   1.516219e-02
  1.634632e+00    1.167137e+00   1.508642e-02
  1.636843e+00    1.159772e+00   1.502134e-02
  1.639053e+00    1.157120e+00   1.498699e-02
  1.641264e+00    1.157025e+00   1.496937e-02
  1.643474e+00    1.157461e+00   1.495483e-02
  1.645685e+00    1.134387e+00   1.478853e-02
  1.647895e+00    1.153809e+00   1.489800e-02
  1.650106e+00    1.146030e+00   1.483073e-02
  1.652316e+00    1.140203e+00   1.477657e-02
  1.654527e+00    1.148671e+00   1.481459e-02
  1.656737e+00    1.160083e+00   1.487129e-02
  1.658947e+00    1.136517e+00   1.470318e-02
  1.661158e+00    1.115458e+00   1.455010e-02
  1.663368e+00    1.145164e+00   1.472640e-02
  1.665579e+00    1.138993e+00   1.467037e-02
  1.667789e+00    1.131806e+00   1.460769e-02
  1.670000e+00    1.121334e+00   1.452438e-02
  1.672210e+00    1.136579e+00   1.460673e-02
  1.674421e+00    1.098632e+00   1.434553e-02
  1.676631e+00    1.105805e+00   1.437637e-02
  1.678842e+00    1.093865e+00   1.428283e-02
  1.681052e+00    1.073973e+00   1.413711e-02
  1.683263e+00    1.059289e+00   1.402519e-02
  1.685473e+00    1.070600e+00   1.408485e-02
  1.687683e+00    1.075351e+00   1.410067e-02
  1.689894e+00    1.104230e+00   1.427285e-02
  1.692104e+00    1.031793e+00   1.378217e-02
  1.694315e+00    1.065408e+00   1.399036e-02
  1.696525e+00    1.085663e+00   1.410749e-02
  1.698736e+00    1.061352e+00   1.393386e-02
  1.700946e+00    1.049958e+00   1.384378e-02
  1.703157e+00    1.051954e+00   1.384234e-02
  1.705367e+00    1.047916e+00   1.380129e-02
  1.707578e+00    1.031270e+00   1.367678e-02
  1.709788e+00    1.043690e+00   1.374477e-02
  1.711998e+00    1.058349e+00   1.382586e-02
  1.714209e+00    1.014077e+00   1.351934e-02
  1.716419e+00    1.020158e+00   1.354562e-02
  1.718630e+00    1.026911e+00   1.357615e-02
  1.720840e+00    1.022604e+00   1.353351e-02
  1.723051e+00    1.019485e+00   1.349903e-02
  1.725261e+00    1.002923e+00   1.337438e-02
  1.727472e+00    1.008850e+00   1.339973e-02
  1.729682e+00    9.848175e-01   1.322594e-02
  1.731893e+00    9.679584e-01   1.309859e-02
  1.734103e+00    9.702418e-01   1.310054e-02
  1.736313e+00    9.740758e-01   1.311260e-02
  1.738524e+00    9.699944e-01   1.307150e-02
  1.740734e+00    9.626373e-01   1.300838e-02
  1.742945e+00    9.697365e-01   1.304299e-02
  1.745155e+00    9.815291e-01   1.310868e-02
  1.747366e+00    9.625838e-01   1.296793e-02
  1.749576e+00    9.524019e-01   1.288572e-02
  1.751787e+00    9.398560e-01   1.278753e-02
  1.753997e+00    9.461390e-01   1.281704e-02
  1.756208e+00    9.453003e-01   1.279836e-02
  1.758418e+00    9.519204e-01   1.283012e-02
  1.760628e+00    9.343169e-01   1.269784e-02
  1.762839e+00    9.354944e-01   1.269280e-02
  1.765049e+00    9.506006e-01   1.278184e-02
  1.767260e+00    9.474313e-01   1.274780e-02
  1.769470e+00    9.334204e-01   1.264034e-02
  1.771681e+00    9.391054e-01   1.266573e-02
  1.773891e+00    9.311658e-01   1.259916e-02
  1.776102e+00    9.403988e-01   1.264864e-02
  1.778312e+00    9.134397e-01   1.245351e-02
  1.780523e+00    9.103941e-01   1.242020e-02
  1.782733e+00    9.004642e-01   1.233986e-02
  1.784944e+00    9.099387e-01   1.239189e-02
  1.787154e+00    9.250115e-01   1.248162e-02
  1.789364e+00    9.340091e-01   1.252968e-02
  1.791575e+00    9.364361e-01   1.253335e-02
  1.793785e+00    9.470362e-01   1.259152e-02
  1.795996e+00    9.161671e-01   1.237213e-02
  1.798206e+00    9.100818e-01   1.231850e-02
  1.800417e+00    9.247892e-01   1.240490e-02
  1.802627e+00    9.430010e-01   1.251432e-02
  1.804838e+00    9.748670e-01   1.271150e-02
  1.807048e+00    9.657828e-01   1.263890e-02
  1.809259e+00    9.671620e-01   1.263388e-02
  1.811469e+00    9.576874e-01   1.255647e-02
  1.813679e+00    9.367495e-01   1.240315e-02
  1.815890e+00    9.469559e-01   1.245541e-02
  1.818100e+00    9.532847e-01   1.248139e-02
  1.820311e+00    9.464714e-01   1.242151e-02
  1.822521e+00    9.510389e-01   1.243608e-02
  1.824732e+00    9.691970e-01   1.253881e-02
  1.826942e+00    9.100085e-01   1.213743e-02
  1.829153e+00    8.726905e-01   1.187432e-02
  1.831363e+00    8.825391e-01   1.192912e-02
  1.833574e+00    8.840193e-01   1.192741e-02
  1.835784e+00    9.070273e-01   1.207003e-02
  1.837994e+00    8.951301e-01   1.197878e-02
  1.840205e+00    8.922034e-01   1.194790e-02
  1.842415e+00    8.943653e-01   1.195044e-02
  1.844626e+00    8.883395e-01   1.189846e-02
  1.846836e+00    8.926884e-01   1.191593e-02
  1.849047e+00    8.887826e-01   1.187810e-02
  1.851257e+00    8.865113e-01   1.185320e-02
  1.853468e+00    8.993058e-01   1.192943e-02
  1.855678e+00    9.283588e-01   1.211138e-02
  1.857889e+00    9.279382e-01   1.209981e-02
  1.860099e+00    9.404674e-01   1.217216e-02
  1.862309e+00    9.384868e-01   1.215047e-02
  1.864520e+00    8.883933e-01   1.181300e-02
  1.866730e+00    8.673825e-01   1.166302e-02
  1.868941e+00    8.763431e-01   1.171198e-02
  1.871151e+00    8.838845e-01   1.175069e-02
  1.873362e+00    8.864985e-01   1.175645e-02
  1.875572e+00    8.785666e-01   1.169264e-02
  1.877783e+00    8.603278e-01   1.155912e-02
  1.879993e+00    8.611931e-01   1.155366e-02
  1.882204e+00    8.602949e-01   1.153665e-02
  1.884414e+00    8.566864e-01   1.150125e-02
  1.886624e+00    8.631532e-01   1.153341e-02
  1.888835e+00    8.558887e-01   1.147370e-02
  1.891045e+00    8.448148e-01   1.138831e-02
  1.893256e+00    8.361635e-01   1.131879e-02
  1.895466e+00    8.261419e-01   1.123965e-02
  1.897677e+00    8.300980e-01   1.125564e-02
  1.899887e+00    8.191895e-01   1.117057e-02
  1.902098e+00    8.244933e-01   1.119586e-02
  1.904308e+00    8.232890e-01   1.117716e-02
  1.906519e+00    8.248950e-01   1.117725e-02
  1.908729e+00    8.018020e-01   1.100925e-02
  1.910940e+00    8.278090e-01   1.117523e-02
  1.913150e+00    8.305420e-01   1.118306e-02
  1.915360e+00    8.263038e-01   1.114387e-02
  1.917571e+00    7.999415e-01   1.095393e-02
  1.919781e+00    8.242914e-01   1.110869e-02
  1.921992e+00    7.979308e-01   1.091915e-02
  1.924202e+00    8.162019e-01   1.103269e-02
  1.926413e+00    8.138326e-01   1.100638e-02
  1.928623e+00    8.082503e-01   1.095808e-02
  1.930834e+00    8.098933e-01   1.095878e-02
  1.933044e+00    8.202721e-01   1.101807e-02
  1.935255e+00    7.994636e-01   1.086715e-02
  1.937465e+00    7.917753e-01   1.080448e-02
  1.939675e+00    8.014419e-01   1.085943e-02
  1.941886e+00    7.918829e-01   1.078428e-02
  1.944096e+00    8.083163e-01   1.088538e-02
  1.946307e+00    8.109782e-01   1.089289e-02
  1.948517e+00    8.024325e-01   1.082489e-02
  1.950728e+00    7.993764e-01   1.079402e-02
  1.952938e+00    7.810696e-01   1.065971e-02
  1.955149e+00    7.822924e-01   1.065790e-02
  1.957359e+00    7.998270e-01   1.076663e-02
  1.959570e+00    7.892889e-01   1.068463e-02
  1.961780e+00    7.807375e-01   1.061675e-02
  1.963990e+00    8.024687e-01   1.075330e-02
  1.966201e+00    7.819356e-01   1.060485e-02
  1.968411e+00    7.774040e-01   1.056398e-02
  1.970622e+00    7.934956e-01   1.066263e-02
  1.972832e+00    7.959431e-01   1.066903e-02
  1.975043e+00    7.895555e-01   1.061609e-02
  1.977253e+00    7.577773e-01   1.039048e-02
  1.979464e+00    7.792200e-01   1.052643e-02
  1.981674e+00    7.861933e-01   1.056316e-02
  1.983885e+00    7.814874e-01   1.052147e-02
  1.986095e+00    7.895559e-01   1.056589e-02
  1.988305e+00    7.902011e-01   1.056026e-02
  1.990516e+00    7.713178e-01   1.042343e-02
  1.992726e+00    7.847987e-01   1.050440e-02
  1.994937e+00    7.778258e-01   1.044752e-02
  1.997147e+00    7.683139e-01   1.037375e-02
  1.999358e+00    7.649670e-01   1.034134e-02
  2.001568e+00    7.737054e-01   1.038943e-02
  2.003779e+00    7.817723e-01   1.043146e-02
  2.005989e+00    7.639748e-01   1.030009e-02
  2.008200e+00    7.571179e-01   1.024231e-02
  2.010410e+00    7.634906e-01   1.027363e-02
  2.012621e+00    7.806841e-01   1.037686e-02
  2.014831e+00    7.750083e-01   1.032756e-02
  2.017041e+00    7.607993e-01   1.022210e-02
  2.019252e+00    7.716810e-01   1.028493e-02
  2.021462e+00    7.785988e-01   1.032137e-02
  2.023673e+00    7.564639e-01   1.016424e-02
  2.025883e+00    7.631351e-01   1.019944e-02
  2.028094e+00    7.449757e-01   1.006783e-02
  2.030304e+00    7.482538e-01   1.008050e-02
  2.032515e+00    7.623010e-01   1.016537e-02
  2.034725e+00    7.732655e-01   1.022870e-02
  2.036936e+00    7.611954e-01   1.013919e-02
  2.039146e+00    7.582331e-01   1.010986e-02
  2.041356e+00    7.783709e-01   1.023345e-02
  2.043567e+00    7.712544e-01   1.017717e-02
  2.045777e+00    7.680699e-01   1.014681e-02
  2.047988e+00    7.590857e-01   1.007791e-02
  2.050198e+00    7.533072e-01   1.003103e-02
  2.052409e+00    7.487335e-01   9.992905e-03
  2.054619e+00    7.472144e-01   9.975404e-03
  2.056830e+00    7.504561e-01   9.989846e-03
  2.059040e+00    7.688363e-01   1.010384e-02
  2.061251e+00    7.646729e-01   1.006912e-02
  2.063461e+00    7.790272e-01   1.015545e-02
  2.065671e+00    7.565988e-01   9.999440e-03
  2.067882e+00    7.507074e-01   9.951415e-03
  2.070092e+00    7.461315e-01   9.911843e-03
  2.072303e+00    7.341391e-01   9.822812e-03
  2.074513e+00    7.511131e-01   9.926342e-03
  2.076724e+00    7.483527e-01   9.898614e-03
  2.078934e+00    7.354035e-01   9.803651e-03
  2.081145e+00    7.404377e-01   9.828064e-03
  2.083355e+00    7.422644e-01   9.831013e-03
  2.085566e+00    7.319233e-01   9.753432e-03
  2.087776e+00    7.327473e-01   9.749467e-03
  2.089986e+00    7.240561e-01   9.682769e-03
  2.092197e+00    7.241548e-01   9.674552e-03
  2.094407e+00    7.250155e-01   9.671144e-03
  2.096618e+00    7.257691e-01   9.667335e-03
  2.098828e+00    7.244802e-01   9.649488e-03
  2.101039e+00    7.239278e-01   9.636899e-03
  2.103249e+00    7.344952e-01   9.698271e-03
  2.105460e+00    7.148197e-01   9.558597e-03
  2.107670e+00    7.256858e-01   9.622232e-03
  2.109881e+00    7.214462e-01   9.584974e-03
  2.112091e+00    7.190482e-01   9.560072e-03
  2.114301e+00    7.243739e-01   9.586651e-03
  2.116512e+00    7.193638e-01   9.544646e-03
  2.118722e+00    7.236296e-01   9.564081e-03
  2.120933e+00    7.243285e-01   9.559813e-03
  2.123143e+00    7.233741e-01   9.544577e-03
  2.125354e+00    7.168956e-01   9.493220e-03
  2.127564e+00    7.033487e-01   9.394444e-03
  2.129775e+00    7.127241e-01   9.448131e-03
  2.131985e+00    7.225338e-01   9.503823e-03
  2.134196e+00    7.128528e-01   9.431363e-03
  2.136406e+00    7.030000e-01   9.357272e-03
  2.138617e+00    7.003036e-01   9.330908e-03
  2.140827e+00    7.089266e-01   9.404229e-03
  2.143037e+00    7.120816e-01   9.470784e-03
  2.145248e+00    6.967692e-01   9.390262e-03
  2.147458e+00    6.967953e-01   9.405480e-03
  2.149669e+00    7.137950e-01   9.531462e-03
  2.151879e+00    7.188144e-01   9.574272e-03
  2.154090e+00    6.904069e-01   9.390431e-03
  2.156300e+00    6.877313e-01   9.378744e-03
  2.158511e+00    6.966056e-01   9.444356e-03
  2.160721e+00    7.138463e-01   9.565386e-03
  2.162932e+00    7.011859e-01   9.483946e-03
  2.165142e+00    6.963910e-01   9.454469e-03
  2.167352e+00    6.876357e-01   9.397750e-03
  2.169563e+00    6.926621e-01   9.433988e-03
  2.171773e+00    6.896169e-01   9.415654e-03
  2.173984e+00    6.919788e-01   9.433184e-03
  2.176194e+00    6.849420e-01   9.386287e-03
  2.178405e+00    6.998568e-01   9.488634e-03
  2.180615e+00    6.829416e-01   9.373946e-03
  2.182826e+00    6.694218e-01   9.281367e-03
  2.185036e+00    6.767399e-01   9.332003e-03
  2.187247e+00    6.771553e-01   9.334809e-03
  2.189457e+00    6.923559e-01   9.438605e-03
  2.191667e+00    6.870553e-01   9.402227e-03
  2.193878e+00    6.871133e-01   9.402053e-03
  2.196088e+00    6.945446e-01   9.452072e-03
  2.198299e+00    6.995091e-01   9.484699e-03
  2.200509e+00    6.929532e-01   9.439087e-03
  2.202720e+00    6.928264e-01   9.437049e-03
  2.204930e+00    6.889660e-01   9.409489e-03
  2.207141e+00    6.674028e-01   9.259970e-03
  2.209351e+00    6.755202e-01   9.314203e-03
  2.211562e+00    6.847269e-01   9.375866e-03
  2.213772e+00    6.726140e-01   9.237247e-03
  2.215982e+00    6.701495e-01   9.176280e-03
  2.218193e+00    6.603298e-01   9.079525e-03
  2.220403e+00    6.619202e-01   9.066095e-03
  2.222614e+00    6.530707e-01   8.984653e-03
  2.224824e+00    6.584687e-01   9.002549e-03
  2.227035e+00    6.702020e-01   9.064989e-03
  2.229245e+00    6.592090e-01   8.973535e-03
  2.231456e+00    6.606454e-01   8.967806e-03
  2.233666e+00    6.691576e-01   9.010326e-03
  2.235877e+00    6.721614e-01   9.016237e-03
  2.238087e+00    6.751341e-01   9.022633e-03
  2.240298e+00    6.564320e-01   8.883150e-03
  2.242508e+00    6.570369e-01   8.872238e-03
  2.244718e+00    6.615916e-01   8.887217e-03
  2.246929e+00    6.731130e-01   8.949792e-03
  2.249139e+00    6.649194e-01   8.882803e-03
  2.251350e+00    6.521111e-01   8.785250e-03
  2.253560e+00    6.712023e-01   8.901312e-03
  2.255771e+00    6.733983e-01   8.904391e-03
  2.257981e+00    6.722057e-01   8.885271e-03
  2.260192e+00    6.581397e-01   8.780756e-03
  2.262402e+00    6.611966e-01   8.790295e-03
  2.264613e+00    6.772286e-01   8.885271e-03
  2.266823e+00    6.721589e-01   8.841506e-03
  2.269033e+00    6.803182e-01   8.884472e-03
  2.271244e+00    6.654516e-01   8.776456e-03
  2.273454e+00    6.726117e-01   8.813207e-03
  2.275665e+00    6.919967e-01   8.928754e-03
  2.277875e+00    6.965075e-01   8.947636e-03
  2.280086e+00    6.737577e-01   8.790156e-03
  2.282296e+00    6.601714e-01   8.691656e-03
  2.284507e+00    6.696646e-01   8.743711e-03
  2.286717e+00    6.775463e-01   8.785404e-03
  2.288928e+00    6.741979e-01   8.753686e-03
  2.291138e+00    6.564872e-01   8.628527e-03
  2.293348e+00    6.502209e-01   8.577733e-03
  2.295559e+00    6.479740e-01   8.553652e-03
  2.297769e+00    6.375300e-01   8.475299e-03
  2.299980e+00    6.698946e-01   8.678304e-03
  2.302190e+00    6.556408e-01   8.576366e-03
  2.304401e+00    6.473598e-01   8.512727e-03
  2.306611e+00    6.479051e-01   8.507156e-03
  2.308822e+00    6.344938e-01   8.410357e-03
  2.311032e+00    6.406286e-01   8.444521e-03
  2.313243e+00    6.392047e-01   8.428909e-03
  2.315453e+00    6.457831e-01   8.464617e-03
  2.317663e+00    6.357840e-01   8.389796e-03
  2.319874e+00    6.321191e-01   8.356946e-03
  2.322084e+00    6.215089e-01   8.277710e-03
  2.324295e+00    6.507742e-01   8.462105e-03
  2.326505e+00    6.455098e-01   8.418729e-03
  2.328716e+00    6.599721e-01   8.503878e-03
  2.330926e+00    6.508436e-01   8.436005e-03
  2.333137e+00    6.526057e-01   8.438984e-03
  2.335347e+00    6.382469e-01   8.336788e-03
  2.337558e+00    6.206246e-01   8.212772e-03
  2.339768e+00    6.348622e-01   8.297895e-03
  2.341979e+00    6.464252e-01   8.364714e-03
  2.344189e+00    6.367092e-01   8.293238e-03
  2.346399e+00    6.216771e-01   8.186335e-03
  2.348610e+00    6.497647e-01   8.360683e-03
  2.350820e+00    6.173274e-01   8.141275e-03
  2.353031e+00    6.172845e-01   8.132780e-03
  2.355241e+00    6.150341e-01   8.110037e-03
  2.357452e+00    6.083341e-01   8.057460e-03
  2.359662e+00    6.162313e-01   8.101479e-03
  2.361873e+00    6.228995e-01   8.136998e-03
  2.364083e+00    6.395201e-01   8.236797e-03
  2.366294e+00    6.435520e-01   8.254511e-03
  2.368504e+00    6.422226e-01   8.237815e-03
  2.370714e+00    6.252391e-01   8.120104e-03
  2.372925e+00    6.144176e-01   8.041549e-03
  2.375135e+00    6.154724e-01   8.040431e-03
  2.377346e+00    6.203741e-01   8.064471e-03
  2.379556e+00    6.261708e-01   8.094140e-03
  2.381767e+00    6.101028e-01   7.981827e-03
  2.383977e+00    6.201779e-01   8.039522e-03
  2.386188e+00    6.204830e-01   8.033586e-03
  2.388398e+00    6.117412e-01   7.968889e-03
  2.390609e+00    6.093379e-01   7.945526e-03
  2.392819e+00    6.168748e-01   7.986744e-03
  2.395029e+00    6.236132e-01   8.022540e-03
  2.397240e+00    6.197399e-01   7.989685e-03
  2.399450e+00    6.099052e-01   7.918257e-03
  2.401661e+00    6.103610e-01   7.913525e-03
  2.403871e+00    6.259902e-01   8.006373e-03
  2.406082e+00    6.141135e-01   7.922595e-03
  2.408292e+00    6.033420e-01   7.845052e-03
  2.410503e+00    6.073765e-01   7.863743e-03
  2.412713e+00    6.038949e-01   7.833422e-03
  2.414924e+00    6.038378e-01   7.825556e-03
  2.417134e+00    6.030947e-01   7.813132e-03
  2.419344e+00    6.012968e-01   7.794068e-03
  2.421555e+00    5.875371e-01   7.696978e-03
  2.423765e+00    5.960497e-01   7.745127e-03
  2.425976e+00    6.057096e-01   7.799814e-03
  2.428186e+00    5.829041e-01   7.644441e-03
  2.430397e+00    5.928556e-01   7.701964e-03
  2.432607e+00    5.969419e-01   7.721170e-03
  2.434818e+00    6.077297e-01   7.783018e-03
  2.437028e+00    5.895180e-01   7.658400e-03
  2.439239e+00    6.072975e-01   7.765259e-03
  2.441449e+00    5.963445e-01   7.687720e-03
  2.443659e+00    5.986651e-01   7.695248e-03
  2.445870e+00    6.017667e-01   7.727532e-03
  2.448080e+00    6.085277e-01   7.806392e-03
  2.450291e+00    5.802599e-01   7.639573e-03
  2.452501e+00    5.779109e-01   7.635255e-03
  2.454712e+00    5.767999e-01   7.636394e-03
  2.456922e+00    5.619547e-01   7.544026e-03
  2.459133e+00    5.686951e-01   7.594591e-03
  2.461343e+00    5.627848e-01   7.559360e-03
  2.463554e+00    5.494111e-01   7.472411e-03
  2.465764e+00    5.527440e-01   7.498155e-03
  2.467975e+00    5.572744e-01   7.531106e-03
  2.470185e+00    5.550741e-01   7.518465e-03
  2.472395e+00    5.573778e-01   7.535271e-03
  2.474606e+00    5.545868e-01   7.517951e-03
  2.476816e+00    5.549440e-01   7.521110e-03
  2.479027e+00    5.379899e-01   7.406170e-03
  2.481237e+00    5.434604e-01   7.444001e-03
  2.483448e+00    5.501314e-01   7.489860e-03
  2.485658e+00    5.405527e-01   7.424213e-03
  2.487869e+00    5.581581e-01   7.544185e-03
  2.490079e+00    5.553238e-01   7.524502e-03
  2.492290e+00    5.327910e-01   7.369820e-03
  2.494500e+00    5.286045e-01   7.340082e-03
  2.496710e+00    5.334474e-01   7.372932e-03
  2.498921e+00    5.302724e-01   7.349977e-03
  2.501131e+00    5.314195e-01   7.356964e-03
  2.503342e+00    5.322374e-01   7.361373e-03
  2.505552e+00    5.331505e-01   7.366537e-03
  2.507763e+00    5.289674e-01   7.336192e-03
  2.509973e+00    5.279656e-01   7.327828e-03
  2.512184e+00    5.468337e-01   7.455965e-03
  2.514394e+00    5.395011e-01   7.396363e-03
  2.516605e+00    5.241425e-01   7.243352e-03
  2.518815e+00    5.354148e-01   7.292244e-03
  2.521025e+00    5.199445e-01   7.165283e-03
  2.523236e+00    5.243089e-01   7.177311e-03
  2.525446e+00    5.380057e-01   7.254676e-03
  2.527657e+00    5.274470e-01   7.168502e-03
  2.529867e+00    5.259529e-01   7.144148e-03
  2.532078e+00    5.231268e-01   7.109924e-03
  2.534288e+00    5.243902e-01   7.104611e-03
  2.536499e+00    5.231523e-01   7.084312e-03
  2.538709e+00    5.172296e-01   7.033170e-03
  2.540920e+00    5.166559e-01   7.018692e-03
  2.543130e+00    5.237877e-01   7.056620e-03
  2.545340e+00    5.080294e-01   6.939742e-03
  2.547551e+00    5.172662e-01   6.992648e-03
  2.549761e+00    5.263838e-01   7.044397e-03
  2.551972e+00    5.162290e-01   6.966814e-03
  2.554182e+00    5.252010e-01   7.017871e-03
  2.556393e+00    5.260917e-01   7.014702e-03
  2.558603e+00    5.141575e-01   6.925656e-03
  2.560814e+00    5.108547e-01   6.894748e-03
  2.563024e+00    5.086887e-01   6.871620e-03
  2.565235e+00    5.173451e-01   6.920352e-03
  2.567445e+00    5.156288e-01   6.899344e-03
  2.569656e+00    5.182186e-01   6.906890e-03
  2.571866e+00    5.195073e-01   6.906114e-03
  2.574076e+00    5.134951e-01   6.856794e-03
  2.576287e+00    5.157140e-01   6.863267e-03
  2.578497e+00    5.167292e-01   6.862177e-03
  2.580708e+00    5.078661e-01   6.795038e-03
  2.582918e+00    5.192736e-01   6.863124e-03
  2.585129e+00    5.272622e-01   6.907874e-03
  2.587339e+00    5.247697e-01   6.883779e-03
  2.589550e+00    5.206068e-01   6.848806e-03
  2.591760e+00    5.315748e-01   6.912681e-03
  2.593971e+00    5.378745e-01   6.945831e-03
  2.596181e+00    5.296203e-01   6.885970e-03
  2.598391e+00    5.068069e-01   6.730897e-03
  2.600602e+00    5.057761e-01   6.718118e-03
  2.602812e+00    5.192229e-01   6.799255e-03
  2.605023e+00    5.070013e-01   6.711598e-03
  2.607233e+00    5.085291e-01   6.714549e-03
  2.609444e+00    4.910788e-01   6.591241e-03
  2.611654e+00    4.974144e-01   6.626352e-03
  2.613865e+00    4.990115e-01   6.630003e-03
  2.616075e+00    5.020498e-01   6.643047e-03
  2.618286e+00    4.939141e-01   6.582088e-03
  2.620496e+00    5.057804e-01   6.653972e-03
  2.622706e+00    5.060219e-01   6.649828e-03
  2.624917e+00    4.973666e-01   6.586903e-03
  2.627127e+00    4.936321e-01   6.556441e-03
  2.629338e+00    4.947984e-01   6.558257e-03
  2.631548e+00    4.985886e-01   6.577189e-03
  2.633759e+00    5.025080e-01   6.595831e-03
  2.635969e+00    5.117780e-01   6.649654e-03
  2.638180e+00    5.107473e-01   6.635896e-03
  2.640390e+00    5.212061e-01   6.696758e-03
  2.642601e+00    5.171140e-01   6.663664e-03
  2.644811e+00    4.981955e-01   6.533572e-03
  2.647021e+00    4.994050e-01   6.534928e-03
  2.649232e+00    5.125356e-01   6.613463e-03
  2.651442e+00    5.155592e-01   6.626344e-03
  2.653653e+00    5.087243e-01   6.575424e-03
  2.655863e+00    5.126775e-01   6.594131e-03
  2.658074e+00    5.152335e-01   6.603839e-03
  2.660284e+00    5.014686e-01   6.508627e-03
  2.662495e+00    5.010433e-01   6.499104e-03
  2.664705e+00    5.014495e-01   6.495134e-03
  2.666916e+00    5.038172e-01   6.503941e-03
  2.669126e+00    4.967321e-01   6.451587e-03
  2.671337e+00    4.827256e-01   6.353487e-03
  2.673547e+00    4.783775e-01   6.318520e-03
  2.675757e+00    4.988649e-01   6.445925e-03
  2.677968e+00    4.935620e-01   6.405076e-03
  2.680178e+00    4.880359e-01   6.362739e-03
  2.682389e+00    4.933840e-01   6.391109e-03
  2.684599e+00    4.874801e-01   6.346620e-03
  2.686810e+00    4.918586e-01   6.368426e-03
  2.689020e+00    4.902156e-01   6.351537e-03
  2.691231e+00    4.883467e-01   6.333113e-03
  2.693441e+00    4.841600e-01   6.299821e-03
  2.695652e+00    4.806784e-01   6.270662e-03
  2.697862e+00    4.960961e-01   6.364059e-03
  2.700072e+00    4.892273e-01   6.313785e-03
  2.702283e+00    4.803506e-01   6.250058e-03
  2.704493e+00    4.838035e-01   6.266239e-03
  2.706704e+00    4.713077e-01   6.178501e-03
  2.708914e+00    4.818574e-01   6.241322e-03
  2.711125e+00    4.990598e-01   6.345440e-03
  2.713335e+00    4.892547e-01   6.276709e-03
  2.715546e+00    4.854621e-01   6.245877e-03
  2.717756e+00    4.753816e-01   6.174871e-03
  2.719967e+00    4.711854e-01   6.141439e-03
  2.722177e+00    4.801297e-01   6.193359e-03
  2.724387e+00    4.733277e-01   6.143312e-03
  2.726598e+00    4.887183e-01   6.236296e-03
  2.728808e+00    4.823343e-01   6.189328e-03
  2.731019e+00    4.593351e-01   6.033990e-03
  2.733229e+00    4.703822e-01   6.100370e-03
  2.735440e+00    4.802779e-01   6.157991e-03
  2.737650e+00    4.803638e-01   6.152529e-03
  2.739861e+00    4.919612e-01   6.220235e-03
  2.742071e+00    4.890197e-01   6.195841e-03
  2.744282e+00    4.765319e-01   6.110013e-03
  2.746492e+00    4.655950e-01   6.033573e-03
  2.748702e+00    4.669725e-01   6.036653e-03
  2.750913e+00    4.789752e-01   6.107972e-03
  2.753123e+00    4.748963e-01   6.075842e-03
  2.755334e+00    4.816409e-01   6.112745e-03
  2.757544e+00    4.895013e-01   6.156640e-03
  2.759755e+00    4.877029e-01   6.139379e-03
  2.761965e+00    4.900658e-01   6.148209e-03
  2.764176e+00    4.923246e-01   6.156287e-03
  2.766386e+00    4.758074e-01   6.046391e-03
  2.768597e+00    4.690103e-01   5.997223e-03
  2.770807e+00    4.744860e-01   6.026303e-03
  2.773017e+00    4.704844e-01   5.994898e-03
  2.775228e+00    4.810525e-01   6.056067e-03
  2.777438e+00    4.771338e-01   6.025560e-03
  2.779649e+00    4.826531e-01   6.054378e-03
  2.781859e+00    4.824778e-01   6.047488e-03
  2.784070e+00    4.775507e-01   6.010664e-03
  2.786280e+00    4.879750e-01   6.070091e-03
  2.788491e+00    4.846788e-01   6.043660e-03
  2.790701e+00    4.865231e-01   6.049455e-03
  2.792912e+00    4.847313e-01   6.032274e-03
  2.795122e+00    4.814454e-01   6.006046e-03
  2.797333e+00    4.872653e-01   6.036607e-03
  2.799543e+00    4.731948e-01   5.942945e-03
  2.801753e+00    4.880065e-01   6.029331e-03
  2.803964e+00    4.704569e-01   5.914287e-03
  2.806174e+00    4.641576e-01   5.868475e-03
  2.808385e+00    4.733661e-01   5.919607e-03
  2.810595e+00    4.759763e-01   5.929046e-03
  2.812806e+00    4.790173e-01   5.941314e-03
  2.815016e+00    4.739728e-01   5.905193e-03
  2.817227e+00    4.684980e-01   5.896785e-03
  2.819437e+00    4.694086e-01   5.913529e-03
  2.821648e+00    4.582162e-01   5.844856e-03
  2.823858e+00    4.695181e-01   5.921805e-03
  2.826068e+00    4.769311e-01   5.973379e-03
  2.828279e+00    4.766300e-01   5.975564e-03
  2.830489e+00    4.686209e-01   5.928460e-03
  2.832700e+00    4.697039e-01   5.937855e-03
  2.834910e+00    4.680519e-01   5.929464e-03
  2.837121e+00    4.790599e-01   6.000497e-03
  2.839331e+00    4.789047e-01   6.000793e-03
  2.841542e+00    4.684494e-01   5.935919e-03
  2.843752e+00    4.596817e-01   5.880882e-03
  2.845963e+00    4.812560e-01   6.017708e-03
  2.848173e+00    4.757026e-01   5.982985e-03
  2.850383e+00    4.767773e-01   5.990034e-03
  2.852594e+00    4.656782e-01   5.919814e-03
  2.854804e+00    4.751348e-01   5.979113e-03
  2.857015e+00    4.711995e-01   5.953865e-03
  2.859225e+00    4.796461e-01   6.006735e-03
  2.861436e+00    4.637811e-01   5.905925e-03
  2.863646e+00    4.629036e-01   5.900351e-03
  2.865857e+00    4.660932e-01   5.920990e-03
  2.868067e+00    4.649553e-01   5.913988e-03
  2.870278e+00    4.491498e-01   5.812248e-03
  2.872488e+00    4.610099e-01   5.887317e-03
  2.874698e+00    4.665220e-01   5.921374e-03
  2.876909e+00    4.662022e-01   5.918012e-03
  2.879119e+00    4.679804e-01   5.927664e-03
  2.881330e+00    4.505365e-01   5.814672e-03
  2.883540e+00    4.620229e-01   5.886946e-03
  2.885751e+00    4.686373e-01   5.927273e-03
  2.887961e+00    4.568270e-01   5.850257e-03
  2.890172e+00    4.577327e-01   5.854429e-03
  2.892382e+00    4.648565e-01   5.897998e-03
  2.894593e+00    4.682218e-01   5.917505e-03
  2.896803e+00    4.588329e-01   5.855881e-03
  2.899014e+00    4.622725e-01   5.875872e-03
  2.901224e+00    4.651328e-01   5.892020e-03
  2.903434e+00    4.616786e-01   5.868162e-03
  2.905645e+00    4.698561e-01   5.917647e-03
  2.907855e+00    4.576491e-01   5.838190e-03
  2.910066e+00    4.589645e-01   5.844472e-03
  2.912276e+00    4.575561e-01   5.833395e-03
  2.914487e+00    4.536743e-01   5.806157e-03
  2.916697e+00    4.573390e-01   5.827319e-03
  2.918908e+00    4.625999e-01   5.858759e-03
  2.921118e+00    4.529742e-01   5.794777e-03
  2.923329e+00    4.534490e-01   5.795523e-03
  2.925539e+00    4.624201e-01   5.850276e-03
  2.927749e+00    4.597200e-01   5.830843e-03
  2.929960e+00    4.457144e-01   5.738620e-03
  2.932170e+00    4.499559e-01   5.763523e-03
  2.934381e+00    4.509806e-01   5.767671e-03
  2.936591e+00    4.482373e-01   5.747536e-03
  2.938802e+00    4.409143e-01   5.697745e-03
  2.941012e+00    4.502501e-01   5.755405e-03
  2.943223e+00    4.582929e-01   5.803892e-03
  2.945433e+00    4.635497e-01   5.833319e-03
  2.947644e+00    4.503964e-01   5.745852e-03
  2.949854e+00    4.465220e-01   5.716856e-03
  2.952064e+00    4.585245e-01   5.788937e-03
  2.954275e+00    4.455827e-01   5.702310e-03
  2.956485e+00    4.395757e-01   5.659601e-03
  2.958696e+00    4.505398e-01   5.725408e-03
  2.960906e+00    4.493631e-01   5.713766e-03
  2.963117e+00    4.485549e-01   5.704179e-03
  2.965327e+00    4.520648e-01   5.722553e-03
  2.967538e+00    4.557539e-01   5.742944e-03
  2.969748e+00    4.560771e-01   5.742146e-03
  2.971959e+00    4.589948e-01   5.757347e-03
  2.974169e+00    4.537838e-01   5.721976e-03
  2.976379e+00    4.620209e-01   5.770748e-03
  2.978590e+00    4.590592e-01   5.749067e-03
  2.980800e+00    4.524799e-01   5.704931e-03
  2.983011e+00    4.453320e-01   5.656913e-03
  2.985221e+00    4.434043e-01   5.641537e-03
  2.987432e+00    4.553364e-01   5.713822e-03
  2.989642e+00    4.685935e-01   5.793735e-03
  2.991853e+00    4.502047e-01   5.675682e-03
  2.994063e+00    4.389931e-01   5.601674e-03
  2.996274e+00    4.440387e-01   5.630630e-03
  2.998484e+00    4.500037e-01   5.665637e-03
  3.000694e+00    4.574279e-01   5.708709e-03
  3.002905e+00    4.634244e-01   5.743042e-03
  3.005115e+00    4.578920e-01   5.705670e-03
  3.007326e+00    4.538916e-01   5.677520e-03
  3.009536e+00    4.586623e-01   5.704018e-03
  3.011747e+00    4.568870e-01   5.690036e-03
  3.013957e+00    4.478519e-01   5.630341e-03
  3.016168e+00    4.453632e-01   5.611435e-03
  3.018378e+00    4.621940e-01   5.713413e-03
  3.020589e+00    4.516668e-01   5.644763e-03
  3.022799e+00    4.542826e-01   5.657917e-03
  3.025010e+00    4.621629e-01   5.703507e-03
  3.027220e+00    4.520175e-01   5.637446e-03
  3.029430e+00    4.598557e-01   5.682848e-03
  3.031641e+00    4.462630e-01   5.595115e-03
  3.033851e+00    4.470991e-01   5.596837e-03
  3.036062e+00    4.579167e-01   5.661357e-03
  3.038272e+00    4.418014e-01   5.557311e-03
  3.040483e+00    4.393739e-01   5.538832e-03
  3.042693e+00    4.442174e-01   5.566032e-03
  3.044904e+00    4.452842e-01   5.568727e-03
  3.047114e+00    4.572107e-01   5.637964e-03
  3.049325e+00    4.550087e-01   5.619968e-03
  3.051535e+00    4.410333e-01   5.528651e-03
  3.053745e+00    4.434492e-01   5.539024e-03
  3.055956e+00    4.685991e-01   5.689288e-03
  3.058166e+00    4.572572e-01   5.615729e-03
  3.060377e+00    4.493054e-01   5.561906e-03
  3.062587e+00    4.546657e-01   5.590340e-03
  3.064798e+00    4.468300e-01   5.537715e-03
  3.067008e+00    4.511001e-01   5.559370e-03
  3.069219e+00    4.603809e-01   5.611721e-03
  3.071429e+00    4.397426e-01   5.481019e-03
  3.073640e+00    4.362599e-01   5.455978e-03
  3.075850e+00    4.562334e-01   5.575860e-03
  3.078060e+00    4.521573e-01   5.547796e-03
  3.080271e+00    4.470482e-01   5.512887e-03
  3.082481e+00    4.484081e-01   5.517823e-03
  3.084692e+00    4.553125e-01   5.556732e-03
  3.086902e+00    4.534787e-01   5.542285e-03
  3.089113e+00    4.379558e-01   5.443055e-03
  3.091323e+00    4.505556e-01   5.517418e-03
  3.093534e+00    4.530914e-01   5.529524e-03
  3.095744e+00    4.507830e-01   5.512041e-03
  3.097955e+00    4.461241e-01   5.479950e-03
  3.100165e+00    4.449055e-01   5.469116e-03
  3.102375e+00    4.430033e-01   5.454029e-03
  3.104586e+00    4.459924e-01   5.468890e-03
  3.106796e+00    4.557436e-01   5.524804e-03
  3.109007e+00    4.545714e-01   5.514449e-03
  3.111217e+00    4.414863e-01   5.430820e-03
  3.113428e+00    4.461215e-01   5.455852e-03
  3.115638e+00    4.263495e-01   5.330405e-03
  3.117849e+00    4.498754e-01   5.471751e-03
  3.120059e+00    4.400135e-01   5.408017e-03
  3.122270e+00    4.466624e-01   5.445439e-03
  3.124480e+00    4.498506e-01   5.461146e-03
  3.126691e+00    4.552960e-01   5.490480e-03
  3.128901e+00    4.475692e-01   5.440587e-03
  3.131111e+00    4.321895e-01   5.342486e-03
  3.133322e+00    4.344077e-01   5.352766e-03
  3.135532e+00    4.322646e-01   5.336208e-03
  3.137743e+00    4.500158e-01   5.441137e-03
  3.139953e+00    4.550187e-01   5.467604e-03
  3.142164e+00    4.439161e-01   5.412508e-03
  3.144374e+00    4.427811e-01   5.433989e-03
  3.146585e+00    4.426494e-01   5.447757e-03
  3.148795e+00    4.326931e-01   5.396800e-03
  3.151006e+00    4.375271e-01   5.435364e-03
  3.153216e+00    4.311552e-01   5.402693e-03
  3.155426e+00    4.409395e-01   5.469963e-03
  3.157637e+00    4.381326e-01   5.458020e-03
  3.159847e+00    4.355683e-01   5.446888e-03
  3.162058e+00    4.368151e-01   5.459072e-03
  3.164268e+00    4.462482e-01   5.521812e-03
  3.166479e+00    4.322303e-01   5.438016e-03
  3.168689e+00    4.413823e-01   5.498630e-03
  3.170900e+00    4.501452e-01   5.556181e-03
  3.173110e+00    4.348043e-01   5.463545e-03
  3.175321e+00    4.292229e-01   5.430826e-03
  3.177531e+00    4.373861e-01   5.484964e-03
  3.179741e+00    4.443886e-01   5.530776e-03
  3.181952e+00    4.282510e-01   5.431532e-03
  3.184162e+00    4.399948e-01   5.507679e-03
  3.186373e+00    4.311896e-01   5.453896e-03
  3.188583e+00    4.400736e-01   5.511566e-03
  3.190794e+00    4.528126e-01   5.592571e-03
  3.193004e+00    4.341394e-01   5.477294e-03
  3.195215e+00    4.312256e-01   5.460362e-03
  3.197425e+00    4.320879e-01   5.467045e-03
  3.199636e+00    4.257668e-01   5.426104e-03
  3.201846e+00    4.353773e-01   5.486432e-03
  3.204056e+00    4.397014e-01   5.514486e-03
  3.206267e+00    4.377882e-01   5.503344e-03
  3.208477e+00    4.320528e-01   5.468097e-03
  3.210688e+00    4.249571e-01   5.423835e-03
  3.212898e+00    4.234897e-01   5.415038e-03
  3.215109e+00    4.313887e-01   5.466053e-03
  3.217319e+00    4.368213e-01   5.501016e-03
  3.219530e+00    4.268014e-01   5.437927e-03
  3.221740e+00    4.398152e-01   5.520787e-03
  3.223951e+00    4.337976e-01   5.483380e-03
  3.226161e+00    4.225280e-01   5.411853e-03
  3.228372e+00    4.295774e-01   5.457330e-03
  3.230582e+00    4.384973e-01   5.513852e-03
  3.232792e+00    4.328837e-01   5.478667e-03
  3.235003e+00    4.257170e-01   5.433387e-03
  3.237213e+00    4.197168e-01   5.395046e-03
  3.239424e+00    4.145125e-01   5.361500e-03
  3.241634e+00    4.304910e-01   5.463961e-03
  3.243845e+00    4.355320e-01   5.495951e-03
  3.246055e+00    4.483083e-01   5.575695e-03
  3.248266e+00    4.331257e-01   5.480689e-03
  3.250476e+00    4.260743e-01   5.435574e-03
  3.252687e+00    4.248902e-01   5.427934e-03
  3.254897e+00    4.240230e-01   5.422277e-03
  3.257107e+00    4.312033e-01   5.467675e-03
  3.259318e+00    4.278910e-01   5.446406e-03
  3.261528e+00    4.277311e-01   5.445238e-03
  3.263739e+00    4.384477e-01   5.512473e-03
  3.265949e+00    4.259214e-01   5.433037e-03
  3.268160e+00    4.337064e-01   5.482036e-03
  3.270370e+00    4.203603e-01   5.396532e-03
  3.272581e+00    4.219113e-01   5.406202e-03
  3.274791e+00    4.333904e-01   5.478707e-03
  3.277002e+00    4.202133e-01   5.394228e-03
  3.279212e+00    4.212610e-01   5.400554e-03
  3.281422e+00    4.289064e-01   5.448783e-03
  3.283633e+00    4.255249e-01   5.426558e-03
  3.285843e+00    4.169408e-01   5.371235e-03
  3.288054e+00    4.253342e-01   5.424066e-03
  3.290264e+00    4.186858e-01   5.381214e-03
  3.292475e+00    4.288720e-01   5.445420e-03
  3.294685e+00    4.355422e-01   5.486977e-03
  3.296896e+00    4.135093e-01   5.345650e-03
  3.299106e+00    4.184987e-01   5.377234e-03
  3.301317e+00    4.186173e-01   5.376987e-03
  3.303527e+00    4.307480e-01   5.453840e-03
  3.305737e+00    4.352814e-01   5.481432e-03
  3.307948e+00    4.311364e-01   5.454599e-03
  3.310158e+00    4.304620e-01   5.449452e-03
  3.312369e+00    4.376217e-01   5.493703e-03
  3.314579e+00    4.198276e-01   5.379949e-03
  3.316790e+00    4.195732e-01   5.377593e-03
  3.319000e+00    4.321850e-01   5.456630e-03
  3.321211e+00    4.273715e-01   5.425561e-03
  3.323421e+00    4.212940e-01   5.385624e-03
  3.325632e+00    4.120308e-01   5.325230e-03
  3.327842e+00    4.071038e-01   5.292374e-03
  3.330052e+00    4.153713e-01   5.344796e-03
  3.332263e+00    4.239517e-01   5.398686e-03
  3.334473e+00    4.131807e-01   5.328778e-03
  3.336684e+00    4.153720e-01   5.341632e-03
  3.338894e+00    4.118924e-01   5.318364e-03
  3.341105e+00    4.218626e-01   5.381147e-03
  3.343315e+00    4.206660e-01   5.372361e-03
  3.345526e+00    4.243068e-01   5.394670e-03
  3.347736e+00    4.136951e-01   5.325386e-03
  3.349947e+00    4.160653e-01   5.339683e-03
  3.352157e+00    4.107210e-01   5.304124e-03
  3.354368e+00    4.203455e-01   5.364613e-03
  3.356578e+00    4.203519e-01   5.363624e-03
  3.358788e+00    4.300162e-01   5.423583e-03
  3.360999e+00    4.316122e-01   5.432385e-03
  3.363209e+00    4.173568e-01   5.340911e-03
  3.365420e+00    4.203370e-01   5.358413e-03
  3.367630e+00    4.115708e-01   5.301233e-03
  3.369841e+00    4.174307e-01   5.337426e-03
  3.372051e+00    3.996099e-01   5.220328e-03
  3.374262e+00    4.041879e-01   5.247706e-03
  3.376472e+00    4.147737e-01   5.313564e-03
  3.378683e+00    4.026900e-01   5.233116e-03
  3.380893e+00    4.059205e-01   5.251748e-03
  3.383103e+00    4.264603e-01   5.380244e-03
  3.385314e+00    4.214806e-01   5.346504e-03
  3.387524e+00    4.181414e-01   5.322547e-03
  3.389735e+00    4.191115e-01   5.326059e-03
  3.391945e+00    4.123862e-01   5.279493e-03
  3.394156e+00    4.114502e-01   5.269272e-03
  3.396366e+00    4.157915e-01   5.293571e-03
  3.398577e+00    4.103592e-01   5.255854e-03
  3.400787e+00    4.144185e-01   5.293731e-03
  3.402998e+00    4.032416e-01   5.259620e-03
  3.405208e+00    4.140916e-01   5.350764e-03
  3.407418e+00    4.081942e-01   5.328482e-03
  3.409629e+00    3.995286e-01   5.285540e-03
  3.411839e+00    3.891901e-01   5.228340e-03
  3.414050e+00    3.974212e-01   5.294311e-03
  3.416260e+00    3.944964e-01   5.284454e-03
  3.418471e+00    4.043027e-01   5.359259e-03
  3.420681e+00    3.968593e-01   5.318264e-03
  3.422892e+00    3.940905e-01   5.307698e-03
  3.425102e+00    3.874915e-01   5.270878e-03
  3.427313e+00    3.768634e-01   5.205185e-03
  3.429523e+00    3.709222e-01   5.170869e-03
  3.431733e+00    3.656935e-01   5.140794e-03
  3.433944e+00    3.833260e-01   5.269739e-03
  3.436154e+00    3.865744e-01   5.298316e-03
  3.438365e+00    3.761350e-01   5.232153e-03
  3.440575e+00    3.769438e-01   5.243669e-03
  3.442786e+00    3.848804e-01   5.304242e-03
  3.444996e+00    3.684513e-01   5.195246e-03
  3.447207e+00    3.601277e-01   5.141414e-03
  3.449417e+00    3.628175e-01   5.200885e-03
  3.451628e+00    3.665955e-01   5.257266e-03
  3.453838e+00    3.766633e-01   5.350376e-03
  3.456049e+00    3.580969e-01   5.240462e-03
  3.458259e+00    3.768598e-01   5.398247e-03
  3.460469e+00    3.640344e-01   5.325309e-03
  3.462680e+00    3.558582e-01   5.283946e-03
  3.464890e+00    3.851650e-01   5.515474e-03
  3.467101e+00    3.759120e-01   5.466495e-03
  3.469311e+00    3.866721e-01   5.561091e-03
  3.471522e+00    3.764793e-01   5.503745e-03
  3.473732e+00    3.928368e-01   5.638256e-03
  3.475943e+00    3.951673e-01   5.670922e-03
  3.478153e+00    4.027280e-01   5.740643e-03
  3.480364e+00    4.143108e-01   5.838171e-03
  3.482574e+00    3.996010e-01   5.748854e-03
  3.484784e+00    4.076591e-01   5.821357e-03
  3.486995e+00    4.250470e-01   5.959430e-03
  3.489205e+00    4.373521e-01   6.060021e-03
  3.491416e+00    4.375068e-01   6.076167e-03
  3.493626e+00    4.656528e-01   6.283689e-03
  3.495837e+00    4.581035e-01   6.247592e-03
  3.498047e+00    4.715454e-01   6.353494e-03
  3.500258e+00    4.750876e-01   6.392278e-03
  3.502468e+00    4.678983e-01   6.358376e-03
  3.504679e+00    4.817364e-01   6.466507e-03
  3.506889e+00    4.787740e-01   6.461223e-03
  3.509099e+00    4.891699e-01   6.545669e-03
  3.511310e+00    4.792673e-01   6.493561e-03
  3.513520e+00    4.772343e-01   6.494117e-03
  3.515731e+00    4.951106e-01   6.629140e-03
  3.517941e+00    4.882841e-01   6.597622e-03
  3.520152e+00    4.994902e-01   6.687279e-03
  3.522362e+00    4.983805e-01   6.694294e-03
  3.524573e+00    5.150771e-01   6.819909e-03
  3.526783e+00    5.120081e-01   6.812928e-03
  3.528994e+00    5.197877e-01   6.876773e-03
  3.531204e+00    5.364165e-01   6.998538e-03
  3.533414e+00    5.412570e-01   7.042323e-03
  3.535625e+00    5.313163e-01   6.989767e-03
  3.537835e+00    5.223522e-01   6.942516e-03
  3.540046e+00    5.412652e-01   7.076067e-03
  3.542256e+00    5.306545e-01   7.013899e-03
  3.544467e+00    5.344213e-01   7.046328e-03
  3.546677e+00    5.427814e-01   7.108861e-03
  3.548888e+00    5.291324e-01   7.026351e-03
  3.551098e+00    5.314622e-01   7.049080e-03
  3.553309e+00    5.423320e-01   7.128990e-03
  3.555519e+00    5.347253e-01   7.090140e-03
  3.557729e+00    5.250941e-01   7.037569e-03
  3.559940e+00    5.383712e-01   7.137553e-03
  3.562150e+00    5.454690e-01   7.196291e-03
  3.564361e+00    5.308172e-01   7.112218e-03
  3.566571e+00    5.476351e-01   7.237984e-03
  3.568782e+00    5.508865e-01   7.273768e-03
  3.570992e+00    5.507014e-01   7.286470e-03
  3.573203e+00    5.422689e-01   7.244720e-03
  3.575413e+00    5.416141e-01   7.254167e-03
  3.577624e+00    5.436530e-01   7.282031e-03
  3.579834e+00    5.431312e-01   7.292537e-03
  3.582045e+00    5.357316e-01   7.256711e-03
  3.584255e+00    5.146046e-01   7.125951e-03
  3.586465e+00    5.380699e-01   7.300546e-03
  3.588676e+00    5.523347e-01   7.411100e-03
  3.590886e+00    5.358416e-01   7.313335e-03
  3.593097e+00    5.485948e-01   7.414515e-03
  3.595307e+00    5.431741e-01   7.391823e-03
  3.597518e+00    5.489340e-01   7.445310e-03
  3.599728e+00    5.401593e-01   7.399713e-03
  3.601939e+00    5.359268e-01   7.384734e-03
  3.604149e+00    5.431833e-01   7.449060e-03
  3.606360e+00    5.385040e-01   7.431116e-03
  3.608570e+00    5.343052e-01   7.416207e-03
  3.610780e+00    5.453447e-01   7.503623e-03
  3.612991e+00    5.456087e-01   7.515526e-03
  3.615201e+00    5.465346e-01   7.531815e-03
  3.617412e+00    5.374538e-01   7.476289e-03
  3.619622e+00    5.267659e-01   7.407486e-03
  3.621833e+00    5.184268e-01   7.355190e-03
  3.624043e+00    5.597715e-01   7.652611e-03
  3.626254e+00    5.472467e-01   7.576324e-03
  3.628464e+00    5.434449e-01   7.561052e-03
  3.630675e+00    5.347424e-01   7.514397e-03
  3.632885e+00    5.308715e-01   7.501534e-03
  3.635095e+00    5.536244e-01   7.675278e-03
  3.637306e+00    5.399815e-01   7.594587e-03
  3.639516e+00    5.260519e-01   7.510431e-03
  3.641727e+00    5.328629e-01   7.573403e-03
  3.643937e+00    5.465261e-01   7.684650e-03
  3.646148e+00    5.388614e-01   7.645266e-03
  3.648358e+00    5.332232e-01   7.620003e-03
  3.650569e+00    5.543577e-01   7.784581e-03
  3.652779e+00    5.493081e-01   7.764062e-03
  3.654990e+00    5.424363e-01   7.730378e-03
  3.657200e+00    5.269583e-01   7.634088e-03
  3.659410e+00    5.363367e-01   7.716737e-03
  3.661621e+00    5.465513e-01   7.805222e-03
  3.663831e+00    5.371451e-01   7.752914e-03
  3.666042e+00    5.505111e-01   7.864250e-03
  3.668252e+00    5.403917e-01   7.806992e-03
  3.670463e+00    5.375807e-01   7.801996e-03
  3.672673e+00    5.426562e-01   7.854304e-03
  3.674884e+00    5.373769e-01   7.831529e-03
  3.677094e+00    5.514856e-01   7.949481e-03
  3.679305e+00    5.486667e-01   7.944952e-03
  3.681515e+00    5.540843e-01   8.000054e-03
  3.683726e+00    5.661065e-01   8.102702e-03
  3.685936e+00    5.590579e-01   8.068246e-03
  3.688146e+00    5.377873e-01   7.929232e-03
  3.690357e+00    5.384071e-01   7.949870e-03
  3.692567e+00    5.310361e-01   7.911453e-03
  3.694778e+00    5.332535e-01   7.944118e-03
  3.696988e+00    5.195398e-01   7.857190e-03
  3.699199e+00    5.230944e-01   7.900181e-03
  3.701409e+00    5.379484e-01   8.028175e-03
  3.703620e+00    5.197599e-01   7.907541e-03
  3.705830e+00    5.083770e-01   7.836601e-03
  3.708041e+00    5.079206e-01   7.849395e-03
  3.710251e+00    5.213406e-01   7.969093e-03
  3.712461e+00    5.334750e-01   8.078229e-03
  3.714672e+00    5.170988e-01   7.969949e-03
  3.716882e+00    5.339201e-01   8.115415e-03
  3.719093e+00    5.189313e-01   8.017864e-03
  3.721303e+00    5.253353e-01   8.084184e-03
  3.723514e+00    5.214186e-01   8.071340e-03
  3.725724e+00    4.987904e-01   7.911052e-03
  3.727935e+00    5.498726e-01   8.324254e-03
  3.730145e+00    5.281098e-01   8.175423e-03
  3.732356e+00    5.123232e-01   8.069761e-03
  3.734566e+00    5.104078e-01   8.072089e-03
  3.736776e+00    5.192709e-01   8.159710e-03
  3.738987e+00    5.219996e-01   8.199011e-03
  3.741197e+00    5.134678e-01   8.149752e-03
  3.743408e+00    4.894781e-01   7.974729e-03
  3.745618e+00    4.973255e-01   8.056382e-03
  3.747829e+00    5.303252e-01   8.337798e-03
  3.750039e+00    5.237278e-01   8.304415e-03
  3.752250e+00    5.142146e-01   8.247158e-03
  3.754460e+00    4.990017e-01   8.142614e-03
  3.756671e+00    5.178844e-01   8.314163e-03
  3.758881e+00    5.152419e-01   8.311685e-03
  3.761091e+00    5.184391e-01   8.356765e-03
  3.763302e+00    5.249253e-01   8.428271e-03
  3.765512e+00    5.184851e-01   8.395888e-03
  3.767723e+00    4.997174e-01   8.261731e-03
  3.769933e+00    5.173663e-01   8.425885e-03
  3.772144e+00    5.047566e-01   8.342118e-03
  3.774354e+00    4.921596e-01   8.256984e-03
  3.776565e+00    4.977075e-01   8.323027e-03
  3.778775e+00    5.256111e-01   8.573577e-03
  3.780986e+00    4.939718e-01   8.331647e-03
  3.783196e+00    5.101412e-01   8.487258e-03
  3.785407e+00    4.909144e-01   8.345969e-03
  3.787617e+00    5.100535e-01   8.527989e-03
  3.789827e+00    5.116962e-01   8.562425e-03
  3.792038e+00    5.001835e-01   8.486413e-03
  3.794248e+00    4.954818e-01   8.467407e-03
  3.796459e+00    5.017146e-01   8.541907e-03
  3.798669e+00    4.923738e-01   8.483195e-03
  3.800880e+00    4.769542e-01   8.370273e-03
  3.803090e+00    4.949129e-01   8.548017e-03
  3.805301e+00    4.998359e-01   8.612556e-03
  3.807511e+00    4.960042e-01   8.601412e-03
  3.809722e+00    5.019225e-01   8.674860e-03
  3.811932e+00    4.935979e-01   8.624689e-03
  3.814142e+00    4.928607e-01   8.641006e-03
  3.816353e+00    4.955888e-01   8.687606e-03
  3.818563e+00    5.057091e-01   8.799181e-03
  3.820774e+00    4.801115e-01   8.596271e-03
  3.822984e+00    5.054418e-01   8.843680e-03
  3.825195e+00    5.165972e-01   8.964945e-03
  3.827405e+00    4.950482e-01   8.799793e-03
  3.829616e+00    4.999324e-01   8.867226e-03
  3.831826e+00    5.213931e-01   9.080230e-03
  3.834037e+00    5.076215e-01   8.984355e-03
  3.836247e+00    5.079771e-01   9.012417e-03
  3.838457e+00    5.158793e-01   9.107755e-03
  3.840668e+00    5.238907e-01   9.204107e-03
  3.842878e+00    4.891992e-01   8.919486e-03
  3.845089e+00    4.769398e-01   8.832081e-03
  3.847299e+00    5.107957e-01   9.166358e-03
  3.849510e+00    5.039743e-01   9.131032e-03
  3.851720e+00    5.202675e-01   9.299463e-03
  3.853931e+00    5.114739e-01   9.239776e-03
  3.856141e+00    5.050025e-01   9.200405e-03
  3.858352e+00    5.008268e-01   9.181661e-03
  3.860562e+00    4.929640e-01   9.128561e-03
  3.862772e+00    5.060346e-01   9.268658e-03
  3.864983e+00    4.962386e-01   9.198176e-03
  3.867193e+00    5.082117e-01   9.328512e-03
  3.869404e+00    5.119414e-01   9.382962e-03
  3.871614e+00    5.059750e-01   9.348268e-03
  3.873825e+00    4.947279e-01   9.264190e-03
  3.876035e+00    4.833198e-01   9.177134e-03
  3.878246e+00    5.057324e-01   9.413585e-03
  3.880456e+00    4.866512e-01   9.263101e-03
  3.882667e+00    5.131822e-01   9.542235e-03
  3.884877e+00    5.091969e-01   9.535364e-03
  3.887087e+00    5.012905e-01   9.491289e-03
  3.889298e+00    4.727525e-01   9.247022e-03
  3.891508e+00    4.554445e-01   9.105461e-03
  3.893719e+00    4.673551e-01   9.254045e-03
  3.895929e+00    4.739890e-01   9.350390e-03
  3.898140e+00    4.918624e-01   9.556764e-03
  3.900350e+00    5.123323e-01   9.786433e-03
  3.902561e+00    4.899770e-01   9.602935e-03
  3.904771e+00    5.180474e-01   9.907898e-03
  3.906982e+00    5.066668e-01   9.832202e-03
  3.909192e+00    4.908127e-01   9.710761e-03
  3.911403e+00    5.135592e-01   9.967955e-03
  3.913613e+00    5.172175e-01   1.003874e-02
  3.915823e+00    4.928859e-01   9.834766e-03
  3.918034e+00    4.719388e-01   9.658143e-03
  3.920244e+00    4.813755e-01   9.789705e-03
  3.922455e+00    4.592382e-01   9.596890e-03
  3.924665e+00    4.919578e-01   9.969484e-03
  3.926876e+00    4.795903e-01   9.880155e-03
  3.929086e+00    4.708799e-01   9.826771e-03
  3.931297e+00    4.531210e-01   9.673258e-03
  3.933507e+00    4.812974e-01   9.998152e-03
  3.935718e+00    4.909600e-01   1.012688e-02
  3.937928e+00    5.111592e-01   1.036334e-02
  3.940138e+00    4.726767e-01   9.994428e-03
  3.942349e+00    4.891027e-01   1.019657e-02
  3.944559e+00    5.107236e-01   1.045017e-02
  3.946770e+00    5.342108e-01   1.071940e-02
  3.948980e+00    4.896901e-01   1.029386e-02
  3.951191e+00    5.092402e-01   1.052887e-02
  3.953401e+00    5.034923e-01   1.050117e-02
  3.955612e+00    5.093487e-01   1.059446e-02
  3.957822e+00    5.034449e-01   1.056516e-02
  3.960033e+00    5.047894e-01   1.061246e-02
  3.962243e+00    4.828852e-01   1.041249e-02
  3.964453e+00    4.696231e-01   1.030097e-02
  3.966664e+00    4.873529e-01   1.052713e-02
  3.968874e+00    5.015710e-01   1.070832e-02
  3.971085e+00    5.005629e-01   1.071997e-02
  3.973295e+00    4.846232e-01   1.056927e-02
  3.975506e+00    5.136455e-01   1.090337e-02
  3.977716e+00    5.046083e-01   1.082953e-02
  3.979927e+00    4.746230e-01   1.052474e-02
  3.982137e+00    4.859938e-01   1.067224e-02
  3.984348e+00    4.938374e-01   1.078087e-02
  3.986558e+00    4.837739e-01   1.069271e-02
  3.988768e+00    4.676785e-01   1.053595e-02
  3.990979e+00    4.698505e-01   1.058272e-02
  3.993189e+00    4.959826e-01   1.089639e-02
  3.995400e+00    5.130739e-01   1.110675e-02
  3.997610e+00    4.927839e-01   1.091499e-02
  3.999821e+00    5.065094e-01   1.110431e-02
  4.002031e+00    5.059111e-01   1.113695e-02
  4.004242e+00    4.822145e-01   1.091149e-02
  4.006452e+00    4.649602e-01   1.075295e-02
  4.008663e+00    4.704160e-01   1.085527e-02
  4.010873e+00    4.538305e-01   1.070087e-02
  4.013084e+00    4.740928e-01   1.097763e-02
  4.015294e+00    4.852503e-01   1.114710e-02
  4.017504e+00    5.165971e-01   1.154468e-02
  4.019715e+00    4.871576e-01   1.125362e-02
  4.021925e+00    5.047997e-01   1.149946e-02
  4.024136e+00    4.572454e-01   1.098690e-02
  4.026346e+00    4.653032e-01   1.112645e-02
  4.028557e+00    4.725510e-01   1.125666e-02
  4.030767e+00    4.892383e-01   1.149958e-02
  4.032978e+00    4.858678e-01   1.150623e-02
  4.035188e+00    4.759231e-01   1.143378e-02
  4.037399e+00    4.959320e-01   1.171983e-02
  4.039609e+00    4.827971e-01   1.161119e-02
  4.041819e+00    4.910579e-01   1.175932e-02
  4.044030e+00    4.841300e-01   1.172602e-02
  4.046240e+00    4.717088e-01   1.162394e-02
  4.048451e+00    4.607996e-01   1.153845e-02
  4.050661e+00    4.759867e-01   1.177801e-02
  4.052872e+00    4.692954e-01   1.174711e-02
  4.055082e+00    4.760502e-01   1.188438e-02
  4.057293e+00    4.823328e-01   1.201637e-02
  4.059503e+00    5.048413e-01   1.234931e-02
  4.061714e+00    4.911409e-01   1.223773e-02
  4.063924e+00    4.618399e-01   1.192259e-02
  4.066134e+00    4.843953e-01   1.226769e-02
  4.068345e+00    4.489882e-01   1.186783e-02
  4.070555e+00    4.822599e-01   1.235894e-02
  4.072766e+00    4.963918e-01   1.260045e-02
  4.074976e+00    4.658158e-01   1.226720e-02
  4.077187e+00    4.832986e-01   1.255728e-02
  4.079397e+00    4.638193e-01   1.236455e-02
  4.081608e+00    4.548457e-01   1.230803e-02
  4.083818e+00    4.694057e-01   1.256839e-02
  4.086029e+00    4.855724e-01   1.285041e-02
  4.088239e+00    4.551500e-01   1.250834e-02
  4.090449e+00    5.045236e-01   1.324075e-02
  4.092660e+00    4.880819e-01   1.309495e-02
  4.094870e+00    4.897798e-01   1.319057e-02
  4.097081e+00    5.234196e-01   1.371068e-02
  4.099291e+00    4.810639e-01   1.319886e-02
  4.101502e+00    4.583966e-01   1.293202e-02
  4.103712e+00    4.475629e-01   1.282588e-02
  4.105923e+00    4.660611e-01   1.313900e-02
  4.108133e+00    4.485830e-01   1.294003e-02
  4.110344e+00    4.661751e-01   1.324162e-02
  4.112554e+00    5.193475e-01   1.403169e-02
  4.114764e+00    4.731957e-01   1.344750e-02
  4.116975e+00    4.650552e-01   1.338402e-02
  4.119185e+00    4.859668e-01   1.373707e-02
  4.121396e+00    4.927663e-01   1.389002e-02
  4.123606e+00    5.212091e-01   1.434372e-02
  4.125817e+00    4.914188e-01   1.398645e-02
  4.128027e+00    4.641467e-01   1.364982e-02
  4.130238e+00    5.154955e-01   1.444681e-02
  4.132448e+00    4.644150e-01   1.377192e-02
  4.134659e+00    4.981662e-01   1.432475e-02
  4.136869e+00    5.172507e-01   1.466189e-02
  4.139080e+00    5.241476e-01   1.482560e-02
  4.141290e+00    5.254455e-01   1.491003e-02
  4.143500e+00    4.896698e-01   1.445969e-02
  4.145711e+00    4.942265e-01   1.459468e-02
  4.147921e+00    4.501236e-01   1.399223e-02
  4.150132e+00    4.657777e-01   1.430142e-02
  4.152342e+00    5.009046e-01   1.490248e-02
  4.154553e+00    4.879857e-01   1.477935e-02
  4.156763e+00    4.655218e-01   1.450646e-02
  4.158974e+00    4.895252e-01   1.495055e-02
  4.161184e+00    4.643401e-01   1.463295e-02
  4.163395e+00    4.860820e-01   1.504820e-02
  4.165605e+00    4.720196e-01   1.490600e-02
  4.167815e+00    4.859392e-01   1.520315e-02
  4.170026e+00    4.638543e-01   1.493188e-02
  4.172236e+00    4.926788e-01   1.547218e-02
  4.174447e+00    4.838615e-01   1.541631e-02
  4.176657e+00    4.491711e-01   1.493471e-02
  4.178868e+00    4.543387e-01   1.510517e-02
  4.181078e+00    4.978763e-01   1.590170e-02
  4.183289e+00    4.853924e-01   1.579079e-02
  4.185499e+00    5.211618e-01   1.645877e-02
  4.187710e+00    5.209231e-01   1.655164e-02
  4.189920e+00    4.683961e-01   1.578933e-02
  4.192130e+00    4.764561e-01   1.602206e-02
  4.194341e+00    4.873561e-01   1.630343e-02
  4.196551e+00    4.654164e-01   1.603343e-02
  4.198762e+00    4.442061e-01   1.576285e-02
  4.200972e+00    5.022771e-01   1.687059e-02
  4.203183e+00    4.552274e-01   1.616652e-02
  4.205393e+00    5.010144e-01   1.707293e-02
  4.207604e+00    4.712625e-01   1.667146e-02
  4.209814e+00    4.622272e-01   1.662380e-02
  4.212025e+00    4.550284e-01   1.661091e-02
  4.214235e+00    5.164989e-01   1.782276e-02
  4.216445e+00    4.942689e-01   1.756117e-02
  4.218656e+00    4.485875e-01   1.685536e-02
  4.220866e+00    4.893780e-01   1.773528e-02
  4.223077e+00    4.486559e-01   1.711218e-02
  4.225287e+00    4.856849e-01   1.794396e-02
  4.227498e+00    4.884235e-01   1.813601e-02
  4.229708e+00    4.637424e-01   1.781545e-02
  4.231919e+00    4.663258e-01   1.801273e-02
  4.234129e+00    4.411708e-01   1.766718e-02
  4.236340e+00    4.115571e-01   1.720987e-02
  4.238550e+00    4.392572e-01   1.793639e-02
  4.240761e+00    4.780045e-01   1.887611e-02
  4.242971e+00    4.898805e-01   1.928433e-02
  4.245181e+00    5.529264e-01   2.068002e-02
  4.247392e+00    4.905816e-01   1.966159e-02
  4.249602e+00    5.076004e-01   2.019834e-02
  4.251813e+00    4.460586e-01   1.912092e-02
  4.254023e+00    4.103128e-01   1.852355e-02
  4.256234e+00    5.080733e-01   2.083281e-02
  4.258444e+00    4.208961e-01   1.915989e-02
  4.260655e+00    4.765227e-01   2.061092e-02
  4.262865e+00    4.460830e-01   2.016748e-02
  4.265076e+00    4.609767e-01   2.073493e-02
  4.267286e+00    4.506009e-01   2.074298e-02
  4.269496e+00    4.725457e-01   2.150197e-02
  4.271707e+00    4.596036e-01   2.146695e-02
  4.273917e+00    4.727298e-01   2.205294e-02
  4.276128e+00    3.989755e-01   2.052891e-02
  4.278338e+00    4.453495e-01   2.197853e-02
  4.280549e+00    4.550582e-01   2.253595e-02
  4.282759e+00    4.206944e-01   2.197912e-02
  4.284970e+00    5.302094e-01   2.504019e-02
  4.287180e+00    5.059021e-01   2.475267e-02
  4.289391e+00    4.766479e-01   2.420673e-02
  4.291601e+00    4.818355e-01   2.453214e-02
  4.293811e+00    4.385433e-01   2.358754e-02
  4.296022e+00    4.941688e-01   2.523987e-02
  4.298232e+00    4.138780e-01   2.329254e-02
  4.300443e+00    4.141150e-01   2.349055e-02
  4.302653e+00    4.313064e-01   2.418164e-02
  4.304864e+00    4.388707e-01   2.460341e-02
  4.307074e+00    4.182797e-01   2.423521e-02
  4.309285e+00    4.703537e-01   2.593324e-02
  4.311495e+00    4.842486e-01   2.655925e-02
  4.313706e+00    4.847854e-01   2.682367e-02
  4.315916e+00    5.206823e-01   2.807287e-02
  4.318126e+00    5.607960e-01   2.942250e-02
  4.320337e+00    4.835818e-01   2.759866e-02
  4.322547e+00    4.667864e-01   2.740213e-02
  4.324758e+00    4.884191e-01   2.832131e-02
  4.326968e+00    4.833591e-01   2.849273e-02
  4.329179e+00    5.432605e-01   3.053767e-02
  4.331389e+00    3.958260e-01   2.636875e-02
  4.333600e+00    4.612993e-01   2.880431e-02
  4.335810e+00    4.455263e-01   2.864545e-02
  4.338021e+00    4.606034e-01   2.949826e-02
  4.340231e+00    4.850216e-01   3.064995e-02
  4.342442e+00    4.490397e-01   2.988792e-02
  4.344652e+00    4.451306e-01   3.016048e-02
  4.346862e+00    4.244067e-01   2.986289e-02
  4.349073e+00    5.039087e-01   3.301236e-02
  4.351283e+00    5.076132e-01   3.362998e-02
  4.353494e+00    4.080805e-01   3.061825e-02
  4.355704e+00    4.202618e-01   3.157303e-02
  4.357915e+00    2.670998e-01   2.558884e-02
  4.360125e+00    4.519089e-01   3.385269e-02
  4.362336e+00    3.612447e-01   3.081778e-02
  4.364546e+00    4.147223e-01   3.362194e-02
  4.366757e+00    4.482450e-01   3.565024e-02
  4.368967e+00    5.244720e-01   3.933028e-02
  4.371177e+00    3.706294e-01   3.376754e-02
  4.373388e+00    5.433828e-01   4.179911e-02
  4.375598e+00    4.459944e-01   3.873179e-02
  4.377809e+00    4.700154e-01   4.076957e-02
  4.380019e+00    3.645411e-01   3.680705e-02
  4.382230e+00    3.604962e-01   3.762303e-02
  4.384440e+00    4.594192e-01   4.369511e-02
  4.386651e+00    4.133919e-01   4.272672e-02
  4.388861e+00    3.437082e-01   4.026831e-02
  4.391072e+00    3.890442e-01   4.434302e-02
  4.393282e+00    5.452046e-01   5.452799e-02
  4.395492e+00    4.210245e-01   4.990920e-02
  4.397703e+00    1.485063e-01   3.099301e-02
  4.399913e+00    3.572632e-01   5.050648e-02
  4.402124e+00    4.278255e-01   5.840426e-02
  4.404334e+00    5.302867e-01   6.911614e-02
  4.406545e+00    3.879184e-01   6.351964e-02
  4.408755e+00    2.283995e-01   5.285554e-02
  4.410966e+00    1.601313e-01   4.898484e-02
  4.413176e+00   -1.121144e-02            nan
  4.415387e+00   -4.536289e-01            nan
  4.417597e+00   -2.013680e+00            nan
  4.419807e+00   -3.766224e-01            nan
