# == pyFAI calibration ==
# Distance Sample to Detector: 0.216 m
# PONI: 1.166e-01, 1.308e-01 m
# Rotations: 0.000000 0.000000 0.000000 rad
# 
# == Fit2d calibration ==
# Distance Sample-beamCenter: 216.000 mm
# Center: x=1744.293, y=1555.000 pix
# Tilt: 0.000 deg  TiltPlanRot: 0.000 deg
# 
# Detector Eiger 9M	 PixelSize= 7.500e-05, 7.500e-05 m
#    Detector has a mask: True 
#    Detector has a dark current: False 
#    detector has a flat field: False 
# 
# Wavelength: 9.8e-11 m
# Mask applied: from detector
# Dark current applied: False
# Flat field applied: False
# Polarization factor: None
# Normalization factor: 1.0
# 
# Headers of the input frame:
# {
# "_array_data.header_convention": "SLS_1.0",
# "_array_data.header_contents": "# Detector: Dectris Eiger 9M, S/N E-18-0102\r\n# Pixel_size 75e-6 m x 75e-6 m\r\n# Silicon sensor, thickness 0.000450 m\r\n# Exposure_time 0.024997 s\r\n# Exposure_period 0.025000 s\r\n# Count_cutoff 62318 counts\r\n# Wavelength 0.980106 A\r\n# Detector_distance 0.215992 m\r\n# Beam_xy (1555, 1744) pixels\r\n# Start_angle 0.000000 deg.\r\n# Angle_increment 0.000000 deg.",
# "Content-Type": "application/octet-stream;",
# "conversions": "x-CBF_BYTE_OFFSET",
# "Content-Transfer-Encoding": "BINARY",
# "X-Binary-Size": "10166600",
# "X-Binary-ID": "1",
# "X-Binary-Element-Type": "signed 32-bit integer",
# "X-Binary-Element-Byte-Order": "LITTLE_ENDIAN",
# "Content-MD5": "yEkceVrFWP3/bFXnXYfhFQ==",
# "X-Binary-Number-of-Elements": "10166590",
# "X-Binary-Size-Fastest-Dimension": "3110",
# "X-Binary-Size-Second-Dimension": "3269",
# "X-Binary-Size-Padding": "4095"
# }
# --> H:/Proxima2a_2019-04-05/RAW_DATA/C5_gel17_position5/C5_mesh_1_data.cbf/C5_mesh_1_data.cbf000039.dat
#        q_A^-1              I           sigma 
  1.105228e-03    9.793342e-01   5.354913e-01
  3.315685e-03    1.317473e+00   3.775863e-01
  5.526141e-03    1.598308e+00   3.215899e-01
  7.736597e-03    1.446763e+00   2.584752e-01
  9.947054e-03    1.225757e+00   2.097388e-01
  1.215751e-02    1.378662e+00   2.011396e-01
  1.436797e-02    1.309164e+00   1.802905e-01
  1.657842e-02    1.389795e+00   1.729098e-01
  1.878888e-02    1.440768e+00   1.653714e-01
  2.099934e-02    1.281470e+00   1.475558e-01
  2.320979e-02    1.421767e+00   1.478247e-01
  2.542025e-02    1.517608e+00   1.459450e-01
  2.763070e-02    1.432732e+00   1.360106e-01
  2.984116e-02    1.407263e+00   1.297072e-01
  3.205162e-02    1.410075e+00   1.252874e-01
  3.426207e-02    1.428909e+00   1.219768e-01
  3.647253e-02    1.335280e+00   1.142815e-01
  3.868299e-02    1.523269e+00   1.185315e-01
  4.089344e-02    1.472075e+00   1.133302e-01
  4.310390e-02    1.442882e+00   1.092796e-01
  4.531436e-02    1.419548e+00   1.057160e-01
  4.752481e-02    1.379523e+00   1.017615e-01
  4.973527e-02    1.472124e+00   1.027600e-01
  5.194572e-02    1.528946e+00   1.024706e-01
  5.415618e-02    1.466373e+00   9.827906e-02
  5.636664e-02    1.653979e+00   1.023128e-01
  5.857709e-02    1.470307e+00   9.462777e-02
  6.078755e-02    1.388654e+00   9.027229e-02
  6.299801e-02    1.445946e+00   9.048412e-02
  6.520846e-02    1.584886e+00   9.311287e-02
  6.741892e-02    1.591845e+00   9.176990e-02
  6.962938e-02    1.516034e+00   8.812940e-02
  7.183983e-02    1.497920e+00   8.624151e-02
  7.405029e-02    1.516961e+00   8.548079e-02
  7.626074e-02    1.354015e+00   7.957967e-02
  7.847120e-02    1.455692e+00   8.134085e-02
  8.068166e-02    1.509929e+00   8.169898e-02
  8.289211e-02    1.512272e+00   8.066434e-02
  8.510257e-02    1.587135e+00   8.155607e-02
  8.731303e-02    1.554650e+00   7.968581e-02
  8.952348e-02    1.451460e+00   7.604141e-02
  9.173394e-02    1.538250e+00   7.732987e-02
  9.394439e-02    1.555459e+00   7.683845e-02
  9.615485e-02    1.552613e+00   7.587895e-02
  9.836531e-02    1.581990e+00   7.572588e-02
  1.005758e-01    1.538635e+00   7.385623e-02
  1.027862e-01    1.615631e+00   7.486156e-02
  1.049967e-01    1.501054e+00   7.139341e-02
  1.072071e-01    1.542812e+00   7.162874e-02
  1.094176e-01    1.546201e+00   7.097825e-02
  1.116280e-01    1.612788e+00   7.176761e-02
  1.138385e-01    1.559724e+00   6.988712e-02
  1.160490e-01    1.538713e+00   6.874971e-02
  1.182594e-01    1.530964e+00   6.793096e-02
  1.204699e-01    1.587813e+00   6.854255e-02
  1.226803e-01    1.510823e+00   6.625234e-02
  1.248908e-01    1.587116e+00   6.730013e-02
  1.271012e-01    1.646629e+00   6.795026e-02
  1.293117e-01    1.662323e+00   6.768643e-02
  1.315222e-01    1.606233e+00   6.597167e-02
  1.337326e-01    1.621850e+00   6.574018e-02
  1.359431e-01    1.598890e+00   6.531144e-02
  1.381535e-01    1.614043e+00   6.650097e-02
  1.403640e-01    1.630792e+00   6.713377e-02
  1.425744e-01    1.571082e+00   6.599855e-02
  1.447849e-01    1.601091e+00   6.664120e-02
  1.469953e-01    1.602543e+00   6.662970e-02
  1.492058e-01    1.584221e+00   6.617068e-02
  1.514163e-01    1.597522e+00   6.633758e-02
  1.536267e-01    1.590675e+00   6.606602e-02
  1.558372e-01    1.614284e+00   6.640755e-02
  1.580476e-01    1.606841e+00   6.609353e-02
  1.602581e-01    1.645895e+00   6.672199e-02
  1.624685e-01    1.678357e+00   6.719230e-02
  1.646790e-01    1.691996e+00   6.727103e-02
  1.668895e-01    1.747128e+00   6.816082e-02
  1.690999e-01    1.661456e+00   6.626905e-02
  1.713104e-01    1.741717e+00   6.764022e-02
  1.735208e-01    1.812992e+00   6.879577e-02
  1.757313e-01    1.876856e+00   6.977760e-02
  1.779417e-01    1.814623e+00   6.838724e-02
  1.801522e-01    1.822511e+00   6.831742e-02
  1.823626e-01    1.880720e+00   6.916881e-02
  1.845731e-01    1.911849e+00   6.951299e-02
  1.867836e-01    1.891231e+00   6.890382e-02
  1.889940e-01    1.917022e+00   6.914537e-02
  1.912045e-01    2.002995e+00   7.044283e-02
  1.934149e-01    2.026419e+00   7.061639e-02
  1.956254e-01    1.997482e+00   6.987914e-02
  1.978358e-01    2.033671e+00   7.026768e-02
  2.000463e-01    2.035419e+00   7.006494e-02
  2.022568e-01    1.962162e+00   6.856671e-02
  2.044672e-01    2.043559e+00   6.973474e-02
  2.066777e-01    2.052424e+00   6.965386e-02
  2.088881e-01    2.074453e+00   6.979758e-02
  2.110986e-01    2.011787e+00   6.849954e-02
  2.133090e-01    2.049720e+00   6.891756e-02
  2.155195e-01    2.060649e+00   6.887180e-02
  2.177300e-01    2.108225e+00   6.911507e-02
  2.199404e-01    1.951577e+00   6.474559e-02
  2.221509e-01    1.866308e+00   6.227567e-02
  2.243613e-01    1.977904e+00   6.329773e-02
  2.265718e-01    2.099260e+00   6.449196e-02
  2.287822e-01    2.028680e+00   6.277102e-02
  2.309927e-01    2.119578e+00   6.357736e-02
  2.332031e-01    2.189792e+00   6.406875e-02
  2.354136e-01    2.189301e+00   6.354237e-02
  2.376241e-01    2.188796e+00   6.304188e-02
  2.398345e-01    2.125144e+00   6.165874e-02
  2.420450e-01    2.139156e+00   6.141956e-02
  2.442554e-01    2.220452e+00   6.214468e-02
  2.464659e-01    2.120075e+00   6.031612e-02
  2.486763e-01    2.063389e+00   5.911314e-02
  2.508868e-01    2.078209e+00   5.895079e-02
  2.530973e-01    2.131901e+00   5.933730e-02
  2.553077e-01    2.106111e+00   5.861956e-02
  2.575182e-01    2.145395e+00   5.881367e-02
  2.597286e-01    2.085832e+00   5.765441e-02
  2.619391e-01    2.099423e+00   5.750892e-02
  2.641495e-01    2.088124e+00   5.703652e-02
  2.663600e-01    2.114248e+00   5.707661e-02
  2.685704e-01    2.071309e+00   5.618779e-02
  2.707809e-01    2.057467e+00   5.570248e-02
  2.729914e-01    2.086575e+00   5.580280e-02
  2.752018e-01    2.088224e+00   5.553425e-02
  2.774123e-01    2.071411e+00   5.502776e-02
  2.796227e-01    1.982156e+00   5.356286e-02
  2.818332e-01    2.016348e+00   5.375337e-02
  2.840436e-01    2.020558e+00   5.354863e-02
  2.862541e-01    2.099399e+00   5.432095e-02
  2.884646e-01    2.058324e+00   5.353168e-02
  2.906750e-01    1.972582e+00   5.215637e-02
  2.928855e-01    1.909281e+00   5.107494e-02
  2.950959e-01    1.920544e+00   5.099003e-02
  2.973064e-01    1.881651e+00   5.024429e-02
  2.995168e-01    1.919431e+00   5.051633e-02
  3.017273e-01    1.951571e+00   5.071294e-02
  3.039377e-01    2.008716e+00   5.122476e-02
  3.061482e-01    2.045877e+00   5.147281e-02
  3.083587e-01    1.940862e+00   4.991734e-02
  3.105691e-01    2.011484e+00   5.060031e-02
  3.127796e-01    2.013481e+00   5.041262e-02
  3.149900e-01    1.969560e+00   4.965200e-02
  3.172005e-01    1.925709e+00   4.889540e-02
  3.194109e-01    1.931671e+00   4.876887e-02
  3.216214e-01    1.930754e+00   4.855835e-02
  3.238319e-01    1.907889e+00   4.807871e-02
  3.260423e-01    1.886447e+00   4.761737e-02
  3.282528e-01    1.917849e+00   4.782090e-02
  3.304632e-01    1.959328e+00   4.814803e-02
  3.326737e-01    1.911174e+00   4.736714e-02
  3.348841e-01    1.863208e+00   4.658761e-02
  3.370946e-01    1.899761e+00   4.686537e-02
  3.393050e-01    1.896684e+00   4.665003e-02
  3.415155e-01    1.887323e+00   4.635980e-02
  3.437260e-01    1.870141e+00   4.597724e-02
  3.459364e-01    1.892878e+00   4.608477e-02
  3.481469e-01    1.896003e+00   4.595446e-02
  3.503573e-01    1.859298e+00   4.534168e-02
  3.525678e-01    1.903949e+00   4.571937e-02
  3.547782e-01    1.851250e+00   4.491927e-02
  3.569887e-01    1.827697e+00   4.447445e-02
  3.591992e-01    1.837743e+00   4.443871e-02
  3.614096e-01    1.856854e+00   4.451432e-02
  3.636201e-01    1.838309e+00   4.413582e-02
  3.658305e-01    1.852900e+00   4.415947e-02
  3.680410e-01    1.849754e+00   4.397023e-02
  3.702514e-01    1.771788e+00   4.288886e-02
  3.724619e-01    1.794513e+00   4.301604e-02
  3.746724e-01    1.801899e+00   4.296066e-02
  3.768828e-01    1.799342e+00   4.278571e-02
  3.790933e-01    1.849491e+00   4.323649e-02
  3.813037e-01    1.831151e+00   4.288084e-02
  3.835142e-01    1.840026e+00   4.284345e-02
  3.857246e-01    1.847072e+00   4.278646e-02
  3.879351e-01    1.869221e+00   4.290294e-02
  3.901455e-01    1.798064e+00   4.194445e-02
  3.923560e-01    1.816123e+00   4.202057e-02
  3.945665e-01    1.791016e+00   4.159678e-02
  3.967769e-01    1.836537e+00   4.199015e-02
  3.989874e-01    1.812606e+00   4.158544e-02
  4.011978e-01    1.788870e+00   4.118520e-02
  4.034083e-01    1.797323e+00   4.115567e-02
  4.056187e-01    1.848561e+00   4.160959e-02
  4.078292e-01    1.874641e+00   4.177531e-02
  4.100397e-01    1.849900e+00   4.137199e-02
  4.122501e-01    1.818436e+00   4.089595e-02
  4.144606e-01    1.798688e+00   4.055265e-02
  4.166710e-01    1.763355e+00   4.003298e-02
  4.188815e-01    1.871462e+00   4.112005e-02
  4.210919e-01    1.863449e+00   4.091169e-02
  4.233024e-01    1.808830e+00   4.018911e-02
  4.255128e-01    1.804108e+00   4.002057e-02
  4.277233e-01    1.845884e+00   4.036498e-02
  4.299338e-01    1.829924e+00   4.007446e-02
  4.321442e-01    1.793077e+00   3.955543e-02
  4.343547e-01    1.858746e+00   4.015936e-02
  4.365651e-01    1.768716e+00   3.906342e-02
  4.387756e-01    1.792382e+00   3.921377e-02
  4.409860e-01    1.772300e+00   3.888547e-02
  4.431965e-01    1.760204e+00   3.864538e-02
  4.454070e-01    1.740308e+00   3.831943e-02
  4.476174e-01    1.738874e+00   3.819847e-02
  4.498279e-01    1.732769e+00   3.802761e-02
  4.520383e-01    1.721758e+00   3.780257e-02
  4.542488e-01    1.753651e+00   3.804820e-02
  4.564592e-01    1.754124e+00   3.795125e-02
  4.586697e-01    1.722564e+00   3.750848e-02
  4.608801e-01    1.723342e+00   3.741646e-02
  4.630906e-01    1.713749e+00   3.721338e-02
  4.653011e-01    1.737265e+00   3.736928e-02
  4.675115e-01    1.796458e+00   3.790050e-02
  4.697220e-01    1.756270e+00   3.737608e-02
  4.719324e-01    1.726711e+00   3.696435e-02
  4.741429e-01    1.722806e+00   3.682738e-02
  4.763533e-01    1.696928e+00   3.645606e-02
  4.785638e-01    1.732644e+00   3.674254e-02
  4.807743e-01    1.723566e+00   3.655296e-02
  4.829847e-01    1.760737e+00   3.685168e-02
  4.851952e-01    1.761478e+00   3.676618e-02
  4.874056e-01    1.749654e+00   3.655017e-02
  4.896161e-01    1.733621e+00   3.629211e-02
  4.918265e-01    1.686825e+00   3.571002e-02
  4.940370e-01    1.690256e+00   3.565807e-02
  4.962475e-01    1.741810e+00   3.610839e-02
  4.984579e-01    1.694194e+00   3.552368e-02
  5.006684e-01    1.696668e+00   3.546290e-02
  5.028788e-01    1.723196e+00   3.565247e-02
  5.050893e-01    1.757329e+00   3.591628e-02
  5.072997e-01    1.722687e+00   3.547464e-02
  5.095102e-01    1.715942e+00   3.532031e-02
  5.117206e-01    1.681006e+00   3.487579e-02
  5.139311e-01    1.685218e+00   3.483679e-02
  5.161416e-01    1.697198e+00   3.487779e-02
  5.183520e-01    1.697917e+00   3.480229e-02
  5.205625e-01    1.658683e+00   3.431725e-02
  5.227729e-01    1.696539e+00   3.462571e-02
  5.249834e-01    1.727336e+00   3.485744e-02
  5.271938e-01    1.767147e+00   3.517461e-02
  5.294043e-01    1.759388e+00   3.501629e-02
  5.316148e-01    1.781469e+00   3.515466e-02
  5.338252e-01    1.846883e+00   3.571244e-02
  5.360357e-01    1.791879e+00   3.509656e-02
  5.382461e-01    1.739871e+00   3.450530e-02
  5.404566e-01    1.739303e+00   3.442116e-02
  5.426670e-01    1.737954e+00   3.433026e-02
  5.448775e-01    1.752501e+00   3.439664e-02
  5.470879e-01    1.747646e+00   3.427235e-02
  5.492984e-01    1.760894e+00   3.432551e-02
  5.515089e-01    1.801486e+00   3.464190e-02
  5.537193e-01    1.776996e+00   3.432982e-02
  5.559298e-01    1.833982e+00   3.479942e-02
  5.581402e-01    1.862760e+00   3.499478e-02
  5.603507e-01    1.827409e+00   3.458568e-02
  5.625611e-01    1.816160e+00   3.440425e-02
  5.647716e-01    1.808064e+00   3.425293e-02
  5.669821e-01    1.857024e+00   3.463877e-02
  5.691925e-01    1.822093e+00   3.423781e-02
  5.714030e-01    1.778405e+00   3.375274e-02
  5.736134e-01    1.729634e+00   3.321590e-02
  5.758239e-01    1.769191e+00   3.352187e-02
  5.780343e-01    1.741653e+00   3.318962e-02
  5.802448e-01    1.671712e+00   3.244831e-02
  5.824552e-01    1.620583e+00   3.188121e-02
  5.846657e-01    1.612223e+00   3.173255e-02
  5.868762e-01    1.657811e+00   3.211110e-02
  5.890866e-01    1.630507e+00   3.177949e-02
  5.912971e-01    1.636061e+00   3.176767e-02
  5.935075e-01    1.646248e+00   3.180054e-02
  5.957180e-01    1.685793e+00   3.211422e-02
  5.979284e-01    1.667410e+00   3.187343e-02
  6.001389e-01    1.658872e+00   3.172699e-02
  6.023494e-01    1.662104e+00   3.169340e-02
  6.045598e-01    1.661647e+00   3.162452e-02
  6.067703e-01    1.672166e+00   3.166065e-02
  6.089807e-01    1.712120e+00   3.197227e-02
  6.111912e-01    1.712781e+00   3.191458e-02
  6.134016e-01    1.743106e+00   3.213166e-02
  6.156121e-01    1.689609e+00   3.157188e-02
  6.178226e-01    1.683246e+00   3.144994e-02
  6.200330e-01    1.747786e+00   3.198401e-02
  6.222435e-01    1.726885e+00   3.172923e-02
  6.244539e-01    1.740846e+00   3.179485e-02
  6.266644e-01    1.716598e+00   3.151105e-02
  6.288748e-01    1.749504e+00   3.174971e-02
  6.310853e-01    1.740065e+00   3.160248e-02
  6.332957e-01    1.747764e+00   3.161117e-02
  6.355062e-01    1.723885e+00   3.133348e-02
  6.377167e-01    1.732956e+00   3.135554e-02
  6.399271e-01    1.733589e+00   3.130116e-02
  6.421376e-01    1.722763e+00   3.114373e-02
  6.443480e-01    1.713810e+00   3.100360e-02
  6.465585e-01    1.703850e+00   3.085482e-02
  6.487689e-01    1.697401e+00   3.073822e-02
  6.509794e-01    1.693541e+00   3.064534e-02
  6.531899e-01    1.658451e+00   3.026917e-02
  6.554003e-01    1.646026e+00   3.009888e-02
  6.576108e-01    1.592491e+00   2.955023e-02
  6.598212e-01    1.633170e+00   2.986966e-02
  6.620317e-01    1.643596e+00   2.990932e-02
  6.642421e-01    1.644732e+00   2.986430e-02
  6.664526e-01    1.620273e+00   2.958681e-02
  6.686630e-01    1.603086e+00   2.937504e-02
  6.708735e-01    1.612189e+00   2.940430e-02
  6.730840e-01    1.627321e+00   2.948812e-02
  6.752944e-01    1.616434e+00   2.933585e-02
  6.775049e-01    1.603076e+00   2.916136e-02
  6.797153e-01    1.605363e+00   2.912929e-02
  6.819258e-01    1.614025e+00   2.915510e-02
  6.841362e-01    1.617653e+00   2.913536e-02
  6.863467e-01    1.613427e+00   2.904517e-02
  6.885572e-01    1.629350e+00   2.913583e-02
  6.907676e-01    1.640581e+00   2.918369e-02
  6.929781e-01    1.639417e+00   2.912150e-02
  6.951885e-01    1.635097e+00   2.903158e-02
  6.973990e-01    1.618642e+00   2.883406e-02
  6.996094e-01    1.616527e+00   2.876452e-02
  7.018199e-01    1.648649e+00   2.899790e-02
  7.040303e-01    1.643862e+00   2.890493e-02
  7.062408e-01    1.626122e+00   2.869818e-02
  7.084513e-01    1.636718e+00   2.874145e-02
  7.106617e-01    1.648963e+00   2.879863e-02
  7.128722e-01    1.638894e+00   2.866090e-02
  7.150826e-01    1.602570e+00   2.829267e-02
  7.172931e-01    1.615105e+00   2.835410e-02
  7.195035e-01    1.635484e+00   2.848341e-02
  7.217140e-01    1.576969e+00   2.801870e-02
  7.239245e-01    1.574160e+00   2.822044e-02
  7.261349e-01    1.562174e+00   2.822096e-02
  7.283454e-01    1.617388e+00   2.878875e-02
  7.305558e-01    1.572794e+00   2.844305e-02
  7.327663e-01    1.586342e+00   2.860795e-02
  7.349767e-01    1.592067e+00   2.867599e-02
  7.371872e-01    1.641304e+00   2.910462e-02
  7.393976e-01    1.607034e+00   2.878477e-02
  7.416081e-01    1.603803e+00   2.873949e-02
  7.438186e-01    1.626367e+00   2.879428e-02
  7.460290e-01    1.617368e+00   2.841631e-02
  7.482395e-01    1.585678e+00   2.796478e-02
  7.504499e-01    1.549257e+00   2.750659e-02
  7.526604e-01    1.575810e+00   2.762469e-02
  7.548708e-01    1.604578e+00   2.778547e-02
  7.570813e-01    1.571134e+00   2.744346e-02
  7.592918e-01    1.559529e+00   2.730690e-02
  7.615022e-01    1.579630e+00   2.744847e-02
  7.637127e-01    1.606475e+00   2.764760e-02
  7.659231e-01    1.604702e+00   2.760005e-02
  7.681336e-01    1.596633e+00   2.749874e-02
  7.703440e-01    1.586581e+00   2.738072e-02
  7.725545e-01    1.558985e+00   2.711081e-02
  7.747650e-01    1.612073e+00   2.752989e-02
  7.769754e-01    1.623247e+00   2.757166e-02
  7.791859e-01    1.598279e+00   2.730491e-02
  7.813963e-01    1.581128e+00   2.710538e-02
  7.836068e-01    1.577201e+00   2.701983e-02
  7.858172e-01    1.597339e+00   2.714093e-02
  7.880277e-01    1.582395e+00   2.696229e-02
  7.902381e-01    1.614597e+00   2.718576e-02
  7.924486e-01    1.605868e+00   2.706197e-02
  7.946591e-01    1.637287e+00   2.727655e-02
  7.968695e-01    1.639277e+00   2.724432e-02
  7.990800e-01    1.635858e+00   2.716723e-02
  8.012904e-01    1.663852e+00   2.735130e-02
  8.035009e-01    1.683075e+00   2.745990e-02
  8.057113e-01    1.703543e+00   2.757860e-02
  8.079218e-01    1.662746e+00   2.719936e-02
  8.101323e-01    1.629836e+00   2.688311e-02
  8.123427e-01    1.632535e+00   2.685949e-02
  8.145532e-01    1.654324e+00   2.699186e-02
  8.167636e-01    1.655075e+00   2.695262e-02
  8.189741e-01    1.659770e+00   2.694579e-02
  8.211845e-01    1.664345e+00   2.693772e-02
  8.233950e-01    1.624142e+00   2.656709e-02
  8.256054e-01    1.648195e+00   2.671873e-02
  8.278159e-01    1.670012e+00   2.685060e-02
  8.300264e-01    1.653779e+00   2.667650e-02
  8.322368e-01    1.635641e+00   2.648672e-02
  8.344473e-01    1.644816e+00   2.651744e-02
  8.366577e-01    1.663060e+00   2.662120e-02
  8.388682e-01    1.712798e+00   2.697317e-02
  8.410786e-01    1.735271e+00   2.710627e-02
  8.432891e-01    1.752019e+00   2.719352e-02
  8.454996e-01    1.702348e+00   2.676285e-02
  8.477100e-01    1.682799e+00   2.656651e-02
  8.499205e-01    1.676814e+00   2.647757e-02
  8.521309e-01    1.642975e+00   2.616817e-02
  8.543414e-01    1.657977e+00   2.624636e-02
  8.565518e-01    1.632858e+00   2.600623e-02
  8.587623e-01    1.653419e+00   2.612869e-02
  8.609727e-01    1.646483e+00   2.603343e-02
  8.631832e-01    1.632374e+00   2.588166e-02
  8.653937e-01    1.646965e+00   2.595713e-02
  8.676041e-01    1.620490e+00   2.570881e-02
  8.698146e-01    1.611846e+00   2.560095e-02
  8.720250e-01    1.590367e+00   2.539106e-02
  8.742355e-01    1.577344e+00   2.524837e-02
  8.764459e-01    1.563596e+00   2.509977e-02
  8.786564e-01    1.584679e+00   2.523074e-02
  8.808669e-01    1.573788e+00   2.510577e-02
  8.830773e-01    1.598862e+00   2.526688e-02
  8.852878e-01    1.613140e+00   2.534140e-02
  8.874982e-01    1.607803e+00   2.526274e-02
  8.897087e-01    1.587419e+00   2.506456e-02
  8.919191e-01    1.611106e+00   2.521297e-02
  8.941296e-01    1.614624e+00   2.520307e-02
  8.963401e-01    1.588149e+00   2.495927e-02
  8.985505e-01    1.622510e+00   2.519062e-02
  9.007610e-01    1.577418e+00   2.480163e-02
  9.029714e-01    1.584198e+00   2.481920e-02
  9.051819e-01    1.621747e+00   2.507414e-02
  9.073923e-01    1.623104e+00   2.504780e-02
  9.096028e-01    1.616495e+00   2.496166e-02
  9.118132e-01    1.592142e+00   2.473679e-02
  9.140237e-01    1.607075e+00   2.481581e-02
  9.162342e-01    1.620006e+00   2.488068e-02
  9.184446e-01    1.613498e+00   2.479474e-02
  9.206551e-01    1.611149e+00   2.474098e-02
  9.228655e-01    1.595199e+00   2.458301e-02
  9.250760e-01    1.642508e+00   2.490907e-02
  9.272864e-01    1.659623e+00   2.500367e-02
  9.294969e-01    1.620684e+00   2.467258e-02
  9.317074e-01    1.638753e+00   2.477467e-02
  9.339178e-01    1.627107e+00   2.465278e-02
  9.361283e-01    1.632829e+00   2.465967e-02
  9.383387e-01    1.653668e+00   2.478278e-02
  9.405492e-01    1.667245e+00   2.484956e-02
  9.427596e-01    1.643979e+00   2.464006e-02
  9.449701e-01    1.645068e+00   2.461471e-02
  9.471805e-01    1.686872e+00   2.489020e-02
  9.493910e-01    1.682321e+00   2.482248e-02
  9.516015e-01    1.710066e+00   2.499139e-02
  9.538119e-01    1.717631e+00   2.501231e-02
  9.560224e-01    1.696520e+00   2.482311e-02
  9.582328e-01    1.749344e+00   2.517279e-02
  9.604433e-01    1.784564e+00   2.538893e-02
  9.626537e-01    1.786424e+00   2.536802e-02
  9.648642e-01    1.747123e+00   2.505306e-02
  9.670747e-01    1.783300e+00   2.527619e-02
  9.692851e-01    1.825949e+00   2.554266e-02
  9.714956e-01    1.838836e+00   2.559649e-02
  9.737060e-01    1.877041e+00   2.582707e-02
  9.759165e-01    1.831488e+00   2.547577e-02
  9.781269e-01    1.832779e+00   2.545143e-02
  9.803374e-01    1.847308e+00   2.551675e-02
  9.825478e-01    1.796321e+00   2.512899e-02
  9.847583e-01    1.785683e+00   2.502040e-02
  9.869688e-01    1.815015e+00   2.519132e-02
  9.891792e-01    1.775789e+00   2.488449e-02
  9.913897e-01    1.757639e+00   2.472359e-02
  9.936001e-01    1.798808e+00   2.497869e-02
  9.958106e-01    1.822997e+00   2.511195e-02
  9.980210e-01    1.737331e+00   2.448299e-02
  1.000231e+00    1.682357e+00   2.422451e-02
  1.002442e+00    1.665072e+00   2.422779e-02
  1.004652e+00    1.634742e+00   2.407308e-02
  1.006863e+00    1.611454e+00   2.395061e-02
  1.009073e+00    1.585105e+00   2.379032e-02
  1.011284e+00    1.593235e+00   2.388316e-02
  1.013494e+00    1.585941e+00   2.385205e-02
  1.015705e+00    1.566203e+00   2.372556e-02
  1.017915e+00    1.588778e+00   2.391240e-02
  1.020126e+00    1.579825e+00   2.386105e-02
  1.022336e+00    1.538585e+00   2.355916e-02
  1.024547e+00    1.557023e+00   2.371112e-02
  1.026757e+00    1.554225e+00   2.369822e-02
  1.028967e+00    1.515044e+00   2.340521e-02
  1.031178e+00    1.499753e+00   2.329289e-02
  1.033388e+00    1.497122e+00   2.327743e-02
  1.035599e+00    1.551268e+00   2.369807e-02
  1.037809e+00    1.582598e+00   2.393952e-02
  1.040020e+00    1.616040e+00   2.419242e-02
  1.042230e+00    1.629990e+00   2.429866e-02
  1.044441e+00    1.564591e+00   2.380598e-02
  1.046651e+00    1.508074e+00   2.337224e-02
  1.048862e+00    1.463755e+00   2.302544e-02
  1.051072e+00    1.510940e+00   2.339124e-02
  1.053282e+00    1.543986e+00   2.364470e-02
  1.055493e+00    1.531403e+00   2.354381e-02
  1.057703e+00    1.537878e+00   2.359200e-02
  1.059914e+00    1.541853e+00   2.361811e-02
  1.062124e+00    1.659412e+00   2.449764e-02
  1.064335e+00    1.791556e+00   2.545064e-02
  1.066545e+00    1.721889e+00   2.494448e-02
  1.068756e+00    1.542637e+00   2.360661e-02
  1.070966e+00    1.490742e+00   2.319954e-02
  1.073177e+00    1.477730e+00   2.309201e-02
  1.075387e+00    1.449481e+00   2.286501e-02
  1.077597e+00    1.471097e+00   2.302764e-02
  1.079808e+00    1.429639e+00   2.256968e-02
  1.082018e+00    1.396446e+00   2.212138e-02
  1.084229e+00    1.433332e+00   2.230263e-02
  1.086439e+00    1.410367e+00   2.203717e-02
  1.088650e+00    1.393027e+00   2.182722e-02
  1.090860e+00    1.398954e+00   2.180727e-02
  1.093071e+00    1.436517e+00   2.203622e-02
  1.095281e+00    1.422196e+00   2.186932e-02
  1.097492e+00    1.427061e+00   2.185214e-02
  1.099702e+00    1.421332e+00   2.175717e-02
  1.101912e+00    1.421575e+00   2.171051e-02
  1.104123e+00    1.422548e+00   2.166991e-02
  1.106333e+00    1.421310e+00   2.161626e-02
  1.108544e+00    1.423915e+00   2.159187e-02
  1.110754e+00    1.425012e+00   2.155720e-02
  1.112965e+00    1.385381e+00   2.121533e-02
  1.115175e+00    1.375549e+00   2.109936e-02
  1.117386e+00    1.400268e+00   2.124905e-02
  1.119596e+00    1.391171e+00   2.114232e-02
  1.121807e+00    1.394344e+00   2.112782e-02
  1.124017e+00    1.402449e+00   2.115254e-02
  1.126228e+00    1.383339e+00   2.097245e-02
  1.128438e+00    1.407414e+00   2.111732e-02
  1.130648e+00    1.378938e+00   2.086853e-02
  1.132859e+00    1.384303e+00   2.087486e-02
  1.135069e+00    1.407231e+00   2.101214e-02
  1.137280e+00    1.373338e+00   2.072475e-02
  1.139490e+00    1.366383e+00   2.063939e-02
  1.141701e+00    1.386428e+00   2.075708e-02
  1.143911e+00    1.357893e+00   2.051081e-02
  1.146122e+00    1.382972e+00   2.066729e-02
  1.148332e+00    1.383014e+00   2.063571e-02
  1.150543e+00    1.364948e+00   2.046979e-02
  1.152753e+00    1.380270e+00   2.055345e-02
  1.154963e+00    1.377946e+00   2.050507e-02
  1.157174e+00    1.378549e+00   2.047933e-02
  1.159384e+00    1.395064e+00   2.057154e-02
  1.161595e+00    1.400612e+00   2.058222e-02
  1.163805e+00    1.489155e+00   2.119228e-02
  1.166016e+00    1.534214e+00   2.147939e-02
  1.168226e+00    1.489909e+00   2.113674e-02
  1.170437e+00    1.469049e+00   2.095857e-02
  1.172647e+00    1.464689e+00   2.089751e-02
  1.174858e+00    1.427602e+00   2.060252e-02
  1.177068e+00    1.366888e+00   2.013136e-02
  1.179278e+00    1.384994e+00   2.023541e-02
  1.181489e+00    1.366703e+00   2.007429e-02
  1.183699e+00    1.379509e+00   2.014031e-02
  1.185910e+00    1.385217e+00   2.015390e-02
  1.188120e+00    1.382946e+00   2.011042e-02
  1.190331e+00    1.363060e+00   1.993848e-02
  1.192541e+00    1.333290e+00   1.969238e-02
  1.194752e+00    1.344584e+00   1.974863e-02
  1.196962e+00    1.384273e+00   2.001192e-02
  1.199173e+00    1.368654e+00   1.987205e-02
  1.201383e+00    1.349959e+00   1.970868e-02
  1.203593e+00    1.357020e+00   1.973528e-02
  1.205804e+00    1.377541e+00   1.985774e-02
  1.208014e+00    1.368111e+00   1.976266e-02
  1.210225e+00    1.326597e+00   1.943539e-02
  1.212435e+00    1.339838e+00   1.950742e-02
  1.214646e+00    1.372452e+00   1.971712e-02
  1.216856e+00    1.370448e+00   1.967704e-02
  1.219067e+00    1.362094e+00   1.959240e-02
  1.221277e+00    1.375660e+00   1.966447e-02
  1.223488e+00    1.376663e+00   1.964564e-02
  1.225698e+00    1.358848e+00   1.949112e-02
  1.227909e+00    1.350082e+00   1.939798e-02
  1.230119e+00    1.338901e+00   1.928576e-02
  1.232329e+00    1.338421e+00   1.925172e-02
  1.234540e+00    1.331958e+00   1.917510e-02
  1.236750e+00    1.342714e+00   1.922217e-02
  1.238961e+00    1.375009e+00   1.942476e-02
  1.241171e+00    1.374728e+00   1.939837e-02
  1.243382e+00    1.351700e+00   1.921168e-02
  1.245592e+00    1.357283e+00   1.922715e-02
  1.247803e+00    1.387674e+00   1.941723e-02
  1.250013e+00    1.405991e+00   1.952094e-02
  1.252224e+00    1.439010e+00   1.972479e-02
  1.254434e+00    1.636346e+00   2.100767e-02
  1.256644e+00    1.579381e+00   2.061378e-02
  1.258855e+00    1.417981e+00   1.950824e-02
  1.261065e+00    1.373124e+00   1.917360e-02
  1.263276e+00    1.377168e+00   1.917863e-02
  1.265486e+00    1.363512e+00   1.906033e-02
  1.267697e+00    1.342420e+00   1.888938e-02
  1.269907e+00    1.332718e+00   1.879844e-02
  1.272118e+00    1.338959e+00   1.881992e-02
  1.274328e+00    1.353648e+00   1.890011e-02
  1.276539e+00    1.368004e+00   1.897712e-02
  1.278749e+00    1.356030e+00   1.887156e-02
  1.280959e+00    1.323218e+00   1.861953e-02
  1.283170e+00    1.345637e+00   1.875419e-02
  1.285380e+00    1.359120e+00   1.882540e-02
  1.287591e+00    1.359565e+00   1.880638e-02
  1.289801e+00    1.340394e+00   1.865216e-02
  1.292012e+00    1.378942e+00   1.890119e-02
  1.294222e+00    1.345573e+00   1.865489e-02
  1.296433e+00    1.359172e+00   1.873325e-02
  1.298643e+00    1.378068e+00   1.884639e-02
  1.300854e+00    1.369035e+00   1.876799e-02
  1.303064e+00    1.384864e+00   1.885670e-02
  1.305274e+00    1.387208e+00   1.885094e-02
  1.307485e+00    1.362234e+00   1.865884e-02
  1.309695e+00    1.351778e+00   1.856482e-02
  1.311906e+00    1.372579e+00   1.868523e-02
  1.314116e+00    1.382890e+00   1.873424e-02
  1.316327e+00    1.368292e+00   1.861327e-02
  1.318537e+00    1.358466e+00   1.852435e-02
  1.320748e+00    1.356752e+00   1.849107e-02
  1.322958e+00    1.360727e+00   1.849751e-02
  1.325169e+00    1.383343e+00   1.862933e-02
  1.327379e+00    1.367524e+00   1.850055e-02
  1.329589e+00    1.365094e+00   1.846293e-02
  1.331800e+00    1.362135e+00   1.842212e-02
  1.334010e+00    1.360607e+00   1.839104e-02
  1.336221e+00    1.349715e+00   1.829554e-02
  1.338431e+00    1.377116e+00   1.845923e-02
  1.340642e+00    1.365145e+00   1.844338e-02
  1.342852e+00    1.344200e+00   1.840176e-02
  1.345063e+00    1.344084e+00   1.845037e-02
  1.347273e+00    1.352596e+00   1.854396e-02
  1.349484e+00    1.366219e+00   1.866497e-02
  1.351694e+00    1.344832e+00   1.854097e-02
  1.353905e+00    1.321912e+00   1.840010e-02
  1.356115e+00    1.323926e+00   1.842899e-02
  1.358325e+00    1.331163e+00   1.849253e-02
  1.360536e+00    1.331871e+00   1.850899e-02
  1.362746e+00    1.350208e+00   1.864553e-02
  1.364957e+00    1.360352e+00   1.872314e-02
  1.367167e+00    1.354078e+00   1.868708e-02
  1.369378e+00    1.337562e+00   1.857878e-02
  1.371588e+00    1.320829e+00   1.846728e-02
  1.373799e+00    1.341707e+00   1.861634e-02
  1.376009e+00    1.299895e+00   1.832733e-02
  1.378220e+00    1.265738e+00   1.808737e-02
  1.380430e+00    1.303396e+00   1.835715e-02
  1.382640e+00    1.310609e+00   1.840878e-02
  1.384851e+00    1.312751e+00   1.842470e-02
  1.387061e+00    1.299355e+00   1.833073e-02
  1.389272e+00    1.301210e+00   1.834404e-02
  1.391482e+00    1.282713e+00   1.821251e-02
  1.393693e+00    1.285106e+00   1.822860e-02
  1.395903e+00    1.278791e+00   1.818229e-02
  1.398114e+00    1.270489e+00   1.812178e-02
  1.400324e+00    1.271452e+00   1.812653e-02
  1.402535e+00    1.292372e+00   1.827271e-02
  1.404745e+00    1.280083e+00   1.818328e-02
  1.406955e+00    1.283639e+00   1.820579e-02
  1.409166e+00    1.285455e+00   1.821536e-02
  1.411376e+00    1.272897e+00   1.812305e-02
  1.413587e+00    1.266767e+00   1.807553e-02
  1.415797e+00    1.282339e+00   1.818275e-02
  1.418008e+00    1.245978e+00   1.788164e-02
  1.420218e+00    1.236641e+00   1.766676e-02
  1.422429e+00    1.246214e+00   1.765048e-02
  1.424639e+00    1.257753e+00   1.766764e-02
  1.426850e+00    1.265685e+00   1.766865e-02
  1.429060e+00    1.294018e+00   1.781586e-02
  1.431270e+00    1.284519e+00   1.770581e-02
  1.433481e+00    1.299680e+00   1.776854e-02
  1.435691e+00    1.291195e+00   1.767172e-02
  1.437902e+00    1.282185e+00   1.757331e-02
  1.440112e+00    1.289443e+00   1.758736e-02
  1.442323e+00    1.261860e+00   1.736530e-02
  1.444533e+00    1.282353e+00   1.747303e-02
  1.446744e+00    1.255239e+00   1.725637e-02
  1.448954e+00    1.295591e+00   1.750104e-02
  1.451165e+00    1.275394e+00   1.733430e-02
  1.453375e+00    1.258990e+00   1.719452e-02
  1.455586e+00    1.272560e+00   1.725875e-02
  1.457796e+00    1.270637e+00   1.721818e-02
  1.460006e+00    1.281004e+00   1.726091e-02
  1.462217e+00    1.278174e+00   1.721554e-02
  1.464427e+00    1.257798e+00   1.705227e-02
  1.466638e+00    1.274030e+00   1.713657e-02
  1.468848e+00    1.283026e+00   1.717149e-02
  1.471059e+00    1.290942e+00   1.719909e-02
  1.473269e+00    1.279638e+00   1.709914e-02
  1.475480e+00    1.289948e+00   1.714393e-02
  1.477690e+00    1.272953e+00   1.700673e-02
  1.479901e+00    1.272018e+00   1.697662e-02
  1.482111e+00    1.263162e+00   1.689412e-02
  1.484321e+00    1.274415e+00   1.694602e-02
  1.486532e+00    1.270638e+00   1.689854e-02
  1.488742e+00    1.271088e+00   1.687879e-02
  1.490953e+00    1.289280e+00   1.697636e-02
  1.493163e+00    1.274590e+00   1.685697e-02
  1.495374e+00    1.265615e+00   1.677602e-02
  1.497584e+00    1.267029e+00   1.676367e-02
  1.499795e+00    1.277641e+00   1.681194e-02
  1.502005e+00    1.264310e+00   1.670227e-02
  1.504216e+00    1.271031e+00   1.672547e-02
  1.506426e+00    1.289097e+00   1.682286e-02
  1.508636e+00    1.245793e+00   1.651754e-02
  1.510847e+00    1.253244e+00   1.654505e-02
  1.513057e+00    1.247915e+00   1.648484e-02
  1.515268e+00    1.273209e+00   1.662516e-02
  1.517478e+00    1.259453e+00   1.650991e-02
  1.519689e+00    1.263684e+00   1.651254e-02
  1.521899e+00    1.302709e+00   1.674204e-02
  1.524110e+00    1.277622e+00   1.655950e-02
  1.526320e+00    1.287852e+00   1.660580e-02
  1.528531e+00    1.302939e+00   1.668262e-02
  1.530741e+00    1.267231e+00   1.643318e-02
  1.532951e+00    1.232066e+00   1.618410e-02
  1.535162e+00    1.251647e+00   1.639886e-02
  1.537372e+00    1.289763e+00   1.671468e-02
  1.539583e+00    1.268371e+00   1.660999e-02
  1.541793e+00    1.264928e+00   1.659443e-02
  1.544004e+00    1.251152e+00   1.650408e-02
  1.546214e+00    1.248478e+00   1.648492e-02
  1.548425e+00    1.237886e+00   1.641511e-02
  1.550635e+00    1.256749e+00   1.654941e-02
  1.552846e+00    1.262835e+00   1.659917e-02
  1.555056e+00    1.274605e+00   1.663437e-02
  1.557266e+00    1.264137e+00   1.645460e-02
  1.559477e+00    1.244895e+00   1.626977e-02
  1.561687e+00    1.237234e+00   1.618904e-02
  1.563898e+00    1.239480e+00   1.618661e-02
  1.566108e+00    1.255228e+00   1.627308e-02
  1.568319e+00    1.267325e+00   1.633555e-02
  1.570529e+00    1.257266e+00   1.624533e-02
  1.572740e+00    1.251052e+00   1.617744e-02
  1.574950e+00    1.232678e+00   1.603202e-02
  1.577161e+00    1.242803e+00   1.607225e-02
  1.579371e+00    1.238688e+00   1.602204e-02
  1.581582e+00    1.260649e+00   1.614351e-02
  1.583792e+00    1.264960e+00   1.615295e-02
  1.586002e+00    1.259542e+00   1.610059e-02
  1.588213e+00    1.243401e+00   1.597987e-02
  1.590423e+00    1.236941e+00   1.591827e-02
  1.592634e+00    1.260187e+00   1.604540e-02
  1.594844e+00    1.247404e+00   1.594236e-02
  1.597055e+00    1.247403e+00   1.592184e-02
  1.599265e+00    1.246227e+00   1.589356e-02
  1.601476e+00    1.261375e+00   1.596939e-02
  1.603686e+00    1.249353e+00   1.587327e-02
  1.605897e+00    1.257996e+00   1.590778e-02
  1.608107e+00    1.250320e+00   1.583948e-02
  1.610317e+00    1.301596e+00   1.614121e-02
  1.612528e+00    1.362440e+00   1.649402e-02
  1.614738e+00    1.424387e+00   1.684446e-02
  1.616949e+00    1.394903e+00   1.664902e-02
  1.619159e+00    1.291869e+00   1.600309e-02
  1.621370e+00    1.244855e+00   1.569054e-02
  1.623580e+00    1.195233e+00   1.535643e-02
  1.625791e+00    1.196660e+00   1.534741e-02
  1.628001e+00    1.198248e+00   1.533937e-02
  1.630212e+00    1.186713e+00   1.524766e-02
  1.632422e+00    1.167109e+00   1.510344e-02
  1.634632e+00    1.149767e+00   1.497373e-02
  1.636843e+00    1.182737e+00   1.516933e-02
  1.639053e+00    1.141643e+00   1.488643e-02
  1.641264e+00    1.155090e+00   1.495683e-02
  1.643474e+00    1.153748e+00   1.493083e-02
  1.645685e+00    1.144161e+00   1.485211e-02
  1.647895e+00    1.118059e+00   1.466539e-02
  1.650106e+00    1.119956e+00   1.466105e-02
  1.652316e+00    1.120673e+00   1.464946e-02
  1.654527e+00    1.116525e+00   1.460585e-02
  1.656737e+00    1.135508e+00   1.471292e-02
  1.658947e+00    1.112236e+00   1.454526e-02
  1.661158e+00    1.102621e+00   1.446614e-02
  1.663368e+00    1.092719e+00   1.438523e-02
  1.665579e+00    1.104946e+00   1.444945e-02
  1.667789e+00    1.110596e+00   1.447015e-02
  1.670000e+00    1.094863e+00   1.435194e-02
  1.672210e+00    1.072046e+00   1.418598e-02
  1.674421e+00    1.127253e+00   1.453116e-02
  1.676631e+00    1.175138e+00   1.482021e-02
  1.678842e+00    1.166001e+00   1.474626e-02
  1.681052e+00    1.109380e+00   1.436826e-02
  1.683263e+00    1.080490e+00   1.416487e-02
  1.685473e+00    1.064516e+00   1.404478e-02
  1.687683e+00    1.083777e+00   1.415580e-02
  1.689894e+00    1.147105e+00   1.454728e-02
  1.692104e+00    1.188293e+00   1.479049e-02
  1.694315e+00    1.120898e+00   1.435012e-02
  1.696525e+00    1.044021e+00   1.383430e-02
  1.698736e+00    1.067843e+00   1.397636e-02
  1.700946e+00    1.074346e+00   1.400366e-02
  1.703157e+00    1.037818e+00   1.374903e-02
  1.705367e+00    1.031854e+00   1.369510e-02
  1.707578e+00    1.040271e+00   1.373633e-02
  1.709788e+00    1.034350e+00   1.368315e-02
  1.711998e+00    1.040253e+00   1.370713e-02
  1.714209e+00    1.024321e+00   1.358745e-02
  1.716419e+00    1.017213e+00   1.352606e-02
  1.718630e+00    1.009811e+00   1.346265e-02
  1.720840e+00    1.023332e+00   1.353832e-02
  1.723051e+00    1.012210e+00   1.345077e-02
  1.725261e+00    1.020397e+00   1.349039e-02
  1.727472e+00    1.001984e+00   1.335406e-02
  1.729682e+00    1.001351e+00   1.333647e-02
  1.731893e+00    1.017922e+00   1.343241e-02
  1.734103e+00    1.006948e+00   1.334605e-02
  1.736313e+00    9.776272e-01   1.313649e-02
  1.738524e+00    9.938113e-01   1.323100e-02
  1.740734e+00    9.836979e-01   1.314991e-02
  1.742945e+00    9.815626e-01   1.312228e-02
  1.745155e+00    9.908968e-01   1.317108e-02
  1.747366e+00    9.861796e-01   1.312591e-02
  1.749576e+00    9.680442e-01   1.299112e-02
  1.751787e+00    9.697768e-01   1.298946e-02
  1.753997e+00    1.002025e+00   1.319014e-02
  1.756208e+00    9.880995e-01   1.308490e-02
  1.758418e+00    9.690078e-01   1.294477e-02
  1.760628e+00    9.467167e-01   1.278182e-02
  1.762839e+00    9.410080e-01   1.273016e-02
  1.765049e+00    9.345684e-01   1.267360e-02
  1.767260e+00    9.533809e-01   1.278775e-02
  1.769470e+00    9.413829e-01   1.269415e-02
  1.771681e+00    9.480107e-01   1.272563e-02
  1.773891e+00    9.338832e-01   1.261753e-02
  1.776102e+00    9.406772e-01   1.265051e-02
  1.778312e+00    9.112383e-01   1.243849e-02
  1.780523e+00    9.114016e-01   1.242707e-02
  1.782733e+00    9.145578e-01   1.243604e-02
  1.784944e+00    9.348524e-01   1.256039e-02
  1.787154e+00    9.228165e-01   1.246682e-02
  1.789364e+00    9.152837e-01   1.240344e-02
  1.791575e+00    9.131094e-01   1.237627e-02
  1.793785e+00    8.927071e-01   1.222501e-02
  1.795996e+00    9.049419e-01   1.229610e-02
  1.798206e+00    8.954542e-01   1.221910e-02
  1.800417e+00    8.896037e-01   1.216665e-02
  1.802627e+00    8.794531e-01   1.208531e-02
  1.804838e+00    8.777460e-01   1.206171e-02
  1.807048e+00    8.946725e-01   1.216468e-02
  1.809259e+00    1.024953e+00   1.300579e-02
  1.811469e+00    1.111653e+00   1.352821e-02
  1.813679e+00    9.945962e-01   1.278043e-02
  1.815890e+00    9.811623e-01   1.267835e-02
  1.818100e+00    1.017558e+00   1.289528e-02
  1.820311e+00    1.038456e+00   1.301112e-02
  1.822521e+00    9.840034e-01   1.264982e-02
  1.824732e+00    9.208793e-01   1.222226e-02
  1.826942e+00    9.384352e-01   1.232550e-02
  1.829153e+00    9.552402e-01   1.242325e-02
  1.831363e+00    9.058581e-01   1.208571e-02
  1.833574e+00    8.873141e-01   1.194963e-02
  1.835784e+00    8.773468e-01   1.187090e-02
  1.837994e+00    8.827245e-01   1.189549e-02
  1.840205e+00    8.652998e-01   1.176639e-02
  1.842415e+00    8.965619e-01   1.196508e-02
  1.844626e+00    9.680955e-01   1.242107e-02
  1.846836e+00    9.544253e-01   1.232114e-02
  1.849047e+00    8.784431e-01   1.180881e-02
  1.851257e+00    8.497013e-01   1.160452e-02
  1.853468e+00    8.538178e-01   1.162381e-02
  1.855678e+00    8.766099e-01   1.176899e-02
  1.857889e+00    8.696897e-01   1.171388e-02
  1.860099e+00    8.558161e-01   1.161147e-02
  1.862309e+00    8.400610e-01   1.149565e-02
  1.864520e+00    8.506598e-01   1.155939e-02
  1.866730e+00    8.380890e-01   1.146437e-02
  1.868941e+00    8.723484e-01   1.168527e-02
  1.871151e+00    8.590836e-01   1.158466e-02
  1.873362e+00    8.432554e-01   1.146614e-02
  1.875572e+00    8.487815e-01   1.149271e-02
  1.877783e+00    8.511686e-01   1.149742e-02
  1.879993e+00    8.482161e-01   1.146628e-02
  1.882204e+00    8.608607e-01   1.154044e-02
  1.884414e+00    8.422542e-01   1.140398e-02
  1.886624e+00    8.477565e-01   1.143007e-02
  1.888835e+00    8.528823e-01   1.145353e-02
  1.891045e+00    8.670899e-01   1.153747e-02
  1.893256e+00    8.605658e-01   1.148276e-02
  1.895466e+00    8.499957e-01   1.140076e-02
  1.897677e+00    8.556997e-01   1.142790e-02
  1.899887e+00    8.473675e-01   1.136106e-02
  1.902098e+00    8.176185e-01   1.114911e-02
  1.904308e+00    8.180289e-01   1.114139e-02
  1.906519e+00    8.066910e-01   1.105322e-02
  1.908729e+00    8.474523e-01   1.131830e-02
  1.910940e+00    8.454545e-01   1.129374e-02
  1.913150e+00    8.385573e-01   1.123687e-02
  1.915360e+00    8.474624e-01   1.128564e-02
  1.917571e+00    8.263124e-01   1.113302e-02
  1.919781e+00    8.180396e-01   1.106649e-02
  1.921992e+00    8.071559e-01   1.098208e-02
  1.924202e+00    8.084474e-01   1.098017e-02
  1.926413e+00    8.190590e-01   1.104167e-02
  1.928623e+00    8.090033e-01   1.096318e-02
  1.930834e+00    8.170529e-01   1.100712e-02
  1.933044e+00    8.145505e-01   1.097958e-02
  1.935255e+00    8.047683e-01   1.090314e-02
  1.937465e+00    8.068469e-01   1.090684e-02
  1.939675e+00    8.019741e-01   1.086302e-02
  1.941886e+00    8.110093e-01   1.091373e-02
  1.944096e+00    8.063935e-01   1.087244e-02
  1.946307e+00    7.842190e-01   1.071168e-02
  1.948517e+00    7.740550e-01   1.063176e-02
  1.950728e+00    7.957140e-01   1.076923e-02
  1.952938e+00    8.245314e-01   1.095227e-02
  1.955149e+00    8.039325e-01   1.080432e-02
  1.957359e+00    7.987235e-01   1.075920e-02
  1.959570e+00    7.954286e-01   1.072610e-02
  1.961780e+00    7.816542e-01   1.062298e-02
  1.963990e+00    8.109883e-01   1.081024e-02
  1.966201e+00    7.925059e-01   1.067628e-02
  1.968411e+00    7.963015e-01   1.069161e-02
  1.970622e+00    7.796811e-01   1.056943e-02
  1.972832e+00    7.717863e-01   1.050588e-02
  1.975043e+00    7.817816e-01   1.056368e-02
  1.977253e+00    7.865383e-01   1.058581e-02
  1.979464e+00    7.861943e-01   1.057346e-02
  1.981674e+00    7.756268e-01   1.049193e-02
  1.983885e+00    7.896289e-01   1.057614e-02
  1.986095e+00    7.804232e-01   1.050461e-02
  1.988305e+00    7.880087e-01   1.054559e-02
  1.990516e+00    7.910305e-01   1.055579e-02
  1.992726e+00    7.881871e-01   1.052707e-02
  1.994937e+00    7.818090e-01   1.047424e-02
  1.997147e+00    7.799311e-01   1.045187e-02
  1.999358e+00    7.969543e-01   1.055534e-02
  2.001568e+00    8.239341e-01   1.072135e-02
  2.003779e+00    8.310990e-01   1.075554e-02
  2.005989e+00    8.034198e-01   1.056264e-02
  2.008200e+00    7.792524e-01   1.039096e-02
  2.010410e+00    7.819575e-01   1.039714e-02
  2.012621e+00    7.817454e-01   1.038392e-02
  2.014831e+00    7.976320e-01   1.047721e-02
  2.017041e+00    7.860276e-01   1.039020e-02
  2.019252e+00    7.847026e-01   1.037136e-02
  2.021462e+00    7.803357e-01   1.033285e-02
  2.023673e+00    7.723007e-01   1.027009e-02
  2.025883e+00    7.640226e-01   1.020537e-02
  2.028094e+00    7.660711e-01   1.020937e-02
  2.030304e+00    7.859890e-01   1.033156e-02
  2.032515e+00    7.792411e-01   1.027770e-02
  2.034725e+00    7.679989e-01   1.019381e-02
  2.036936e+00    7.569411e-01   1.011083e-02
  2.039146e+00    7.427258e-01   1.000594e-02
  2.041356e+00    7.529646e-01   1.006506e-02
  2.043567e+00    7.455473e-01   1.000611e-02
  2.045777e+00    7.510968e-01   1.003407e-02
  2.047988e+00    7.448564e-01   9.983001e-03
  2.050198e+00    7.471338e-01   9.989828e-03
  2.052409e+00    7.619705e-01   1.008085e-02
  2.054619e+00    7.507949e-01   9.999273e-03
  2.056830e+00    7.686608e-01   1.011029e-02
  2.059040e+00    7.656471e-01   1.008287e-02
  2.061251e+00    7.617102e-01   1.004960e-02
  2.063461e+00    7.693882e-01   1.009243e-02
  2.065671e+00    7.474332e-01   9.938684e-03
  2.067882e+00    7.659389e-01   1.005185e-02
  2.070092e+00    7.614022e-01   1.001276e-02
  2.072303e+00    7.612520e-01   1.000254e-02
  2.074513e+00    7.516029e-01   9.929602e-03
  2.076724e+00    7.455276e-01   9.879904e-03
  2.078934e+00    7.597811e-01   9.964804e-03
  2.081145e+00    7.357311e-01   9.796800e-03
  2.083355e+00    7.320163e-01   9.762898e-03
  2.085566e+00    7.618051e-01   9.950531e-03
  2.087776e+00    7.700564e-01   9.994576e-03
  2.089986e+00    7.941869e-01   1.014085e-02
  2.092197e+00    8.121045e-01   1.024521e-02
  2.094407e+00    7.968444e-01   1.013892e-02
  2.096618e+00    7.560119e-01   9.866700e-03
  2.098828e+00    7.459021e-01   9.791129e-03
  2.101039e+00    7.287219e-01   9.668752e-03
  2.103249e+00    7.300452e-01   9.668851e-03
  2.105460e+00    7.273470e-01   9.641982e-03
  2.107670e+00    7.185294e-01   9.574689e-03
  2.109881e+00    7.253593e-01   9.610913e-03
  2.112091e+00    7.272429e-01   9.614407e-03
  2.114301e+00    7.383305e-01   9.678548e-03
  2.116512e+00    7.148700e-01   9.514802e-03
  2.118722e+00    7.291077e-01   9.600211e-03
  2.120933e+00    7.173733e-01   9.513804e-03
  2.123143e+00    7.157396e-01   9.494077e-03
  2.125354e+00    7.138047e-01   9.472731e-03
  2.127564e+00    6.927137e-01   9.323151e-03
  2.129775e+00    7.252818e-01   9.531003e-03
  2.131985e+00    7.166594e-01   9.465110e-03
  2.134196e+00    7.205914e-01   9.482417e-03
  2.136406e+00    7.083762e-01   9.392976e-03
  2.138617e+00    7.096059e-01   9.392669e-03
  2.140827e+00    7.095243e-01   9.408213e-03
  2.143037e+00    7.163233e-01   9.498931e-03
  2.145248e+00    7.262841e-01   9.587077e-03
  2.147458e+00    7.036023e-01   9.451330e-03
  2.149669e+00    7.058553e-01   9.478311e-03
  2.151879e+00    7.044528e-01   9.478127e-03
  2.154090e+00    7.112027e-01   9.530795e-03
  2.156300e+00    7.147894e-01   9.561480e-03
  2.158511e+00    7.052700e-01   9.502910e-03
  2.160721e+00    7.143500e-01   9.568756e-03
  2.162932e+00    7.180538e-01   9.597334e-03
  2.165142e+00    7.175739e-01   9.597193e-03
  2.167352e+00    7.055007e-01   9.519046e-03
  2.169563e+00    6.933957e-01   9.438982e-03
  2.171773e+00    6.894515e-01   9.414532e-03
  2.173984e+00    6.983340e-01   9.476391e-03
  2.176194e+00    7.041711e-01   9.517137e-03
  2.178405e+00    6.942112e-01   9.450298e-03
  2.180615e+00    6.749453e-01   9.318904e-03
  2.182826e+00    6.732773e-01   9.308051e-03
  2.185036e+00    6.963124e-01   9.465979e-03
  2.187247e+00    6.953664e-01   9.459518e-03
  2.189457e+00    6.975263e-01   9.473782e-03
  2.191667e+00    6.866872e-01   9.399711e-03
  2.193878e+00    6.873232e-01   9.403492e-03
  2.196088e+00    6.841564e-01   9.381116e-03
  2.198299e+00    6.936911e-01   9.445176e-03
  2.200509e+00    6.860567e-01   9.392002e-03
  2.202720e+00    6.730385e-01   9.301312e-03
  2.204930e+00    6.688125e-01   9.270832e-03
  2.207141e+00    6.857246e-01   9.386201e-03
  2.209351e+00    6.753304e-01   9.312921e-03
  2.211562e+00    6.618022e-01   9.217567e-03
  2.213772e+00    6.732701e-01   9.241750e-03
  2.215982e+00    6.596789e-01   9.104314e-03
  2.218193e+00    6.701145e-01   9.146536e-03
  2.220403e+00    6.786675e-01   9.180064e-03
  2.222614e+00    6.863255e-01   9.210571e-03
  2.224824e+00    6.612194e-01   9.021347e-03
  2.227035e+00    6.583732e-01   8.984636e-03
  2.229245e+00    6.745806e-01   9.077552e-03
  2.231456e+00    6.661147e-01   9.004853e-03
  2.233666e+00    6.758848e-01   9.055502e-03
  2.235877e+00    6.647243e-01   8.966239e-03
  2.238087e+00    6.562745e-01   8.895702e-03
  2.240298e+00    6.695427e-01   8.971408e-03
  2.242508e+00    6.753324e-01   8.994923e-03
  2.244718e+00    6.798787e-01   9.009200e-03
  2.246929e+00    6.795939e-01   8.992786e-03
  2.249139e+00    6.592258e-01   8.844696e-03
  2.251350e+00    6.520289e-01   8.784693e-03
  2.253560e+00    6.361701e-01   8.665924e-03
  2.255771e+00    6.514046e-01   8.757750e-03
  2.257981e+00    6.616333e-01   8.815129e-03
  2.260192e+00    6.360176e-01   8.631925e-03
  2.262402e+00    6.555384e-01   8.752587e-03
  2.264613e+00    6.611160e-01   8.778952e-03
  2.266823e+00    6.657066e-01   8.798947e-03
  2.269033e+00    6.931310e-01   8.967745e-03
  2.271244e+00    6.687230e-01   8.798018e-03
  2.273454e+00    6.670928e-01   8.776962e-03
  2.275665e+00    6.822035e-01   8.865362e-03
  2.277875e+00    6.785946e-01   8.831829e-03
  2.280086e+00    6.616399e-01   8.710736e-03
  2.282296e+00    6.738444e-01   8.781209e-03
  2.284507e+00    6.709102e-01   8.751828e-03
  2.286717e+00    6.600045e-01   8.670950e-03
  2.288928e+00    6.503501e-01   8.597463e-03
  2.291138e+00    6.502154e-01   8.587199e-03
  2.293348e+00    6.605760e-01   8.645768e-03
  2.295559e+00    6.717707e-01   8.709284e-03
  2.297769e+00    6.601723e-01   8.624514e-03
  2.299980e+00    6.465039e-01   8.525455e-03
  2.302190e+00    6.447133e-01   8.504582e-03
  2.304401e+00    6.580777e-01   8.582898e-03
  2.306611e+00    6.554402e-01   8.556486e-03
  2.308822e+00    6.602975e-01   8.579668e-03
  2.311032e+00    6.460459e-01   8.480155e-03
  2.313243e+00    6.433091e-01   8.455921e-03
  2.315453e+00    6.654301e-01   8.592416e-03
  2.317663e+00    6.487108e-01   8.474658e-03
  2.319874e+00    6.397816e-01   8.407446e-03
  2.322084e+00    6.612853e-01   8.538476e-03
  2.324295e+00    6.633126e-01   8.543245e-03
  2.326505e+00    6.525283e-01   8.464384e-03
  2.328716e+00    6.506196e-01   8.443409e-03
  2.330926e+00    6.456683e-01   8.402406e-03
  2.333137e+00    6.436853e-01   8.381096e-03
  2.335347e+00    6.371003e-01   8.329293e-03
  2.337558e+00    6.399503e-01   8.339664e-03
  2.339768e+00    6.469845e-01   8.376740e-03
  2.341979e+00    6.409650e-01   8.329322e-03
  2.344189e+00    6.487153e-01   8.371041e-03
  2.346399e+00    6.307704e-01   8.246015e-03
  2.348610e+00    6.291361e-01   8.226892e-03
  2.350820e+00    6.273326e-01   8.206957e-03
  2.353031e+00    6.390769e-01   8.275118e-03
  2.355241e+00    6.325779e-01   8.224866e-03
  2.357452e+00    6.323832e-01   8.215205e-03
  2.359662e+00    6.352118e-01   8.225290e-03
  2.361873e+00    6.276954e-01   8.168284e-03
  2.364083e+00    6.247596e-01   8.141181e-03
  2.366294e+00    6.416245e-01   8.242136e-03
  2.368504e+00    6.347185e-01   8.189552e-03
  2.370714e+00    6.216693e-01   8.096886e-03
  2.372925e+00    6.154040e-01   8.047994e-03
  2.375135e+00    6.127821e-01   8.022849e-03
  2.377346e+00    6.199592e-01   8.061774e-03
  2.379556e+00    6.045731e-01   7.953334e-03
  2.381767e+00    5.897704e-01   7.847697e-03
  2.383977e+00    6.140491e-01   7.999692e-03
  2.386188e+00    6.301085e-01   8.095654e-03
  2.388398e+00    6.202124e-01   8.023874e-03
  2.390609e+00    6.079450e-01   7.936447e-03
  2.392819e+00    6.184694e-01   7.997052e-03
  2.395029e+00    6.368313e-01   8.107119e-03
  2.397240e+00    6.183809e-01   7.980920e-03
  2.399450e+00    6.154522e-01   7.954176e-03
  2.401661e+00    6.030183e-01   7.865810e-03
  2.403871e+00    6.040224e-01   7.864621e-03
  2.406082e+00    6.073690e-01   7.878968e-03
  2.408292e+00    6.129562e-01   7.907300e-03
  2.410503e+00    6.110348e-01   7.887410e-03
  2.412713e+00    6.018931e-01   7.820413e-03
  2.414924e+00    6.104724e-01   7.868439e-03
  2.417134e+00    6.095698e-01   7.854954e-03
  2.419344e+00    5.954309e-01   7.755975e-03
  2.421555e+00    5.927224e-01   7.730841e-03
  2.423765e+00    5.975065e-01   7.754609e-03
  2.425976e+00    5.947617e-01   7.728988e-03
  2.428186e+00    6.030581e-01   7.775475e-03
  2.430397e+00    6.051776e-01   7.781591e-03
  2.432607e+00    5.972379e-01   7.723097e-03
  2.434818e+00    5.929638e-01   7.687885e-03
  2.437028e+00    5.953001e-01   7.695849e-03
  2.439239e+00    5.992128e-01   7.713415e-03
  2.441449e+00    5.945219e-01   7.675953e-03
  2.443659e+00    5.762423e-01   7.549779e-03
  2.445870e+00    5.792364e-01   7.581483e-03
  2.448080e+00    5.790277e-01   7.614828e-03
  2.450291e+00    5.768966e-01   7.617388e-03
  2.452501e+00    5.720587e-01   7.596513e-03
  2.454712e+00    5.670687e-01   7.571678e-03
  2.456922e+00    5.625375e-01   7.547960e-03
  2.459133e+00    5.734721e-01   7.626403e-03
  2.461343e+00    5.585788e-01   7.531060e-03
  2.463554e+00    5.643972e-01   7.573646e-03
  2.465764e+00    5.522500e-01   7.494804e-03
  2.467975e+00    5.625835e-01   7.566884e-03
  2.470185e+00    5.559636e-01   7.524501e-03
  2.472395e+00    5.343887e-01   7.378246e-03
  2.474606e+00    5.368971e-01   7.397073e-03
  2.476816e+00    5.493274e-01   7.482951e-03
  2.479027e+00    5.319418e-01   7.364422e-03
  2.481237e+00    5.296102e-01   7.348536e-03
  2.483448e+00    5.444467e-01   7.451044e-03
  2.485658e+00    5.469925e-01   7.468321e-03
  2.487869e+00    5.390176e-01   7.413715e-03
  2.490079e+00    5.314041e-01   7.360643e-03
  2.492290e+00    5.432164e-01   7.441573e-03
  2.494500e+00    5.393665e-01   7.414424e-03
  2.496710e+00    5.434652e-01   7.441844e-03
  2.498921e+00    5.371732e-01   7.397643e-03
  2.501131e+00    5.428430e-01   7.435617e-03
  2.503342e+00    5.391882e-01   7.409287e-03
  2.505552e+00    5.502110e-01   7.483463e-03
  2.507763e+00    5.547876e-01   7.513099e-03
  2.509973e+00    5.449061e-01   7.444467e-03
  2.512184e+00    5.394000e-01   7.405130e-03
  2.514394e+00    5.304938e-01   7.334348e-03
  2.516605e+00    5.332137e-01   7.305771e-03
  2.518815e+00    5.146884e-01   7.149706e-03
  2.521025e+00    5.398624e-01   7.301205e-03
  2.523236e+00    5.534664e-01   7.374206e-03
  2.525446e+00    5.327423e-01   7.219095e-03
  2.527657e+00    5.355211e-01   7.223158e-03
  2.529867e+00    5.405746e-01   7.242777e-03
  2.532078e+00    5.255044e-01   7.126057e-03
  2.534288e+00    5.281334e-01   7.129929e-03
  2.536499e+00    5.316615e-01   7.141683e-03
  2.538709e+00    5.386794e-01   7.177518e-03
  2.540920e+00    5.364854e-01   7.152123e-03
  2.543130e+00    5.291840e-01   7.092874e-03
  2.545340e+00    5.129962e-01   6.973591e-03
  2.547551e+00    5.257673e-01   7.049877e-03
  2.549761e+00    5.129632e-01   6.954023e-03
  2.551972e+00    5.078708e-01   6.910181e-03
  2.554182e+00    5.156135e-01   6.953526e-03
  2.556393e+00    5.215557e-01   6.984384e-03
  2.558603e+00    5.279171e-01   7.017713e-03
  2.560814e+00    5.243043e-01   6.984911e-03
  2.563024e+00    5.360711e-01   7.054145e-03
  2.565235e+00    5.253463e-01   6.973668e-03
  2.567445e+00    5.263385e-01   6.970613e-03
  2.569656e+00    5.318355e-01   6.997054e-03
  2.571866e+00    5.228164e-01   6.928079e-03
  2.574076e+00    5.104936e-01   6.836726e-03
  2.576287e+00    5.198250e-01   6.890567e-03
  2.578497e+00    5.174569e-01   6.867005e-03
  2.580708e+00    5.102886e-01   6.811232e-03
  2.582918e+00    5.002969e-01   6.736563e-03
  2.585129e+00    5.176447e-01   6.844577e-03
  2.587339e+00    5.185824e-01   6.843073e-03
  2.589550e+00    5.115460e-01   6.788953e-03
  2.591760e+00    5.092314e-01   6.765846e-03
  2.593971e+00    5.185260e-01   6.819740e-03
  2.596181e+00    5.294449e-01   6.884840e-03
  2.598391e+00    5.252897e-01   6.852510e-03
  2.600602e+00    5.174409e-01   6.795174e-03
  2.602812e+00    5.028908e-01   6.691460e-03
  2.605023e+00    5.171357e-01   6.778326e-03
  2.607233e+00    5.198959e-01   6.789190e-03
  2.609444e+00    5.013242e-01   6.659641e-03
  2.611654e+00    5.039195e-01   6.669544e-03
  2.613865e+00    5.033571e-01   6.658808e-03
  2.616075e+00    5.005201e-01   6.632925e-03
  2.618286e+00    4.953394e-01   6.591567e-03
  2.620496e+00    5.114852e-01   6.691402e-03
  2.622706e+00    5.121804e-01   6.690167e-03
  2.624917e+00    4.894409e-01   6.534216e-03
  2.627127e+00    4.888218e-01   6.524418e-03
  2.629338e+00    5.018534e-01   6.604834e-03
  2.631548e+00    5.015247e-01   6.596536e-03
  2.633759e+00    4.942739e-01   6.541579e-03
  2.635969e+00    5.024704e-01   6.588895e-03
  2.638180e+00    5.048547e-01   6.597507e-03
  2.640390e+00    5.226177e-01   6.705826e-03
  2.642601e+00    5.054414e-01   6.588017e-03
  2.644811e+00    5.072617e-01   6.592742e-03
  2.647021e+00    5.037958e-01   6.563597e-03
  2.649232e+00    5.062923e-01   6.573079e-03
  2.651442e+00    4.918723e-01   6.472335e-03
  2.653653e+00    4.838715e-01   6.412788e-03
  2.655863e+00    5.072065e-01   6.558846e-03
  2.658074e+00    5.182477e-01   6.623119e-03
  2.660284e+00    5.096059e-01   6.561234e-03
  2.662495e+00    5.094884e-01   6.553643e-03
  2.664705e+00    5.031191e-01   6.505950e-03
  2.666916e+00    4.970400e-01   6.460037e-03
  2.669126e+00    5.067766e-01   6.516491e-03
  2.671337e+00    5.059040e-01   6.504221e-03
  2.673547e+00    5.039151e-01   6.484985e-03
  2.675757e+00    5.038588e-01   6.478122e-03
  2.677968e+00    4.893868e-01   6.377923e-03
  2.680178e+00    4.854494e-01   6.345861e-03
  2.682389e+00    4.942575e-01   6.396771e-03
  2.684599e+00    4.892908e-01   6.358374e-03
  2.686810e+00    4.991663e-01   6.415586e-03
  2.689020e+00    4.939510e-01   6.375671e-03
  2.691231e+00    4.895574e-01   6.340970e-03
  2.693441e+00    4.901593e-01   6.338714e-03
  2.695652e+00    5.037551e-01   6.419435e-03
  2.697862e+00    4.844372e-01   6.288841e-03
  2.700072e+00    4.840892e-01   6.280513e-03
  2.702283e+00    4.981532e-01   6.364843e-03
  2.704493e+00    4.903492e-01   6.308482e-03
  2.706704e+00    4.846984e-01   6.265652e-03
  2.708914e+00    4.926437e-01   6.310795e-03
  2.711125e+00    4.930917e-01   6.307387e-03
  2.713335e+00    4.963043e-01   6.321777e-03
  2.715546e+00    4.692233e-01   6.140525e-03
  2.717756e+00    4.744306e-01   6.168678e-03
  2.719967e+00    4.728644e-01   6.152383e-03
  2.722177e+00    4.755532e-01   6.163764e-03
  2.724387e+00    4.855759e-01   6.222281e-03
  2.726598e+00    4.876663e-01   6.229596e-03
  2.728808e+00    4.858093e-01   6.211571e-03
  2.731019e+00    4.882397e-01   6.220924e-03
  2.733229e+00    4.895608e-01   6.223524e-03
  2.735440e+00    4.899440e-01   6.219629e-03
  2.737650e+00    4.885254e-01   6.204602e-03
  2.739861e+00    4.800800e-01   6.144662e-03
  2.742071e+00    4.840400e-01   6.164211e-03
  2.744282e+00    4.847672e-01   6.162577e-03
  2.746492e+00    4.917499e-01   6.200708e-03
  2.748702e+00    4.905832e-01   6.187397e-03
  2.750913e+00    4.834310e-01   6.136322e-03
  2.753123e+00    4.726307e-01   6.061328e-03
  2.755334e+00    4.783559e-01   6.091860e-03
  2.757544e+00    4.906239e-01   6.163694e-03
  2.759755e+00    4.983623e-01   6.206120e-03
  2.761965e+00    4.758326e-01   6.058269e-03
  2.764176e+00    4.647089e-01   5.981147e-03
  2.766386e+00    4.800108e-01   6.072995e-03
  2.768597e+00    4.990992e-01   6.186625e-03
  2.770807e+00    4.829604e-01   6.079878e-03
  2.773017e+00    4.752639e-01   6.025277e-03
  2.775228e+00    4.764164e-01   6.026811e-03
  2.777438e+00    4.900489e-01   6.106557e-03
  2.779649e+00    4.850622e-01   6.069479e-03
  2.781859e+00    4.762244e-01   6.008174e-03
  2.784070e+00    4.806658e-01   6.030234e-03
  2.786280e+00    4.822329e-01   6.034274e-03
  2.788491e+00    4.885867e-01   6.067978e-03
  2.790701e+00    4.933901e-01   6.091993e-03
  2.792912e+00    4.849120e-01   6.033406e-03
  2.795122e+00    4.887815e-01   6.051629e-03
  2.797333e+00    4.844993e-01   6.019443e-03
  2.799543e+00    4.875231e-01   6.032266e-03
  2.801753e+00    4.756476e-01   5.952483e-03
  2.803964e+00    4.888497e-01   6.028772e-03
  2.806174e+00    4.900658e-01   6.030037e-03
  2.808385e+00    4.807951e-01   5.965902e-03
  2.810595e+00    4.714353e-01   5.900685e-03
  2.812806e+00    4.873231e-01   5.992600e-03
  2.815016e+00    4.664027e-01   5.857857e-03
  2.817227e+00    4.765616e-01   5.947300e-03
  2.819437e+00    4.673501e-01   5.900553e-03
  2.821648e+00    4.546657e-01   5.822177e-03
  2.823858e+00    4.616211e-01   5.871790e-03
  2.826068e+00    4.741179e-01   5.955738e-03
  2.828279e+00    4.809639e-01   6.002656e-03
  2.830489e+00    4.691801e-01   5.932008e-03
  2.832700e+00    4.682937e-01   5.928915e-03
  2.834910e+00    4.755483e-01   5.976764e-03
  2.837121e+00    4.727100e-01   5.960614e-03
  2.839331e+00    4.581883e-01   5.869548e-03
  2.841542e+00    4.683721e-01   5.935438e-03
  2.843752e+00    4.679707e-01   5.933660e-03
  2.845963e+00    4.760562e-01   5.985123e-03
  2.848173e+00    4.752536e-01   5.980143e-03
  2.850383e+00    4.586160e-01   5.874865e-03
  2.852594e+00    4.599673e-01   5.883381e-03
  2.854804e+00    4.684997e-01   5.937224e-03
  2.857015e+00    4.861220e-01   6.047396e-03
  2.859225e+00    4.792719e-01   6.004403e-03
  2.861436e+00    4.869548e-01   6.051656e-03
  2.863646e+00    4.776616e-01   5.993685e-03
  2.865857e+00    4.683175e-01   5.935115e-03
  2.868067e+00    4.555750e-01   5.854018e-03
  2.870278e+00    4.607690e-01   5.886945e-03
  2.872488e+00    4.611876e-01   5.888459e-03
  2.874698e+00    4.643787e-01   5.907753e-03
  2.876909e+00    4.656721e-01   5.914649e-03
  2.879119e+00    4.651136e-01   5.909476e-03
  2.881330e+00    4.586589e-01   5.866853e-03
  2.883540e+00    4.700438e-01   5.937814e-03
  2.885751e+00    4.798564e-01   5.997817e-03
  2.887961e+00    4.585112e-01   5.861017e-03
  2.890172e+00    4.715184e-01   5.941947e-03
  2.892382e+00    4.620996e-01   5.880491e-03
  2.894593e+00    4.656534e-01   5.901237e-03
  2.896803e+00    4.673328e-01   5.909874e-03
  2.899014e+00    4.555966e-01   5.833291e-03
  2.901224e+00    4.674272e-01   5.906539e-03
  2.903434e+00    4.632988e-01   5.878442e-03
  2.905645e+00    4.645706e-01   5.884271e-03
  2.907855e+00    4.680948e-01   5.904433e-03
  2.910066e+00    4.620580e-01   5.864142e-03
  2.912276e+00    4.573796e-01   5.832270e-03
  2.914487e+00    4.580096e-01   5.833826e-03
  2.916697e+00    4.629794e-01   5.863155e-03
  2.918908e+00    4.660262e-01   5.880392e-03
  2.921118e+00    4.728840e-01   5.920775e-03
  2.923329e+00    4.575089e-01   5.821416e-03
  2.925539e+00    4.547939e-01   5.801833e-03
  2.927749e+00    4.518869e-01   5.780962e-03
  2.929960e+00    4.536694e-01   5.789586e-03
  2.932170e+00    4.522991e-01   5.778517e-03
  2.934381e+00    4.668919e-01   5.868532e-03
  2.936591e+00    4.639073e-01   5.847139e-03
  2.938802e+00    4.669545e-01   5.863581e-03
  2.941012e+00    4.615623e-01   5.827262e-03
  2.943223e+00    4.585027e-01   5.805228e-03
  2.945433e+00    4.489496e-01   5.740714e-03
  2.947644e+00    4.686119e-01   5.860886e-03
  2.949854e+00    4.569522e-01   5.783236e-03
  2.952064e+00    4.636637e-01   5.821295e-03
  2.954275e+00    4.602591e-01   5.795442e-03
  2.956485e+00    4.690431e-01   5.846234e-03
  2.958696e+00    4.687214e-01   5.839792e-03
  2.960906e+00    4.484763e-01   5.708133e-03
  2.963117e+00    4.602931e-01   5.778326e-03
  2.965327e+00    4.558831e-01   5.746678e-03
  2.967538e+00    4.685972e-01   5.823278e-03
  2.969748e+00    4.681513e-01   5.817682e-03
  2.971959e+00    4.735584e-01   5.847957e-03
  2.974169e+00    4.836028e-01   5.906988e-03
  2.976379e+00    4.789872e-01   5.875748e-03
  2.978590e+00    4.784505e-01   5.869241e-03
  2.980800e+00    4.615060e-01   5.761547e-03
  2.983011e+00    4.549333e-01   5.717570e-03
  2.985221e+00    4.503357e-01   5.685457e-03
  2.987432e+00    4.614614e-01   5.752138e-03
  2.989642e+00    4.542847e-01   5.704595e-03
  2.991853e+00    4.504068e-01   5.676939e-03
  2.994063e+00    4.601652e-01   5.735162e-03
  2.996274e+00    4.550659e-01   5.700118e-03
  2.998484e+00    4.559355e-01   5.702871e-03
  3.000694e+00    4.487692e-01   5.654412e-03
  3.002905e+00    4.604664e-01   5.724682e-03
  3.005115e+00    4.731708e-01   5.800076e-03
  3.007326e+00    4.659129e-01   5.752220e-03
  3.009536e+00    4.575532e-01   5.697131e-03
  3.011747e+00    4.485300e-01   5.637751e-03
  3.013957e+00    4.558068e-01   5.680115e-03
  3.016168e+00    4.564271e-01   5.680714e-03
  3.018378e+00    4.606513e-01   5.703868e-03
  3.020589e+00    4.612462e-01   5.704311e-03
  3.022799e+00    4.507347e-01   5.635791e-03
  3.025010e+00    4.574948e-01   5.674611e-03
  3.027220e+00    4.648592e-01   5.716974e-03
  3.029430e+00    4.631554e-01   5.703200e-03
  3.031641e+00    4.616028e-01   5.690452e-03
  3.033851e+00    4.512360e-01   5.622693e-03
  3.036062e+00    4.420112e-01   5.562164e-03
  3.038272e+00    4.517756e-01   5.619662e-03
  3.040483e+00    4.630478e-01   5.686107e-03
  3.042693e+00    4.439570e-01   5.564416e-03
  3.044904e+00    4.480053e-01   5.585710e-03
  3.047114e+00    4.502981e-01   5.595179e-03
  3.049325e+00    4.606931e-01   5.654961e-03
  3.051535e+00    4.500924e-01   5.585133e-03
  3.053745e+00    4.470103e-01   5.561246e-03
  3.055956e+00    4.457794e-01   5.549030e-03
  3.058166e+00    4.459631e-01   5.545926e-03
  3.060377e+00    4.520254e-01   5.578721e-03
  3.062587e+00    4.580684e-01   5.611221e-03
  3.064798e+00    4.505255e-01   5.560570e-03
  3.067008e+00    4.483513e-01   5.542416e-03
  3.069219e+00    4.497229e-01   5.546373e-03
  3.071429e+00    4.511384e-01   5.551574e-03
  3.073640e+00    4.496953e-01   5.539357e-03
  3.075850e+00    4.473696e-01   5.521440e-03
  3.078060e+00    4.557652e-01   5.569880e-03
  3.080271e+00    4.534283e-01   5.552089e-03
  3.082481e+00    4.520233e-01   5.540022e-03
  3.084692e+00    4.478692e-01   5.511131e-03
  3.086902e+00    4.503645e-01   5.523207e-03
  3.089113e+00    4.492253e-01   5.512645e-03
  3.091323e+00    4.499648e-01   5.513804e-03
  3.093534e+00    4.471436e-01   5.493119e-03
  3.095744e+00    4.480714e-01   5.495423e-03
  3.097955e+00    4.499288e-01   5.503266e-03
  3.100165e+00    4.430694e-01   5.457829e-03
  3.102375e+00    4.360972e-01   5.411346e-03
  3.104586e+00    4.429013e-01   5.449899e-03
  3.106796e+00    4.519548e-01   5.501790e-03
  3.109007e+00    4.526240e-01   5.502629e-03
  3.111217e+00    4.439074e-01   5.445695e-03
  3.113428e+00    4.328851e-01   5.374304e-03
  3.115638e+00    4.346608e-01   5.382107e-03
  3.117849e+00    4.624241e-01   5.547527e-03
  3.120059e+00    4.533058e-01   5.489095e-03
  3.122270e+00    4.511068e-01   5.472481e-03
  3.124480e+00    4.459947e-01   5.437681e-03
  3.126691e+00    4.553698e-01   5.490923e-03
  3.128901e+00    4.482149e-01   5.444502e-03
  3.131111e+00    4.426240e-01   5.406596e-03
  3.133322e+00    4.501121e-01   5.448663e-03
  3.135532e+00    4.572055e-01   5.487988e-03
  3.137743e+00    4.480087e-01   5.429007e-03
  3.139953e+00    4.546211e-01   5.465203e-03
  3.142164e+00    4.457164e-01   5.423470e-03
  3.144374e+00    4.419835e-01   5.429097e-03
  3.146585e+00    4.413744e-01   5.439909e-03
  3.148795e+00    4.419415e-01   5.454164e-03
  3.151006e+00    4.541995e-01   5.537954e-03
  3.153216e+00    4.388294e-01   5.450571e-03
  3.155426e+00    4.526543e-01   5.542137e-03
  3.157637e+00    4.452491e-01   5.502170e-03
  3.159847e+00    4.478098e-01   5.522900e-03
  3.162058e+00    4.533019e-01   5.561156e-03
  3.164268e+00    4.292186e-01   5.415420e-03
  3.166479e+00    4.416464e-01   5.496921e-03
  3.168689e+00    4.441458e-01   5.515839e-03
  3.170900e+00    4.407503e-01   5.497886e-03
  3.173110e+00    4.366509e-01   5.475137e-03
  3.175321e+00    4.464813e-01   5.538924e-03
  3.177531e+00    4.435070e-01   5.523213e-03
  3.179741e+00    4.240629e-01   5.402831e-03
  3.181952e+00    4.322633e-01   5.456896e-03
  3.184162e+00    4.351681e-01   5.477399e-03
  3.186373e+00    4.391060e-01   5.503715e-03
  3.188583e+00    4.461029e-01   5.549204e-03
  3.190794e+00    4.477084e-01   5.560961e-03
  3.193004e+00    4.420953e-01   5.527261e-03
  3.195215e+00    4.315044e-01   5.462121e-03
  3.197425e+00    4.291543e-01   5.448446e-03
  3.199636e+00    4.291650e-01   5.447730e-03
  3.201846e+00    4.372565e-01   5.498253e-03
  3.204056e+00    4.317608e-01   5.464478e-03
  3.206267e+00    4.427389e-01   5.534356e-03
  3.208477e+00    4.431431e-01   5.537825e-03
  3.210688e+00    4.423395e-01   5.533669e-03
  3.212898e+00    4.198514e-01   5.391726e-03
  3.215109e+00    4.307488e-01   5.461996e-03
  3.217319e+00    4.394603e-01   5.517600e-03
  3.219530e+00    4.250095e-01   5.426509e-03
  3.221740e+00    4.267541e-01   5.438205e-03
  3.223951e+00    4.197820e-01   5.394059e-03
  3.226161e+00    4.200372e-01   5.395875e-03
  3.228372e+00    4.303159e-01   5.462023e-03
  3.230582e+00    4.361353e-01   5.498982e-03
  3.232792e+00    4.223049e-01   5.411308e-03
  3.235003e+00    4.308527e-01   5.466054e-03
  3.237213e+00    4.323629e-01   5.475711e-03
  3.239424e+00    4.294188e-01   5.457064e-03
  3.241634e+00    4.206406e-01   5.401100e-03
  3.243845e+00    4.322751e-01   5.475356e-03
  3.246055e+00    4.337093e-01   5.484155e-03
  3.248266e+00    4.356966e-01   5.496928e-03
  3.250476e+00    4.259797e-01   5.434959e-03
  3.252687e+00    4.274615e-01   5.444344e-03
  3.254897e+00    4.300295e-01   5.460545e-03
  3.257107e+00    4.348212e-01   5.490560e-03
  3.259318e+00    4.280940e-01   5.447699e-03
  3.261528e+00    4.203845e-01   5.398291e-03
  3.263739e+00    4.152758e-01   5.364827e-03
  3.265949e+00    4.124171e-01   5.346210e-03
  3.268160e+00    4.187419e-01   5.386624e-03
  3.270370e+00    4.214480e-01   5.403511e-03
  3.272581e+00    4.304689e-01   5.460729e-03
  3.274791e+00    4.333652e-01   5.478574e-03
  3.277002e+00    4.178295e-01   5.378902e-03
  3.279212e+00    4.171802e-01   5.374343e-03
  3.281422e+00    4.221182e-01   5.405476e-03
  3.283633e+00    4.280864e-01   5.442879e-03
  3.285843e+00    4.304590e-01   5.457598e-03
  3.288054e+00    4.389150e-01   5.509992e-03
  3.290264e+00    4.088314e-01   5.317520e-03
  3.292475e+00    4.150492e-01   5.356941e-03
  3.294685e+00    4.308002e-01   5.457016e-03
  3.296896e+00    4.315839e-01   5.461230e-03
  3.299106e+00    4.333940e-01   5.472091e-03
  3.301317e+00    4.342992e-01   5.476763e-03
  3.303527e+00    4.338480e-01   5.473466e-03
  3.305737e+00    4.277212e-01   5.433611e-03
  3.307948e+00    4.335540e-01   5.469861e-03
  3.310158e+00    4.288344e-01   5.439150e-03
  3.312369e+00    4.238575e-01   5.406617e-03
  3.314579e+00    4.208907e-01   5.386755e-03
  3.316790e+00    4.259554e-01   5.418348e-03
  3.319000e+00    4.274369e-01   5.426568e-03
  3.321211e+00    4.253196e-01   5.412520e-03
  3.323421e+00    4.232645e-01   5.398198e-03
  3.325632e+00    4.264054e-01   5.417312e-03
  3.327842e+00    4.249624e-01   5.407233e-03
  3.330052e+00    4.180169e-01   5.361780e-03
  3.332263e+00    4.233707e-01   5.394984e-03
  3.334473e+00    4.296341e-01   5.433836e-03
  3.336684e+00    4.294573e-01   5.431434e-03
  3.338894e+00    4.351876e-01   5.466707e-03
  3.341105e+00    4.361218e-01   5.471328e-03
  3.343315e+00    4.339207e-01   5.456369e-03
  3.345526e+00    4.095903e-01   5.300284e-03
  3.347736e+00    4.257807e-01   5.402603e-03
  3.349947e+00    4.229406e-01   5.383620e-03
  3.352157e+00    4.259697e-01   5.401682e-03
  3.354368e+00    4.255836e-01   5.397946e-03
  3.356578e+00    4.169650e-01   5.341977e-03
  3.358788e+00    4.254365e-01   5.394639e-03
  3.360999e+00    4.170881e-01   5.340195e-03
  3.363209e+00    4.202840e-01   5.359591e-03
  3.365420e+00    4.345982e-01   5.448558e-03
  3.367630e+00    4.154154e-01   5.325956e-03
  3.369841e+00    4.121108e-01   5.303298e-03
  3.372051e+00    4.040339e-01   5.249121e-03
  3.374262e+00    4.191754e-01   5.344124e-03
  3.376472e+00    4.290402e-01   5.404166e-03
  3.378683e+00    4.170683e-01   5.325731e-03
  3.380893e+00    4.254645e-01   5.376683e-03
  3.383103e+00    4.200482e-01   5.339668e-03
  3.385314e+00    4.191905e-01   5.331943e-03
  3.387524e+00    4.278057e-01   5.383706e-03
  3.389735e+00    4.157607e-01   5.304731e-03
  3.391945e+00    4.158820e-01   5.301807e-03
  3.394156e+00    4.111093e-01   5.267105e-03
  3.396366e+00    4.120991e-01   5.270016e-03
  3.398577e+00    4.089776e-01   5.246989e-03
  3.400787e+00    4.107786e-01   5.270439e-03
  3.402998e+00    4.028192e-01   5.256850e-03
  3.405208e+00    4.186472e-01   5.380139e-03
  3.407418e+00    3.984903e-01   5.264740e-03
  3.409629e+00    4.052321e-01   5.323141e-03
  3.411839e+00    3.846034e-01   5.197436e-03
  3.414050e+00    3.947437e-01   5.276455e-03
  3.416260e+00    3.969562e-01   5.300896e-03
  3.418471e+00    4.109740e-01   5.403290e-03
  3.420681e+00    4.220016e-01   5.484134e-03
  3.422892e+00    3.944820e-01   5.310361e-03
  3.425102e+00    3.846377e-01   5.251415e-03
  3.427313e+00    3.886494e-01   5.285929e-03
  3.429523e+00    3.880648e-01   5.289030e-03
  3.431733e+00    3.919386e-01   5.322058e-03
  3.433944e+00    3.999110e-01   5.382546e-03
  3.436154e+00    4.018412e-01   5.401906e-03
  3.438365e+00    3.838427e-01   5.285500e-03
  3.440575e+00    3.823449e-01   5.281124e-03
  3.442786e+00    3.985187e-01   5.397369e-03
  3.444996e+00    3.872188e-01   5.325927e-03
  3.447207e+00    3.726218e-01   5.229839e-03
  3.449417e+00    3.776802e-01   5.306351e-03
  3.451628e+00    3.576983e-01   5.193078e-03
  3.453838e+00    3.811685e-01   5.382265e-03
  3.456049e+00    3.708657e-01   5.333091e-03
  3.458259e+00    3.731450e-01   5.371568e-03
  3.460469e+00    3.774941e-01   5.422867e-03
  3.462680e+00    3.786015e-01   5.450186e-03
  3.464890e+00    3.675995e-01   5.388261e-03
  3.467101e+00    3.568654e-01   5.326215e-03
  3.469311e+00    3.804907e-01   5.516432e-03
  3.471522e+00    3.919116e-01   5.615405e-03
  3.473732e+00    4.041259e-01   5.718687e-03
  3.475943e+00    4.082048e-01   5.763742e-03
  3.478153e+00    4.030851e-01   5.743185e-03
  3.480364e+00    4.162697e-01   5.851946e-03
  3.482574e+00    4.198063e-01   5.892392e-03
  3.484784e+00    4.263455e-01   5.953284e-03
  3.486995e+00    4.463969e-01   6.107279e-03
  3.489205e+00    4.357790e-01   6.049122e-03
  3.491416e+00    4.478623e-01   6.147666e-03
  3.493626e+00    4.389167e-01   6.100635e-03
  3.495837e+00    4.386937e-01   6.113803e-03
  3.498047e+00    4.504197e-01   6.209558e-03
  3.500258e+00    4.505038e-01   6.224674e-03
  3.502468e+00    4.727255e-01   6.391080e-03
  3.504679e+00    4.701879e-01   6.388528e-03
  3.506889e+00    4.730050e-01   6.422199e-03
  3.509099e+00    4.751735e-01   6.451330e-03
  3.511310e+00    4.862916e-01   6.540947e-03
  3.513520e+00    5.109555e-01   6.719639e-03
  3.515731e+00    4.976899e-01   6.646399e-03
  3.517941e+00    4.979230e-01   6.662411e-03
  3.520152e+00    5.090348e-01   6.750882e-03
  3.522362e+00    4.959367e-01   6.677871e-03
  3.524573e+00    5.118051e-01   6.798185e-03
  3.526783e+00    5.240166e-01   6.892384e-03
  3.528994e+00    5.092645e-01   6.806822e-03
  3.531204e+00    5.234750e-01   6.913592e-03
  3.533414e+00    5.305821e-01   6.972518e-03
  3.535625e+00    5.399777e-01   7.046491e-03
  3.537835e+00    5.300750e-01   6.993673e-03
  3.540046e+00    5.450331e-01   7.100644e-03
  3.542256e+00    5.500006e-01   7.140600e-03
  3.544467e+00    5.393708e-01   7.078894e-03
  3.546677e+00    5.465952e-01   7.133786e-03
  3.548888e+00    5.487654e-01   7.155515e-03
  3.551098e+00    5.546543e-01   7.201246e-03
  3.553309e+00    5.370234e-01   7.094047e-03
  3.555519e+00    5.158479e-01   6.963830e-03
  3.557729e+00    5.279865e-01   7.056921e-03
  3.559940e+00    5.574078e-01   7.262629e-03
  3.562150e+00    5.600844e-01   7.292066e-03
  3.564361e+00    5.283384e-01   7.095635e-03
  3.566571e+00    5.399260e-01   7.186836e-03
  3.568782e+00    5.443158e-01   7.230271e-03
  3.570992e+00    5.338749e-01   7.174293e-03
  3.573203e+00    5.409900e-01   7.236158e-03
  3.575413e+00    5.354863e-01   7.213024e-03
  3.577624e+00    5.392845e-01   7.252722e-03
  3.579834e+00    5.485608e-01   7.328876e-03
  3.582045e+00    5.375502e-01   7.269015e-03
  3.584255e+00    5.549681e-01   7.400122e-03
  3.586465e+00    5.538981e-01   7.407179e-03
  3.588676e+00    5.456052e-01   7.365823e-03
  3.590886e+00    5.464361e-01   7.385288e-03
  3.593097e+00    5.334353e-01   7.311341e-03
  3.595307e+00    5.410079e-01   7.377067e-03
  3.597518e+00    5.372368e-01   7.365543e-03
  3.599728e+00    5.417508e-01   7.410616e-03
  3.601939e+00    5.108465e-01   7.209883e-03
  3.604149e+00    5.223886e-01   7.305062e-03
  3.606360e+00    5.381613e-01   7.428741e-03
  3.608570e+00    5.405113e-01   7.459157e-03
  3.610780e+00    5.418270e-01   7.479387e-03
  3.612991e+00    5.476956e-01   7.529887e-03
  3.615201e+00    5.389886e-01   7.479639e-03
  3.617412e+00    5.519586e-01   7.576472e-03
  3.619622e+00    5.287906e-01   7.421713e-03
  3.621833e+00    5.341831e-01   7.466141e-03
  3.624043e+00    5.366330e-01   7.492794e-03
  3.626254e+00    5.245719e-01   7.417721e-03
  3.628464e+00    5.171035e-01   7.375526e-03
  3.630675e+00    5.306154e-01   7.485325e-03
  3.632885e+00    5.325111e-01   7.513098e-03
  3.635095e+00    5.443389e-01   7.610659e-03
  3.637306e+00    5.206310e-01   7.457269e-03
  3.639516e+00    5.320038e-01   7.552751e-03
  3.641727e+00    5.358115e-01   7.594382e-03
  3.643937e+00    5.324158e-01   7.584795e-03
  3.646148e+00    5.363667e-01   7.627531e-03
  3.648358e+00    5.296692e-01   7.594588e-03
  3.650569e+00    5.226195e-01   7.558476e-03
  3.652779e+00    5.457055e-01   7.738511e-03
  3.654990e+00    5.459179e-01   7.755162e-03
  3.657200e+00    5.384879e-01   7.717130e-03
  3.659410e+00    5.573823e-01   7.866711e-03
  3.661621e+00    5.378452e-01   7.742789e-03
  3.663831e+00    5.395073e-01   7.769997e-03
  3.666042e+00    5.278428e-01   7.700608e-03
  3.668252e+00    5.325027e-01   7.749795e-03
  3.670463e+00    5.354651e-01   7.786605e-03
  3.672673e+00    5.462613e-01   7.880379e-03
  3.674884e+00    5.464420e-01   7.897269e-03
  3.677094e+00    5.593023e-01   8.005649e-03
  3.679305e+00    5.412672e-01   7.891214e-03
  3.681515e+00    5.289180e-01   7.816276e-03
  3.683726e+00    5.189770e-01   7.758083e-03
  3.685936e+00    5.381016e-01   7.915586e-03
  3.688146e+00    5.269286e-01   7.848753e-03
  3.690357e+00    5.338443e-01   7.916120e-03
  3.692567e+00    5.405086e-01   7.981692e-03
  3.694778e+00    5.189952e-01   7.837185e-03
  3.696988e+00    5.273753e-01   7.916212e-03
  3.699199e+00    5.216701e-01   7.889445e-03
  3.701409e+00    5.305958e-01   7.973134e-03
  3.703620e+00    5.277216e-01   7.967812e-03
  3.705830e+00    5.499664e-01   8.150848e-03
  3.708041e+00    5.464857e-01   8.141953e-03
  3.710251e+00    5.233156e-01   7.984210e-03
  3.712461e+00    5.169156e-01   7.951857e-03
  3.714672e+00    5.289339e-01   8.060627e-03
  3.716882e+00    5.309565e-01   8.092869e-03
  3.719093e+00    5.174974e-01   8.006772e-03
  3.721303e+00    5.105295e-01   7.969474e-03
  3.723514e+00    5.189503e-01   8.052164e-03
  3.725724e+00    5.225690e-01   8.097433e-03
  3.727935e+00    5.363419e-01   8.221249e-03
  3.730145e+00    5.278094e-01   8.173042e-03
  3.732356e+00    5.325404e-01   8.227459e-03
  3.734566e+00    5.215594e-01   8.159813e-03
  3.736776e+00    5.194367e-01   8.161020e-03
  3.738987e+00    5.267742e-01   8.236424e-03
  3.741197e+00    5.039247e-01   8.073653e-03
  3.743408e+00    5.239570e-01   8.250768e-03
  3.745618e+00    5.174104e-01   8.217483e-03
  3.747829e+00    5.299710e-01   8.335046e-03
  3.750039e+00    5.220250e-01   8.290880e-03
  3.752250e+00    5.223922e-01   8.312498e-03
  3.754460e+00    4.967916e-01   8.124529e-03
  3.756671e+00    5.264892e-01   8.382934e-03
  3.758881e+00    5.283646e-01   8.416885e-03
  3.761091e+00    5.094406e-01   8.283941e-03
  3.763302e+00    5.136787e-01   8.337493e-03
  3.765512e+00    5.111611e-01   8.336333e-03
  3.767723e+00    5.176199e-01   8.408428e-03
  3.769933e+00    5.154248e-01   8.410055e-03
  3.772144e+00    5.303751e-01   8.551213e-03
  3.774354e+00    5.103197e-01   8.407942e-03
  3.776565e+00    5.067233e-01   8.398113e-03
  3.778775e+00    5.046692e-01   8.401018e-03
  3.780986e+00    5.063356e-01   8.435245e-03
  3.783196e+00    5.089654e-01   8.477450e-03
  3.785407e+00    5.235698e-01   8.619103e-03
  3.787617e+00    5.064402e-01   8.497745e-03
  3.789827e+00    4.937335e-01   8.410822e-03
  3.792038e+00    4.913591e-01   8.411189e-03
  3.794248e+00    5.103140e-01   8.593213e-03
  3.796459e+00    5.202662e-01   8.698364e-03
  3.798669e+00    5.113019e-01   8.644755e-03
  3.800880e+00    4.884446e-01   8.470486e-03
  3.803090e+00    4.793512e-01   8.412557e-03
  3.805301e+00    5.046913e-01   8.654297e-03
  3.807511e+00    5.008934e-01   8.643669e-03
  3.809722e+00    5.311000e-01   8.923442e-03
  3.811932e+00    5.128491e-01   8.791269e-03
  3.814142e+00    5.126638e-01   8.812902e-03
  3.816353e+00    5.021829e-01   8.745240e-03
  3.818563e+00    5.135421e-01   8.866999e-03
  3.820774e+00    4.994116e-01   8.767416e-03
  3.822984e+00    5.056335e-01   8.845374e-03
  3.825195e+00    4.945524e-01   8.771538e-03
  3.827405e+00    5.206759e-01   9.024684e-03
  3.829616e+00    4.873881e-01   8.755306e-03
  3.831826e+00    4.921612e-01   8.822031e-03
  3.834037e+00    4.838583e-01   8.771506e-03
  3.836247e+00    5.049495e-01   8.985460e-03
  3.838457e+00    5.152666e-01   9.102398e-03
  3.840668e+00    5.017962e-01   9.007900e-03
  3.842878e+00    5.018188e-01   9.033803e-03
  3.845089e+00    5.131974e-01   9.161646e-03
  3.847299e+00    5.105236e-01   9.163918e-03
  3.849510e+00    5.011608e-01   9.105549e-03
  3.851720e+00    5.065833e-01   9.176328e-03
  3.853931e+00    4.995841e-01   9.131774e-03
  3.856141e+00    4.838521e-01   9.005661e-03
  3.858352e+00    5.068315e-01   9.236519e-03
  3.860562e+00    5.056462e-01   9.245256e-03
  3.862772e+00    5.057346e-01   9.265852e-03
  3.864983e+00    5.088434e-01   9.314282e-03
  3.867193e+00    5.072031e-01   9.319281e-03
  3.869404e+00    5.009944e-01   9.282090e-03
  3.871614e+00    5.025769e-01   9.316805e-03
  3.873825e+00    5.110669e-01   9.415932e-03
  3.876035e+00    4.998595e-01   9.332835e-03
  3.878246e+00    4.945498e-01   9.308928e-03
  3.880456e+00    5.040202e-01   9.426938e-03
  3.882667e+00    5.168157e-01   9.575968e-03
  3.884877e+00    5.155906e-01   9.595055e-03
  3.887087e+00    5.144463e-01   9.615009e-03
  3.889298e+00    5.103521e-01   9.607657e-03
  3.891508e+00    5.172207e-01   9.703360e-03
  3.893719e+00    5.205132e-01   9.766189e-03
  3.895929e+00    4.939347e-01   9.545087e-03
  3.898140e+00    4.835791e-01   9.475980e-03
  3.900350e+00    5.142786e-01   9.805027e-03
  3.902561e+00    5.252763e-01   9.942786e-03
  3.904771e+00    4.971932e-01   9.706505e-03
  3.906982e+00    4.745553e-01   9.515551e-03
  3.909192e+00    4.830532e-01   9.633604e-03
  3.911403e+00    4.966117e-01   9.802131e-03
  3.913613e+00    4.961678e-01   9.832351e-03
  3.915823e+00    4.995575e-01   9.901082e-03
  3.918034e+00    4.774600e-01   9.714409e-03
  3.920244e+00    5.246797e-01   1.022054e-02
  3.922455e+00    4.987241e-01   1.000105e-02
  3.924665e+00    4.697669e-01   9.742020e-03
  3.926876e+00    5.001972e-01   1.009016e-02
  3.929086e+00    5.198885e-01   1.032546e-02
  3.931297e+00    5.073766e-01   1.023604e-02
  3.933507e+00    4.833067e-01   1.001901e-02
  3.935718e+00    5.034186e-01   1.025462e-02
  3.937928e+00    4.948327e-01   1.019647e-02
  3.940138e+00    4.777509e-01   1.004795e-02
  3.942349e+00    4.875486e-01   1.018029e-02
  3.944559e+00    5.163555e-01   1.050770e-02
  3.946770e+00    4.654226e-01   1.000549e-02
  3.948980e+00    5.036573e-01   1.043957e-02
  3.951191e+00    4.953946e-01   1.038474e-02
  3.953401e+00    5.047313e-01   1.051412e-02
  3.955612e+00    4.950547e-01   1.044471e-02
  3.957822e+00    4.978886e-01   1.050670e-02
  3.960033e+00    5.050120e-01   1.061478e-02
  3.962243e+00    4.840075e-01   1.042454e-02
  3.964453e+00    4.676205e-01   1.027903e-02
  3.966664e+00    4.731995e-01   1.037314e-02
  3.968874e+00    4.785924e-01   1.046020e-02
  3.971085e+00    4.976945e-01   1.068915e-02
  3.973295e+00    4.835415e-01   1.055752e-02
  3.975506e+00    4.910361e-01   1.066073e-02
  3.977716e+00    5.004789e-01   1.078502e-02
  3.979927e+00    5.248658e-01   1.106778e-02
  3.982137e+00    4.972838e-01   1.079555e-02
  3.984348e+00    4.824115e-01   1.065547e-02
  3.986558e+00    4.819362e-01   1.067235e-02
  3.988768e+00    4.768659e-01   1.063887e-02
  3.990979e+00    4.833193e-01   1.073334e-02
  3.993189e+00    5.006941e-01   1.094808e-02
  3.995400e+00    4.920933e-01   1.087730e-02
  3.997610e+00    4.931590e-01   1.091914e-02
  3.999821e+00    4.886219e-01   1.090646e-02
  4.002031e+00    4.952089e-01   1.101852e-02
  4.004242e+00    4.775750e-01   1.085884e-02
  4.006452e+00    4.771827e-01   1.089337e-02
  4.008663e+00    4.795142e-01   1.095975e-02
  4.010873e+00    4.815097e-01   1.102241e-02
  4.013084e+00    4.673533e-01   1.089930e-02
  4.015294e+00    5.063608e-01   1.138696e-02
  4.017504e+00    4.894379e-01   1.123715e-02
  4.019715e+00    4.852043e-01   1.123100e-02
  4.021925e+00    5.139999e-01   1.160379e-02
  4.024136e+00    4.899400e-01   1.137290e-02
  4.026346e+00    5.075330e-01   1.162035e-02
  4.028557e+00    4.929134e-01   1.149665e-02
  4.030767e+00    4.900126e-01   1.150870e-02
  4.032978e+00    5.160438e-01   1.185817e-02
  4.035188e+00    4.928233e-01   1.163503e-02
  4.037399e+00    4.753373e-01   1.147392e-02
  4.039609e+00    4.886744e-01   1.168169e-02
  4.041819e+00    4.789770e-01   1.161372e-02
  4.044030e+00    4.859277e-01   1.174780e-02
  4.046240e+00    5.002664e-01   1.197054e-02
  4.048451e+00    4.843742e-01   1.182993e-02
  4.050661e+00    5.009868e-01   1.208335e-02
  4.052872e+00    5.158495e-01   1.231593e-02
  4.055082e+00    5.045187e-01   1.223471e-02
  4.057293e+00    4.787208e-01   1.197121e-02
  4.059503e+00    5.177024e-01   1.250561e-02
  4.061714e+00    4.875185e-01   1.219258e-02
  4.063924e+00    4.756639e-01   1.209960e-02
  4.066134e+00    4.845645e-01   1.226995e-02
  4.068345e+00    4.647054e-01   1.207377e-02
  4.070555e+00    5.036878e-01   1.263051e-02
  4.072766e+00    5.124405e-01   1.280259e-02
  4.074976e+00    4.940066e-01   1.263289e-02
  4.077187e+00    4.920928e-01   1.267110e-02
  4.079397e+00    5.202210e-01   1.309467e-02
  4.081608e+00    5.033255e-01   1.294723e-02
  4.083818e+00    5.438848e-01   1.352892e-02
  4.086029e+00    4.999277e-01   1.303900e-02
  4.088239e+00    5.073125e-01   1.320575e-02
  4.090449e+00    4.941020e-01   1.310325e-02
  4.092660e+00    4.969143e-01   1.321283e-02
  4.094870e+00    4.712603e-01   1.293892e-02
  4.097081e+00    4.789076e-01   1.311481e-02
  4.099291e+00    4.654460e-01   1.298257e-02
  4.101502e+00    4.798997e-01   1.323204e-02
  4.103712e+00    4.915504e-01   1.344132e-02
  4.105923e+00    4.781568e-01   1.330847e-02
  4.108133e+00    4.471988e-01   1.291992e-02
  4.110344e+00    5.059276e-01   1.379464e-02
  4.112554e+00    4.970761e-01   1.372765e-02
  4.114764e+00    4.895753e-01   1.367832e-02
  4.116975e+00    5.006201e-01   1.388631e-02
  4.119185e+00    4.692102e-01   1.349814e-02
  4.121396e+00    4.636331e-01   1.347317e-02
  4.123606e+00    4.818121e-01   1.379095e-02
  4.125817e+00    5.054570e-01   1.418478e-02
  4.128027e+00    5.108715e-01   1.432038e-02
  4.130238e+00    4.855030e-01   1.402036e-02
  4.132448e+00    4.603689e-01   1.371173e-02
  4.134659e+00    4.802657e-01   1.406520e-02
  4.136869e+00    4.465232e-01   1.362255e-02
  4.139080e+00    4.769189e-01   1.414205e-02
  4.141290e+00    4.979190e-01   1.451399e-02
  4.143500e+00    5.115968e-01   1.478003e-02
  4.145711e+00    4.715911e-01   1.425663e-02
  4.147921e+00    4.929093e-01   1.464200e-02
  4.150132e+00    4.886381e-01   1.464828e-02
  4.152342e+00    5.016868e-01   1.491422e-02
  4.154553e+00    4.584534e-01   1.432503e-02
  4.156763e+00    5.309578e-01   1.549235e-02
  4.158974e+00    4.906715e-01   1.496806e-02
  4.161184e+00    5.095155e-01   1.532822e-02
  4.163395e+00    5.130996e-01   1.546095e-02
  4.165605e+00    5.090209e-01   1.547894e-02
  4.167815e+00    5.233195e-01   1.577716e-02
  4.170026e+00    5.361958e-01   1.605396e-02
  4.172236e+00    5.352826e-01   1.612716e-02
  4.174447e+00    5.132735e-01   1.587813e-02
  4.176657e+00    4.499937e-01   1.494833e-02
  4.178868e+00    4.767182e-01   1.547279e-02
  4.181078e+00    4.777642e-01   1.557725e-02
  4.183289e+00    5.108069e-01   1.619873e-02
  4.185499e+00    4.952503e-01   1.604470e-02
  4.187710e+00    4.955071e-01   1.614262e-02
  4.189920e+00    4.417368e-01   1.533354e-02
  4.192130e+00    4.723728e-01   1.595306e-02
  4.194341e+00    4.602434e-01   1.584352e-02
  4.196551e+00    5.381818e-01   1.724109e-02
  4.198762e+00    5.045418e-01   1.679941e-02
  4.200972e+00    5.393445e-01   1.748199e-02
  4.203183e+00    4.109426e-01   1.536018e-02
  4.205393e+00    4.664389e-01   1.647307e-02
  4.207604e+00    4.430577e-01   1.616495e-02
  4.209814e+00    4.786921e-01   1.691742e-02
  4.212025e+00    4.683535e-01   1.685238e-02
  4.214235e+00    4.510986e-01   1.665638e-02
  4.216445e+00    4.265544e-01   1.631362e-02
  4.218656e+00    4.869307e-01   1.756064e-02
  4.220866e+00    5.543702e-01   1.887642e-02
  4.223077e+00    4.964295e-01   1.800031e-02
  4.225287e+00    4.705552e-01   1.766210e-02
  4.227498e+00    5.068503e-01   1.847515e-02
  4.229708e+00    4.233081e-01   1.702108e-02
  4.231919e+00    4.626608e-01   1.794173e-02
  4.234129e+00    4.968408e-01   1.874865e-02
  4.236340e+00    4.889395e-01   1.875804e-02
  4.238550e+00    4.876891e-01   1.889982e-02
  4.240761e+00    5.098598e-01   1.949500e-02
  4.242971e+00    4.898684e-01   1.928418e-02
  4.245181e+00    4.565705e-01   1.879190e-02
  4.247392e+00    4.532140e-01   1.889787e-02
  4.249602e+00    5.350392e-01   2.073662e-02
  4.251813e+00    5.850984e-01   2.189926e-02
  4.254023e+00    4.868166e-01   2.017670e-02
  4.256234e+00    5.250845e-01   2.117865e-02
  4.258444e+00    4.418253e-01   1.963062e-02
  4.260655e+00    5.281461e-01   2.169790e-02
  4.262865e+00    5.889810e-01   2.317410e-02
  4.265076e+00    4.661252e-01   2.085061e-02
  4.267286e+00    4.655606e-01   2.108488e-02
  4.269496e+00    4.738440e-01   2.153105e-02
  4.271707e+00    5.416951e-01   2.330558e-02
  4.273917e+00    5.071294e-01   2.284091e-02
  4.276128e+00    5.173827e-01   2.337778e-02
  4.278338e+00    5.238883e-01   2.383823e-02
  4.280549e+00    4.669706e-01   2.282887e-02
  4.282759e+00    4.847519e-01   2.359333e-02
  4.284970e+00    4.837723e-01   2.391860e-02
  4.287180e+00    4.427159e-01   2.315584e-02
  4.289391e+00    5.338956e-01   2.561892e-02
  4.291601e+00    4.057071e-01   2.251114e-02
  4.293811e+00    4.966606e-01   2.510140e-02
  4.296022e+00    4.999995e-01   2.538852e-02
  4.298232e+00    5.093420e-01   2.583881e-02
  4.300443e+00    4.692357e-01   2.500599e-02
  4.302653e+00    4.235740e-01   2.396336e-02
  4.304864e+00    4.862171e-01   2.589596e-02
  4.307074e+00    5.607785e-01   2.806133e-02
  4.309285e+00    5.111936e-01   2.703622e-02
  4.311495e+00    4.564339e-01   2.578474e-02
  4.313706e+00    5.339597e-01   2.815134e-02
  4.315916e+00    5.289131e-01   2.829435e-02
  4.318126e+00    3.501581e-01   2.324990e-02
  4.320337e+00    3.852181e-01   2.463198e-02
  4.322547e+00    4.782713e-01   2.773716e-02
  4.324758e+00    4.997763e-01   2.864932e-02
  4.326968e+00    3.979571e-01   2.585234e-02
  4.329179e+00    4.832540e-01   2.880275e-02
  4.331389e+00    5.378761e-01   3.073659e-02
  4.333600e+00    4.844972e-01   2.952089e-02
  4.335810e+00    4.928266e-01   3.012746e-02
  4.338021e+00    5.204346e-01   3.135578e-02
  4.340231e+00    3.975136e-01   2.774853e-02
  4.342442e+00    4.125440e-01   2.864668e-02
  4.344652e+00    4.056548e-01   2.879189e-02
  4.346862e+00    4.535999e-01   3.087184e-02
  4.349073e+00    6.499386e-01   3.749335e-02
  4.351283e+00    5.012150e-01   3.341623e-02
  4.353494e+00    4.672713e-01   3.276512e-02
  4.355704e+00    5.368248e-01   3.568232e-02
  4.357915e+00    3.805247e-01   3.054309e-02
  4.360125e+00    4.548571e-01   3.396180e-02
  4.362336e+00    4.544121e-01   3.456565e-02
  4.364546e+00    3.524467e-01   3.099648e-02
  4.366757e+00    3.149688e-01   2.988315e-02
  4.368967e+00    3.779965e-01   3.339021e-02
  4.371177e+00    4.637974e-01   3.777187e-02
  4.373388e+00    5.610560e-01   4.247344e-02
  4.375598e+00    5.852485e-01   4.437031e-02
  4.377809e+00    4.077213e-01   3.797070e-02
  4.380019e+00    4.297896e-01   3.996493e-02
  4.382230e+00    4.533422e-01   4.219070e-02
  4.384440e+00    3.623640e-01   3.880708e-02
  4.386651e+00    4.795321e-01   4.601582e-02
  4.388861e+00    4.966484e-01   4.840344e-02
  4.391072e+00    6.880839e-01   5.897513e-02
  4.393282e+00    5.680570e-01   5.565783e-02
  4.395492e+00    5.878441e-01   5.896810e-02
  4.397703e+00    4.064030e-01   5.127798e-02
  4.399913e+00    4.133757e-01   5.433030e-02
  4.402124e+00    4.297628e-01   5.853670e-02
  4.404334e+00    3.374766e-01   5.513617e-02
  4.406545e+00    1.044128e-01   3.296282e-02
  4.408755e+00    3.548336e-01   6.587796e-02
  4.410966e+00    3.681272e-01   7.426657e-02
  4.413176e+00    2.357154e-01   6.727310e-02
  4.415387e+00   -4.906327e-01            nan
  4.417597e+00   -1.787243e+00            nan
  4.419807e+00   -3.766224e-01            nan
