# == pyFAI calibration ==
# Distance Sample to Detector: 0.216 m
# PONI: 1.166e-01, 1.308e-01 m
# Rotations: 0.000000 0.000000 0.000000 rad
# 
# == Fit2d calibration ==
# Distance Sample-beamCenter: 216.000 mm
# Center: x=1744.293, y=1555.000 pix
# Tilt: 0.000 deg  TiltPlanRot: 0.000 deg
# 
# Detector Eiger 9M	 PixelSize= 7.500e-05, 7.500e-05 m
#    Detector has a mask: True 
#    Detector has a dark current: False 
#    detector has a flat field: False 
# 
# Wavelength: 9.8e-11 m
# Mask applied: from detector
# Dark current applied: False
# Flat field applied: False
# Polarization factor: None
# Normalization factor: 1.0
# 
# Headers of the input frame:
# {
# "_array_data.header_convention": "SLS_1.0",
# "_array_data.header_contents": "# Detector: Dectris Eiger 9M, S/N E-18-0102\r\n# Pixel_size 75e-6 m x 75e-6 m\r\n# Silicon sensor, thickness 0.000450 m\r\n# Exposure_time 0.024997 s\r\n# Exposure_period 0.025000 s\r\n# Count_cutoff 62318 counts\r\n# Wavelength 0.980106 A\r\n# Detector_distance 0.215992 m\r\n# Beam_xy (1555, 1744) pixels\r\n# Start_angle 0.000000 deg.\r\n# Angle_increment 0.000000 deg.",
# "Content-Type": "application/octet-stream;",
# "conversions": "x-CBF_BYTE_OFFSET",
# "Content-Transfer-Encoding": "BINARY",
# "X-Binary-Size": "10166594",
# "X-Binary-ID": "1",
# "X-Binary-Element-Type": "signed 32-bit integer",
# "X-Binary-Element-Byte-Order": "LITTLE_ENDIAN",
# "Content-MD5": "qpHk+LiPA58O6AdVq6ZkKQ==",
# "X-Binary-Number-of-Elements": "10166590",
# "X-Binary-Size-Fastest-Dimension": "3110",
# "X-Binary-Size-Second-Dimension": "3269",
# "X-Binary-Size-Padding": "4095"
# }
# --> H:/Proxima2a_2019-04-05/RAW_DATA/C5_gel17_position5/C5_mesh_1_data.cbf/C5_mesh_1_data.cbf000017.dat
#        q_A^-1              I           sigma 
  1.105228e-03    1.663308e+00   6.978679e-01
  3.315685e-03    1.520174e+00   4.055945e-01
  5.526141e-03    1.368471e+00   2.975705e-01
  7.736597e-03    1.628138e+00   2.741990e-01
  9.947054e-03    1.471485e+00   2.298023e-01
  1.215751e-02    1.369476e+00   2.004684e-01
  1.436797e-02    1.541787e+00   1.956537e-01
  1.657842e-02    1.563199e+00   1.833799e-01
  1.878888e-02    1.354983e+00   1.603727e-01
  2.099934e-02    1.346525e+00   1.512548e-01
  2.320979e-02    1.530607e+00   1.533785e-01
  2.542025e-02    1.384102e+00   1.393778e-01
  2.763070e-02    1.374127e+00   1.331999e-01
  2.984116e-02    1.234712e+00   1.214953e-01
  3.205162e-02    1.439355e+00   1.265815e-01
  3.426207e-02    1.474614e+00   1.239122e-01
  3.647253e-02    1.485773e+00   1.205496e-01
  3.868299e-02    1.574483e+00   1.205077e-01
  4.089344e-02    1.510299e+00   1.147922e-01
  4.310390e-02    1.338082e+00   1.052362e-01
  4.531436e-02    1.408357e+00   1.052985e-01
  4.752481e-02    1.427096e+00   1.035012e-01
  4.973527e-02    1.479506e+00   1.030173e-01
  5.194572e-02    1.491353e+00   1.012029e-01
  5.415618e-02    1.448392e+00   9.767463e-02
  5.636664e-02    1.397768e+00   9.405519e-02
  5.857709e-02    1.445179e+00   9.381565e-02
  6.078755e-02    1.426171e+00   9.148359e-02
  6.299801e-02    1.429840e+00   8.997878e-02
  6.520846e-02    1.463259e+00   8.946874e-02
  6.741892e-02    1.368928e+00   8.510207e-02
  6.962938e-02    1.360743e+00   8.349382e-02
  7.183983e-02    1.450836e+00   8.487526e-02
  7.405029e-02    1.540007e+00   8.612766e-02
  7.626074e-02    1.525392e+00   8.446584e-02
  7.847120e-02    1.522625e+00   8.318987e-02
  8.068166e-02    1.513089e+00   8.178442e-02
  8.289211e-02    1.494036e+00   8.017655e-02
  8.510257e-02    1.506805e+00   7.946537e-02
  8.731303e-02    1.517141e+00   7.871864e-02
  8.952348e-02    1.569521e+00   7.907353e-02
  9.173394e-02    1.570340e+00   7.813231e-02
  9.394439e-02    1.685594e+00   7.998820e-02
  9.615485e-02    1.503382e+00   7.466627e-02
  9.836531e-02    1.538706e+00   7.468272e-02
  1.005758e-01    1.663625e+00   7.679750e-02
  1.027862e-01    1.646413e+00   7.557137e-02
  1.049967e-01    1.613304e+00   7.401471e-02
  1.072071e-01    1.554557e+00   7.190087e-02
  1.094176e-01    1.488455e+00   6.964023e-02
  1.116280e-01    1.538863e+00   7.010350e-02
  1.138385e-01    1.557855e+00   6.984524e-02
  1.160490e-01    1.535709e+00   6.868256e-02
  1.182594e-01    1.594661e+00   6.932971e-02
  1.204699e-01    1.625266e+00   6.934625e-02
  1.226803e-01    1.569971e+00   6.753677e-02
  1.248908e-01    1.554263e+00   6.659994e-02
  1.271012e-01    1.490389e+00   6.464624e-02
  1.293117e-01    1.507243e+00   6.445183e-02
  1.315222e-01    1.684702e+00   6.756390e-02
  1.337326e-01    1.605768e+00   6.541345e-02
  1.359431e-01    1.584730e+00   6.502157e-02
  1.381535e-01    1.563247e+00   6.544619e-02
  1.403640e-01    1.602046e+00   6.653943e-02
  1.425744e-01    1.591020e+00   6.641601e-02
  1.447849e-01    1.588104e+00   6.637039e-02
  1.469953e-01    1.576028e+00   6.607617e-02
  1.492058e-01    1.508987e+00   6.458038e-02
  1.514163e-01    1.571403e+00   6.579302e-02
  1.536267e-01    1.647464e+00   6.723497e-02
  1.558372e-01    1.698548e+00   6.811869e-02
  1.580476e-01    1.691311e+00   6.780850e-02
  1.602581e-01    1.602383e+00   6.583414e-02
  1.624685e-01    1.603719e+00   6.568123e-02
  1.646790e-01    1.680066e+00   6.703347e-02
  1.668895e-01    1.638654e+00   6.601096e-02
  1.690999e-01    1.696669e+00   6.696761e-02
  1.713104e-01    1.745146e+00   6.770680e-02
  1.735208e-01    1.776965e+00   6.810880e-02
  1.757313e-01    1.776088e+00   6.787860e-02
  1.779417e-01    1.769920e+00   6.753962e-02
  1.801522e-01    1.894496e+00   6.965356e-02
  1.823626e-01    1.928800e+00   7.004736e-02
  1.845731e-01    1.943196e+00   7.008056e-02
  1.867836e-01    1.901438e+00   6.908949e-02
  1.889940e-01    2.054438e+00   7.158073e-02
  1.912045e-01    2.005476e+00   7.048646e-02
  1.934149e-01    1.916059e+00   6.866659e-02
  1.956254e-01    1.915903e+00   6.843730e-02
  1.978358e-01    1.970553e+00   6.916866e-02
  2.000463e-01    1.930411e+00   6.823366e-02
  2.022568e-01    1.973573e+00   6.876580e-02
  2.044672e-01    1.988587e+00   6.879041e-02
  2.066777e-01    1.979384e+00   6.840324e-02
  2.088881e-01    1.939121e+00   6.748247e-02
  2.110986e-01    1.923142e+00   6.697341e-02
  2.133090e-01    1.875592e+00   6.592526e-02
  2.155195e-01    1.867400e+00   6.556288e-02
  2.177300e-01    1.980231e+00   6.698417e-02
  2.199404e-01    2.033485e+00   6.609030e-02
  2.221509e-01    1.966029e+00   6.391778e-02
  2.243613e-01    1.979580e+00   6.332458e-02
  2.265718e-01    2.002466e+00   6.298759e-02
  2.287822e-01    2.033802e+00   6.285020e-02
  2.309927e-01    2.132605e+00   6.377243e-02
  2.332031e-01    2.243991e+00   6.485679e-02
  2.354136e-01    2.168275e+00   6.323649e-02
  2.376241e-01    2.128646e+00   6.216964e-02
  2.398345e-01    2.117243e+00   6.154399e-02
  2.420450e-01    2.120314e+00   6.114849e-02
  2.442554e-01    2.072762e+00   6.004239e-02
  2.464659e-01    2.096976e+00   5.998661e-02
  2.486763e-01    2.160297e+00   6.048534e-02
  2.508868e-01    2.234598e+00   6.112866e-02
  2.530973e-01    2.155377e+00   5.966312e-02
  2.553077e-01    2.100567e+00   5.854235e-02
  2.575182e-01    2.126020e+00   5.854750e-02
  2.597286e-01    2.090956e+00   5.772517e-02
  2.619391e-01    2.117892e+00   5.776133e-02
  2.641495e-01    2.085013e+00   5.699401e-02
  2.663600e-01    2.064736e+00   5.640431e-02
  2.685704e-01    2.059386e+00   5.602583e-02
  2.707809e-01    2.052050e+00   5.562910e-02
  2.729914e-01    2.116533e+00   5.620194e-02
  2.752018e-01    2.083400e+00   5.547011e-02
  2.774123e-01    2.055194e+00   5.481189e-02
  2.796227e-01    2.022144e+00   5.410048e-02
  2.818332e-01    1.970425e+00   5.313769e-02
  2.840436e-01    2.113563e+00   5.476716e-02
  2.862541e-01    1.994952e+00   5.295248e-02
  2.884646e-01    1.961120e+00   5.225238e-02
  2.906750e-01    2.025996e+00   5.285779e-02
  2.928855e-01    2.017406e+00   5.250125e-02
  2.950959e-01    1.979851e+00   5.177136e-02
  2.973064e-01    1.960670e+00   5.128842e-02
  2.995168e-01    1.973629e+00   5.122457e-02
  3.017273e-01    2.010562e+00   5.147370e-02
  3.039377e-01    1.968887e+00   5.071438e-02
  3.061482e-01    2.002617e+00   5.092569e-02
  3.083587e-01    1.950104e+00   5.003605e-02
  3.105691e-01    1.926838e+00   4.952421e-02
  3.127796e-01    1.886523e+00   4.879738e-02
  3.149900e-01    1.874071e+00   4.843341e-02
  3.172005e-01    1.885281e+00   4.837942e-02
  3.194109e-01    1.894708e+00   4.830000e-02
  3.216214e-01    1.872653e+00   4.782215e-02
  3.238319e-01    1.897253e+00   4.794449e-02
  3.260423e-01    1.933900e+00   4.821255e-02
  3.282528e-01    1.885203e+00   4.741216e-02
  3.304632e-01    1.887753e+00   4.726041e-02
  3.326737e-01    1.829833e+00   4.634820e-02
  3.348841e-01    1.836481e+00   4.625225e-02
  3.370946e-01    1.848856e+00   4.623322e-02
  3.393050e-01    1.929973e+00   4.705761e-02
  3.415155e-01    1.911655e+00   4.665767e-02
  3.437260e-01    1.908136e+00   4.644195e-02
  3.459364e-01    1.844850e+00   4.549636e-02
  3.481469e-01    1.863992e+00   4.556486e-02
  3.503573e-01    1.881588e+00   4.561265e-02
  3.525678e-01    1.821461e+00   4.471803e-02
  3.547782e-01    1.813063e+00   4.445354e-02
  3.569887e-01    1.827965e+00   4.447772e-02
  3.591992e-01    1.877438e+00   4.491609e-02
  3.614096e-01    1.842264e+00   4.433907e-02
  3.636201e-01    1.819593e+00   4.391057e-02
  3.658305e-01    1.782854e+00   4.331674e-02
  3.680410e-01    1.804006e+00   4.342309e-02
  3.702514e-01    1.775407e+00   4.293264e-02
  3.724619e-01    1.785075e+00   4.290278e-02
  3.746724e-01    1.805787e+00   4.300698e-02
  3.768828e-01    1.852555e+00   4.341377e-02
  3.790933e-01    1.839674e+00   4.312161e-02
  3.813037e-01    1.787139e+00   4.236237e-02
  3.835142e-01    1.770832e+00   4.203017e-02
  3.857246e-01    1.757142e+00   4.173190e-02
  3.879351e-01    1.781145e+00   4.187996e-02
  3.901455e-01    1.816862e+00   4.216313e-02
  3.923560e-01    1.848410e+00   4.239244e-02
  3.945665e-01    1.832702e+00   4.207807e-02
  3.967769e-01    1.801153e+00   4.158368e-02
  3.989874e-01    1.847999e+00   4.198948e-02
  4.011978e-01    1.801209e+00   4.132701e-02
  4.034083e-01    1.824016e+00   4.146016e-02
  4.056187e-01    1.760077e+00   4.060156e-02
  4.078292e-01    1.790333e+00   4.082510e-02
  4.100397e-01    1.776394e+00   4.054170e-02
  4.122501e-01    1.772348e+00   4.037435e-02
  4.144606e-01    1.861679e+00   4.125661e-02
  4.166710e-01    1.841986e+00   4.091583e-02
  4.188815e-01    1.795043e+00   4.027177e-02
  4.210919e-01    1.791671e+00   4.011601e-02
  4.233024e-01    1.856669e+00   4.071708e-02
  4.255128e-01    1.791549e+00   3.988105e-02
  4.277233e-01    1.814386e+00   4.001911e-02
  4.299338e-01    1.794519e+00   3.968489e-02
  4.321442e-01    1.756817e+00   3.915344e-02
  4.343547e-01    1.787462e+00   3.938176e-02
  4.365651e-01    1.788119e+00   3.927710e-02
  4.387756e-01    1.787993e+00   3.916574e-02
  4.409860e-01    1.838967e+00   3.961005e-02
  4.431965e-01    1.804481e+00   3.912843e-02
  4.454070e-01    1.775325e+00   3.870301e-02
  4.476174e-01    1.832689e+00   3.921538e-02
  4.498279e-01    1.746201e+00   3.817473e-02
  4.520383e-01    1.717054e+00   3.775088e-02
  4.542488e-01    1.763395e+00   3.815377e-02
  4.564592e-01    1.764684e+00   3.806532e-02
  4.586697e-01    1.704762e+00   3.731417e-02
  4.608801e-01    1.738620e+00   3.758193e-02
  4.630906e-01    1.787365e+00   3.800425e-02
  4.653011e-01    1.741606e+00   3.741596e-02
  4.675115e-01    1.682703e+00   3.668093e-02
  4.697220e-01    1.753559e+00   3.734720e-02
  4.719324e-01    1.740833e+00   3.711521e-02
  4.741429e-01    1.710361e+00   3.669412e-02
  4.763533e-01    1.694306e+00   3.642788e-02
  4.785638e-01    1.739011e+00   3.680997e-02
  4.807743e-01    1.786063e+00   3.720977e-02
  4.829847e-01    1.739639e+00   3.663026e-02
  4.851952e-01    1.695350e+00   3.606944e-02
  4.874056e-01    1.721987e+00   3.626005e-02
  4.896161e-01    1.731394e+00   3.626877e-02
  4.918265e-01    1.705855e+00   3.591090e-02
  4.940370e-01    1.675959e+00   3.550695e-02
  4.962475e-01    1.711591e+00   3.579379e-02
  4.984579e-01    1.729379e+00   3.589065e-02
  5.006684e-01    1.733232e+00   3.584298e-02
  5.028788e-01    1.746987e+00   3.589774e-02
  5.050893e-01    1.785927e+00   3.620732e-02
  5.072997e-01    1.805104e+00   3.631331e-02
  5.095102e-01    1.716967e+00   3.533087e-02
  5.117206e-01    1.639381e+00   3.444127e-02
  5.139311e-01    1.694747e+00   3.493514e-02
  5.161416e-01    1.687666e+00   3.477972e-02
  5.183520e-01    1.673309e+00   3.454917e-02
  5.205625e-01    1.651224e+00   3.424001e-02
  5.227729e-01    1.641051e+00   3.405475e-02
  5.249834e-01    1.693983e+00   3.451928e-02
  5.271938e-01    1.737202e+00   3.487530e-02
  5.294043e-01    1.780694e+00   3.522768e-02
  5.316148e-01    1.743969e+00   3.478268e-02
  5.338252e-01    1.761781e+00   3.487996e-02
  5.360357e-01    1.767201e+00   3.485404e-02
  5.382461e-01    1.779347e+00   3.489454e-02
  5.404566e-01    1.807607e+00   3.509052e-02
  5.426670e-01    1.775484e+00   3.469899e-02
  5.448775e-01    1.739336e+00   3.426719e-02
  5.470879e-01    1.757049e+00   3.436443e-02
  5.492984e-01    1.770964e+00   3.442351e-02
  5.515089e-01    1.767135e+00   3.431003e-02
  5.537193e-01    1.744115e+00   3.401073e-02
  5.559298e-01    1.759039e+00   3.408098e-02
  5.581402e-01    1.831396e+00   3.469891e-02
  5.603507e-01    1.789331e+00   3.422346e-02
  5.625611e-01    1.813808e+00   3.438195e-02
  5.647716e-01    1.835042e+00   3.450754e-02
  5.669821e-01    1.801324e+00   3.411535e-02
  5.691925e-01    1.790565e+00   3.394029e-02
  5.714030e-01    1.777047e+00   3.373984e-02
  5.736134e-01    1.779641e+00   3.369265e-02
  5.758239e-01    1.723493e+00   3.308613e-02
  5.780343e-01    1.680734e+00   3.260399e-02
  5.802448e-01    1.724649e+00   3.295805e-02
  5.824552e-01    1.701707e+00   3.266943e-02
  5.846657e-01    1.646558e+00   3.206870e-02
  5.868762e-01    1.665251e+00   3.218307e-02
  5.890866e-01    1.653800e+00   3.200568e-02
  5.912971e-01    1.645187e+00   3.185615e-02
  5.935075e-01    1.662850e+00   3.196051e-02
  5.957180e-01    1.667030e+00   3.193499e-02
  5.979284e-01    1.686368e+00   3.205412e-02
  6.001389e-01    1.656511e+00   3.170440e-02
  6.023494e-01    1.652583e+00   3.160250e-02
  6.045598e-01    1.683143e+00   3.182840e-02
  6.067703e-01    1.716133e+00   3.207421e-02
  6.089807e-01    1.692542e+00   3.178894e-02
  6.111912e-01    1.672386e+00   3.153600e-02
  6.134016e-01    1.667560e+00   3.142765e-02
  6.156121e-01    1.698579e+00   3.165555e-02
  6.178226e-01    1.722004e+00   3.180998e-02
  6.200330e-01    1.716531e+00   3.169674e-02
  6.222435e-01    1.733276e+00   3.178789e-02
  6.244539e-01    1.680052e+00   3.123474e-02
  6.266644e-01    1.686038e+00   3.122929e-02
  6.288748e-01    1.723212e+00   3.151024e-02
  6.310853e-01    1.717042e+00   3.139272e-02
  6.332957e-01    1.724193e+00   3.139728e-02
  6.355062e-01    1.734447e+00   3.142932e-02
  6.377167e-01    1.754144e+00   3.154664e-02
  6.399271e-01    1.770888e+00   3.163611e-02
  6.421376e-01    1.734787e+00   3.125222e-02
  6.443480e-01    1.734407e+00   3.118935e-02
  6.465585e-01    1.718545e+00   3.098760e-02
  6.487689e-01    1.709150e+00   3.084441e-02
  6.509794e-01    1.709347e+00   3.078802e-02
  6.531899e-01    1.645848e+00   3.015395e-02
  6.554003e-01    1.653934e+00   3.017108e-02
  6.576108e-01    1.638487e+00   2.997396e-02
  6.598212e-01    1.611914e+00   2.967466e-02
  6.620317e-01    1.612714e+00   2.962700e-02
  6.642421e-01    1.604864e+00   2.950013e-02
  6.664526e-01    1.611450e+00   2.950614e-02
  6.686630e-01    1.636058e+00   2.967560e-02
  6.708735e-01    1.645121e+00   2.970312e-02
  6.730840e-01    1.583205e+00   2.908565e-02
  6.752944e-01    1.623267e+00   2.939779e-02
  6.775049e-01    1.640740e+00   2.950193e-02
  6.797153e-01    1.653682e+00   2.956443e-02
  6.819258e-01    1.638278e+00   2.937333e-02
  6.841362e-01    1.658196e+00   2.949822e-02
  6.863467e-01    1.617310e+00   2.908010e-02
  6.885572e-01    1.623278e+00   2.908149e-02
  6.907676e-01    1.618034e+00   2.898246e-02
  6.929781e-01    1.631983e+00   2.905538e-02
  6.951885e-01    1.615669e+00   2.885859e-02
  6.973990e-01    1.610647e+00   2.876277e-02
  6.996094e-01    1.589813e+00   2.852585e-02
  7.018199e-01    1.600046e+00   2.856728e-02
  7.040303e-01    1.622667e+00   2.871798e-02
  7.062408e-01    1.615804e+00   2.860700e-02
  7.084513e-01    1.618548e+00   2.858146e-02
  7.106617e-01    1.634302e+00   2.867033e-02
  7.128722e-01    1.607793e+00   2.838766e-02
  7.150826e-01    1.572183e+00   2.802314e-02
  7.172931e-01    1.599031e+00   2.821267e-02
  7.195035e-01    1.593313e+00   2.811377e-02
  7.217140e-01    1.613283e+00   2.833945e-02
  7.239245e-01    1.614178e+00   2.857690e-02
  7.261349e-01    1.584410e+00   2.842112e-02
  7.283454e-01    1.561147e+00   2.828377e-02
  7.305558e-01    1.572318e+00   2.843875e-02
  7.327663e-01    1.580710e+00   2.855712e-02
  7.349767e-01    1.579087e+00   2.855885e-02
  7.371872e-01    1.581772e+00   2.857191e-02
  7.393976e-01    1.573422e+00   2.848215e-02
  7.416081e-01    1.589462e+00   2.861070e-02
  7.438186e-01    1.590837e+00   2.847803e-02
  7.460290e-01    1.569420e+00   2.799193e-02
  7.482395e-01    1.581906e+00   2.793149e-02
  7.504499e-01    1.584771e+00   2.782007e-02
  7.526604e-01    1.552514e+00   2.741975e-02
  7.548708e-01    1.578428e+00   2.755812e-02
  7.570813e-01    1.566294e+00   2.740115e-02
  7.592918e-01    1.576736e+00   2.745715e-02
  7.615022e-01    1.554909e+00   2.723284e-02
  7.637127e-01    1.545290e+00   2.711600e-02
  7.659231e-01    1.580502e+00   2.739113e-02
  7.681336e-01    1.596210e+00   2.749511e-02
  7.703440e-01    1.582369e+00   2.734433e-02
  7.725545e-01    1.585326e+00   2.733888e-02
  7.747650e-01    1.626279e+00   2.765094e-02
  7.769754e-01    1.586759e+00   2.726002e-02
  7.791859e-01    1.581407e+00   2.716041e-02
  7.813963e-01    1.592757e+00   2.720487e-02
  7.836068e-01    1.625286e+00   2.742861e-02
  7.858172e-01    1.617189e+00   2.730905e-02
  7.880277e-01    1.644400e+00   2.748546e-02
  7.902381e-01    1.647240e+00   2.745921e-02
  7.924486e-01    1.614565e+00   2.713515e-02
  7.946591e-01    1.611015e+00   2.705683e-02
  7.968695e-01    1.618033e+00   2.706719e-02
  7.990800e-01    1.638202e+00   2.718669e-02
  8.012904e-01    1.611807e+00   2.692016e-02
  8.035009e-01    1.590861e+00   2.669705e-02
  8.057113e-01    1.623614e+00   2.692385e-02
  8.079218e-01    1.605330e+00   2.672563e-02
  8.101323e-01    1.600192e+00   2.663750e-02
  8.123427e-01    1.615193e+00   2.671644e-02
  8.145532e-01    1.616998e+00   2.668563e-02
  8.167636e-01    1.640747e+00   2.683567e-02
  8.189741e-01    1.658541e+00   2.693585e-02
  8.211845e-01    1.597233e+00   2.638901e-02
  8.233950e-01    1.615125e+00   2.649323e-02
  8.256054e-01    1.632287e+00   2.658949e-02
  8.278159e-01    1.630176e+00   2.652842e-02
  8.300264e-01    1.648333e+00   2.663252e-02
  8.322368e-01    1.671144e+00   2.677262e-02
  8.344473e-01    1.692947e+00   2.690263e-02
  8.366577e-01    1.651828e+00   2.653116e-02
  8.388682e-01    1.647430e+00   2.645347e-02
  8.410786e-01    1.657986e+00   2.649577e-02
  8.432891e-01    1.679605e+00   2.662561e-02
  8.454996e-01    1.663820e+00   2.645826e-02
  8.477100e-01    1.691301e+00   2.663352e-02
  8.499205e-01    1.628595e+00   2.609412e-02
  8.521309e-01    1.621669e+00   2.599793e-02
  8.543414e-01    1.661270e+00   2.627241e-02
  8.565518e-01    1.631751e+00   2.599742e-02
  8.587623e-01    1.631420e+00   2.595430e-02
  8.609727e-01    1.611693e+00   2.575691e-02
  8.631832e-01    1.649194e+00   2.601466e-02
  8.653937e-01    1.660497e+00   2.606355e-02
  8.676041e-01    1.660395e+00   2.602343e-02
  8.698146e-01    1.630636e+00   2.574975e-02
  8.720250e-01    1.617327e+00   2.560536e-02
  8.742355e-01    1.626229e+00   2.563665e-02
  8.764459e-01    1.629765e+00   2.562535e-02
  8.786564e-01    1.618345e+00   2.549735e-02
  8.808669e-01    1.637913e+00   2.561215e-02
  8.830773e-01    1.620873e+00   2.544021e-02
  8.852878e-01    1.637125e+00   2.552910e-02
  8.874982e-01    1.612045e+00   2.529603e-02
  8.897087e-01    1.637516e+00   2.545698e-02
  8.919191e-01    1.641232e+00   2.544763e-02
  8.941296e-01    1.620830e+00   2.525143e-02
  8.963401e-01    1.605073e+00   2.509192e-02
  8.985505e-01    1.584154e+00   2.489110e-02
  9.007610e-01    1.611959e+00   2.507168e-02
  9.029714e-01    1.625949e+00   2.514415e-02
  9.051819e-01    1.584493e+00   2.478447e-02
  9.073923e-01    1.627732e+00   2.508348e-02
  9.096028e-01    1.604702e+00   2.487043e-02
  9.118132e-01    1.639157e+00   2.509934e-02
  9.140237e-01    1.610356e+00   2.484116e-02
  9.162342e-01    1.602880e+00   2.474881e-02
  9.184446e-01    1.622480e+00   2.486366e-02
  9.206551e-01    1.600142e+00   2.465632e-02
  9.228655e-01    1.615305e+00   2.473745e-02
  9.250760e-01    1.614617e+00   2.469670e-02
  9.272864e-01    1.589937e+00   2.447310e-02
  9.294969e-01    1.586746e+00   2.441289e-02
  9.317074e-01    1.606286e+00   2.452802e-02
  9.339178e-01    1.647424e+00   2.480621e-02
  9.361283e-01    1.655040e+00   2.482683e-02
  9.383387e-01    1.657316e+00   2.481011e-02
  9.405492e-01    1.636994e+00   2.462309e-02
  9.427596e-01    1.660948e+00   2.476688e-02
  9.449701e-01    1.654313e+00   2.468378e-02
  9.471805e-01    1.693949e+00   2.494236e-02
  9.493910e-01    1.687546e+00   2.486101e-02
  9.516015e-01    1.702915e+00   2.493908e-02
  9.538119e-01    1.740394e+00   2.517749e-02
  9.560224e-01    1.729984e+00   2.506674e-02
  9.582328e-01    1.761423e+00   2.525956e-02
  9.604433e-01    1.773548e+00   2.531044e-02
  9.626537e-01    1.765252e+00   2.521725e-02
  9.648642e-01    1.794506e+00   2.539050e-02
  9.670747e-01    1.800277e+00   2.539622e-02
  9.692851e-01    1.847726e+00   2.569452e-02
  9.714956e-01    1.878614e+00   2.587187e-02
  9.737060e-01    1.836110e+00   2.554394e-02
  9.759165e-01    1.843191e+00   2.555704e-02
  9.781269e-01    1.854826e+00   2.560404e-02
  9.803374e-01    1.852929e+00   2.555554e-02
  9.825478e-01    1.853541e+00   2.552607e-02
  9.847583e-01    1.799232e+00   2.511516e-02
  9.869688e-01    1.815820e+00   2.519689e-02
  9.891792e-01    1.790612e+00   2.498815e-02
  9.913897e-01    1.735946e+00   2.457055e-02
  9.936001e-01    1.727170e+00   2.447626e-02
  9.958106e-01    1.756279e+00   2.464813e-02
  9.980210e-01    1.705702e+00   2.425911e-02
  1.000231e+00    1.706384e+00   2.439685e-02
  1.002442e+00    1.667556e+00   2.424587e-02
  1.004652e+00    1.651935e+00   2.419933e-02
  1.006863e+00    1.632841e+00   2.410901e-02
  1.009073e+00    1.662466e+00   2.436394e-02
  1.011284e+00    1.674216e+00   2.448261e-02
  1.013494e+00    1.639142e+00   2.424881e-02
  1.015705e+00    1.657189e+00   2.440497e-02
  1.017915e+00    1.670813e+00   2.452197e-02
  1.020126e+00    1.684590e+00   2.463952e-02
  1.022336e+00    1.642975e+00   2.434527e-02
  1.024547e+00    1.622286e+00   2.420297e-02
  1.026757e+00    1.599530e+00   2.404113e-02
  1.028967e+00    1.575350e+00   2.386649e-02
  1.031178e+00    1.557816e+00   2.373949e-02
  1.033388e+00    1.606632e+00   2.411375e-02
  1.035599e+00    1.581322e+00   2.392656e-02
  1.037809e+00    1.565346e+00   2.380870e-02
  1.040020e+00    1.540468e+00   2.361999e-02
  1.042230e+00    1.576205e+00   2.389439e-02
  1.044441e+00    1.598099e+00   2.405954e-02
  1.046651e+00    1.585387e+00   2.396382e-02
  1.048862e+00    1.664744e+00   2.455541e-02
  1.051072e+00    1.745684e+00   2.514273e-02
  1.053282e+00    1.759435e+00   2.524057e-02
  1.055493e+00    1.700633e+00   2.481061e-02
  1.057703e+00    1.648621e+00   2.442668e-02
  1.059914e+00    1.635552e+00   2.432518e-02
  1.062124e+00    1.647233e+00   2.440762e-02
  1.064335e+00    1.698494e+00   2.478080e-02
  1.066545e+00    1.750785e+00   2.515286e-02
  1.068756e+00    1.753227e+00   2.516633e-02
  1.070966e+00    1.753920e+00   2.516420e-02
  1.073177e+00    1.710858e+00   2.484684e-02
  1.075387e+00    1.621394e+00   2.418300e-02
  1.077597e+00    1.583267e+00   2.388941e-02
  1.079808e+00    1.565128e+00   2.361494e-02
  1.082018e+00    1.541566e+00   2.324242e-02
  1.084229e+00    1.552826e+00   2.321368e-02
  1.086439e+00    1.529698e+00   2.295051e-02
  1.088650e+00    1.547511e+00   2.300571e-02
  1.090860e+00    1.489173e+00   2.249947e-02
  1.093071e+00    1.463661e+00   2.224346e-02
  1.095281e+00    1.480769e+00   2.231510e-02
  1.097492e+00    1.512661e+00   2.249799e-02
  1.099702e+00    1.464830e+00   2.208759e-02
  1.101912e+00    1.490742e+00   2.223238e-02
  1.104123e+00    1.454461e+00   2.191165e-02
  1.106333e+00    1.459789e+00   2.190690e-02
  1.108544e+00    1.446581e+00   2.176307e-02
  1.110754e+00    1.435986e+00   2.164004e-02
  1.112965e+00    1.450217e+00   2.170609e-02
  1.115175e+00    1.430036e+00   2.151321e-02
  1.117386e+00    1.411735e+00   2.133588e-02
  1.119596e+00    1.425850e+00   2.140421e-02
  1.121807e+00    1.442811e+00   2.149188e-02
  1.124017e+00    1.396359e+00   2.110658e-02
  1.126228e+00    1.416069e+00   2.121910e-02
  1.128438e+00    1.407002e+00   2.111423e-02
  1.130648e+00    1.401005e+00   2.103484e-02
  1.132859e+00    1.405339e+00   2.103287e-02
  1.135069e+00    1.390941e+00   2.089017e-02
  1.137280e+00    1.382726e+00   2.079545e-02
  1.139490e+00    1.429721e+00   2.111233e-02
  1.141701e+00    1.396878e+00   2.083519e-02
  1.143911e+00    1.354333e+00   2.048390e-02
  1.146122e+00    1.365337e+00   2.053511e-02
  1.148332e+00    1.371615e+00   2.055048e-02
  1.150543e+00    1.392288e+00   2.067377e-02
  1.152753e+00    1.397203e+00   2.067916e-02
  1.154963e+00    1.389749e+00   2.059269e-02
  1.157174e+00    1.384013e+00   2.051988e-02
  1.159384e+00    1.370188e+00   2.038732e-02
  1.161595e+00    1.349358e+00   2.020211e-02
  1.163805e+00    1.384818e+00   2.043643e-02
  1.166016e+00    1.375191e+00   2.033574e-02
  1.168226e+00    1.412765e+00   2.058225e-02
  1.170437e+00    1.421403e+00   2.061588e-02
  1.172647e+00    1.384423e+00   2.031687e-02
  1.174858e+00    1.369173e+00   2.017647e-02
  1.177068e+00    1.385971e+00   2.027138e-02
  1.179278e+00    1.394574e+00   2.030528e-02
  1.181489e+00    1.389962e+00   2.024437e-02
  1.183699e+00    1.396949e+00   2.026724e-02
  1.185910e+00    1.356734e+00   1.994562e-02
  1.188120e+00    1.387688e+00   2.014486e-02
  1.190331e+00    1.392518e+00   2.015277e-02
  1.192541e+00    1.373572e+00   1.998765e-02
  1.194752e+00    1.375541e+00   1.997468e-02
  1.196962e+00    1.379019e+00   1.997392e-02
  1.199173e+00    1.374354e+00   1.991337e-02
  1.201383e+00    1.362157e+00   1.979753e-02
  1.203593e+00    1.374789e+00   1.986405e-02
  1.205804e+00    1.371126e+00   1.981148e-02
  1.208014e+00    1.357234e+00   1.968391e-02
  1.210225e+00    1.371207e+00   1.975948e-02
  1.212435e+00    1.335847e+00   1.947838e-02
  1.214646e+00    1.346059e+00   1.952660e-02
  1.216856e+00    1.361814e+00   1.961496e-02
  1.219067e+00    1.344973e+00   1.946889e-02
  1.221277e+00    1.349699e+00   1.947802e-02
  1.223488e+00    1.359533e+00   1.952303e-02
  1.225698e+00    1.346866e+00   1.940500e-02
  1.227909e+00    1.340360e+00   1.932800e-02
  1.230119e+00    1.360841e+00   1.944314e-02
  1.232329e+00    1.347996e+00   1.932047e-02
  1.234540e+00    1.322129e+00   1.910422e-02
  1.236750e+00    1.339122e+00   1.919645e-02
  1.238961e+00    1.357478e+00   1.930052e-02
  1.241171e+00    1.355278e+00   1.926066e-02
  1.243382e+00    1.339479e+00   1.912463e-02
  1.245592e+00    1.333163e+00   1.905555e-02
  1.247803e+00    1.345588e+00   1.912053e-02
  1.250013e+00    1.341580e+00   1.906856e-02
  1.252224e+00    1.342642e+00   1.905292e-02
  1.254434e+00    1.340318e+00   1.901276e-02
  1.256644e+00    1.353052e+00   1.907963e-02
  1.258855e+00    1.366002e+00   1.914730e-02
  1.261065e+00    1.392831e+00   1.931070e-02
  1.263276e+00    1.355979e+00   1.903054e-02
  1.265486e+00    1.356388e+00   1.901046e-02
  1.267697e+00    1.362028e+00   1.902683e-02
  1.269907e+00    1.347075e+00   1.889942e-02
  1.272118e+00    1.359176e+00   1.896148e-02
  1.274328e+00    1.371860e+00   1.902681e-02
  1.276539e+00    1.366351e+00   1.896568e-02
  1.278749e+00    1.304904e+00   1.851238e-02
  1.280959e+00    1.357498e+00   1.885916e-02
  1.283170e+00    1.350543e+00   1.878837e-02
  1.285380e+00    1.382958e+00   1.898976e-02
  1.287591e+00    1.352890e+00   1.876017e-02
  1.289801e+00    1.346592e+00   1.869524e-02
  1.292012e+00    1.336636e+00   1.860900e-02
  1.294222e+00    1.347616e+00   1.866903e-02
  1.296433e+00    1.363604e+00   1.876377e-02
  1.298643e+00    1.359927e+00   1.872193e-02
  1.300854e+00    1.335220e+00   1.853476e-02
  1.303064e+00    1.335568e+00   1.851804e-02
  1.305274e+00    1.356954e+00   1.864423e-02
  1.307485e+00    1.366575e+00   1.868854e-02
  1.309695e+00    1.353791e+00   1.857864e-02
  1.311906e+00    1.357717e+00   1.858380e-02
  1.314116e+00    1.356998e+00   1.855802e-02
  1.316327e+00    1.370608e+00   1.862901e-02
  1.318537e+00    1.347359e+00   1.844846e-02
  1.320748e+00    1.384424e+00   1.867866e-02
  1.322958e+00    1.376540e+00   1.860469e-02
  1.325169e+00    1.398843e+00   1.873340e-02
  1.327379e+00    1.376207e+00   1.855920e-02
  1.329589e+00    1.361592e+00   1.843924e-02
  1.331800e+00    1.366948e+00   1.845464e-02
  1.334010e+00    1.364754e+00   1.841905e-02
  1.336221e+00    1.359425e+00   1.836122e-02
  1.338431e+00    1.376873e+00   1.845762e-02
  1.340642e+00    1.348795e+00   1.833258e-02
  1.342852e+00    1.337449e+00   1.835551e-02
  1.345063e+00    1.346949e+00   1.847001e-02
  1.347273e+00    1.343317e+00   1.848026e-02
  1.349484e+00    1.346523e+00   1.852993e-02
  1.351694e+00    1.342007e+00   1.852149e-02
  1.353905e+00    1.346386e+00   1.856963e-02
  1.356115e+00    1.338737e+00   1.853180e-02
  1.358325e+00    1.325307e+00   1.845182e-02
  1.360536e+00    1.318322e+00   1.841459e-02
  1.362746e+00    1.350671e+00   1.864874e-02
  1.364957e+00    1.324951e+00   1.847792e-02
  1.367167e+00    1.328716e+00   1.851126e-02
  1.369378e+00    1.330118e+00   1.852699e-02
  1.371588e+00    1.337547e+00   1.858380e-02
  1.373799e+00    1.330122e+00   1.853579e-02
  1.376009e+00    1.344551e+00   1.863946e-02
  1.378220e+00    1.328536e+00   1.853064e-02
  1.380430e+00    1.327315e+00   1.852483e-02
  1.382640e+00    1.306836e+00   1.838227e-02
  1.384851e+00    1.303550e+00   1.836001e-02
  1.387061e+00    1.310500e+00   1.840918e-02
  1.389272e+00    1.320807e+00   1.848165e-02
  1.391482e+00    1.301995e+00   1.834888e-02
  1.393693e+00    1.297549e+00   1.831666e-02
  1.395903e+00    1.287654e+00   1.824518e-02
  1.398114e+00    1.304171e+00   1.836042e-02
  1.400324e+00    1.309466e+00   1.839552e-02
  1.402535e+00    1.296167e+00   1.829954e-02
  1.404745e+00    1.271014e+00   1.811875e-02
  1.406955e+00    1.257089e+00   1.801654e-02
  1.409166e+00    1.275275e+00   1.814307e-02
  1.411376e+00    1.285199e+00   1.821041e-02
  1.413587e+00    1.272177e+00   1.811409e-02
  1.415797e+00    1.285796e+00   1.820723e-02
  1.418008e+00    1.275554e+00   1.809262e-02
  1.420218e+00    1.279575e+00   1.797081e-02
  1.422429e+00    1.275317e+00   1.785540e-02
  1.424639e+00    1.247225e+00   1.759355e-02
  1.426850e+00    1.275189e+00   1.773486e-02
  1.429060e+00    1.279864e+00   1.771817e-02
  1.431270e+00    1.258370e+00   1.752467e-02
  1.433481e+00    1.266325e+00   1.753906e-02
  1.435691e+00    1.263207e+00   1.747912e-02
  1.437902e+00    1.310502e+00   1.776630e-02
  1.440112e+00    1.300949e+00   1.766565e-02
  1.442323e+00    1.296654e+00   1.760309e-02
  1.444533e+00    1.291925e+00   1.753812e-02
  1.446744e+00    1.288526e+00   1.748368e-02
  1.448954e+00    1.295117e+00   1.749784e-02
  1.451165e+00    1.295969e+00   1.747355e-02
  1.453375e+00    1.289792e+00   1.740359e-02
  1.455586e+00    1.284157e+00   1.733720e-02
  1.457796e+00    1.296315e+00   1.739130e-02
  1.460006e+00    1.297317e+00   1.737046e-02
  1.462217e+00    1.291335e+00   1.730394e-02
  1.464427e+00    1.285417e+00   1.723847e-02
  1.466638e+00    1.275355e+00   1.714549e-02
  1.468848e+00    1.254456e+00   1.697923e-02
  1.471059e+00    1.272468e+00   1.707557e-02
  1.473269e+00    1.294026e+00   1.719500e-02
  1.475480e+00    1.278403e+00   1.706703e-02
  1.477690e+00    1.274721e+00   1.701855e-02
  1.479901e+00    1.253834e+00   1.685482e-02
  1.482111e+00    1.280335e+00   1.700857e-02
  1.484321e+00    1.240689e+00   1.672030e-02
  1.486532e+00    1.254221e+00   1.678900e-02
  1.488742e+00    1.251050e+00   1.674523e-02
  1.490953e+00    1.246600e+00   1.669300e-02
  1.493163e+00    1.265900e+00   1.679939e-02
  1.495374e+00    1.288503e+00   1.692702e-02
  1.497584e+00    1.280661e+00   1.685361e-02
  1.499795e+00    1.288874e+00   1.688568e-02
  1.502005e+00    1.278821e+00   1.679786e-02
  1.504216e+00    1.300439e+00   1.691787e-02
  1.506426e+00    1.249057e+00   1.655954e-02
  1.508636e+00    1.247427e+00   1.652835e-02
  1.510847e+00    1.271854e+00   1.666744e-02
  1.513057e+00    1.276201e+00   1.667062e-02
  1.515268e+00    1.279060e+00   1.666332e-02
  1.517478e+00    1.279006e+00   1.663756e-02
  1.519689e+00    1.316828e+00   1.685619e-02
  1.521899e+00    1.280102e+00   1.659613e-02
  1.524110e+00    1.286364e+00   1.661606e-02
  1.526320e+00    1.262701e+00   1.644287e-02
  1.528531e+00    1.264180e+00   1.643261e-02
  1.530741e+00    1.256424e+00   1.636294e-02
  1.532951e+00    1.245551e+00   1.627242e-02
  1.535162e+00    1.264669e+00   1.648396e-02
  1.537372e+00    1.230786e+00   1.632805e-02
  1.539583e+00    1.247777e+00   1.647458e-02
  1.541793e+00    1.273685e+00   1.665176e-02
  1.544004e+00    1.266613e+00   1.660573e-02
  1.546214e+00    1.275674e+00   1.666351e-02
  1.548425e+00    1.247307e+00   1.647745e-02
  1.550635e+00    1.243857e+00   1.646432e-02
  1.552846e+00    1.253271e+00   1.653619e-02
  1.555056e+00    1.253103e+00   1.649348e-02
  1.557266e+00    1.231144e+00   1.623846e-02
  1.559477e+00    1.231753e+00   1.618365e-02
  1.561687e+00    1.242541e+00   1.622374e-02
  1.563898e+00    1.231976e+00   1.613754e-02
  1.566108e+00    1.225061e+00   1.607634e-02
  1.568319e+00    1.263322e+00   1.630973e-02
  1.570529e+00    1.261255e+00   1.627107e-02
  1.572740e+00    1.286674e+00   1.640613e-02
  1.574950e+00    1.290577e+00   1.640422e-02
  1.577161e+00    1.263049e+00   1.620266e-02
  1.579371e+00    1.249416e+00   1.609126e-02
  1.581582e+00    1.235556e+00   1.598206e-02
  1.583792e+00    1.242878e+00   1.601133e-02
  1.586002e+00    1.228271e+00   1.589946e-02
  1.588213e+00    1.246629e+00   1.600058e-02
  1.590423e+00    1.235699e+00   1.591028e-02
  1.592634e+00    1.256617e+00   1.602265e-02
  1.594844e+00    1.242323e+00   1.590988e-02
  1.597055e+00    1.233633e+00   1.583370e-02
  1.599265e+00    1.255449e+00   1.595226e-02
  1.601476e+00    1.246563e+00   1.587537e-02
  1.603686e+00    1.226030e+00   1.572442e-02
  1.605897e+00    1.224669e+00   1.569564e-02
  1.608107e+00    1.206193e+00   1.555748e-02
  1.610317e+00    1.233795e+00   1.571519e-02
  1.612528e+00    1.236312e+00   1.571205e-02
  1.614738e+00    1.222665e+00   1.560620e-02
  1.616949e+00    1.212662e+00   1.552336e-02
  1.619159e+00    1.216931e+00   1.553198e-02
  1.621370e+00    1.206758e+00   1.544857e-02
  1.623580e+00    1.190706e+00   1.532732e-02
  1.625791e+00    1.176452e+00   1.521727e-02
  1.628001e+00    1.191114e+00   1.529364e-02
  1.630212e+00    1.170950e+00   1.514605e-02
  1.632422e+00    1.161795e+00   1.506901e-02
  1.634632e+00    1.150580e+00   1.497903e-02
  1.636843e+00    1.158293e+00   1.501175e-02
  1.639053e+00    1.152690e+00   1.495828e-02
  1.641264e+00    1.155705e+00   1.496083e-02
  1.643474e+00    1.156029e+00   1.494557e-02
  1.645685e+00    1.162639e+00   1.497155e-02
  1.647895e+00    1.172335e+00   1.501713e-02
  1.650106e+00    1.134619e+00   1.475673e-02
  1.652316e+00    1.126015e+00   1.468432e-02
  1.654527e+00    1.150260e+00   1.482487e-02
  1.656737e+00    1.121948e+00   1.462481e-02
  1.658947e+00    1.142968e+00   1.474481e-02
  1.661158e+00    1.122986e+00   1.459914e-02
  1.663368e+00    1.132288e+00   1.464336e-02
  1.665579e+00    1.138408e+00   1.466661e-02
  1.667789e+00    1.163288e+00   1.480943e-02
  1.670000e+00    1.153328e+00   1.473015e-02
  1.672210e+00    1.108966e+00   1.442820e-02
  1.674421e+00    1.095716e+00   1.432648e-02
  1.676631e+00    1.089354e+00   1.426904e-02
  1.678842e+00    1.117818e+00   1.443834e-02
  1.681052e+00    1.133526e+00   1.452377e-02
  1.683263e+00    1.103422e+00   1.431441e-02
  1.685473e+00    1.066948e+00   1.406080e-02
  1.687683e+00    1.084664e+00   1.416160e-02
  1.689894e+00    1.074439e+00   1.407899e-02
  1.692104e+00    1.078804e+00   1.409263e-02
  1.694315e+00    1.060723e+00   1.395960e-02
  1.696525e+00    1.069999e+00   1.400535e-02
  1.698736e+00    1.064541e+00   1.395476e-02
  1.700946e+00    1.058268e+00   1.389847e-02
  1.703157e+00    1.038458e+00   1.375327e-02
  1.705367e+00    1.031756e+00   1.369445e-02
  1.707578e+00    1.036914e+00   1.371415e-02
  1.709788e+00    1.024934e+00   1.362073e-02
  1.711998e+00    1.019817e+00   1.357184e-02
  1.714209e+00    1.019446e+00   1.355506e-02
  1.716419e+00    1.045431e+00   1.371238e-02
  1.718630e+00    1.048884e+00   1.372063e-02
  1.720840e+00    1.045345e+00   1.368317e-02
  1.723051e+00    1.031535e+00   1.357857e-02
  1.725261e+00    1.017504e+00   1.347125e-02
  1.727472e+00    1.033796e+00   1.356438e-02
  1.729682e+00    1.016374e+00   1.343615e-02
  1.731893e+00    1.010682e+00   1.338456e-02
  1.734103e+00    1.008356e+00   1.335537e-02
  1.736313e+00    1.005521e+00   1.332258e-02
  1.738524e+00    9.902726e-01   1.320742e-02
  1.740734e+00    9.876757e-01   1.317647e-02
  1.742945e+00    1.000932e+00   1.325112e-02
  1.745155e+00    9.864293e-01   1.314137e-02
  1.747366e+00    9.977490e-01   1.320267e-02
  1.749576e+00    9.768754e-01   1.305023e-02
  1.751787e+00    9.774458e-01   1.304073e-02
  1.753997e+00    9.777557e-01   1.302944e-02
  1.756208e+00    9.622330e-01   1.291248e-02
  1.758418e+00    9.568149e-01   1.286306e-02
  1.760628e+00    9.658132e-01   1.291009e-02
  1.762839e+00    9.584436e-01   1.284755e-02
  1.765049e+00    9.704822e-01   1.291482e-02
  1.767260e+00    9.641604e-01   1.285984e-02
  1.769470e+00    9.368551e-01   1.266359e-02
  1.771681e+00    9.504590e-01   1.274206e-02
  1.773891e+00    9.404968e-01   1.266213e-02
  1.776102e+00    9.504687e-01   1.271617e-02
  1.778312e+00    9.704838e-01   1.283647e-02
  1.780523e+00    9.730855e-01   1.284072e-02
  1.782733e+00    9.780867e-01   1.286073e-02
  1.784944e+00    9.781479e-01   1.284796e-02
  1.787154e+00    9.778363e-01   1.283306e-02
  1.789364e+00    1.032037e+00   1.317077e-02
  1.791575e+00    1.057917e+00   1.332154e-02
  1.793785e+00    1.008141e+00   1.299141e-02
  1.795996e+00    9.838898e-01   1.282124e-02
  1.798206e+00    9.915841e-01   1.285828e-02
  1.800417e+00    9.790533e-01   1.276367e-02
  1.802627e+00    9.730677e-01   1.271227e-02
  1.804838e+00    9.826086e-01   1.276188e-02
  1.807048e+00    9.414229e-01   1.247851e-02
  1.809259e+00    9.207897e-01   1.232728e-02
  1.811469e+00    9.296184e-01   1.237107e-02
  1.813679e+00    9.203497e-01   1.229412e-02
  1.815890e+00    9.046445e-01   1.217396e-02
  1.818100e+00    9.249533e-01   1.229451e-02
  1.820311e+00    9.161091e-01   1.222065e-02
  1.822521e+00    9.128682e-01   1.218397e-02
  1.824732e+00    9.207770e-01   1.222156e-02
  1.826942e+00    9.248006e-01   1.223566e-02
  1.829153e+00    8.842350e-01   1.195263e-02
  1.831363e+00    8.774390e-01   1.189457e-02
  1.833574e+00    9.105871e-01   1.210533e-02
  1.835784e+00    8.708473e-01   1.182687e-02
  1.837994e+00    8.585261e-01   1.173129e-02
  1.840205e+00    8.823727e-01   1.188189e-02
  1.842415e+00    8.869718e-01   1.190094e-02
  1.844626e+00    8.822147e-01   1.185737e-02
  1.846836e+00    8.797700e-01   1.182942e-02
  1.849047e+00    8.670980e-01   1.173229e-02
  1.851257e+00    9.098929e-01   1.200848e-02
  1.853468e+00    9.229012e-01   1.208493e-02
  1.855678e+00    8.987585e-01   1.191675e-02
  1.857889e+00    8.833186e-01   1.180531e-02
  1.860099e+00    8.728957e-01   1.172675e-02
  1.862309e+00    8.857561e-01   1.180416e-02
  1.864520e+00    8.784044e-01   1.174639e-02
  1.866730e+00    8.646587e-01   1.164469e-02
  1.868941e+00    8.575382e-01   1.158566e-02
  1.871151e+00    8.664814e-01   1.163442e-02
  1.873362e+00    8.791821e-01   1.170785e-02
  1.875572e+00    8.662913e-01   1.161066e-02
  1.877783e+00    8.657588e-01   1.159554e-02
  1.879993e+00    8.708556e-01   1.161830e-02
  1.882204e+00    8.700023e-01   1.160155e-02
  1.884414e+00    8.969356e-01   1.176834e-02
  1.886624e+00    8.806658e-01   1.164983e-02
  1.888835e+00    8.994066e-01   1.176177e-02
  1.891045e+00    8.701906e-01   1.155810e-02
  1.893256e+00    8.398880e-01   1.134397e-02
  1.895466e+00    8.448799e-01   1.136640e-02
  1.897677e+00    8.470177e-01   1.136978e-02
  1.899887e+00    8.384511e-01   1.130113e-02
  1.902098e+00    8.358551e-01   1.127276e-02
  1.904308e+00    8.280683e-01   1.120954e-02
  1.906519e+00    8.411765e-01   1.128701e-02
  1.908729e+00    8.444313e-01   1.129812e-02
  1.910940e+00    8.317128e-01   1.120157e-02
  1.913150e+00    8.294520e-01   1.117573e-02
  1.915360e+00    8.059319e-01   1.100563e-02
  1.917571e+00    8.204710e-01   1.109359e-02
  1.919781e+00    8.146608e-01   1.104361e-02
  1.921992e+00    8.282142e-01   1.112441e-02
  1.924202e+00    8.337309e-01   1.115055e-02
  1.926413e+00    8.161690e-01   1.102217e-02
  1.928623e+00    8.142073e-01   1.099839e-02
  1.930834e+00    8.181018e-01   1.101418e-02
  1.933044e+00    8.010472e-01   1.088821e-02
  1.935255e+00    7.863067e-01   1.077734e-02
  1.937465e+00    8.169192e-01   1.097469e-02
  1.939675e+00    8.209317e-01   1.099068e-02
  1.941886e+00    8.075840e-01   1.089067e-02
  1.944096e+00    8.076565e-01   1.088094e-02
  1.946307e+00    8.017529e-01   1.083077e-02
  1.948517e+00    7.975833e-01   1.079213e-02
  1.950728e+00    8.129754e-01   1.088543e-02
  1.952938e+00    8.088186e-01   1.084741e-02
  1.955149e+00    8.061743e-01   1.081937e-02
  1.957359e+00    8.171200e-01   1.088239e-02
  1.959570e+00    7.913847e-01   1.069881e-02
  1.961780e+00    7.919568e-01   1.069276e-02
  1.963990e+00    7.907816e-01   1.067472e-02
  1.966201e+00    7.996017e-01   1.072396e-02
  1.968411e+00    8.007423e-01   1.072139e-02
  1.970622e+00    7.975506e-01   1.068984e-02
  1.972832e+00    7.893099e-01   1.062450e-02
  1.975043e+00    7.995837e-01   1.068327e-02
  1.977253e+00    7.970408e-01   1.065626e-02
  1.979464e+00    8.135250e-01   1.075565e-02
  1.981674e+00    8.219271e-01   1.080055e-02
  1.983885e+00    7.928529e-01   1.059773e-02
  1.986095e+00    7.812499e-01   1.051016e-02
  1.988305e+00    7.869530e-01   1.053853e-02
  1.990516e+00    7.904221e-01   1.055172e-02
  1.992726e+00    7.800607e-01   1.047267e-02
  1.994937e+00    7.630635e-01   1.034790e-02
  1.997147e+00    7.679159e-01   1.037106e-02
  1.999358e+00    7.909463e-01   1.051548e-02
  2.001568e+00    7.662838e-01   1.033948e-02
  2.003779e+00    7.748318e-01   1.038506e-02
  2.005989e+00    7.648827e-01   1.030619e-02
  2.008200e+00    7.580472e-01   1.024861e-02
  2.010410e+00    7.659122e-01   1.028991e-02
  2.012621e+00    7.668673e-01   1.028464e-02
  2.014831e+00    7.641782e-01   1.025513e-02
  2.017041e+00    7.744776e-01   1.031359e-02
  2.019252e+00    7.631611e-01   1.022801e-02
  2.021462e+00    7.724251e-01   1.028034e-02
  2.023673e+00    7.809874e-01   1.032769e-02
  2.025883e+00    7.769188e-01   1.029114e-02
  2.028094e+00    7.562530e-01   1.014374e-02
  2.030304e+00    7.754658e-01   1.026217e-02
  2.032515e+00    7.529829e-01   1.010307e-02
  2.034725e+00    7.479962e-01   1.006017e-02
  2.036936e+00    7.559957e-01   1.010450e-02
  2.039146e+00    7.569414e-01   1.010125e-02
  2.041356e+00    7.562100e-01   1.008673e-02
  2.043567e+00    7.425088e-01   9.985697e-03
  2.045777e+00    7.617419e-01   1.010492e-02
  2.047988e+00    7.563764e-01   1.005989e-02
  2.050198e+00    7.513169e-01   1.001778e-02
  2.052409e+00    7.542512e-01   1.002965e-02
  2.054619e+00    7.711980e-01   1.013422e-02
  2.056830e+00    7.768990e-01   1.016433e-02
  2.059040e+00    7.582692e-01   1.003416e-02
  2.061251e+00    7.822943e-01   1.018448e-02
  2.063461e+00    7.798342e-01   1.016073e-02
  2.065671e+00    7.629228e-01   1.004113e-02
  2.067882e+00    7.534044e-01   9.969276e-03
  2.070092e+00    7.518411e-01   9.949689e-03
  2.072303e+00    7.697257e-01   1.005805e-02
  2.074513e+00    7.756773e-01   1.008737e-02
  2.076724e+00    7.668087e-01   1.001994e-02
  2.078934e+00    7.522786e-01   9.915482e-03
  2.081145e+00    7.588980e-01   9.949841e-03
  2.083355e+00    7.438095e-01   9.841238e-03
  2.085566e+00    7.397484e-01   9.805438e-03
  2.087776e+00    7.587867e-01   9.921171e-03
  2.089986e+00    7.480732e-01   9.842057e-03
  2.092197e+00    7.551929e-01   9.879702e-03
  2.094407e+00    7.466418e-01   9.814334e-03
  2.096618e+00    7.317678e-01   9.707196e-03
  2.098828e+00    7.361242e-01   9.726730e-03
  2.101039e+00    7.477796e-01   9.794361e-03
  2.103249e+00    7.327844e-01   9.686987e-03
  2.105460e+00    7.384765e-01   9.715458e-03
  2.107670e+00    7.383714e-01   9.705981e-03
  2.109881e+00    7.351554e-01   9.675613e-03
  2.112091e+00    7.147305e-01   9.531345e-03
  2.114301e+00    7.280850e-01   9.611149e-03
  2.116512e+00    7.425050e-01   9.696959e-03
  2.118722e+00    7.232559e-01   9.561622e-03
  2.120933e+00    7.109720e-01   9.471267e-03
  2.123143e+00    7.059822e-01   9.429130e-03
  2.125354e+00    7.127130e-01   9.465490e-03
  2.127564e+00    7.047883e-01   9.404047e-03
  2.129775e+00    7.063854e-01   9.406038e-03
  2.131985e+00    7.030034e-01   9.374492e-03
  2.134196e+00    7.149103e-01   9.444959e-03
  2.136406e+00    6.901537e-01   9.271392e-03
  2.138617e+00    6.848058e-01   9.227073e-03
  2.140827e+00    6.976438e-01   9.329098e-03
  2.143037e+00    7.071721e-01   9.438073e-03
  2.145248e+00    7.120053e-01   9.492361e-03
  2.147458e+00    7.042297e-01   9.455540e-03
  2.149669e+00    7.045032e-01   9.469236e-03
  2.151879e+00    6.968898e-01   9.427109e-03
  2.154090e+00    7.088198e-01   9.514824e-03
  2.156300e+00    6.994072e-01   9.458035e-03
  2.158511e+00    7.063732e-01   9.510337e-03
  2.160721e+00    7.147691e-01   9.571561e-03
  2.162932e+00    7.220882e-01   9.624262e-03
  2.165142e+00    7.084823e-01   9.536203e-03
  2.167352e+00    6.892260e-01   9.408610e-03
  2.169563e+00    7.016677e-01   9.495111e-03
  2.171773e+00    6.992007e-01   9.480862e-03
  2.173984e+00    6.932343e-01   9.441737e-03
  2.176194e+00    6.890382e-01   9.414317e-03
  2.178405e+00    6.946076e-01   9.452984e-03
  2.180615e+00    6.922452e-01   9.437570e-03
  2.182826e+00    6.903023e-01   9.425005e-03
  2.185036e+00    6.911030e-01   9.430517e-03
  2.187247e+00    6.968331e-01   9.469474e-03
  2.189457e+00    6.818419e-01   9.366680e-03
  2.191667e+00    6.819589e-01   9.367278e-03
  2.193878e+00    6.864130e-01   9.397271e-03
  2.196088e+00    6.875355e-01   9.404255e-03
  2.198299e+00    6.953953e-01   9.456760e-03
  2.200509e+00    7.064679e-01   9.530681e-03
  2.202720e+00    7.004791e-01   9.489032e-03
  2.204930e+00    7.172947e-01   9.600978e-03
  2.207141e+00    7.083649e-01   9.539896e-03
  2.209351e+00    6.915408e-01   9.424034e-03
  2.211562e+00    6.862866e-01   9.386529e-03
  2.213772e+00    6.761201e-01   9.261285e-03
  2.215982e+00    6.847955e-01   9.276014e-03
  2.218193e+00    6.847123e-01   9.245629e-03
  2.220403e+00    6.825840e-01   9.206511e-03
  2.222614e+00    6.874024e-01   9.217795e-03
  2.224824e+00    6.803054e-01   9.150610e-03
  2.227035e+00    6.753280e-01   9.099601e-03
  2.229245e+00    6.586079e-01   8.969440e-03
  2.231456e+00    6.809607e-01   9.104638e-03
  2.233666e+00    6.888245e-01   9.141781e-03
  2.235877e+00    6.808070e-01   9.074036e-03
  2.238087e+00    6.940233e-01   9.147981e-03
  2.240298e+00    6.840989e-01   9.068421e-03
  2.242508e+00    6.666000e-01   8.936572e-03
  2.244718e+00    6.916121e-01   9.086606e-03
  2.246929e+00    6.935569e-01   9.084699e-03
  2.249139e+00    6.567934e-01   8.828370e-03
  2.251350e+00    6.548794e-01   8.803873e-03
  2.253560e+00    6.560080e-01   8.799989e-03
  2.255771e+00    6.633982e-01   8.838028e-03
  2.257981e+00    6.634172e-01   8.826992e-03
  2.260192e+00    6.725090e-01   8.876089e-03
  2.262402e+00    6.817474e-01   8.925843e-03
  2.264613e+00    6.880469e-01   8.955974e-03
  2.266823e+00    6.790937e-01   8.886990e-03
  2.269033e+00    6.779636e-01   8.869098e-03
  2.271244e+00    6.723188e-01   8.821615e-03
  2.273454e+00    6.897125e-01   8.924532e-03
  2.275665e+00    6.755624e-01   8.822119e-03
  2.277875e+00    6.726872e-01   8.793292e-03
  2.280086e+00    6.732352e-01   8.786732e-03
  2.282296e+00    6.832319e-01   8.842162e-03
  2.284507e+00    6.776320e-01   8.795572e-03
  2.286717e+00    6.629283e-01   8.690127e-03
  2.288928e+00    6.639746e-01   8.687053e-03
  2.291138e+00    6.636372e-01   8.675385e-03
  2.293348e+00    6.567984e-01   8.621011e-03
  2.295559e+00    6.403638e-01   8.503280e-03
  2.297769e+00    6.476550e-01   8.542316e-03
  2.299980e+00    6.782765e-01   8.732448e-03
  2.302190e+00    6.659641e-01   8.643603e-03
  2.304401e+00    6.741510e-01   8.687090e-03
  2.306611e+00    6.760072e-01   8.689689e-03
  2.308822e+00    6.537333e-01   8.536925e-03
  2.311032e+00    6.690381e-01   8.629725e-03
  2.313243e+00    6.607478e-01   8.569784e-03
  2.315453e+00    6.641792e-01   8.584321e-03
  2.317663e+00    6.623269e-01   8.563147e-03
  2.319874e+00    6.402033e-01   8.410214e-03
  2.322084e+00    6.424522e-01   8.416030e-03
  2.324295e+00    6.501336e-01   8.457926e-03
  2.326505e+00    6.537005e-01   8.471999e-03
  2.328716e+00    6.470739e-01   8.420354e-03
  2.330926e+00    6.578530e-01   8.481327e-03
  2.333137e+00    6.467128e-01   8.400782e-03
  2.335347e+00    6.451844e-01   8.381961e-03
  2.337558e+00    6.446344e-01   8.370141e-03
  2.339768e+00    6.310642e-01   8.273046e-03
  2.341979e+00    6.368638e-01   8.302621e-03
  2.344189e+00    6.295756e-01   8.246630e-03
  2.346399e+00    6.413133e-01   8.314632e-03
  2.348610e+00    6.237956e-01   8.191914e-03
  2.350820e+00    6.276062e-01   8.208745e-03
  2.353031e+00    6.401103e-01   8.281792e-03
  2.355241e+00    6.370515e-01   8.253918e-03
  2.357452e+00    6.303713e-01   8.202115e-03
  2.359662e+00    6.493433e-01   8.316267e-03
  2.361873e+00    6.505125e-01   8.315427e-03
  2.364083e+00    6.356760e-01   8.212008e-03
  2.366294e+00    6.234511e-01   8.124579e-03
  2.368504e+00    6.206163e-01   8.098044e-03
  2.370714e+00    6.414559e-01   8.224725e-03
  2.372925e+00    6.268624e-01   8.122586e-03
  2.375135e+00    6.229526e-01   8.089145e-03
  2.377346e+00    6.314123e-01   8.135894e-03
  2.379556e+00    6.328765e-01   8.137372e-03
  2.381767e+00    6.220561e-01   8.059632e-03
  2.383977e+00    6.342517e-01   8.130240e-03
  2.386188e+00    6.182403e-01   8.019062e-03
  2.388398e+00    6.175655e-01   8.006721e-03
  2.390609e+00    6.094871e-01   7.946515e-03
  2.392819e+00    6.006436e-01   7.880974e-03
  2.395029e+00    6.241570e-01   8.026023e-03
  2.397240e+00    6.357544e-01   8.092251e-03
  2.399450e+00    6.285591e-01   8.038434e-03
  2.401661e+00    6.290681e-01   8.033888e-03
  2.403871e+00    6.200035e-01   7.968012e-03
  2.406082e+00    6.181450e-01   7.948535e-03
  2.408292e+00    6.251296e-01   7.985453e-03
  2.410503e+00    6.205882e-01   7.948815e-03
  2.412713e+00    6.346100e-01   8.030138e-03
  2.414924e+00    6.305887e-01   7.997045e-03
  2.417134e+00    6.044858e-01   7.822134e-03
  2.419344e+00    5.989137e-01   7.778616e-03
  2.421555e+00    6.024708e-01   7.794163e-03
  2.423765e+00    6.146433e-01   7.865008e-03
  2.425976e+00    6.120678e-01   7.840648e-03
  2.428186e+00    5.968633e-01   7.735433e-03
  2.430397e+00    6.087484e-01   7.804512e-03
  2.432607e+00    6.012504e-01   7.748999e-03
  2.434818e+00    6.029574e-01   7.752390e-03
  2.437028e+00    6.180979e-01   7.841823e-03
  2.439239e+00    6.156671e-01   7.818611e-03
  2.441449e+00    5.891277e-01   7.641063e-03
  2.443659e+00    5.819394e-01   7.586990e-03
  2.445870e+00    5.835347e-01   7.609573e-03
  2.448080e+00    5.814048e-01   7.630438e-03
  2.450291e+00    5.832735e-01   7.659373e-03
  2.452501e+00    5.752280e-01   7.617523e-03
  2.454712e+00    5.798499e-01   7.656533e-03
  2.456922e+00    5.792301e-01   7.659130e-03
  2.459133e+00    5.712261e-01   7.611461e-03
  2.461343e+00    5.621208e-01   7.554902e-03
  2.463554e+00    5.558597e-01   7.516142e-03
  2.465764e+00    5.558398e-01   7.519121e-03
  2.467975e+00    5.737352e-01   7.641520e-03
  2.470185e+00    5.588183e-01   7.543793e-03
  2.472395e+00    5.565021e-01   7.529343e-03
  2.474606e+00    5.599567e-01   7.554265e-03
  2.476816e+00    5.683600e-01   7.611477e-03
  2.479027e+00    5.484705e-01   7.477965e-03
  2.481237e+00    5.513447e-01   7.497802e-03
  2.483448e+00    5.589441e-01   7.549617e-03
  2.485658e+00    5.376810e-01   7.404465e-03
  2.487869e+00    5.539997e-01   7.516039e-03
  2.490079e+00    5.484697e-01   7.477900e-03
  2.492290e+00    5.532053e-01   7.509692e-03
  2.494500e+00    5.367195e-01   7.396210e-03
  2.496710e+00    5.530962e-01   7.507484e-03
  2.498921e+00    5.459609e-01   7.457908e-03
  2.501131e+00    5.302408e-01   7.348824e-03
  2.503342e+00    5.248371e-01   7.310008e-03
  2.505552e+00    5.469378e-01   7.461170e-03
  2.507763e+00    5.300844e-01   7.343938e-03
  2.509973e+00    5.316114e-01   7.353086e-03
  2.512184e+00    5.358507e-01   7.380717e-03
  2.514394e+00    5.371335e-01   7.380102e-03
  2.516605e+00    5.304717e-01   7.286955e-03
  2.518815e+00    5.373538e-01   7.305439e-03
  2.521025e+00    5.391222e-01   7.296220e-03
  2.523236e+00    5.431507e-01   7.305136e-03
  2.525446e+00    5.465661e-01   7.312162e-03
  2.527657e+00    5.495387e-01   7.317089e-03
  2.529867e+00    5.243361e-01   7.133174e-03
  2.532078e+00    5.264735e-01   7.132607e-03
  2.534288e+00    5.392057e-01   7.204280e-03
  2.536499e+00    5.268041e-01   7.109001e-03
  2.538709e+00    5.252779e-01   7.087669e-03
  2.540920e+00    5.306017e-01   7.112799e-03
  2.543130e+00    5.230621e-01   7.051718e-03
  2.545340e+00    5.375577e-01   7.138571e-03
  2.547551e+00    5.371849e-01   7.126020e-03
  2.549761e+00    5.358152e-01   7.107225e-03
  2.551972e+00    5.316241e-01   7.069933e-03
  2.554182e+00    5.383540e-01   7.105215e-03
  2.556393e+00    5.225047e-01   6.990738e-03
  2.558603e+00    5.255244e-01   7.001793e-03
  2.560814e+00    5.255339e-01   6.993102e-03
  2.563024e+00    5.385005e-01   7.070100e-03
  2.565235e+00    5.403433e-01   7.072508e-03
  2.567445e+00    5.259379e-01   6.967978e-03
  2.569656e+00    5.195649e-01   6.915859e-03
  2.571866e+00    5.139851e-01   6.869313e-03
  2.574076e+00    5.167673e-01   6.878601e-03
  2.576287e+00    5.133193e-01   6.847318e-03
  2.578497e+00    5.085816e-01   6.807860e-03
  2.580708e+00    5.161994e-01   6.850559e-03
  2.582918e+00    5.147322e-01   6.833050e-03
  2.585129e+00    5.192084e-01   6.854920e-03
  2.587339e+00    5.090760e-01   6.780071e-03
  2.589550e+00    5.140154e-01   6.805306e-03
  2.591760e+00    5.146341e-01   6.801652e-03
  2.593971e+00    5.128547e-01   6.782341e-03
  2.596181e+00    5.038760e-01   6.716547e-03
  2.598391e+00    5.129501e-01   6.771533e-03
  2.600602e+00    5.162162e-01   6.787131e-03
  2.602812e+00    5.104344e-01   6.741450e-03
  2.605023e+00    5.054542e-01   6.701346e-03
  2.607233e+00    5.130596e-01   6.744396e-03
  2.609444e+00    5.112598e-01   6.725302e-03
  2.611654e+00    5.142298e-01   6.737425e-03
  2.613865e+00    5.297339e-01   6.831041e-03
  2.616075e+00    5.196815e-01   6.758705e-03
  2.618286e+00    5.032041e-01   6.643698e-03
  2.620496e+00    5.020996e-01   6.629723e-03
  2.622706e+00    4.987907e-01   6.602149e-03
  2.624917e+00    4.976020e-01   6.588448e-03
  2.627127e+00    5.113521e-01   6.673083e-03
  2.629338e+00    5.052595e-01   6.627225e-03
  2.631548e+00    5.085178e-01   6.642364e-03
  2.633759e+00    4.898589e-01   6.512294e-03
  2.635969e+00    4.950286e-01   6.539935e-03
  2.638180e+00    4.872352e-01   6.481347e-03
  2.640390e+00    5.115688e-01   6.634562e-03
  2.642601e+00    5.104269e-01   6.620424e-03
  2.644811e+00    5.142080e-01   6.637738e-03
  2.647021e+00    5.051486e-01   6.572396e-03
  2.649232e+00    5.047359e-01   6.562965e-03
  2.651442e+00    4.959754e-01   6.499278e-03
  2.653653e+00    4.914211e-01   6.462627e-03
  2.655863e+00    4.887573e-01   6.438464e-03
  2.658074e+00    5.031549e-01   6.525958e-03
  2.660284e+00    4.999462e-01   6.498751e-03
  2.662495e+00    5.059077e-01   6.530566e-03
  2.664705e+00    5.053105e-01   6.520094e-03
  2.666916e+00    5.122323e-01   6.558022e-03
  2.669126e+00    5.076810e-01   6.522306e-03
  2.671337e+00    5.145470e-01   6.559548e-03
  2.673547e+00    5.003239e-01   6.461842e-03
  2.675757e+00    4.995291e-01   6.450224e-03
  2.677968e+00    4.938900e-01   6.407194e-03
  2.680178e+00    4.981574e-01   6.428380e-03
  2.682389e+00    5.081762e-01   6.486210e-03
  2.684599e+00    4.899245e-01   6.362509e-03
  2.686810e+00    4.968593e-01   6.400739e-03
  2.689020e+00    4.854223e-01   6.320383e-03
  2.691231e+00    4.869543e-01   6.324097e-03
  2.693441e+00    4.906045e-01   6.341591e-03
  2.695652e+00    5.058937e-01   6.433043e-03
  2.697862e+00    4.994661e-01   6.385646e-03
  2.700072e+00    4.798482e-01   6.252950e-03
  2.702283e+00    4.869902e-01   6.293120e-03
  2.704493e+00    4.928233e-01   6.324369e-03
  2.706704e+00    4.934604e-01   6.322031e-03
  2.708914e+00    4.835624e-01   6.252374e-03
  2.711125e+00    4.960897e-01   6.326531e-03
  2.713335e+00    4.773528e-01   6.199886e-03
  2.715546e+00    4.842390e-01   6.238002e-03
  2.717756e+00    4.926353e-01   6.285917e-03
  2.719967e+00    4.964551e-01   6.303974e-03
  2.722177e+00    4.950918e-01   6.289123e-03
  2.724387e+00    5.008473e-01   6.319373e-03
  2.726598e+00    4.822277e-01   6.194763e-03
  2.728808e+00    4.984742e-01   6.291997e-03
  2.731019e+00    5.050594e-01   6.327196e-03
  2.733229e+00    4.911177e-01   6.233407e-03
  2.735440e+00    4.902566e-01   6.221623e-03
  2.737650e+00    4.823869e-01   6.165485e-03
  2.739861e+00    4.699718e-01   6.079641e-03
  2.742071e+00    4.791799e-01   6.133183e-03
  2.744282e+00    4.739533e-01   6.093453e-03
  2.746492e+00    4.909504e-01   6.195665e-03
  2.748702e+00    4.859929e-01   6.158377e-03
  2.750913e+00    4.803986e-01   6.117043e-03
  2.753123e+00    4.848120e-01   6.138949e-03
  2.755334e+00    4.878510e-01   6.152020e-03
  2.757544e+00    4.944150e-01   6.187469e-03
  2.759755e+00    4.854387e-01   6.125125e-03
  2.761965e+00    4.797245e-01   6.082987e-03
  2.764176e+00    4.872074e-01   6.124214e-03
  2.766386e+00    4.850590e-01   6.104870e-03
  2.768597e+00    4.834582e-01   6.088905e-03
  2.770807e+00    4.960272e-01   6.161577e-03
  2.773017e+00    4.698471e-01   5.990848e-03
  2.775228e+00    4.800822e-01   6.049953e-03
  2.777438e+00    4.814914e-01   6.053003e-03
  2.779649e+00    4.865686e-01   6.078904e-03
  2.781859e+00    4.830550e-01   6.051084e-03
  2.784070e+00    4.963869e-01   6.128071e-03
  2.786280e+00    4.898925e-01   6.082010e-03
  2.788491e+00    4.770411e-01   5.995851e-03
  2.790701e+00    4.906578e-01   6.075102e-03
  2.792912e+00    4.864046e-01   6.042682e-03
  2.795122e+00    4.797768e-01   5.995634e-03
  2.797333e+00    4.686157e-01   5.919949e-03
  2.799543e+00    4.715447e-01   5.932583e-03
  2.801753e+00    4.858482e-01   6.015978e-03
  2.803964e+00    4.672371e-01   5.894007e-03
  2.806174e+00    4.734943e-01   5.927199e-03
  2.808385e+00    4.785115e-01   5.951704e-03
  2.810595e+00    4.853000e-01   5.986830e-03
  2.812806e+00    4.805681e-01   5.950919e-03
  2.815016e+00    4.638981e-01   5.842115e-03
  2.817227e+00    4.668310e-01   5.886268e-03
  2.819437e+00    4.674457e-01   5.901152e-03
  2.821648e+00    4.801825e-01   5.983313e-03
  2.823858e+00    4.635250e-01   5.883907e-03
  2.826068e+00    4.654439e-01   5.901002e-03
  2.828279e+00    4.795403e-01   5.993767e-03
  2.830489e+00    4.809778e-01   6.006109e-03
  2.832700e+00    4.733749e-01   5.961025e-03
  2.834910e+00    4.752241e-01   5.974723e-03
  2.837121e+00    4.699809e-01   5.943370e-03
  2.839331e+00    4.671832e-01   5.926887e-03
  2.841542e+00    4.719227e-01   5.957890e-03
  2.843752e+00    4.714656e-01   5.955786e-03
  2.845963e+00    4.723637e-01   5.961856e-03
  2.848173e+00    4.716897e-01   5.957684e-03
  2.850383e+00    4.841615e-01   6.036235e-03
  2.852594e+00    4.897014e-01   6.070594e-03
  2.854804e+00    4.779677e-01   5.996920e-03
  2.857015e+00    4.761893e-01   5.985305e-03
  2.859225e+00    4.640866e-01   5.908515e-03
  2.861436e+00    4.682392e-01   5.934227e-03
  2.863646e+00    4.693834e-01   5.941514e-03
  2.865857e+00    4.641764e-01   5.908797e-03
  2.868067e+00    4.736518e-01   5.969033e-03
  2.870278e+00    4.632157e-01   5.902556e-03
  2.872488e+00    4.720189e-01   5.957210e-03
  2.874698e+00    4.774616e-01   5.990393e-03
  2.876909e+00    4.647425e-01   5.908746e-03
  2.879119e+00    4.596747e-01   5.874812e-03
  2.881330e+00    4.675874e-01   5.923691e-03
  2.883540e+00    4.590812e-01   5.868169e-03
  2.885751e+00    4.618038e-01   5.883901e-03
  2.887961e+00    4.768155e-01   5.976858e-03
  2.890172e+00    4.738430e-01   5.956569e-03
  2.892382e+00    4.735092e-01   5.952659e-03
  2.894593e+00    4.673650e-01   5.912069e-03
  2.896803e+00    4.648483e-01   5.894148e-03
  2.899014e+00    4.472668e-01   5.779730e-03
  2.901224e+00    4.676501e-01   5.907924e-03
  2.903434e+00    4.616169e-01   5.867787e-03
  2.905645e+00    4.504516e-01   5.794154e-03
  2.907855e+00    4.714974e-01   5.925843e-03
  2.910066e+00    4.566642e-01   5.829830e-03
  2.912276e+00    4.539890e-01   5.810609e-03
  2.914487e+00    4.628385e-01   5.864491e-03
  2.916697e+00    4.607209e-01   5.848847e-03
  2.918908e+00    4.646678e-01   5.871818e-03
  2.921118e+00    4.630569e-01   5.858909e-03
  2.923329e+00    4.738946e-01   5.924744e-03
  2.925539e+00    4.787693e-01   5.952792e-03
  2.927749e+00    4.611798e-01   5.840116e-03
  2.929960e+00    4.583836e-01   5.819584e-03
  2.932170e+00    4.740524e-01   5.915842e-03
  2.934381e+00    4.697750e-01   5.886633e-03
  2.936591e+00    4.502968e-01   5.760734e-03
  2.938802e+00    4.622699e-01   5.834077e-03
  2.941012e+00    4.626617e-01   5.834218e-03
  2.943223e+00    4.598556e-01   5.813772e-03
  2.945433e+00    4.650186e-01   5.842548e-03
  2.947644e+00    4.661146e-01   5.845253e-03
  2.949854e+00    4.624612e-01   5.818006e-03
  2.952064e+00    4.528719e-01   5.753145e-03
  2.954275e+00    4.675747e-01   5.841305e-03
  2.956485e+00    4.821818e-01   5.927550e-03
  2.958696e+00    4.660556e-01   5.823176e-03
  2.960906e+00    4.592500e-01   5.776272e-03
  2.963117e+00    4.677939e-01   5.825223e-03
  2.965327e+00    4.622556e-01   5.786699e-03
  2.967538e+00    4.681750e-01   5.820668e-03
  2.969748e+00    4.542976e-01   5.730956e-03
  2.971959e+00    4.485508e-01   5.691467e-03
  2.974169e+00    4.489715e-01   5.691556e-03
  2.976379e+00    4.547816e-01   5.725352e-03
  2.978590e+00    4.561976e-01   5.731109e-03
  2.980800e+00    4.576085e-01   5.737170e-03
  2.983011e+00    4.637105e-01   5.772453e-03
  2.985221e+00    4.613142e-01   5.754350e-03
  2.987432e+00    4.595138e-01   5.739979e-03
  2.989642e+00    4.513743e-01   5.686305e-03
  2.991853e+00    4.517379e-01   5.685306e-03
  2.994063e+00    4.476379e-01   5.656578e-03
  2.996274e+00    4.410090e-01   5.611382e-03
  2.998484e+00    4.600117e-01   5.728292e-03
  3.000694e+00    4.693228e-01   5.782458e-03
  3.002905e+00    4.590357e-01   5.715781e-03
  3.005115e+00    4.587684e-01   5.711128e-03
  3.007326e+00    4.593194e-01   5.711367e-03
  3.009536e+00    4.673280e-01   5.757662e-03
  3.011747e+00    4.567402e-01   5.689121e-03
  3.013957e+00    4.436791e-01   5.604048e-03
  3.016168e+00    4.469113e-01   5.621181e-03
  3.018378e+00    4.548160e-01   5.667623e-03
  3.020589e+00    4.684416e-01   5.748620e-03
  3.022799e+00    4.628965e-01   5.711318e-03
  3.025010e+00    4.539825e-01   5.652805e-03
  3.027220e+00    4.551254e-01   5.656789e-03
  3.029430e+00    4.699482e-01   5.744858e-03
  3.031641e+00    4.647948e-01   5.710109e-03
  3.033851e+00    4.506221e-01   5.618862e-03
  3.036062e+00    4.596300e-01   5.671926e-03
  3.038272e+00    4.533551e-01   5.629503e-03
  3.040483e+00    4.609163e-01   5.672992e-03
  3.042693e+00    4.561030e-01   5.640018e-03
  3.044904e+00    4.504299e-01   5.600808e-03
  3.047114e+00    4.504182e-01   5.595936e-03
  3.049325e+00    4.535484e-01   5.610929e-03
  3.051535e+00    4.695426e-01   5.704518e-03
  3.053745e+00    4.755562e-01   5.736062e-03
  3.055956e+00    4.762372e-01   5.735480e-03
  3.058166e+00    4.561634e-01   5.609006e-03
  3.060377e+00    4.548592e-01   5.596171e-03
  3.062587e+00    4.597283e-01   5.621383e-03
  3.064798e+00    4.533854e-01   5.578199e-03
  3.067008e+00    4.483576e-01   5.542446e-03
  3.069219e+00    4.434379e-01   5.507492e-03
  3.071429e+00    4.477206e-01   5.530494e-03
  3.073640e+00    4.531108e-01   5.560345e-03
  3.075850e+00    4.582650e-01   5.588285e-03
  3.078060e+00    4.464065e-01   5.512393e-03
  3.080271e+00    4.467350e-01   5.510963e-03
  3.082481e+00    4.509813e-01   5.533625e-03
  3.084692e+00    4.521837e-01   5.537612e-03
  3.086902e+00    4.501449e-01   5.521871e-03
  3.089113e+00    4.559379e-01   5.553667e-03
  3.091323e+00    4.552535e-01   5.546115e-03
  3.093534e+00    4.375750e-01   5.434029e-03
  3.095744e+00    4.513023e-01   5.515202e-03
  3.097955e+00    4.565566e-01   5.543649e-03
  3.100165e+00    4.539942e-01   5.524704e-03
  3.102375e+00    4.570511e-01   5.539809e-03
  3.104586e+00    4.572414e-01   5.537441e-03
  3.106796e+00    4.463943e-01   5.467834e-03
  3.109007e+00    4.562902e-01   5.524867e-03
  3.111217e+00    4.457101e-01   5.456747e-03
  3.113428e+00    4.502897e-01   5.481261e-03
  3.115638e+00    4.502237e-01   5.477633e-03
  3.117849e+00    4.393863e-01   5.407594e-03
  3.120059e+00    4.542806e-01   5.494968e-03
  3.122270e+00    4.519913e-01   5.477835e-03
  3.124480e+00    4.576332e-01   5.508180e-03
  3.126691e+00    4.595961e-01   5.516361e-03
  3.128901e+00    4.530134e-01   5.473555e-03
  3.131111e+00    4.662541e-01   5.549043e-03
  3.133322e+00    4.525566e-01   5.463450e-03
  3.135532e+00    4.428471e-01   5.401128e-03
  3.137743e+00    4.482073e-01   5.430207e-03
  3.139953e+00    4.486604e-01   5.429262e-03
  3.142164e+00    4.401849e-01   5.389697e-03
  3.144374e+00    4.639157e-01   5.562169e-03
  3.146585e+00    4.543265e-01   5.519145e-03
  3.148795e+00    4.566871e-01   5.544410e-03
  3.151006e+00    4.626816e-01   5.589431e-03
  3.153216e+00    4.454009e-01   5.491230e-03
  3.155426e+00    4.340832e-01   5.427271e-03
  3.157637e+00    4.493783e-01   5.527610e-03
  3.159847e+00    4.545823e-01   5.564503e-03
  3.162058e+00    4.510962e-01   5.547607e-03
  3.164268e+00    4.393091e-01   5.478709e-03
  3.166479e+00    4.475029e-01   5.533236e-03
  3.168689e+00    4.550794e-01   5.583339e-03
  3.170900e+00    4.309187e-01   5.436211e-03
  3.173110e+00    4.437736e-01   5.519603e-03
  3.175321e+00    4.529112e-01   5.578672e-03
  3.177531e+00    4.453903e-01   5.534925e-03
  3.179741e+00    4.461636e-01   5.541826e-03
  3.181952e+00    4.370769e-01   5.487198e-03
  3.184162e+00    4.490650e-01   5.564165e-03
  3.186373e+00    4.589407e-01   5.626655e-03
  3.188583e+00    4.295789e-01   5.445480e-03
  3.190794e+00    4.297704e-01   5.448412e-03
  3.193004e+00    4.247468e-01   5.417720e-03
  3.195215e+00    4.216101e-01   5.399124e-03
  3.197425e+00    4.425482e-01   5.532807e-03
  3.199636e+00    4.392064e-01   5.511104e-03
  3.201846e+00    4.281661e-01   5.440801e-03
  3.204056e+00    4.384534e-01   5.506665e-03
  3.206267e+00    4.433970e-01   5.538478e-03
  3.208477e+00    4.381198e-01   5.506350e-03
  3.210688e+00    4.365594e-01   5.497382e-03
  3.212898e+00    4.379176e-01   5.506508e-03
  3.215109e+00    4.384579e-01   5.510662e-03
  3.217319e+00    4.372757e-01   5.503864e-03
  3.219530e+00    4.374778e-01   5.505530e-03
  3.221740e+00    4.397441e-01   5.520342e-03
  3.223951e+00    4.407643e-01   5.527220e-03
  3.226161e+00    4.356542e-01   5.495270e-03
  3.228372e+00    4.425075e-01   5.538864e-03
  3.230582e+00    4.360754e-01   5.498616e-03
  3.232792e+00    4.361978e-01   5.499598e-03
  3.235003e+00    4.259879e-01   5.435104e-03
  3.237213e+00    4.320498e-01   5.473731e-03
  3.239424e+00    4.322453e-01   5.474976e-03
  3.241634e+00    4.229318e-01   5.415801e-03
  3.243845e+00    4.355749e-01   5.496204e-03
  3.246055e+00    4.588845e-01   5.641085e-03
  3.248266e+00    4.425084e-01   5.539738e-03
  3.250476e+00    4.311125e-01   5.467607e-03
  3.252687e+00    4.294893e-01   5.457246e-03
  3.254897e+00    4.262529e-01   5.436514e-03
  3.257107e+00    4.163672e-01   5.372796e-03
  3.259318e+00    4.229011e-01   5.414545e-03
  3.261528e+00    4.291961e-01   5.454556e-03
  3.263739e+00    4.389011e-01   5.515317e-03
  3.265949e+00    4.293418e-01   5.454822e-03
  3.268160e+00    4.211543e-01   5.402131e-03
  3.270370e+00    4.191373e-01   5.388663e-03
  3.272581e+00    4.396525e-01   5.518679e-03
  3.274791e+00    4.370582e-01   5.501857e-03
  3.277002e+00    4.382281e-01   5.508642e-03
  3.279212e+00    4.309867e-01   5.462555e-03
  3.281422e+00    4.170035e-01   5.372637e-03
  3.283633e+00    4.288110e-01   5.447465e-03
  3.285843e+00    4.401546e-01   5.518727e-03
  3.288054e+00    4.302175e-01   5.455126e-03
  3.290264e+00    4.342962e-01   5.480601e-03
  3.292475e+00    4.259278e-01   5.426720e-03
  3.294685e+00    4.253305e-01   5.422266e-03
  3.296896e+00    4.352223e-01   5.484178e-03
  3.299106e+00    4.287643e-01   5.442805e-03
  3.301317e+00    4.176591e-01   5.370833e-03
  3.303527e+00    4.192657e-01   5.380669e-03
  3.305737e+00    4.328514e-01   5.466091e-03
  3.307948e+00    4.410931e-01   5.517211e-03
  3.310158e+00    4.262742e-01   5.422905e-03
  3.312369e+00    4.232640e-01   5.402824e-03
  3.314579e+00    4.211383e-01   5.388343e-03
  3.316790e+00    4.228692e-01   5.398673e-03
  3.319000e+00    4.117575e-01   5.326129e-03
  3.321211e+00    4.344019e-01   5.469983e-03
  3.323421e+00    4.378745e-01   5.490572e-03
  3.325632e+00    4.351838e-01   5.472812e-03
  3.327842e+00    4.320358e-01   5.452026e-03
  3.330052e+00    4.448578e-01   5.531242e-03
  3.332263e+00    4.394307e-01   5.496368e-03
  3.334473e+00    4.408580e-01   5.504360e-03
  3.336684e+00    4.250860e-01   5.403733e-03
  3.338894e+00    4.187871e-01   5.362691e-03
  3.341105e+00    4.309136e-01   5.438574e-03
  3.343315e+00    4.319462e-01   5.443904e-03
  3.345526e+00    4.386819e-01   5.485302e-03
  3.347736e+00    4.269234e-01   5.409850e-03
  3.349947e+00    4.379425e-01   5.478265e-03
  3.352157e+00    4.279780e-01   5.414417e-03
  3.354368e+00    4.248682e-01   5.393400e-03
  3.356578e+00    4.198382e-01   5.360348e-03
  3.358788e+00    4.244875e-01   5.388610e-03
  3.360999e+00    4.276043e-01   5.407105e-03
  3.363209e+00    4.146446e-01   5.323529e-03
  3.365420e+00    4.145761e-01   5.321561e-03
  3.367630e+00    4.270420e-01   5.399950e-03
  3.369841e+00    4.168551e-01   5.333742e-03
  3.372051e+00    4.142629e-01   5.315154e-03
  3.374262e+00    4.180500e-01   5.336947e-03
  3.376472e+00    4.134487e-01   5.305073e-03
  3.378683e+00    4.134810e-01   5.302765e-03
  3.380893e+00    4.200122e-01   5.342146e-03
  3.383103e+00    4.289052e-01   5.395642e-03
  3.385314e+00    4.193615e-01   5.333045e-03
  3.387524e+00    4.118209e-01   5.282156e-03
  3.389735e+00    4.062696e-01   5.243845e-03
  3.391945e+00    4.116782e-01   5.274936e-03
  3.394156e+00    4.141848e-01   5.286763e-03
  3.396366e+00    4.032887e-01   5.213381e-03
  3.398577e+00    4.073144e-01   5.236306e-03
  3.400787e+00    4.120097e-01   5.278321e-03
  3.402998e+00    4.057696e-01   5.276091e-03
  3.405208e+00    4.009756e-01   5.265341e-03
  3.407418e+00    4.114553e-01   5.349717e-03
  3.409629e+00    4.040447e-01   5.315326e-03
  3.411839e+00    4.048033e-01   5.332164e-03
  3.414050e+00    4.020095e-01   5.324812e-03
  3.416260e+00    3.970484e-01   5.301510e-03
  3.418471e+00    4.009227e-01   5.336822e-03
  3.420681e+00    3.868548e-01   5.250799e-03
  3.422892e+00    3.856226e-01   5.250372e-03
  3.425102e+00    3.828630e-01   5.239302e-03
  3.427313e+00    3.864443e-01   5.270885e-03
  3.429523e+00    3.994901e-01   5.366331e-03
  3.431733e+00    3.897755e-01   5.307364e-03
  3.433944e+00    3.923655e-01   5.331510e-03
  3.436154e+00    3.893043e-01   5.316989e-03
  3.438365e+00    3.901365e-01   5.328633e-03
  3.440575e+00    3.907965e-01   5.339168e-03
  3.442786e+00    3.805882e-01   5.274588e-03
  3.444996e+00    3.808275e-01   5.281768e-03
  3.447207e+00    3.598796e-01   5.139640e-03
  3.449417e+00    3.715730e-01   5.263275e-03
  3.451628e+00    3.583524e-01   5.197830e-03
  3.453838e+00    3.718160e-01   5.315837e-03
  3.456049e+00    3.707545e-01   5.332276e-03
  3.458259e+00    3.716414e-01   5.360726e-03
  3.460469e+00    3.826101e-01   5.459495e-03
  3.462680e+00    3.726859e-01   5.407445e-03
  3.464890e+00    3.742092e-01   5.436473e-03
  3.467101e+00    3.795693e-01   5.493007e-03
  3.469311e+00    3.883986e-01   5.573476e-03
  3.471522e+00    3.972211e-01   5.653337e-03
  3.473732e+00    4.000225e-01   5.689569e-03
  3.475943e+00    4.056165e-01   5.745434e-03
  3.478153e+00    4.148489e-01   5.826395e-03
  3.480364e+00    4.193641e-01   5.873655e-03
  3.482574e+00    4.288683e-01   5.955652e-03
  3.484784e+00    4.203356e-01   5.911171e-03
  3.486995e+00    4.291948e-01   5.988458e-03
  3.489205e+00    4.354839e-01   6.047067e-03
  3.491416e+00    4.427736e-01   6.112642e-03
  3.493626e+00    4.420558e-01   6.122397e-03
  3.495837e+00    4.539144e-01   6.218958e-03
  3.498047e+00    4.641144e-01   6.303230e-03
  3.500258e+00    4.626222e-01   6.307883e-03
  3.502468e+00    4.596383e-01   6.301981e-03
  3.504679e+00    4.586974e-01   6.309982e-03
  3.506889e+00    4.827921e-01   6.488287e-03
  3.509099e+00    4.946240e-01   6.582038e-03
  3.511310e+00    4.890221e-01   6.559312e-03
  3.513520e+00    4.827390e-01   6.531482e-03
  3.515731e+00    4.782483e-01   6.515267e-03
  3.517941e+00    5.030595e-01   6.696682e-03
  3.520152e+00    5.248410e-01   6.854862e-03
  3.522362e+00    5.219413e-01   6.850721e-03
  3.524573e+00    5.271757e-01   6.899529e-03
  3.526783e+00    5.310737e-01   6.938625e-03
  3.528994e+00    5.446665e-01   7.039435e-03
  3.531204e+00    5.340616e-01   6.983165e-03
  3.533414e+00    5.442601e-01   7.061827e-03
  3.535625e+00    5.372503e-01   7.028664e-03
  3.537835e+00    5.571769e-01   7.170214e-03
  3.540046e+00    5.352305e-01   7.036550e-03
  3.542256e+00    5.414295e-01   7.084724e-03
  3.544467e+00    5.426631e-01   7.100460e-03
  3.546677e+00    5.455912e-01   7.127216e-03
  3.548888e+00    5.569229e-01   7.208533e-03
  3.551098e+00    5.338001e-01   7.064575e-03
  3.553309e+00    5.245747e-01   7.011316e-03
  3.555519e+00    5.377905e-01   7.110403e-03
  3.557729e+00    5.385122e-01   7.126920e-03
  3.559940e+00    5.310995e-01   7.089208e-03
  3.562150e+00    5.637874e-01   7.316098e-03
  3.564361e+00    5.292007e-01   7.101398e-03
  3.566571e+00    5.400259e-01   7.187527e-03
  3.568782e+00    5.463767e-01   7.243948e-03
  3.570992e+00    5.400022e-01   7.215317e-03
  3.573203e+00    5.618301e-01   7.374224e-03
  3.575413e+00    5.613902e-01   7.385425e-03
  3.577624e+00    5.416635e-01   7.268719e-03
  3.579834e+00    5.385281e-01   7.261557e-03
  3.582045e+00    5.357415e-01   7.256773e-03
  3.584255e+00    5.337049e-01   7.256976e-03
  3.586465e+00    5.384197e-01   7.302944e-03
  3.588676e+00    5.347773e-01   7.292365e-03
  3.590886e+00    5.519438e-01   7.422379e-03
  3.593097e+00    5.430236e-01   7.376811e-03
  3.595307e+00    5.282444e-01   7.289499e-03
  3.597518e+00    5.357613e-01   7.355445e-03
  3.599728e+00    5.358533e-01   7.370146e-03
  3.601939e+00    5.457402e-01   7.452040e-03
  3.604149e+00    5.495563e-01   7.492629e-03
  3.606360e+00    5.600849e-01   7.578551e-03
  3.608570e+00    5.500267e-01   7.524540e-03
  3.610780e+00    5.397388e-01   7.464928e-03
  3.612991e+00    5.401877e-01   7.478142e-03
  3.615201e+00    5.254822e-01   7.385316e-03
  3.617412e+00    5.543511e-01   7.592880e-03
  3.619622e+00    5.588741e-01   7.629893e-03
  3.621833e+00    5.509126e-01   7.582182e-03
  3.624043e+00    5.438757e-01   7.543170e-03
  3.626254e+00    5.395225e-01   7.522670e-03
  3.628464e+00    5.287392e-01   7.458061e-03
  3.630675e+00    5.254086e-01   7.448506e-03
  3.632885e+00    5.487520e-01   7.626812e-03
  3.635095e+00    5.403596e-01   7.582772e-03
  3.637306e+00    5.704864e-01   7.806143e-03
  3.639516e+00    5.543162e-01   7.709545e-03
  3.641727e+00    5.492221e-01   7.688813e-03
  3.643937e+00    5.525721e-01   7.727060e-03
  3.646148e+00    5.367484e-01   7.630210e-03
  3.648358e+00    5.606502e-01   7.813560e-03
  3.650569e+00    5.310630e-01   7.619279e-03
  3.652779e+00    5.532592e-01   7.791914e-03
  3.654990e+00    5.528952e-01   7.804534e-03
  3.657200e+00    5.438042e-01   7.755133e-03
  3.659410e+00    5.545228e-01   7.846508e-03
  3.661621e+00    5.449446e-01   7.793739e-03
  3.663831e+00    5.263213e-01   7.674420e-03
  3.666042e+00    5.319111e-01   7.730249e-03
  3.668252e+00    5.395254e-01   7.800730e-03
  3.670463e+00    5.288228e-01   7.738175e-03
  3.672673e+00    5.297655e-01   7.760473e-03
  3.674884e+00    5.268721e-01   7.754609e-03
  3.677094e+00    5.443442e-01   7.897814e-03
  3.679305e+00    5.398515e-01   7.880876e-03
  3.681515e+00    5.243459e-01   7.782416e-03
  3.683726e+00    5.448167e-01   7.948876e-03
  3.685936e+00    5.493276e-01   7.997735e-03
  3.688146e+00    5.321895e-01   7.887847e-03
  3.690357e+00    5.325054e-01   7.906166e-03
  3.692567e+00    5.318579e-01   7.917585e-03
  3.694778e+00    5.311088e-01   7.928116e-03
  3.696988e+00    5.205209e-01   7.864594e-03
  3.699199e+00    5.283527e-01   7.939788e-03
  3.701409e+00    5.352226e-01   8.007814e-03
  3.703620e+00    5.373917e-01   8.040496e-03
  3.705830e+00    5.641084e-01   8.254980e-03
  3.708041e+00    5.281366e-01   8.004139e-03
  3.710251e+00    5.095670e-01   7.878584e-03
  3.712461e+00    5.261672e-01   8.022727e-03
  3.714672e+00    5.242617e-01   8.024912e-03
  3.716882e+00    5.296339e-01   8.082813e-03
  3.719093e+00    5.263148e-01   8.074657e-03
  3.721303e+00    5.443376e-01   8.229134e-03
  3.723514e+00    5.294769e-01   8.133431e-03
  3.725724e+00    5.248268e-01   8.114931e-03
  3.727935e+00    5.297003e-01   8.170140e-03
  3.730145e+00    5.189651e-01   8.104336e-03
  3.732356e+00    5.181211e-01   8.115295e-03
  3.734566e+00    5.163291e-01   8.118779e-03
  3.736776e+00    5.292083e-01   8.237424e-03
  3.738987e+00    5.095930e-01   8.100962e-03
  3.741197e+00    5.082666e-01   8.108367e-03
  3.743408e+00    5.142788e-01   8.174272e-03
  3.745618e+00    4.916653e-01   8.010402e-03
  3.747829e+00    5.277715e-01   8.317707e-03
  3.750039e+00    5.231783e-01   8.300068e-03
  3.752250e+00    5.338489e-01   8.403094e-03
  3.754460e+00    5.158947e-01   8.279299e-03
  3.756671e+00    5.086897e-01   8.240042e-03
  3.758881e+00    5.223193e-01   8.368580e-03
  3.761091e+00    5.007879e-01   8.213275e-03
  3.763302e+00    5.183786e-01   8.375551e-03
  3.765512e+00    5.072595e-01   8.304490e-03
  3.767723e+00    5.231646e-01   8.453278e-03
  3.769933e+00    5.241397e-01   8.480905e-03
  3.772144e+00    5.060338e-01   8.352701e-03
  3.774354e+00    5.183862e-01   8.474066e-03
  3.776565e+00    5.125374e-01   8.446156e-03
  3.778775e+00    5.442768e-01   8.724475e-03
  3.780986e+00    4.989418e-01   8.373483e-03
  3.783196e+00    4.981348e-01   8.386768e-03
  3.785407e+00    5.160658e-01   8.557078e-03
  3.787617e+00    5.128698e-01   8.551520e-03
  3.789827e+00    5.052078e-01   8.507974e-03
  3.792038e+00    5.162253e-01   8.621408e-03
  3.794248e+00    5.037296e-01   8.537620e-03
  3.796459e+00    4.900106e-01   8.441664e-03
  3.798669e+00    4.962055e-01   8.516148e-03
  3.800880e+00    5.025550e-01   8.591940e-03
  3.803090e+00    4.999582e-01   8.591517e-03
  3.805301e+00    5.087580e-01   8.689101e-03
  3.807511e+00    4.937605e-01   8.581927e-03
  3.809722e+00    4.971812e-01   8.633782e-03
  3.811932e+00    4.928470e-01   8.618121e-03
  3.814142e+00    4.961604e-01   8.669890e-03
  3.816353e+00    5.103914e-01   8.816381e-03
  3.818563e+00    5.075229e-01   8.814932e-03
  3.820774e+00    5.057681e-01   8.822976e-03
  3.822984e+00    5.030252e-01   8.822533e-03
  3.825195e+00    5.031526e-01   8.847536e-03
  3.827405e+00    5.231741e-01   9.046254e-03
  3.829616e+00    5.255944e-01   9.091944e-03
  3.831826e+00    4.948535e-01   8.846191e-03
  3.834037e+00    4.997883e-01   8.914727e-03
  3.836247e+00    5.059240e-01   8.994165e-03
  3.838457e+00    4.912883e-01   8.888081e-03
  3.840668e+00    5.020407e-01   9.010063e-03
  3.842878e+00    5.108073e-01   9.114368e-03
  3.845089e+00    4.838427e-01   8.895762e-03
  3.847299e+00    5.112008e-01   9.170001e-03
  3.849510e+00    5.077436e-01   9.165152e-03
  3.851720e+00    4.883742e-01   9.009873e-03
  3.853931e+00    5.155550e-01   9.276601e-03
  3.856141e+00    4.909289e-01   9.071275e-03
  3.858352e+00    5.041513e-01   9.212058e-03
  3.860562e+00    5.018318e-01   9.210374e-03
  3.862772e+00    4.921093e-01   9.140154e-03
  3.864983e+00    4.956677e-01   9.192877e-03
  3.867193e+00    4.936274e-01   9.193810e-03
  3.869404e+00    4.484675e-01   8.781980e-03
  3.871614e+00    4.774081e-01   9.080555e-03
  3.873825e+00    4.806703e-01   9.131590e-03
  3.876035e+00    4.778786e-01   9.125290e-03
  3.878246e+00    5.181372e-01   9.528338e-03
  3.880456e+00    4.906576e-01   9.301178e-03
  3.882667e+00    4.865921e-01   9.291731e-03
  3.884877e+00    4.856334e-01   9.312131e-03
  3.887087e+00    5.109020e-01   9.581792e-03
  3.889298e+00    5.122808e-01   9.625810e-03
  3.891508e+00    4.977191e-01   9.518708e-03
  3.893719e+00    5.091958e-01   9.659429e-03
  3.895929e+00    4.732485e-01   9.343069e-03
  3.898140e+00    5.271377e-01   9.893524e-03
  3.900350e+00    5.185831e-01   9.845994e-03
  3.902561e+00    5.022479e-01   9.722449e-03
  3.904771e+00    4.845022e-01   9.581723e-03
  3.906982e+00    5.163276e-01   9.925524e-03
  3.909192e+00    5.046294e-01   9.846439e-03
  3.911403e+00    4.759553e-01   9.596190e-03
  3.913613e+00    4.650541e-01   9.519053e-03
  3.915823e+00    4.819462e-01   9.724934e-03
  3.918034e+00    4.990085e-01   9.931250e-03
  3.920244e+00    4.756482e-01   9.731256e-03
  3.922455e+00    4.959741e-01   9.973386e-03
  3.924665e+00    4.912647e-01   9.962473e-03
  3.926876e+00    4.641926e-01   9.720339e-03
  3.929086e+00    4.579368e-01   9.690728e-03
  3.931297e+00    4.607091e-01   9.753851e-03
  3.933507e+00    5.175304e-01   1.036770e-02
  3.935718e+00    4.871131e-01   1.008716e-02
  3.937928e+00    4.807861e-01   1.005070e-02
  3.940138e+00    4.780528e-01   1.005108e-02
  3.942349e+00    5.069726e-01   1.038113e-02
  3.944559e+00    5.362197e-01   1.070791e-02
  3.946770e+00    5.124645e-01   1.049897e-02
  3.948980e+00    5.308008e-01   1.071723e-02
  3.951191e+00    4.932990e-01   1.036275e-02
  3.953401e+00    4.897941e-01   1.035733e-02
  3.955612e+00    5.234391e-01   1.074001e-02
  3.957822e+00    5.031917e-01   1.056255e-02
  3.960033e+00    4.784473e-01   1.033177e-02
  3.962243e+00    5.108064e-01   1.070924e-02
  3.964453e+00    5.010405e-01   1.063999e-02
  3.966664e+00    5.243410e-01   1.091931e-02
  3.968874e+00    4.974578e-01   1.066437e-02
  3.971085e+00    5.206572e-01   1.093295e-02
  3.973295e+00    4.916137e-01   1.064531e-02
  3.975506e+00    4.952910e-01   1.070680e-02
  3.977716e+00    5.181173e-01   1.097351e-02
  3.979927e+00    4.775648e-01   1.055723e-02
  3.982137e+00    4.784541e-01   1.058922e-02
  3.984348e+00    4.744585e-01   1.056726e-02
  3.986558e+00    5.058917e-01   1.093428e-02
  3.988768e+00    4.881315e-01   1.076399e-02
  3.990979e+00    4.533065e-01   1.039476e-02
  3.993189e+00    4.600742e-01   1.049452e-02
  3.995400e+00    4.979642e-01   1.094196e-02
  3.997610e+00    4.950457e-01   1.094006e-02
  3.999821e+00    4.683705e-01   1.067802e-02
  4.002031e+00    5.134023e-01   1.121903e-02
  4.004242e+00    4.814303e-01   1.090265e-02
  4.006452e+00    4.827827e-01   1.095707e-02
  4.008663e+00    5.270281e-01   1.148986e-02
  4.010873e+00    4.872842e-01   1.108833e-02
  4.013084e+00    4.959554e-01   1.122788e-02
  4.015294e+00    4.898672e-01   1.120006e-02
  4.017504e+00    5.106760e-01   1.147830e-02
  4.019715e+00    4.727965e-01   1.108658e-02
  4.021925e+00    4.699775e-01   1.109571e-02
  4.024136e+00    4.820263e-01   1.128062e-02
  4.026346e+00    4.922362e-01   1.144399e-02
  4.028557e+00    4.652696e-01   1.116956e-02
  4.030767e+00    4.893707e-01   1.150117e-02
  4.032978e+00    4.893082e-01   1.154691e-02
  4.035188e+00    4.977740e-01   1.169329e-02
  4.037399e+00    4.894291e-01   1.164269e-02
  4.039609e+00    4.604188e-01   1.133893e-02
  4.041819e+00    4.852176e-01   1.168915e-02
  4.044030e+00    4.886352e-01   1.178050e-02
  4.046240e+00    4.705797e-01   1.160995e-02
  4.048451e+00    5.102017e-01   1.214120e-02
  4.050661e+00    5.119323e-01   1.221467e-02
  4.052872e+00    5.188938e-01   1.235227e-02
  4.055082e+00    4.791556e-01   1.192311e-02
  4.057293e+00    4.858423e-01   1.205995e-02
  4.059503e+00    4.730458e-01   1.195416e-02
  4.061714e+00    4.822384e-01   1.212628e-02
  4.063924e+00    4.625109e-01   1.193117e-02
  4.066134e+00    4.891720e-01   1.232813e-02
  4.068345e+00    4.561671e-01   1.196228e-02
  4.070555e+00    4.678095e-01   1.217254e-02
  4.072766e+00    4.383206e-01   1.184050e-02
  4.074976e+00    4.810551e-01   1.246612e-02
  4.077187e+00    5.061982e-01   1.285133e-02
  4.079397e+00    4.670582e-01   1.240768e-02
  4.081608e+00    4.779477e-01   1.261659e-02
  4.083818e+00    4.988500e-01   1.295660e-02
  4.086029e+00    5.027776e-01   1.307622e-02
  4.088239e+00    4.855201e-01   1.291898e-02
  4.090449e+00    4.509505e-01   1.251804e-02
  4.092660e+00    4.784340e-01   1.296476e-02
  4.094870e+00    4.616925e-01   1.280677e-02
  4.097081e+00    5.078532e-01   1.350530e-02
  4.099291e+00    4.941901e-01   1.337758e-02
  4.101502e+00    4.660627e-01   1.303980e-02
  4.103712e+00    4.781488e-01   1.325683e-02
  4.105923e+00    4.733065e-01   1.324078e-02
  4.108133e+00    5.094191e-01   1.378951e-02
  4.110344e+00    4.844713e-01   1.349915e-02
  4.112554e+00    4.461333e-01   1.300502e-02
  4.114764e+00    4.786307e-01   1.352454e-02
  4.116975e+00    5.057456e-01   1.395714e-02
  4.119185e+00    5.025606e-01   1.396967e-02
  4.121396e+00    4.735008e-01   1.361592e-02
  4.123606e+00    4.878333e-01   1.387690e-02
  4.125817e+00    4.767593e-01   1.377611e-02
  4.128027e+00    5.121524e-01   1.433837e-02
  4.130238e+00    4.891571e-01   1.407275e-02
  4.132448e+00    5.481907e-01   1.496273e-02
  4.134659e+00    4.600886e-01   1.376658e-02
  4.136869e+00    4.964134e-01   1.436342e-02
  4.139080e+00    4.995091e-01   1.447308e-02
  4.141290e+00    5.237768e-01   1.488620e-02
  4.143500e+00    5.173776e-01   1.486314e-02
  4.145711e+00    5.125550e-01   1.486290e-02
  4.147921e+00    5.448261e-01   1.539390e-02
  4.150132e+00    5.298238e-01   1.525293e-02
  4.152342e+00    4.787723e-01   1.456982e-02
  4.154553e+00    4.941547e-01   1.487220e-02
  4.156763e+00    4.950106e-01   1.495897e-02
  4.158974e+00    4.803503e-01   1.480971e-02
  4.161184e+00    4.950869e-01   1.510982e-02
  4.163395e+00    4.545675e-01   1.455208e-02
  4.165605e+00    4.476838e-01   1.451682e-02
  4.167815e+00    4.752856e-01   1.503540e-02
  4.170026e+00    5.153398e-01   1.573866e-02
  4.172236e+00    5.210744e-01   1.591164e-02
  4.174447e+00    5.120955e-01   1.585983e-02
  4.176657e+00    4.665027e-01   1.522004e-02
  4.178868e+00    5.015976e-01   1.587155e-02
  4.181078e+00    4.491745e-01   1.510398e-02
  4.183289e+00    4.452703e-01   1.512404e-02
  4.185499e+00    4.406615e-01   1.513442e-02
  4.187710e+00    5.253248e-01   1.662116e-02
  4.189920e+00    4.900834e-01   1.615096e-02
  4.192130e+00    5.028805e-01   1.646013e-02
  4.194341e+00    4.661377e-01   1.594466e-02
  4.196551e+00    5.163186e-01   1.688728e-02
  4.198762e+00    4.791087e-01   1.637061e-02
  4.200972e+00    5.044034e-01   1.690602e-02
  4.203183e+00    4.991291e-01   1.692823e-02
  4.205393e+00    5.131325e-01   1.727813e-02
  4.207604e+00    5.240170e-01   1.757967e-02
  4.209814e+00    5.478268e-01   1.809798e-02
  4.212025e+00    4.776220e-01   1.701836e-02
  4.214235e+00    4.763527e-01   1.711614e-02
  4.216445e+00    4.353222e-01   1.648064e-02
  4.218656e+00    4.434732e-01   1.675902e-02
  4.220866e+00    4.773218e-01   1.751528e-02
  4.223077e+00    4.742237e-01   1.759315e-02
  4.225287e+00    4.717285e-01   1.768438e-02
  4.227498e+00    4.850502e-01   1.807314e-02
  4.229708e+00    5.243056e-01   1.894281e-02
  4.231919e+00    4.530879e-01   1.775565e-02
  4.234129e+00    4.647584e-01   1.813315e-02
  4.236340e+00    4.487764e-01   1.797122e-02
  4.238550e+00    4.599449e-01   1.835407e-02
  4.240761e+00    4.909471e-01   1.913022e-02
  4.242971e+00    4.685709e-01   1.886018e-02
  4.245181e+00    5.167736e-01   1.999235e-02
  4.247392e+00    5.628241e-01   2.105976e-02
  4.249602e+00    4.607505e-01   1.924381e-02
  4.251813e+00    4.563767e-01   1.934075e-02
  4.254023e+00    4.260573e-01   1.887558e-02
  4.256234e+00    5.084410e-01   2.084041e-02
  4.258444e+00    4.561557e-01   1.994596e-02
  4.260655e+00    4.421687e-01   1.985439e-02
  4.262865e+00    4.397530e-01   2.002396e-02
  4.265076e+00    4.729745e-01   2.100288e-02
  4.267286e+00    5.186768e-01   2.225518e-02
  4.269496e+00    4.921110e-01   2.194260e-02
  4.271707e+00    4.455174e-01   2.113523e-02
  4.273917e+00    5.561637e-01   2.392005e-02
  4.276128e+00    5.087430e-01   2.318163e-02
  4.278338e+00    4.481232e-01   2.204710e-02
  4.280549e+00    4.251260e-01   2.178207e-02
  4.282759e+00    5.366148e-01   2.482324e-02
  4.284970e+00    4.794559e-01   2.381196e-02
  4.287180e+00    4.294582e-01   2.280582e-02
  4.289391e+00    4.500774e-01   2.352231e-02
  4.291601e+00    4.573369e-01   2.390059e-02
  4.293811e+00    4.718077e-01   2.446588e-02
  4.296022e+00    4.722374e-01   2.467327e-02
  4.298232e+00    4.868398e-01   2.526161e-02
  4.300443e+00    4.753482e-01   2.516817e-02
  4.302653e+00    4.769628e-01   2.542874e-02
  4.304864e+00    5.334542e-01   2.712538e-02
  4.307074e+00    4.360847e-01   2.474599e-02
  4.309285e+00    4.688533e-01   2.589181e-02
  4.311495e+00    4.781384e-01   2.639113e-02
  4.313706e+00    4.445976e-01   2.568835e-02
  4.315916e+00    4.198227e-01   2.520752e-02
  4.318126e+00    4.787481e-01   2.718486e-02
  4.320337e+00    4.226551e-01   2.580138e-02
  4.322547e+00    5.761989e-01   3.044467e-02
  4.324758e+00    4.641601e-01   2.760955e-02
  4.326968e+00    4.887156e-01   2.864876e-02
  4.329179e+00    5.884246e-01   3.178305e-02
  4.331389e+00    4.652786e-01   2.858730e-02
  4.333600e+00    5.821474e-01   3.235813e-02
  4.335810e+00    5.373999e-01   3.146086e-02
  4.338021e+00    4.751223e-01   2.996035e-02
  4.340231e+00    4.133560e-01   2.829472e-02
  4.342442e+00    4.450864e-01   2.975599e-02
  4.344652e+00    4.282727e-01   2.958406e-02
  4.346862e+00    4.514026e-01   3.079755e-02
  4.349073e+00    4.766293e-01   3.210760e-02
  4.351283e+00    5.057770e-01   3.356772e-02
  4.353494e+00    5.613354e-01   3.591097e-02
  4.355704e+00    3.818743e-01   3.009572e-02
  4.357915e+00    4.445181e-01   3.301156e-02
  4.360125e+00    4.038874e-01   3.200422e-02
  4.362336e+00    4.008459e-01   3.246301e-02
  4.364546e+00    4.699306e-01   3.578944e-02
  4.366757e+00    5.501707e-01   3.949638e-02
  4.368967e+00    3.859275e-01   3.373919e-02
  4.371177e+00    4.936805e-01   3.896926e-02
  4.373388e+00    5.707696e-01   4.284088e-02
  4.375598e+00    4.773750e-01   4.007295e-02
  4.377809e+00    4.375295e-01   3.933445e-02
  4.380019e+00    4.298632e-01   3.996781e-02
  4.382230e+00    2.917081e-01   3.384512e-02
  4.384440e+00    3.160993e-01   3.624302e-02
  4.386651e+00    3.819670e-01   4.107118e-02
  4.388861e+00    3.358376e-01   3.980185e-02
  4.391072e+00    3.910817e-01   4.446280e-02
  4.393282e+00    6.187640e-01   5.808424e-02
  4.395492e+00    5.276780e-01   5.587573e-02
  4.397703e+00    3.968852e-01   5.067024e-02
  4.399913e+00    3.719934e-01   5.153656e-02
  4.402124e+00    2.441329e-01   4.412249e-02
  4.404334e+00    3.332666e-01   5.479027e-02
  4.406545e+00    1.238921e-01   3.590151e-02
  4.408755e+00    6.098595e-01   8.636657e-02
  4.410966e+00    4.192661e-01   7.926084e-02
  4.413176e+00    1.783494e-01   5.852221e-02
  4.415387e+00   -7.639862e-01            nan
  4.417597e+00   -1.866404e+00            nan
  4.419807e+00    1.431295e-01   1.358686e-01
