# == pyFAI calibration ==
# Distance Sample to Detector: 0.216 m
# PONI: 1.166e-01, 1.308e-01 m
# Rotations: 0.000000 0.000000 0.000000 rad
# 
# == Fit2d calibration ==
# Distance Sample-beamCenter: 216.000 mm
# Center: x=1744.293, y=1555.000 pix
# Tilt: 0.000 deg  TiltPlanRot: 0.000 deg
# 
# Detector Eiger 9M	 PixelSize= 7.500e-05, 7.500e-05 m
#    Detector has a mask: True 
#    Detector has a dark current: False 
#    detector has a flat field: False 
# 
# Wavelength: 9.8e-11 m
# Mask applied: from detector
# Dark current applied: False
# Flat field applied: False
# Polarization factor: None
# Normalization factor: 1.0
# 
# Headers of the input frame:
# {
# "_array_data.header_convention": "SLS_1.0",
# "_array_data.header_contents": "# Detector: Dectris Eiger 9M, S/N E-18-0102\r\n# Pixel_size 75e-6 m x 75e-6 m\r\n# Silicon sensor, thickness 0.000450 m\r\n# Exposure_time 0.024997 s\r\n# Exposure_period 0.025000 s\r\n# Count_cutoff 62318 counts\r\n# Wavelength 0.980106 A\r\n# Detector_distance 0.215992 m\r\n# Beam_xy (1555, 1744) pixels\r\n# Start_angle 0.000000 deg.\r\n# Angle_increment 0.000000 deg.",
# "Content-Type": "application/octet-stream;",
# "conversions": "x-CBF_BYTE_OFFSET",
# "Content-Transfer-Encoding": "BINARY",
# "X-Binary-Size": "10166600",
# "X-Binary-ID": "1",
# "X-Binary-Element-Type": "signed 32-bit integer",
# "X-Binary-Element-Byte-Order": "LITTLE_ENDIAN",
# "Content-MD5": "XB+p9SPJ9elNOQdpr+Yrag==",
# "X-Binary-Number-of-Elements": "10166590",
# "X-Binary-Size-Fastest-Dimension": "3110",
# "X-Binary-Size-Second-Dimension": "3269",
# "X-Binary-Size-Padding": "4095"
# }
# --> H:/Proxima2a_2019-04-05/RAW_DATA/C5_gel17_position5/C5_mesh_1_data.cbf/C5_mesh_1_data.cbf000087.dat
#        q_A^-1              I           sigma 
  1.105228e-03    5.780950e-01   4.114211e-01
  3.315685e-03    1.246963e+00   3.673434e-01
  5.526141e-03    1.553908e+00   3.170916e-01
  7.736597e-03    1.531607e+00   2.659462e-01
  9.947054e-03    1.506364e+00   2.325099e-01
  1.215751e-02    1.398121e+00   2.025541e-01
  1.436797e-02    1.366132e+00   1.841714e-01
  1.657842e-02    1.433025e+00   1.755785e-01
  1.878888e-02    1.600117e+00   1.742767e-01
  2.099934e-02    1.600708e+00   1.649142e-01
  2.320979e-02    1.340241e+00   1.435240e-01
  2.542025e-02    1.254289e+00   1.326808e-01
  2.763070e-02    1.271135e+00   1.281109e-01
  2.984116e-02    1.369496e+00   1.279549e-01
  3.205162e-02    1.454492e+00   1.272454e-01
  3.426207e-02    1.256175e+00   1.143668e-01
  3.647253e-02    1.458684e+00   1.194456e-01
  3.868299e-02    1.333499e+00   1.109027e-01
  4.089344e-02    1.309212e+00   1.068773e-01
  4.310390e-02    1.467074e+00   1.101920e-01
  4.531436e-02    1.395882e+00   1.048311e-01
  4.752481e-02    1.465002e+00   1.048668e-01
  4.973527e-02    1.346187e+00   9.826628e-02
  5.194572e-02    1.401942e+00   9.812232e-02
  5.415618e-02    1.450296e+00   9.773882e-02
  5.636664e-02    1.431810e+00   9.519364e-02
  5.857709e-02    1.394724e+00   9.216344e-02
  6.078755e-02    1.318277e+00   8.795505e-02
  6.299801e-02    1.334933e+00   8.694129e-02
  6.520846e-02    1.508179e+00   9.083164e-02
  6.741892e-02    1.530496e+00   8.998413e-02
  6.962938e-02    1.425528e+00   8.545831e-02
  7.183983e-02    1.480547e+00   8.573993e-02
  7.405029e-02    1.415396e+00   8.256962e-02
  7.626074e-02    1.353192e+00   7.955545e-02
  7.847120e-02    1.433377e+00   8.071499e-02
  8.068166e-02    1.405898e+00   7.883429e-02
  8.289211e-02    1.435700e+00   7.859565e-02
  8.510257e-02    1.417403e+00   7.707191e-02
  8.731303e-02    1.349920e+00   7.425383e-02
  8.952348e-02    1.390788e+00   7.443513e-02
  9.173394e-02    1.465746e+00   7.548545e-02
  9.394439e-02    1.440125e+00   7.393491e-02
  9.615485e-02    1.445953e+00   7.322625e-02
  9.836531e-02    1.391969e+00   7.103252e-02
  1.005758e-01    1.393968e+00   7.029846e-02
  1.027862e-01    1.460487e+00   7.117653e-02
  1.049967e-01    1.523521e+00   7.192570e-02
  1.072071e-01    1.541769e+00   7.160452e-02
  1.094176e-01    1.531402e+00   7.063776e-02
  1.116280e-01    1.499652e+00   6.920459e-02
  1.138385e-01    1.541872e+00   6.948601e-02
  1.160490e-01    1.555114e+00   6.911514e-02
  1.182594e-01    1.597196e+00   6.938481e-02
  1.204699e-01    1.471853e+00   6.599225e-02
  1.226803e-01    1.460268e+00   6.513441e-02
  1.248908e-01    1.540089e+00   6.629556e-02
  1.271012e-01    1.627507e+00   6.755456e-02
  1.293117e-01    1.568436e+00   6.574719e-02
  1.315222e-01    1.534215e+00   6.447574e-02
  1.337326e-01    1.591790e+00   6.512811e-02
  1.359431e-01    1.701781e+00   6.738009e-02
  1.381535e-01    1.539972e+00   6.495719e-02
  1.403640e-01    1.497661e+00   6.433516e-02
  1.425744e-01    1.554165e+00   6.564227e-02
  1.447849e-01    1.559670e+00   6.577355e-02
  1.469953e-01    1.529901e+00   6.510206e-02
  1.492058e-01    1.503729e+00   6.446777e-02
  1.514163e-01    1.475939e+00   6.376323e-02
  1.536267e-01    1.624698e+00   6.676880e-02
  1.558372e-01    1.622119e+00   6.656852e-02
  1.580476e-01    1.611521e+00   6.618969e-02
  1.602581e-01    1.608727e+00   6.596433e-02
  1.624685e-01    1.616177e+00   6.593587e-02
  1.646790e-01    1.613293e+00   6.568786e-02
  1.668895e-01    1.690504e+00   6.704716e-02
  1.690999e-01    1.752142e+00   6.805357e-02
  1.713104e-01    1.796661e+00   6.869886e-02
  1.735208e-01    1.768701e+00   6.795024e-02
  1.757313e-01    1.778643e+00   6.792739e-02
  1.779417e-01    1.839659e+00   6.885740e-02
  1.801522e-01    1.782930e+00   6.757150e-02
  1.823626e-01    1.917835e+00   6.984797e-02
  1.845731e-01    1.890907e+00   6.913123e-02
  1.867836e-01    1.868382e+00   6.848632e-02
  1.889940e-01    1.864727e+00   6.819573e-02
  1.912045e-01    1.879231e+00   6.823181e-02
  1.934149e-01    1.967617e+00   6.958429e-02
  1.956254e-01    1.932667e+00   6.873607e-02
  1.978358e-01    2.010928e+00   6.987366e-02
  2.000463e-01    2.033411e+00   7.003036e-02
  2.022568e-01    1.977581e+00   6.883559e-02
  2.044672e-01    1.878956e+00   6.686734e-02
  2.066777e-01    1.803046e+00   6.528527e-02
  2.088881e-01    1.821262e+00   6.539953e-02
  2.110986e-01    1.993637e+00   6.818984e-02
  2.133090e-01    1.979577e+00   6.772809e-02
  2.155195e-01    1.988190e+00   6.765010e-02
  2.177300e-01    1.937761e+00   6.626198e-02
  2.199404e-01    1.944602e+00   6.462976e-02
  2.221509e-01    1.898982e+00   6.281842e-02
  2.243613e-01    2.052447e+00   6.447950e-02
  2.265718e-01    2.090899e+00   6.436341e-02
  2.287822e-01    1.999099e+00   6.231168e-02
  2.309927e-01    2.064534e+00   6.274641e-02
  2.332031e-01    2.096398e+00   6.268761e-02
  2.354136e-01    2.152304e+00   6.300317e-02
  2.376241e-01    2.093788e+00   6.165850e-02
  2.398345e-01    2.166412e+00   6.225452e-02
  2.420450e-01    2.166003e+00   6.180380e-02
  2.442554e-01    2.095325e+00   6.036831e-02
  2.464659e-01    2.122465e+00   6.035007e-02
  2.486763e-01    2.195245e+00   6.097266e-02
  2.508868e-01    2.173250e+00   6.028371e-02
  2.530973e-01    2.144767e+00   5.951608e-02
  2.553077e-01    2.055211e+00   5.790688e-02
  2.575182e-01    2.090271e+00   5.805318e-02
  2.597286e-01    2.059269e+00   5.728611e-02
  2.619391e-01    2.088791e+00   5.736312e-02
  2.641495e-01    2.059317e+00   5.664173e-02
  2.663600e-01    2.102812e+00   5.692202e-02
  2.685704e-01    2.016978e+00   5.544597e-02
  2.707809e-01    2.018479e+00   5.517220e-02
  2.729914e-01    1.965857e+00   5.416451e-02
  2.752018e-01    2.028435e+00   5.473349e-02
  2.774123e-01    1.999506e+00   5.406422e-02
  2.796227e-01    2.004475e+00   5.386357e-02
  2.818332e-01    1.995128e+00   5.346978e-02
  2.840436e-01    1.960696e+00   5.274943e-02
  2.862541e-01    1.942420e+00   5.225063e-02
  2.884646e-01    1.941904e+00   5.199575e-02
  2.906750e-01    1.936571e+00   5.167809e-02
  2.928855e-01    1.937800e+00   5.145497e-02
  2.950959e-01    1.858611e+00   5.016116e-02
  2.973064e-01    1.921572e+00   5.077444e-02
  2.995168e-01    1.955432e+00   5.098789e-02
  3.017273e-01    1.850085e+00   4.937674e-02
  3.039377e-01    1.940472e+00   5.034710e-02
  3.061482e-01    1.990262e+00   5.076835e-02
  3.083587e-01    1.962577e+00   5.019582e-02
  3.105691e-01    1.863803e+00   4.870743e-02
  3.127796e-01    1.859654e+00   4.844863e-02
  3.149900e-01    1.846224e+00   4.807223e-02
  3.172005e-01    1.808008e+00   4.737758e-02
  3.194109e-01    1.817066e+00   4.730002e-02
  3.216214e-01    1.868090e+00   4.776385e-02
  3.238319e-01    1.870338e+00   4.760322e-02
  3.260423e-01    1.848718e+00   4.713878e-02
  3.282528e-01    1.817574e+00   4.655397e-02
  3.304632e-01    1.826287e+00   4.648463e-02
  3.326737e-01    1.877397e+00   4.694670e-02
  3.348841e-01    1.881627e+00   4.681733e-02
  3.370946e-01    1.851223e+00   4.626280e-02
  3.393050e-01    1.845043e+00   4.601059e-02
  3.415155e-01    1.801593e+00   4.529464e-02
  3.437260e-01    1.792803e+00   4.501652e-02
  3.459364e-01    1.815080e+00   4.512780e-02
  3.481469e-01    1.799353e+00   4.476784e-02
  3.503573e-01    1.846886e+00   4.519007e-02
  3.525678e-01    1.848427e+00   4.504784e-02
  3.547782e-01    1.758316e+00   4.377725e-02
  3.569887e-01    1.806712e+00   4.421839e-02
  3.591992e-01    1.808674e+00   4.408587e-02
  3.614096e-01    1.776607e+00   4.354180e-02
  3.636201e-01    1.748796e+00   4.304786e-02
  3.658305e-01    1.760473e+00   4.304400e-02
  3.680410e-01    1.777149e+00   4.309864e-02
  3.702514e-01    1.808691e+00   4.333321e-02
  3.724619e-01    1.746963e+00   4.244232e-02
  3.746724e-01    1.754943e+00   4.239721e-02
  3.768828e-01    1.769780e+00   4.243279e-02
  3.790933e-01    1.775997e+00   4.236875e-02
  3.813037e-01    1.771194e+00   4.217296e-02
  3.835142e-01    1.796062e+00   4.232854e-02
  3.857246e-01    1.759426e+00   4.175900e-02
  3.879351e-01    1.776078e+00   4.182036e-02
  3.901455e-01    1.763337e+00   4.153741e-02
  3.923560e-01    1.788567e+00   4.170056e-02
  3.945665e-01    1.778693e+00   4.145343e-02
  3.967769e-01    1.729809e+00   4.075180e-02
  3.989874e-01    1.786072e+00   4.127992e-02
  4.011978e-01    1.777314e+00   4.105198e-02
  4.034083e-01    1.777838e+00   4.093197e-02
  4.056187e-01    1.790279e+00   4.094841e-02
  4.078292e-01    1.799489e+00   4.092936e-02
  4.100397e-01    1.781422e+00   4.059904e-02
  4.122501e-01    1.788736e+00   4.056059e-02
  4.144606e-01    1.736329e+00   3.984349e-02
  4.166710e-01    1.752492e+00   3.990949e-02
  4.188815e-01    1.740964e+00   3.966050e-02
  4.210919e-01    1.770788e+00   3.988153e-02
  4.233024e-01    1.822284e+00   4.033827e-02
  4.255128e-01    1.818591e+00   4.018091e-02
  4.277233e-01    1.779151e+00   3.962863e-02
  4.299338e-01    1.725299e+00   3.891198e-02
  4.321442e-01    1.724990e+00   3.879714e-02
  4.343547e-01    1.756872e+00   3.904334e-02
  4.365651e-01    1.752522e+00   3.888417e-02
  4.387756e-01    1.719713e+00   3.841064e-02
  4.409860e-01    1.713273e+00   3.823241e-02
  4.431965e-01    1.752998e+00   3.856620e-02
  4.454070e-01    1.761336e+00   3.855024e-02
  4.476174e-01    1.792359e+00   3.878149e-02
  4.498279e-01    1.729045e+00   3.798674e-02
  4.520383e-01    1.744154e+00   3.804762e-02
  4.542488e-01    1.738812e+00   3.788691e-02
  4.564592e-01    1.723516e+00   3.761867e-02
  4.586697e-01    1.755596e+00   3.786641e-02
  4.608801e-01    1.710644e+00   3.727835e-02
  4.630906e-01    1.703850e+00   3.710575e-02
  4.653011e-01    1.701752e+00   3.698536e-02
  4.675115e-01    1.732777e+00   3.722270e-02
  4.697220e-01    1.711476e+00   3.689636e-02
  4.719324e-01    1.690924e+00   3.657929e-02
  4.741429e-01    1.741286e+00   3.702437e-02
  4.763533e-01    1.775761e+00   3.729324e-02
  4.785638e-01    1.681125e+00   3.619218e-02
  4.807743e-01    1.658062e+00   3.585164e-02
  4.829847e-01    1.668231e+00   3.587057e-02
  4.851952e-01    1.693342e+00   3.604806e-02
  4.874056e-01    1.790125e+00   3.697047e-02
  4.896161e-01    1.762083e+00   3.658883e-02
  4.918265e-01    1.662622e+00   3.545292e-02
  4.940370e-01    1.674434e+00   3.549078e-02
  4.962475e-01    1.697376e+00   3.564486e-02
  4.984579e-01    1.658928e+00   3.515198e-02
  5.006684e-01    1.615293e+00   3.460204e-02
  5.028788e-01    1.646624e+00   3.485134e-02
  5.050893e-01    1.673478e+00   3.504892e-02
  5.072997e-01    1.689256e+00   3.512872e-02
  5.095102e-01    1.679150e+00   3.493961e-02
  5.117206e-01    1.658500e+00   3.464153e-02
  5.139311e-01    1.690685e+00   3.489326e-02
  5.161416e-01    1.665135e+00   3.454678e-02
  5.183520e-01    1.654747e+00   3.435700e-02
  5.205625e-01    1.675372e+00   3.448946e-02
  5.227729e-01    1.693240e+00   3.459203e-02
  5.249834e-01    1.718272e+00   3.476589e-02
  5.271938e-01    1.731898e+00   3.482202e-02
  5.294043e-01    1.727748e+00   3.470001e-02
  5.316148e-01    1.738675e+00   3.472984e-02
  5.338252e-01    1.767521e+00   3.493673e-02
  5.360357e-01    1.732840e+00   3.451352e-02
  5.382461e-01    1.743801e+00   3.454426e-02
  5.404566e-01    1.757444e+00   3.460018e-02
  5.426670e-01    1.743559e+00   3.438559e-02
  5.448775e-01    1.735944e+00   3.423376e-02
  5.470879e-01    1.797053e+00   3.475342e-02
  5.492984e-01    1.783048e+00   3.454078e-02
  5.515089e-01    1.729178e+00   3.393954e-02
  5.537193e-01    1.774139e+00   3.430221e-02
  5.559298e-01    1.751756e+00   3.401039e-02
  5.581402e-01    1.760218e+00   3.401792e-02
  5.603507e-01    1.772237e+00   3.405958e-02
  5.625611e-01    1.757026e+00   3.383952e-02
  5.647716e-01    1.728267e+00   3.348855e-02
  5.669821e-01    1.762307e+00   3.374385e-02
  5.691925e-01    1.737227e+00   3.343096e-02
  5.714030e-01    1.715783e+00   3.315316e-02
  5.736134e-01    1.722607e+00   3.314835e-02
  5.758239e-01    1.685688e+00   3.272124e-02
  5.780343e-01    1.667834e+00   3.247863e-02
  5.802448e-01    1.661203e+00   3.234614e-02
  5.824552e-01    1.692331e+00   3.257930e-02
  5.846657e-01    1.642917e+00   3.203322e-02
  5.868762e-01    1.632604e+00   3.186604e-02
  5.890866e-01    1.628803e+00   3.176289e-02
  5.912971e-01    1.616934e+00   3.158142e-02
  5.935075e-01    1.644824e+00   3.178680e-02
  5.957180e-01    1.628867e+00   3.156734e-02
  5.979284e-01    1.619092e+00   3.140824e-02
  6.001389e-01    1.608992e+00   3.124635e-02
  6.023494e-01    1.646059e+00   3.154004e-02
  6.045598e-01    1.639484e+00   3.141291e-02
  6.067703e-01    1.633210e+00   3.128970e-02
  6.089807e-01    1.635762e+00   3.125117e-02
  6.111912e-01    1.688665e+00   3.168910e-02
  6.134016e-01    1.671687e+00   3.146653e-02
  6.156121e-01    1.675699e+00   3.144163e-02
  6.178226e-01    1.685078e+00   3.146707e-02
  6.200330e-01    1.704625e+00   3.158664e-02
  6.222435e-01    1.686939e+00   3.136010e-02
  6.244539e-01    1.697646e+00   3.139785e-02
  6.266644e-01    1.721651e+00   3.155740e-02
  6.288748e-01    1.711296e+00   3.140112e-02
  6.310853e-01    1.706533e+00   3.129650e-02
  6.332957e-01    1.701907e+00   3.119370e-02
  6.355062e-01    1.723138e+00   3.132671e-02
  6.377167e-01    1.694010e+00   3.100120e-02
  6.399271e-01    1.704696e+00   3.103923e-02
  6.421376e-01    1.659619e+00   3.056766e-02
  6.443480e-01    1.641457e+00   3.034209e-02
  6.465585e-01    1.656092e+00   3.041932e-02
  6.487689e-01    1.665465e+00   3.044768e-02
  6.509794e-01    1.678818e+00   3.051183e-02
  6.531899e-01    1.641095e+00   3.011038e-02
  6.554003e-01    1.596492e+00   2.964250e-02
  6.576108e-01    1.635469e+00   2.994634e-02
  6.598212e-01    1.593862e+00   2.950803e-02
  6.620317e-01    1.580998e+00   2.933424e-02
  6.642421e-01    1.595274e+00   2.941183e-02
  6.664526e-01    1.645119e+00   2.981279e-02
  6.686630e-01    1.607964e+00   2.941972e-02
  6.708735e-01    1.573970e+00   2.905368e-02
  6.730840e-01    1.610105e+00   2.933171e-02
  6.752944e-01    1.601993e+00   2.920452e-02
  6.775049e-01    1.612769e+00   2.924937e-02
  6.797153e-01    1.593569e+00   2.902210e-02
  6.819258e-01    1.610070e+00   2.911936e-02
  6.841362e-01    1.610607e+00   2.907184e-02
  6.863467e-01    1.585430e+00   2.879206e-02
  6.885572e-01    1.583441e+00   2.872242e-02
  6.907676e-01    1.616437e+00   2.896816e-02
  6.929781e-01    1.574671e+00   2.854065e-02
  6.951885e-01    1.561495e+00   2.837064e-02
  6.973990e-01    1.595755e+00   2.862948e-02
  6.996094e-01    1.603622e+00   2.864948e-02
  7.018199e-01    1.576137e+00   2.835305e-02
  7.040303e-01    1.595233e+00   2.847417e-02
  7.062408e-01    1.617063e+00   2.861814e-02
  7.084513e-01    1.571409e+00   2.816219e-02
  7.106617e-01    1.543030e+00   2.785823e-02
  7.128722e-01    1.563722e+00   2.799588e-02
  7.150826e-01    1.534245e+00   2.768296e-02
  7.172931e-01    1.576441e+00   2.801268e-02
  7.195035e-01    1.551633e+00   2.774363e-02
  7.217140e-01    1.546806e+00   2.774944e-02
  7.239245e-01    1.552404e+00   2.802474e-02
  7.261349e-01    1.543633e+00   2.805299e-02
  7.283454e-01    1.580555e+00   2.845905e-02
  7.305558e-01    1.549899e+00   2.823528e-02
  7.327663e-01    1.569664e+00   2.845716e-02
  7.349767e-01    1.552315e+00   2.831575e-02
  7.371872e-01    1.545717e+00   2.824439e-02
  7.393976e-01    1.600735e+00   2.872829e-02
  7.416081e-01    1.569601e+00   2.843141e-02
  7.438186e-01    1.570803e+00   2.829815e-02
  7.460290e-01    1.529179e+00   2.763074e-02
  7.482395e-01    1.521271e+00   2.739093e-02
  7.504499e-01    1.548536e+00   2.750018e-02
  7.526604e-01    1.573024e+00   2.760027e-02
  7.548708e-01    1.548666e+00   2.729707e-02
  7.570813e-01    1.532081e+00   2.710023e-02
  7.592918e-01    1.551622e+00   2.723759e-02
  7.615022e-01    1.553226e+00   2.721809e-02
  7.637127e-01    1.583041e+00   2.744522e-02
  7.659231e-01    1.582063e+00   2.740467e-02
  7.681336e-01    1.563166e+00   2.720902e-02
  7.703440e-01    1.546140e+00   2.702950e-02
  7.725545e-01    1.550962e+00   2.704095e-02
  7.747650e-01    1.597813e+00   2.740787e-02
  7.769754e-01    1.580292e+00   2.720440e-02
  7.791859e-01    1.553863e+00   2.692284e-02
  7.813963e-01    1.567771e+00   2.699064e-02
  7.836068e-01    1.574842e+00   2.699960e-02
  7.858172e-01    1.609985e+00   2.724816e-02
  7.880277e-01    1.577404e+00   2.691973e-02
  7.902381e-01    1.603951e+00   2.709599e-02
  7.924486e-01    1.576011e+00   2.680922e-02
  7.946591e-01    1.598028e+00   2.694755e-02
  7.968695e-01    1.604686e+00   2.695533e-02
  7.990800e-01    1.617283e+00   2.701254e-02
  8.012904e-01    1.645857e+00   2.720301e-02
  8.035009e-01    1.631897e+00   2.703919e-02
  8.057113e-01    1.636165e+00   2.702770e-02
  8.079218e-01    1.652563e+00   2.711594e-02
  8.101323e-01    1.623716e+00   2.683260e-02
  8.123427e-01    1.640764e+00   2.692709e-02
  8.145532e-01    1.613124e+00   2.665365e-02
  8.167636e-01    1.635410e+00   2.679200e-02
  8.189741e-01    1.620139e+00   2.662217e-02
  8.211845e-01    1.624500e+00   2.661329e-02
  8.233950e-01    1.647130e+00   2.675444e-02
  8.256054e-01    1.650452e+00   2.673703e-02
  8.278159e-01    1.657167e+00   2.674714e-02
  8.300264e-01    1.654267e+00   2.668042e-02
  8.322368e-01    1.667880e+00   2.674647e-02
  8.344473e-01    1.633047e+00   2.642241e-02
  8.366577e-01    1.601481e+00   2.612371e-02
  8.388682e-01    1.624313e+00   2.626720e-02
  8.410786e-01    1.628736e+00   2.626102e-02
  8.432891e-01    1.623255e+00   2.617515e-02
  8.454996e-01    1.656467e+00   2.639973e-02
  8.477100e-01    1.688559e+00   2.661191e-02
  8.499205e-01    1.774052e+00   2.723445e-02
  8.521309e-01    1.740718e+00   2.693534e-02
  8.543414e-01    1.674453e+00   2.637645e-02
  8.565518e-01    1.620621e+00   2.590862e-02
  8.587623e-01    1.588659e+00   2.561190e-02
  8.609727e-01    1.574976e+00   2.546182e-02
  8.631832e-01    1.618656e+00   2.577268e-02
  8.653937e-01    1.615148e+00   2.570519e-02
  8.676041e-01    1.588724e+00   2.545557e-02
  8.698146e-01    1.587661e+00   2.540817e-02
  8.720250e-01    1.573000e+00   2.525203e-02
  8.742355e-01    1.575901e+00   2.523683e-02
  8.764459e-01    1.578225e+00   2.521691e-02
  8.786564e-01    1.604045e+00   2.538444e-02
  8.808669e-01    1.603397e+00   2.534085e-02
  8.830773e-01    1.555280e+00   2.492015e-02
  8.852878e-01    1.554151e+00   2.487375e-02
  8.874982e-01    1.538918e+00   2.471562e-02
  8.897087e-01    1.547859e+00   2.475026e-02
  8.919191e-01    1.623735e+00   2.531160e-02
  8.941296e-01    1.604012e+00   2.512009e-02
  8.963401e-01    1.611159e+00   2.513944e-02
  8.985505e-01    1.611701e+00   2.510657e-02
  9.007610e-01    1.617902e+00   2.511788e-02
  9.029714e-01    1.580862e+00   2.479306e-02
  9.051819e-01    1.598348e+00   2.489260e-02
  9.073923e-01    1.578864e+00   2.470410e-02
  9.096028e-01    1.546808e+00   2.441769e-02
  9.118132e-01    1.551411e+00   2.441832e-02
  9.140237e-01    1.548767e+00   2.436147e-02
  9.162342e-01    1.584391e+00   2.460566e-02
  9.184446e-01    1.600496e+00   2.469464e-02
  9.206551e-01    1.597461e+00   2.463564e-02
  9.228655e-01    1.624750e+00   2.480967e-02
  9.250760e-01    1.581138e+00   2.443932e-02
  9.272864e-01    1.571276e+00   2.432904e-02
  9.294969e-01    1.601277e+00   2.452441e-02
  9.317074e-01    1.610906e+00   2.456327e-02
  9.339178e-01    1.634893e+00   2.471169e-02
  9.361283e-01    1.584786e+00   2.429420e-02
  9.383387e-01    1.597363e+00   2.435721e-02
  9.405492e-01    1.644228e+00   2.467743e-02
  9.427596e-01    1.646083e+00   2.465581e-02
  9.449701e-01    1.667671e+00   2.478324e-02
  9.471805e-01    1.657913e+00   2.467564e-02
  9.493910e-01    1.629929e+00   2.443291e-02
  9.516015e-01    1.664772e+00   2.465819e-02
  9.538119e-01    1.687842e+00   2.479446e-02
  9.560224e-01    1.699397e+00   2.484415e-02
  9.582328e-01    1.718915e+00   2.495291e-02
  9.604433e-01    1.731779e+00   2.501062e-02
  9.626537e-01    1.785555e+00   2.536183e-02
  9.648642e-01    1.791562e+00   2.536967e-02
  9.670747e-01    1.835775e+00   2.564538e-02
  9.692851e-01    1.861330e+00   2.578893e-02
  9.714956e-01    1.906316e+00   2.606192e-02
  9.737060e-01    1.990165e+00   2.659392e-02
  9.759165e-01    2.037181e+00   2.686831e-02
  9.781269e-01    1.947970e+00   2.623908e-02
  9.803374e-01    1.846292e+00   2.550974e-02
  9.825478e-01    1.826509e+00   2.533925e-02
  9.847583e-01    1.789834e+00   2.504948e-02
  9.869688e-01    1.793075e+00   2.503860e-02
  9.891792e-01    1.787631e+00   2.496732e-02
  9.913897e-01    1.788418e+00   2.493913e-02
  9.936001e-01    1.801430e+00   2.499691e-02
  9.958106e-01    1.760379e+00   2.467690e-02
  9.980210e-01    1.728817e+00   2.442293e-02
  1.000231e+00    1.664724e+00   2.409722e-02
  1.002442e+00    1.670736e+00   2.426895e-02
  1.004652e+00    1.653908e+00   2.421379e-02
  1.006863e+00    1.637468e+00   2.414314e-02
  1.009073e+00    1.603782e+00   2.393008e-02
  1.011284e+00    1.560618e+00   2.363743e-02
  1.013494e+00    1.535638e+00   2.347072e-02
  1.015705e+00    1.566504e+00   2.372784e-02
  1.017915e+00    1.558511e+00   2.368354e-02
  1.020126e+00    1.564550e+00   2.374542e-02
  1.022336e+00    1.518728e+00   2.340663e-02
  1.024547e+00    1.558645e+00   2.372347e-02
  1.026757e+00    1.533523e+00   2.353987e-02
  1.028967e+00    1.528979e+00   2.351259e-02
  1.031178e+00    1.490139e+00   2.321811e-02
  1.033388e+00    1.492940e+00   2.324490e-02
  1.035599e+00    1.491642e+00   2.323820e-02
  1.037809e+00    1.463217e+00   2.301890e-02
  1.040020e+00    1.490290e+00   2.323211e-02
  1.042230e+00    1.525873e+00   2.350978e-02
  1.044441e+00    1.573574e+00   2.387420e-02
  1.046651e+00    1.577985e+00   2.390782e-02
  1.048862e+00    1.550148e+00   2.369522e-02
  1.051072e+00    1.505451e+00   2.334875e-02
  1.053282e+00    1.467791e+00   2.305391e-02
  1.055493e+00    1.486534e+00   2.319632e-02
  1.057703e+00    1.481526e+00   2.315573e-02
  1.059914e+00    1.469249e+00   2.305533e-02
  1.062124e+00    1.454813e+00   2.293781e-02
  1.064335e+00    1.466173e+00   2.302375e-02
  1.066545e+00    1.470286e+00   2.305006e-02
  1.068756e+00    1.467835e+00   2.302712e-02
  1.070966e+00    1.459158e+00   2.295246e-02
  1.073177e+00    1.448405e+00   2.286172e-02
  1.075387e+00    1.473436e+00   2.305317e-02
  1.077597e+00    1.574984e+00   2.382680e-02
  1.079808e+00    1.692587e+00   2.455766e-02
  1.082018e+00    1.685477e+00   2.430311e-02
  1.084229e+00    1.673882e+00   2.410153e-02
  1.086439e+00    1.803965e+00   2.492315e-02
  1.088650e+00    1.798723e+00   2.480284e-02
  1.090860e+00    1.642609e+00   2.363020e-02
  1.093071e+00    1.586517e+00   2.315817e-02
  1.095281e+00    1.555326e+00   2.287002e-02
  1.097492e+00    1.529531e+00   2.262308e-02
  1.099702e+00    1.547086e+00   2.269926e-02
  1.101912e+00    1.642522e+00   2.333672e-02
  1.104123e+00    1.683064e+00   2.357081e-02
  1.106333e+00    1.574889e+00   2.275420e-02
  1.108544e+00    1.523647e+00   2.233524e-02
  1.110754e+00    1.519489e+00   2.226035e-02
  1.112965e+00    1.487663e+00   2.198454e-02
  1.115175e+00    1.480378e+00   2.188859e-02
  1.117386e+00    1.462672e+00   2.171739e-02
  1.119596e+00    1.436276e+00   2.148233e-02
  1.121807e+00    1.430955e+00   2.140339e-02
  1.124017e+00    1.424655e+00   2.131936e-02
  1.126228e+00    1.389303e+00   2.101763e-02
  1.128438e+00    1.356837e+00   2.073442e-02
  1.130648e+00    1.367205e+00   2.077954e-02
  1.132859e+00    1.392529e+00   2.093679e-02
  1.135069e+00    1.399066e+00   2.095109e-02
  1.137280e+00    1.353188e+00   2.057216e-02
  1.139490e+00    1.362651e+00   2.061117e-02
  1.141701e+00    1.370389e+00   2.063667e-02
  1.143911e+00    1.378736e+00   2.066762e-02
  1.146122e+00    1.402815e+00   2.081503e-02
  1.148332e+00    1.416293e+00   2.088251e-02
  1.150543e+00    1.391177e+00   2.066553e-02
  1.152753e+00    1.388875e+00   2.061744e-02
  1.154963e+00    1.373998e+00   2.047567e-02
  1.157174e+00    1.362589e+00   2.036043e-02
  1.159384e+00    1.382183e+00   2.047636e-02
  1.161595e+00    1.357105e+00   2.026004e-02
  1.163805e+00    1.366750e+00   2.030267e-02
  1.166016e+00    1.329123e+00   1.999225e-02
  1.168226e+00    1.346870e+00   2.009649e-02
  1.170437e+00    1.382639e+00   2.033283e-02
  1.172647e+00    1.366314e+00   2.018353e-02
  1.174858e+00    1.388817e+00   2.032070e-02
  1.177068e+00    1.396635e+00   2.034923e-02
  1.179278e+00    1.396440e+00   2.031888e-02
  1.181489e+00    1.343320e+00   1.990181e-02
  1.183699e+00    1.355767e+00   1.996625e-02
  1.185910e+00    1.360370e+00   1.997232e-02
  1.188120e+00    1.343733e+00   1.982328e-02
  1.190331e+00    1.341508e+00   1.978020e-02
  1.192541e+00    1.330969e+00   1.967525e-02
  1.194752e+00    1.314230e+00   1.952443e-02
  1.196962e+00    1.353560e+00   1.978868e-02
  1.199173e+00    1.369942e+00   1.988138e-02
  1.201383e+00    1.345600e+00   1.967685e-02
  1.203593e+00    1.339791e+00   1.960959e-02
  1.205804e+00    1.335711e+00   1.955394e-02
  1.208014e+00    1.334432e+00   1.951787e-02
  1.210225e+00    1.325874e+00   1.943009e-02
  1.212435e+00    1.312254e+00   1.930560e-02
  1.214646e+00    1.351141e+00   1.956341e-02
  1.216856e+00    1.350195e+00   1.953113e-02
  1.219067e+00    1.343562e+00   1.945866e-02
  1.221277e+00    1.345819e+00   1.945001e-02
  1.223488e+00    1.324928e+00   1.927297e-02
  1.225698e+00    1.317935e+00   1.919544e-02
  1.227909e+00    1.345332e+00   1.936382e-02
  1.230119e+00    1.340962e+00   1.930060e-02
  1.232329e+00    1.391814e+00   1.963194e-02
  1.234540e+00    1.429461e+00   1.986453e-02
  1.236750e+00    1.436356e+00   1.988117e-02
  1.238961e+00    1.405275e+00   1.963739e-02
  1.241171e+00    1.393778e+00   1.953231e-02
  1.243382e+00    1.386124e+00   1.945478e-02
  1.245592e+00    1.377776e+00   1.937177e-02
  1.247803e+00    1.323573e+00   1.896348e-02
  1.250013e+00    1.354546e+00   1.916047e-02
  1.252224e+00    1.388241e+00   1.937376e-02
  1.254434e+00    1.331451e+00   1.894978e-02
  1.256644e+00    1.338269e+00   1.897511e-02
  1.258855e+00    1.336514e+00   1.893952e-02
  1.261065e+00    1.339869e+00   1.893999e-02
  1.263276e+00    1.357545e+00   1.904151e-02
  1.265486e+00    1.339377e+00   1.889088e-02
  1.267697e+00    1.329886e+00   1.880099e-02
  1.269907e+00    1.287012e+00   1.847329e-02
  1.272118e+00    1.306709e+00   1.859188e-02
  1.274328e+00    1.341210e+00   1.881308e-02
  1.276539e+00    1.349421e+00   1.884780e-02
  1.278749e+00    1.345512e+00   1.879822e-02
  1.280959e+00    1.347740e+00   1.879127e-02
  1.283170e+00    1.366832e+00   1.890132e-02
  1.285380e+00    1.360958e+00   1.883813e-02
  1.287591e+00    1.336048e+00   1.864301e-02
  1.289801e+00    1.351069e+00   1.872629e-02
  1.292012e+00    1.360816e+00   1.877654e-02
  1.294222e+00    1.391658e+00   1.897165e-02
  1.296433e+00    1.370423e+00   1.881065e-02
  1.298643e+00    1.362045e+00   1.873649e-02
  1.300854e+00    1.389840e+00   1.891005e-02
  1.303064e+00    1.396478e+00   1.893563e-02
  1.305274e+00    1.361876e+00   1.867802e-02
  1.307485e+00    1.377939e+00   1.876608e-02
  1.309695e+00    1.369803e+00   1.868819e-02
  1.311906e+00    1.373588e+00   1.869210e-02
  1.314116e+00    1.382564e+00   1.873203e-02
  1.316327e+00    1.402600e+00   1.884516e-02
  1.318537e+00    1.378837e+00   1.866274e-02
  1.320748e+00    1.367258e+00   1.856251e-02
  1.322958e+00    1.345299e+00   1.839235e-02
  1.325169e+00    1.359276e+00   1.846657e-02
  1.327379e+00    1.342222e+00   1.832860e-02
  1.329589e+00    1.360363e+00   1.843090e-02
  1.331800e+00    1.368834e+00   1.846736e-02
  1.334010e+00    1.365481e+00   1.842395e-02
  1.336221e+00    1.353470e+00   1.832097e-02
  1.338431e+00    1.370881e+00   1.841740e-02
  1.340642e+00    1.378075e+00   1.853050e-02
  1.342852e+00    1.351896e+00   1.845439e-02
  1.345063e+00    1.334787e+00   1.838644e-02
  1.347273e+00    1.357899e+00   1.858029e-02
  1.349484e+00    1.317023e+00   1.832584e-02
  1.351694e+00    1.319915e+00   1.836839e-02
  1.353905e+00    1.325407e+00   1.842440e-02
  1.356115e+00    1.326173e+00   1.844463e-02
  1.358325e+00    1.325366e+00   1.845222e-02
  1.360536e+00    1.333154e+00   1.851790e-02
  1.362746e+00    1.324311e+00   1.846587e-02
  1.364957e+00    1.313513e+00   1.839798e-02
  1.367167e+00    1.313725e+00   1.840655e-02
  1.369378e+00    1.308834e+00   1.837815e-02
  1.371588e+00    1.341481e+00   1.861111e-02
  1.373799e+00    1.331370e+00   1.854449e-02
  1.376009e+00    1.309130e+00   1.839231e-02
  1.378220e+00    1.309189e+00   1.839522e-02
  1.380430e+00    1.290877e+00   1.826879e-02
  1.382640e+00    1.284915e+00   1.822743e-02
  1.384851e+00    1.297486e+00   1.831727e-02
  1.387061e+00    1.268372e+00   1.811087e-02
  1.389272e+00    1.278503e+00   1.818327e-02
  1.391482e+00    1.281087e+00   1.820095e-02
  1.393693e+00    1.289699e+00   1.826116e-02
  1.395903e+00    1.292541e+00   1.827976e-02
  1.398114e+00    1.297488e+00   1.831334e-02
  1.400324e+00    1.248403e+00   1.796149e-02
  1.402535e+00    1.264904e+00   1.807749e-02
  1.404745e+00    1.272849e+00   1.813181e-02
  1.406955e+00    1.293804e+00   1.827775e-02
  1.409166e+00    1.263833e+00   1.806151e-02
  1.411376e+00    1.259134e+00   1.802479e-02
  1.413587e+00    1.281942e+00   1.818348e-02
  1.415797e+00    1.252362e+00   1.796897e-02
  1.418008e+00    1.250849e+00   1.791654e-02
  1.420218e+00    1.250988e+00   1.776893e-02
  1.422429e+00    1.267259e+00   1.779891e-02
  1.424639e+00    1.261642e+00   1.769492e-02
  1.426850e+00    1.277427e+00   1.775043e-02
  1.429060e+00    1.280591e+00   1.772320e-02
  1.431270e+00    1.275201e+00   1.764146e-02
  1.433481e+00    1.256583e+00   1.747148e-02
  1.435691e+00    1.264903e+00   1.749085e-02
  1.437902e+00    1.288705e+00   1.761793e-02
  1.440112e+00    1.254864e+00   1.734995e-02
  1.442323e+00    1.243937e+00   1.724152e-02
  1.444533e+00    1.271569e+00   1.739939e-02
  1.446744e+00    1.270943e+00   1.736399e-02
  1.448954e+00    1.248036e+00   1.717685e-02
  1.451165e+00    1.256206e+00   1.720340e-02
  1.453375e+00    1.242506e+00   1.708158e-02
  1.455586e+00    1.264593e+00   1.720463e-02
  1.457796e+00    1.261615e+00   1.715694e-02
  1.460006e+00    1.262685e+00   1.713705e-02
  1.462217e+00    1.247301e+00   1.700635e-02
  1.464427e+00    1.247375e+00   1.698146e-02
  1.466638e+00    1.274664e+00   1.714084e-02
  1.468848e+00    1.269469e+00   1.708053e-02
  1.471059e+00    1.260626e+00   1.699593e-02
  1.473269e+00    1.285779e+00   1.714011e-02
  1.475480e+00    1.276008e+00   1.705105e-02
  1.477690e+00    1.266043e+00   1.696051e-02
  1.479901e+00    1.252919e+00   1.684868e-02
  1.482111e+00    1.236613e+00   1.671565e-02
  1.484321e+00    1.220667e+00   1.658483e-02
  1.486532e+00    1.229599e+00   1.662339e-02
  1.488742e+00    1.250673e+00   1.674271e-02
  1.490953e+00    1.265379e+00   1.681824e-02
  1.493163e+00    1.266601e+00   1.680407e-02
  1.495374e+00    1.246054e+00   1.664585e-02
  1.497584e+00    1.267880e+00   1.676930e-02
  1.499795e+00    1.261464e+00   1.670517e-02
  1.502005e+00    1.253316e+00   1.662949e-02
  1.504216e+00    1.252835e+00   1.660533e-02
  1.506426e+00    1.248331e+00   1.655471e-02
  1.508636e+00    1.252351e+00   1.656095e-02
  1.510847e+00    1.232991e+00   1.641082e-02
  1.513057e+00    1.248916e+00   1.649143e-02
  1.515268e+00    1.283098e+00   1.668960e-02
  1.517478e+00    1.263548e+00   1.653673e-02
  1.519689e+00    1.241467e+00   1.636675e-02
  1.521899e+00    1.277131e+00   1.657685e-02
  1.524110e+00    1.257293e+00   1.642724e-02
  1.526320e+00    1.256177e+00   1.640032e-02
  1.528531e+00    1.236883e+00   1.625425e-02
  1.530741e+00    1.244985e+00   1.628827e-02
  1.532951e+00    1.230585e+00   1.617437e-02
  1.535162e+00    1.216450e+00   1.616666e-02
  1.537372e+00    1.225962e+00   1.629601e-02
  1.539583e+00    1.253810e+00   1.651437e-02
  1.541793e+00    1.229511e+00   1.636047e-02
  1.544004e+00    1.239191e+00   1.642499e-02
  1.546214e+00    1.225913e+00   1.633528e-02
  1.548425e+00    1.235631e+00   1.640013e-02
  1.550635e+00    1.227554e+00   1.635607e-02
  1.552846e+00    1.234227e+00   1.641008e-02
  1.555056e+00    1.220509e+00   1.627756e-02
  1.557266e+00    1.229562e+00   1.622800e-02
  1.559477e+00    1.223985e+00   1.613256e-02
  1.561687e+00    1.221655e+00   1.608679e-02
  1.563898e+00    1.223335e+00   1.608083e-02
  1.566108e+00    1.269748e+00   1.636692e-02
  1.568319e+00    1.279348e+00   1.641285e-02
  1.570529e+00    1.255427e+00   1.623345e-02
  1.572740e+00    1.233752e+00   1.606519e-02
  1.574950e+00    1.257320e+00   1.619147e-02
  1.577161e+00    1.264287e+00   1.621059e-02
  1.579371e+00    1.246371e+00   1.607165e-02
  1.581582e+00    1.250645e+00   1.607935e-02
  1.583792e+00    1.255820e+00   1.609449e-02
  1.586002e+00    1.241457e+00   1.598458e-02
  1.588213e+00    1.253490e+00   1.604455e-02
  1.590423e+00    1.237861e+00   1.592421e-02
  1.592634e+00    1.216454e+00   1.576452e-02
  1.594844e+00    1.206077e+00   1.567608e-02
  1.597055e+00    1.223424e+00   1.576803e-02
  1.599265e+00    1.246322e+00   1.589417e-02
  1.601476e+00    1.216756e+00   1.568441e-02
  1.603686e+00    1.217566e+00   1.567004e-02
  1.605897e+00    1.220223e+00   1.566713e-02
  1.608107e+00    1.220318e+00   1.564831e-02
  1.610317e+00    1.235181e+00   1.572402e-02
  1.612528e+00    1.233963e+00   1.569711e-02
  1.614738e+00    1.235561e+00   1.568829e-02
  1.616949e+00    1.210365e+00   1.550865e-02
  1.619159e+00    1.184200e+00   1.532168e-02
  1.621370e+00    1.184767e+00   1.530716e-02
  1.623580e+00    1.171453e+00   1.520289e-02
  1.625791e+00    1.184167e+00   1.526710e-02
  1.628001e+00    1.178859e+00   1.521477e-02
  1.630212e+00    1.172629e+00   1.515690e-02
  1.632422e+00    1.155998e+00   1.503137e-02
  1.634632e+00    1.159058e+00   1.503411e-02
  1.636843e+00    1.156831e+00   1.500229e-02
  1.639053e+00    1.136338e+00   1.485179e-02
  1.641264e+00    1.127766e+00   1.477888e-02
  1.643474e+00    1.136645e+00   1.481974e-02
  1.645685e+00    1.137401e+00   1.480816e-02
  1.647895e+00    1.125792e+00   1.471601e-02
  1.650106e+00    1.136577e+00   1.476945e-02
  1.652316e+00    1.150189e+00   1.484113e-02
  1.654527e+00    1.124141e+00   1.465557e-02
  1.656737e+00    1.154153e+00   1.483322e-02
  1.658947e+00    1.192703e+00   1.506220e-02
  1.661158e+00    1.215008e+00   1.518550e-02
  1.663368e+00    1.158552e+00   1.481226e-02
  1.665579e+00    1.136183e+00   1.465227e-02
  1.667789e+00    1.130851e+00   1.460151e-02
  1.670000e+00    1.100045e+00   1.438586e-02
  1.672210e+00    1.117058e+00   1.448073e-02
  1.674421e+00    1.107130e+00   1.440090e-02
  1.676631e+00    1.102264e+00   1.435334e-02
  1.678842e+00    1.079810e+00   1.419077e-02
  1.681052e+00    1.091561e+00   1.425238e-02
  1.683263e+00    1.102171e+00   1.430628e-02
  1.685473e+00    1.110090e+00   1.434225e-02
  1.687683e+00    1.112222e+00   1.434038e-02
  1.689894e+00    1.166024e+00   1.466675e-02
  1.692104e+00    1.163921e+00   1.463802e-02
  1.694315e+00    1.224298e+00   1.499737e-02
  1.696525e+00    1.187732e+00   1.475577e-02
  1.698736e+00    1.108536e+00   1.424021e-02
  1.700946e+00    1.058502e+00   1.390000e-02
  1.703157e+00    1.062997e+00   1.391479e-02
  1.705367e+00    1.093030e+00   1.409524e-02
  1.707578e+00    1.032803e+00   1.368696e-02
  1.709788e+00    1.034476e+00   1.368397e-02
  1.711998e+00    1.050033e+00   1.377143e-02
  1.714209e+00    1.014260e+00   1.352057e-02
  1.716419e+00    1.007931e+00   1.346419e-02
  1.718630e+00    1.027069e+00   1.357720e-02
  1.720840e+00    1.006005e+00   1.342322e-02
  1.723051e+00    1.013507e+00   1.345939e-02
  1.725261e+00    1.017691e+00   1.347249e-02
  1.727472e+00    1.010611e+00   1.341142e-02
  1.729682e+00    1.000148e+00   1.332847e-02
  1.731893e+00    1.000549e+00   1.331728e-02
  1.734103e+00    1.011578e+00   1.337669e-02
  1.736313e+00    1.002206e+00   1.330059e-02
  1.738524e+00    1.015553e+00   1.337494e-02
  1.740734e+00    1.027839e+00   1.344171e-02
  1.742945e+00    1.036068e+00   1.348170e-02
  1.745155e+00    1.035307e+00   1.346300e-02
  1.747366e+00    1.050772e+00   1.354895e-02
  1.749576e+00    1.051452e+00   1.353922e-02
  1.751787e+00    1.020668e+00   1.332596e-02
  1.753997e+00    9.911392e-01   1.311830e-02
  1.756208e+00    9.957366e-01   1.313535e-02
  1.758418e+00    9.760043e-01   1.299142e-02
  1.760628e+00    9.670740e-01   1.291850e-02
  1.762839e+00    9.808167e-01   1.299663e-02
  1.765049e+00    9.943206e-01   1.307247e-02
  1.767260e+00    9.945275e-01   1.306078e-02
  1.769470e+00    1.014553e+00   1.317824e-02
  1.771681e+00    1.055219e+00   1.342592e-02
  1.773891e+00    1.025894e+00   1.322451e-02
  1.776102e+00    1.029702e+00   1.323558e-02
  1.778312e+00    1.061161e+00   1.342277e-02
  1.780523e+00    1.093733e+00   1.361346e-02
  1.782733e+00    1.144608e+00   1.391248e-02
  1.784944e+00    1.151325e+00   1.393901e-02
  1.787154e+00    1.039160e+00   1.322940e-02
  1.789364e+00    9.659269e-01   1.274199e-02
  1.791575e+00    9.581442e-01   1.267779e-02
  1.793785e+00    9.549713e-01   1.264415e-02
  1.795996e+00    9.697968e-01   1.272909e-02
  1.798206e+00    9.528335e-01   1.260453e-02
  1.800417e+00    9.418350e-01   1.251870e-02
  1.802627e+00    9.290977e-01   1.242174e-02
  1.804838e+00    9.455767e-01   1.251906e-02
  1.807048e+00    1.030158e+00   1.305328e-02
  1.809259e+00    1.146370e+00   1.375462e-02
  1.811469e+00    1.195349e+00   1.402821e-02
  1.813679e+00    1.120350e+00   1.356435e-02
  1.815890e+00    1.020269e+00   1.292861e-02
  1.818100e+00    9.528655e-01   1.247866e-02
  1.820311e+00    9.107894e-01   1.218512e-02
  1.822521e+00    8.976164e-01   1.208177e-02
  1.824732e+00    8.682997e-01   1.186819e-02
  1.826942e+00    8.951387e-01   1.203782e-02
  1.829153e+00    9.108111e-01   1.213090e-02
  1.831363e+00    8.911909e-01   1.198744e-02
  1.833574e+00    8.965475e-01   1.201164e-02
  1.835784e+00    8.856800e-01   1.192715e-02
  1.837994e+00    8.651997e-01   1.177683e-02
  1.840205e+00    8.587490e-01   1.172174e-02
  1.842415e+00    8.625998e-01   1.173630e-02
  1.844626e+00    8.948719e-01   1.194211e-02
  1.846836e+00    8.795403e-01   1.182788e-02
  1.849047e+00    8.781248e-01   1.180664e-02
  1.851257e+00    8.778891e-01   1.179544e-02
  1.853468e+00    8.422316e-01   1.154469e-02
  1.855678e+00    8.638054e-01   1.168270e-02
  1.857889e+00    8.621008e-01   1.166269e-02
  1.860099e+00    8.447962e-01   1.153645e-02
  1.862309e+00    8.450427e-01   1.152970e-02
  1.864520e+00    8.494692e-01   1.155129e-02
  1.866730e+00    8.494611e-01   1.154190e-02
  1.868941e+00    8.491772e-01   1.152903e-02
  1.871151e+00    8.471869e-01   1.150418e-02
  1.873362e+00    8.385404e-01   1.143402e-02
  1.875572e+00    8.448983e-01   1.146640e-02
  1.877783e+00    8.423369e-01   1.143762e-02
  1.879993e+00    8.241882e-01   1.130272e-02
  1.882204e+00    8.107114e-01   1.119926e-02
  1.884414e+00    8.212481e-01   1.126086e-02
  1.886624e+00    8.369241e-01   1.135682e-02
  1.888835e+00    8.297837e-01   1.129735e-02
  1.891045e+00    8.410635e-01   1.136301e-02
  1.893256e+00    8.184022e-01   1.119792e-02
  1.895466e+00    8.395348e-01   1.133039e-02
  1.897677e+00    8.262621e-01   1.122961e-02
  1.899887e+00    8.293951e-01   1.123993e-02
  1.902098e+00    8.163792e-01   1.114065e-02
  1.904308e+00    8.304476e-01   1.122563e-02
  1.906519e+00    8.299406e-01   1.121140e-02
  1.908729e+00    8.054872e-01   1.103451e-02
  1.910940e+00    8.192572e-01   1.111737e-02
  1.913150e+00    8.067854e-01   1.102196e-02
  1.915360e+00    8.180106e-01   1.108778e-02
  1.917571e+00    8.183631e-01   1.107936e-02
  1.919781e+00    8.045680e-01   1.097497e-02
  1.921992e+00    8.099542e-01   1.100112e-02
  1.924202e+00    8.069330e-01   1.096986e-02
  1.926413e+00    8.134014e-01   1.100347e-02
  1.928623e+00    8.132243e-01   1.099174e-02
  1.930834e+00    8.059333e-01   1.093197e-02
  1.933044e+00    8.043334e-01   1.091050e-02
  1.935255e+00    7.941039e-01   1.083066e-02
  1.937465e+00    8.204694e-01   1.099851e-02
  1.939675e+00    8.144860e-01   1.094745e-02
  1.941886e+00    7.924527e-01   1.078816e-02
  1.944096e+00    8.040641e-01   1.085670e-02
  1.946307e+00    8.008519e-01   1.082469e-02
  1.948517e+00    7.725702e-01   1.062156e-02
  1.950728e+00    7.867914e-01   1.070868e-02
  1.952938e+00    8.119536e-01   1.086841e-02
  1.955149e+00    7.954379e-01   1.074708e-02
  1.957359e+00    7.745852e-01   1.059538e-02
  1.959570e+00    7.766451e-01   1.059869e-02
  1.961780e+00    7.724806e-01   1.056046e-02
  1.963990e+00    7.786976e-01   1.059285e-02
  1.966201e+00    7.839670e-01   1.061858e-02
  1.968411e+00    7.878174e-01   1.063452e-02
  1.970622e+00    7.736745e-01   1.052862e-02
  1.972832e+00    7.719029e-01   1.050668e-02
  1.975043e+00    7.703068e-01   1.048587e-02
  1.977253e+00    7.818037e-01   1.055390e-02
  1.979464e+00    7.784292e-01   1.052109e-02
  1.981674e+00    7.838944e-01   1.054770e-02
  1.983885e+00    7.869629e-01   1.055827e-02
  1.986095e+00    7.815840e-01   1.051241e-02
  1.988305e+00    7.900380e-01   1.055917e-02
  1.990516e+00    7.615134e-01   1.035698e-02
  1.992726e+00    7.807535e-01   1.047729e-02
  1.994937e+00    8.003885e-01   1.059796e-02
  1.997147e+00    7.757922e-01   1.042413e-02
  1.999358e+00    7.694076e-01   1.037131e-02
  2.001568e+00    7.875481e-01   1.048195e-02
  2.003779e+00    7.817980e-01   1.043163e-02
  2.005989e+00    7.726148e-01   1.035816e-02
  2.008200e+00    7.671137e-01   1.030971e-02
  2.010410e+00    7.580798e-01   1.023717e-02
  2.012621e+00    7.646184e-01   1.026954e-02
  2.014831e+00    7.632982e-01   1.024923e-02
  2.017041e+00    7.548359e-01   1.018197e-02
  2.019252e+00    7.623363e-01   1.022247e-02
  2.021462e+00    7.700046e-01   1.026423e-02
  2.023673e+00    7.602196e-01   1.018945e-02
  2.025883e+00    7.599618e-01   1.017821e-02
  2.028094e+00    7.431815e-01   1.005570e-02
  2.030304e+00    7.627397e-01   1.017761e-02
  2.032515e+00    7.598841e-01   1.014924e-02
  2.034725e+00    7.673698e-01   1.018964e-02
  2.036936e+00    7.582577e-01   1.011961e-02
  2.039146e+00    7.427077e-01   1.000584e-02
  2.041356e+00    7.383046e-01   9.966590e-03
  2.043567e+00    7.496923e-01   1.003389e-02
  2.045777e+00    7.614922e-01   1.010326e-02
  2.047988e+00    7.551425e-01   1.005170e-02
  2.050198e+00    7.558792e-01   1.004813e-02
  2.052409e+00    7.606965e-01   1.007242e-02
  2.054619e+00    7.670349e-01   1.010684e-02
  2.056830e+00    7.629492e-01   1.007267e-02
  2.059040e+00    7.747757e-01   1.014278e-02
  2.061251e+00    7.789158e-01   1.016249e-02
  2.063461e+00    7.556078e-01   1.000164e-02
  2.065671e+00    7.565778e-01   9.999287e-03
  2.067882e+00    7.643514e-01   1.004143e-02
  2.070092e+00    7.761397e-01   1.010920e-02
  2.072303e+00    7.674574e-01   1.004324e-02
  2.074513e+00    7.643887e-01   1.001369e-02
  2.076724e+00    7.632868e-01   9.996901e-03
  2.078934e+00    7.437969e-01   9.859436e-03
  2.081145e+00    7.414597e-01   9.834848e-03
  2.083355e+00    7.301161e-01   9.750237e-03
  2.085566e+00    7.347355e-01   9.772151e-03
  2.087776e+00    7.317641e-01   9.742912e-03
  2.089986e+00    7.262040e-01   9.697143e-03
  2.092197e+00    7.004764e-01   9.515066e-03
  2.094407e+00    7.276583e-01   9.688738e-03
  2.096618e+00    7.377413e-01   9.746745e-03
  2.098828e+00    7.217306e-01   9.631168e-03
  2.101039e+00    7.513168e-01   9.817485e-03
  2.103249e+00    7.352273e-01   9.703130e-03
  2.105460e+00    7.242355e-01   9.621334e-03
  2.107670e+00    7.327724e-01   9.669104e-03
  2.109881e+00    7.322968e-01   9.656780e-03
  2.112091e+00    7.234127e-01   9.589056e-03
  2.114301e+00    7.234235e-01   9.580353e-03
  2.116512e+00    7.071736e-01   9.463439e-03
  2.118722e+00    7.206720e-01   9.544512e-03
  2.120933e+00    7.158315e-01   9.503581e-03
  2.123143e+00    7.079742e-01   9.442433e-03
  2.125354e+00    7.091644e-01   9.441882e-03
  2.127564e+00    7.038428e-01   9.397754e-03
  2.129775e+00    7.013016e-01   9.372112e-03
  2.131985e+00    7.101467e-01   9.422011e-03
  2.134196e+00    7.158567e-01   9.451203e-03
  2.136406e+00    7.098762e-01   9.402920e-03
  2.138617e+00    6.985436e-01   9.319180e-03
  2.140827e+00    6.917996e-01   9.289947e-03
  2.143037e+00    7.067074e-01   9.434966e-03
  2.145248e+00    7.073076e-01   9.460996e-03
  2.147458e+00    7.066232e-01   9.471593e-03
  2.149669e+00    6.996442e-01   9.436523e-03
  2.151879e+00    6.770892e-01   9.292233e-03
  2.154090e+00    6.899832e-01   9.387532e-03
  2.156300e+00    6.903560e-01   9.396630e-03
  2.158511e+00    7.032506e-01   9.489301e-03
  2.160721e+00    6.969770e-01   9.451690e-03
  2.162932e+00    6.929919e-01   9.428360e-03
  2.165142e+00    6.957154e-01   9.449883e-03
  2.167352e+00    6.999379e-01   9.481436e-03
  2.169563e+00    6.974531e-01   9.466564e-03
  2.171773e+00    6.739817e-01   9.308317e-03
  2.173984e+00    6.909783e-01   9.426351e-03
  2.176194e+00    6.827008e-01   9.370927e-03
  2.178405e+00    6.803526e-01   9.355480e-03
  2.180615e+00    6.819685e-01   9.367265e-03
  2.182826e+00    6.725392e-01   9.302945e-03
  2.185036e+00    6.753042e-01   9.322108e-03
  2.187247e+00    6.743345e-01   9.315340e-03
  2.189457e+00    6.811504e-01   9.361925e-03
  2.191667e+00    6.814761e-01   9.363968e-03
  2.193878e+00    6.928113e-01   9.440964e-03
  2.196088e+00    6.685357e-01   9.273420e-03
  2.198299e+00    6.836708e-01   9.376682e-03
  2.200509e+00    6.854165e-01   9.387634e-03
  2.202720e+00    6.647586e-01   9.243914e-03
  2.204930e+00    6.742295e-01   9.308297e-03
  2.207141e+00    6.829674e-01   9.367311e-03
  2.209351e+00    7.042950e-01   9.510518e-03
  2.211562e+00    6.893746e-01   9.407636e-03
  2.213772e+00    6.782032e-01   9.275546e-03
  2.215982e+00    6.677881e-01   9.160112e-03
  2.218193e+00    6.768456e-01   9.192356e-03
  2.220403e+00    6.541215e-01   9.012537e-03
  2.222614e+00    6.705633e-01   9.104173e-03
  2.224824e+00    6.710593e-01   9.088221e-03
  2.227035e+00    6.641480e-01   9.023950e-03
  2.229245e+00    6.656695e-01   9.017404e-03
  2.231456e+00    6.574451e-01   8.946065e-03
  2.233666e+00    6.628431e-01   8.967706e-03
  2.235877e+00    6.702850e-01   9.003644e-03
  2.238087e+00    6.797447e-01   9.053390e-03
  2.240298e+00    6.607454e-01   8.912283e-03
  2.242508e+00    6.618938e-01   8.904975e-03
  2.244718e+00    6.565977e-01   8.853622e-03
  2.246929e+00    6.486241e-01   8.785475e-03
  2.249139e+00    6.624119e-01   8.866035e-03
  2.251350e+00    6.586964e-01   8.829502e-03
  2.253560e+00    6.735266e-01   8.916702e-03
  2.255771e+00    6.590497e-01   8.809032e-03
  2.257981e+00    6.400844e-01   8.670384e-03
  2.260192e+00    6.373307e-01   8.640819e-03
  2.262402e+00    6.569911e-01   8.762285e-03
  2.264613e+00    6.608396e-01   8.777117e-03
  2.266823e+00    6.454944e-01   8.664358e-03
  2.269033e+00    6.501849e-01   8.685473e-03
  2.271244e+00    6.649599e-01   8.773217e-03
  2.273454e+00    6.586900e-01   8.721518e-03
  2.275665e+00    6.482306e-01   8.641811e-03
  2.277875e+00    6.435161e-01   8.600513e-03
  2.280086e+00    6.527000e-01   8.651693e-03
  2.282296e+00    6.382119e-01   8.545879e-03
  2.284507e+00    6.561877e-01   8.655266e-03
  2.286717e+00    6.612248e-01   8.678952e-03
  2.288928e+00    6.467539e-01   8.573677e-03
  2.291138e+00    6.449845e-01   8.552577e-03
  2.293348e+00    6.579537e-01   8.628591e-03
  2.295559e+00    6.507177e-01   8.571737e-03
  2.297769e+00    6.534725e-01   8.580616e-03
  2.299980e+00    6.608399e-01   8.619468e-03
  2.302190e+00    6.509955e-01   8.545919e-03
  2.304401e+00    6.604061e-01   8.598078e-03
  2.306611e+00    6.514143e-01   8.530159e-03
  2.308822e+00    6.546635e-01   8.542988e-03
  2.311032e+00    6.524144e-01   8.521851e-03
  2.313243e+00    6.450797e-01   8.467560e-03
  2.315453e+00    6.401909e-01   8.427888e-03
  2.317663e+00    6.468961e-01   8.462785e-03
  2.319874e+00    6.500471e-01   8.474627e-03
  2.322084e+00    6.461443e-01   8.440174e-03
  2.324295e+00    6.422328e-01   8.406394e-03
  2.326505e+00    6.433086e-01   8.404378e-03
  2.328716e+00    6.242980e-01   8.270854e-03
  2.330926e+00    6.333584e-01   8.321914e-03
  2.333137e+00    6.322123e-01   8.306066e-03
  2.335347e+00    6.471199e-01   8.394536e-03
  2.337558e+00    6.213471e-01   8.217555e-03
  2.339768e+00    6.306820e-01   8.270528e-03
  2.341979e+00    6.343397e-01   8.286161e-03
  2.344189e+00    6.243716e-01   8.212483e-03
  2.346399e+00    6.324000e-01   8.256643e-03
  2.348610e+00    6.413065e-01   8.306085e-03
  2.350820e+00    6.383349e-01   8.278622e-03
  2.353031e+00    6.309534e-01   8.222351e-03
  2.355241e+00    6.402876e-01   8.274850e-03
  2.357452e+00    6.234761e-01   8.157133e-03
  2.359662e+00    6.303649e-01   8.193855e-03
  2.361873e+00    6.283075e-01   8.172256e-03
  2.364083e+00    6.188425e-01   8.102555e-03
  2.366294e+00    6.026590e-01   7.987953e-03
  2.368504e+00    6.270688e-01   8.140027e-03
  2.370714e+00    6.167860e-01   8.065036e-03
  2.372925e+00    6.020193e-01   7.959990e-03
  2.375135e+00    6.213948e-01   8.079014e-03
  2.377346e+00    6.252233e-01   8.095943e-03
  2.379556e+00    6.004354e-01   7.926062e-03
  2.381767e+00    6.076938e-01   7.966049e-03
  2.383977e+00    6.130145e-01   7.992969e-03
  2.386188e+00    5.998606e-01   7.898952e-03
  2.388398e+00    6.238527e-01   8.047366e-03
  2.390609e+00    6.272473e-01   8.061468e-03
  2.392819e+00    6.101041e-01   7.942790e-03
  2.395029e+00    6.097010e-01   7.932553e-03
  2.397240e+00    5.990215e-01   7.854998e-03
  2.399450e+00    6.071348e-01   7.900239e-03
  2.401661e+00    6.065464e-01   7.888777e-03
  2.403871e+00    6.039211e-01   7.863969e-03
  2.406082e+00    6.051461e-01   7.864535e-03
  2.408292e+00    5.965378e-01   7.800699e-03
  2.410503e+00    5.962538e-01   7.791411e-03
  2.412713e+00    5.938727e-01   7.768125e-03
  2.414924e+00    5.999872e-01   7.800579e-03
  2.417134e+00    5.998875e-01   7.792323e-03
  2.419344e+00    5.985187e-01   7.776049e-03
  2.421555e+00    5.842856e-01   7.675644e-03
  2.423765e+00    5.879530e-01   7.692353e-03
  2.425976e+00    5.861933e-01   7.673115e-03
  2.428186e+00    5.965025e-01   7.733098e-03
  2.430397e+00    5.954528e-01   7.718815e-03
  2.432607e+00    5.931970e-01   7.696918e-03
  2.434818e+00    5.863943e-01   7.645191e-03
  2.437028e+00    5.806336e-01   7.600445e-03
  2.439239e+00    5.999988e-01   7.718477e-03
  2.441449e+00    5.937996e-01   7.671283e-03
  2.443659e+00    5.884812e-01   7.629524e-03
  2.445870e+00    5.777227e-01   7.571598e-03
  2.448080e+00    5.886567e-01   7.677856e-03
  2.450291e+00    5.908621e-01   7.709046e-03
  2.452501e+00    5.771403e-01   7.630188e-03
  2.454712e+00    5.816814e-01   7.668614e-03
  2.456922e+00    5.616796e-01   7.542203e-03
  2.459133e+00    5.684781e-01   7.593124e-03
  2.461343e+00    5.681173e-01   7.595085e-03
  2.463554e+00    5.708721e-01   7.616970e-03
  2.465764e+00    5.476317e-01   7.463407e-03
  2.467975e+00    5.485141e-01   7.471671e-03
  2.470185e+00    5.458106e-01   7.455464e-03
  2.472395e+00    5.532684e-01   7.507448e-03
  2.474606e+00    5.466244e-01   7.463784e-03
  2.476816e+00    5.525566e-01   7.504908e-03
  2.479027e+00    5.535743e-01   7.512680e-03
  2.481237e+00    5.501199e-01   7.489462e-03
  2.483448e+00    5.366312e-01   7.397397e-03
  2.485658e+00    5.403622e-01   7.422908e-03
  2.487869e+00    5.476894e-01   7.473101e-03
  2.490079e+00    5.411735e-01   7.428008e-03
  2.492290e+00    5.206693e-01   7.285513e-03
  2.494500e+00    5.274690e-01   7.332179e-03
  2.496710e+00    5.291694e-01   7.343323e-03
  2.498921e+00    5.306862e-01   7.352829e-03
  2.501131e+00    5.309559e-01   7.353764e-03
  2.503342e+00    5.335946e-01   7.370743e-03
  2.505552e+00    5.349725e-01   7.379125e-03
  2.507763e+00    5.332301e-01   7.365669e-03
  2.509973e+00    5.234722e-01   7.296606e-03
  2.512184e+00    5.069680e-01   7.179049e-03
  2.514394e+00    5.221583e-01   7.276488e-03
  2.516605e+00    5.199901e-01   7.214609e-03
  2.518815e+00    5.140852e-01   7.145512e-03
  2.521025e+00    5.403953e-01   7.304811e-03
  2.523236e+00    5.443382e-01   7.313135e-03
  2.525446e+00    5.365374e-01   7.244764e-03
  2.527657e+00    5.325804e-01   7.203312e-03
  2.529867e+00    5.229567e-01   7.123770e-03
  2.532078e+00    5.249428e-01   7.122243e-03
  2.534288e+00    5.256764e-01   7.113328e-03
  2.536499e+00    5.198851e-01   7.062149e-03
  2.538709e+00    5.264635e-01   7.095668e-03
  2.540920e+00    5.184588e-01   7.030935e-03
  2.543130e+00    5.220844e-01   7.045133e-03
  2.545340e+00    5.099472e-01   6.952832e-03
  2.547551e+00    5.223275e-01   7.026773e-03
  2.549761e+00    5.187092e-01   6.992863e-03
  2.551972e+00    5.169370e-01   6.971584e-03
  2.554182e+00    5.143336e-01   6.944899e-03
  2.556393e+00    5.186982e-01   6.965226e-03
  2.558603e+00    5.338534e-01   7.057041e-03
  2.560814e+00    5.352479e-01   7.057449e-03
  2.563024e+00    5.253958e-01   6.983557e-03
  2.565235e+00    5.081099e-01   6.858318e-03
  2.567445e+00    5.086215e-01   6.852293e-03
  2.569656e+00    5.056081e-01   6.822343e-03
  2.571866e+00    5.164822e-01   6.885963e-03
  2.574076e+00    5.193003e-01   6.895446e-03
  2.576287e+00    5.108704e-01   6.830954e-03
  2.578497e+00    5.180762e-01   6.871121e-03
  2.580708e+00    4.984494e-01   6.731756e-03
  2.582918e+00    4.929929e-01   6.687209e-03
  2.585129e+00    4.948585e-01   6.692229e-03
  2.587339e+00    5.065023e-01   6.762907e-03
  2.589550e+00    5.102026e-01   6.780020e-03
  2.591760e+00    5.157633e-01   6.809110e-03
  2.593971e+00    4.991077e-01   6.690835e-03
  2.596181e+00    5.159840e-01   6.796740e-03
  2.598391e+00    5.255219e-01   6.854034e-03
  2.600602e+00    5.074649e-01   6.729349e-03
  2.602812e+00    5.049375e-01   6.705061e-03
  2.605023e+00    4.920856e-01   6.612136e-03
  2.607233e+00    4.969213e-01   6.637474e-03
  2.609444e+00    4.991763e-01   6.645353e-03
  2.611654e+00    5.027162e-01   6.661571e-03
  2.613865e+00    5.154018e-01   6.738008e-03
  2.616075e+00    5.062764e-01   6.670946e-03
  2.618286e+00    5.213351e-01   6.762327e-03
  2.620496e+00    5.087792e-01   6.673688e-03
  2.622706e+00    5.041806e-01   6.637715e-03
  2.624917e+00    5.034710e-01   6.627198e-03
  2.627127e+00    5.032617e-01   6.620082e-03
  2.629338e+00    4.988060e-01   6.584766e-03
  2.631548e+00    4.957369e-01   6.558353e-03
  2.633759e+00    5.031791e-01   6.600245e-03
  2.635969e+00    4.968788e-01   6.552143e-03
  2.638180e+00    4.859185e-01   6.472598e-03
  2.640390e+00    5.062654e-01   6.600065e-03
  2.642601e+00    5.097733e-01   6.616198e-03
  2.644811e+00    5.120353e-01   6.623695e-03
  2.647021e+00    4.945314e-01   6.502965e-03
  2.649232e+00    5.043889e-01   6.560706e-03
  2.651442e+00    4.984463e-01   6.515439e-03
  2.653653e+00    5.051153e-01   6.552060e-03
  2.655863e+00    5.010374e-01   6.518835e-03
  2.658074e+00    5.117295e-01   6.581344e-03
  2.660284e+00    4.999656e-01   6.498876e-03
  2.662495e+00    4.985680e-01   6.483036e-03
  2.664705e+00    4.884669e-01   6.410491e-03
  2.666916e+00    4.859890e-01   6.387837e-03
  2.669126e+00    4.901948e-01   6.408985e-03
  2.671337e+00    4.952227e-01   6.435193e-03
  2.673547e+00    4.951377e-01   6.428265e-03
  2.675757e+00    5.016964e-01   6.464193e-03
  2.677968e+00    4.931515e-01   6.402418e-03
  2.680178e+00    4.996447e-01   6.437954e-03
  2.682389e+00    4.907299e-01   6.373920e-03
  2.684599e+00    4.903661e-01   6.365356e-03
  2.686810e+00    4.915009e-01   6.366131e-03
  2.689020e+00    4.928859e-01   6.368791e-03
  2.691231e+00    4.860312e-01   6.318097e-03
  2.693441e+00    4.845841e-01   6.302568e-03
  2.695652e+00    4.845995e-01   6.296198e-03
  2.697862e+00    4.927908e-01   6.342821e-03
  2.700072e+00    4.931858e-01   6.339261e-03
  2.702283e+00    4.773175e-01   6.230313e-03
  2.704493e+00    4.863229e-01   6.282519e-03
  2.706704e+00    4.892058e-01   6.294725e-03
  2.708914e+00    4.870088e-01   6.274600e-03
  2.711125e+00    4.817009e-01   6.234116e-03
  2.713335e+00    4.824844e-01   6.233125e-03
  2.715546e+00    4.884233e-01   6.264888e-03
  2.717756e+00    4.847002e-01   6.235090e-03
  2.719967e+00    4.837804e-01   6.222983e-03
  2.722177e+00    4.855431e-01   6.228179e-03
  2.724387e+00    4.787551e-01   6.178426e-03
  2.726598e+00    4.896694e-01   6.242381e-03
  2.728808e+00    4.845136e-01   6.203275e-03
  2.731019e+00    4.756543e-01   6.140241e-03
  2.733229e+00    4.720014e-01   6.110884e-03
  2.735440e+00    4.809855e-01   6.162514e-03
  2.737650e+00    4.746388e-01   6.115757e-03
  2.739861e+00    4.901438e-01   6.208737e-03
  2.742071e+00    4.859960e-01   6.176657e-03
  2.744282e+00    4.805391e-01   6.135646e-03
  2.746492e+00    4.770909e-01   6.107587e-03
  2.748702e+00    4.733798e-01   6.077945e-03
  2.750913e+00    4.706974e-01   6.054966e-03
  2.753123e+00    4.850976e-01   6.140731e-03
  2.755334e+00    4.856970e-01   6.138448e-03
  2.757544e+00    4.890235e-01   6.153623e-03
  2.759755e+00    4.810396e-01   6.097316e-03
  2.761965e+00    4.799353e-01   6.084324e-03
  2.764176e+00    4.791865e-01   6.073590e-03
  2.766386e+00    4.887428e-01   6.128006e-03
  2.768597e+00    4.880407e-01   6.117708e-03
  2.770807e+00    4.630428e-01   5.953176e-03
  2.773017e+00    4.806270e-01   6.059178e-03
  2.775228e+00    4.859901e-01   6.087069e-03
  2.777438e+00    4.746351e-01   6.009761e-03
  2.779649e+00    4.635110e-01   5.933119e-03
  2.781859e+00    4.681713e-01   5.957143e-03
  2.784070e+00    4.858356e-01   6.062575e-03
  2.786280e+00    4.847758e-01   6.050172e-03
  2.788491e+00    4.767822e-01   5.994223e-03
  2.790701e+00    4.751889e-01   5.978571e-03
  2.792912e+00    4.882004e-01   6.053827e-03
  2.795122e+00    4.839168e-01   6.021431e-03
  2.797333e+00    4.819221e-01   6.003425e-03
  2.799543e+00    4.730619e-01   5.942118e-03
  2.801753e+00    4.728011e-01   5.934646e-03
  2.803964e+00    4.772096e-01   5.956579e-03
  2.806174e+00    4.702154e-01   5.906648e-03
  2.808385e+00    4.792652e-01   5.956377e-03
  2.810595e+00    4.864467e-01   5.993897e-03
  2.812806e+00    4.854202e-01   5.980897e-03
  2.815016e+00    4.682597e-01   5.869512e-03
  2.817227e+00    4.606219e-01   5.846985e-03
  2.819437e+00    4.802559e-01   5.981466e-03
  2.821648e+00    4.815597e-01   5.991888e-03
  2.823858e+00    4.908775e-01   6.055016e-03
  2.826068e+00    4.885238e-01   6.045543e-03
  2.828279e+00    4.812798e-01   6.004633e-03
  2.830489e+00    4.589458e-01   5.866954e-03
  2.832700e+00    4.561228e-01   5.851382e-03
  2.834910e+00    4.605802e-01   5.881938e-03
  2.837121e+00    4.774950e-01   5.990689e-03
  2.839331e+00    4.696282e-01   5.942392e-03
  2.841542e+00    4.520146e-01   5.830870e-03
  2.843752e+00    4.587723e-01   5.875062e-03
  2.845963e+00    4.667738e-01   5.926466e-03
  2.848173e+00    4.722397e-01   5.961170e-03
  2.850383e+00    4.630727e-01   5.903314e-03
  2.852594e+00    4.726039e-01   5.963665e-03
  2.854804e+00    4.625090e-01   5.899148e-03
  2.857015e+00    4.617948e-01   5.894148e-03
  2.859225e+00    4.634200e-01   5.904260e-03
  2.861436e+00    4.785784e-01   5.999377e-03
  2.863646e+00    4.650821e-01   5.914241e-03
  2.865857e+00    4.686559e-01   5.937239e-03
  2.868067e+00    4.583077e-01   5.871568e-03
  2.870278e+00    4.483151e-01   5.806843e-03
  2.872488e+00    4.557560e-01   5.853680e-03
  2.874698e+00    4.485152e-01   5.805974e-03
  2.876909e+00    4.537425e-01   5.838384e-03
  2.879119e+00    4.729283e-01   5.958895e-03
  2.881330e+00    4.681161e-01   5.927047e-03
  2.883540e+00    4.547805e-01   5.840620e-03
  2.885751e+00    4.666133e-01   5.914464e-03
  2.887961e+00    4.553445e-01   5.840749e-03
  2.890172e+00    4.571025e-01   5.850400e-03
  2.892382e+00    4.628015e-01   5.884960e-03
  2.894593e+00    4.579522e-01   5.852243e-03
  2.896803e+00    4.570894e-01   5.844744e-03
  2.899014e+00    4.648051e-01   5.891937e-03
  2.901224e+00    4.698128e-01   5.921597e-03
  2.903434e+00    4.715299e-01   5.930424e-03
  2.905645e+00    4.711126e-01   5.925570e-03
  2.907855e+00    4.609995e-01   5.859509e-03
  2.910066e+00    4.580614e-01   5.838726e-03
  2.912276e+00    4.562643e-01   5.825159e-03
  2.914487e+00    4.518622e-01   5.794537e-03
  2.916697e+00    4.622718e-01   5.858672e-03
  2.918908e+00    4.629964e-01   5.861254e-03
  2.921118e+00    4.635382e-01   5.861979e-03
  2.923329e+00    4.528714e-01   5.791817e-03
  2.925539e+00    4.530575e-01   5.790758e-03
  2.927749e+00    4.502147e-01   5.770255e-03
  2.929960e+00    4.554887e-01   5.801184e-03
  2.932170e+00    4.529419e-01   5.782614e-03
  2.934381e+00    4.605279e-01   5.828402e-03
  2.936591e+00    4.585991e-01   5.813594e-03
  2.938802e+00    4.516673e-01   5.766802e-03
  2.941012e+00    4.550882e-01   5.786249e-03
  2.943223e+00    4.658600e-01   5.851611e-03
  2.945433e+00    4.643540e-01   5.838375e-03
  2.947644e+00    4.567878e-01   5.786483e-03
  2.949854e+00    4.423668e-01   5.690197e-03
  2.952064e+00    4.507625e-01   5.739728e-03
  2.954275e+00    4.399063e-01   5.665861e-03
  2.956485e+00    4.540857e-01   5.752250e-03
  2.958696e+00    4.635556e-01   5.807520e-03
  2.960906e+00    4.579235e-01   5.767941e-03
  2.963117e+00    4.549867e-01   5.744930e-03
  2.965327e+00    4.541680e-01   5.735835e-03
  2.967538e+00    4.828631e-01   5.911274e-03
  2.969748e+00    4.672897e-01   5.812323e-03
  2.971959e+00    4.619336e-01   5.775741e-03
  2.974169e+00    4.674327e-01   5.807404e-03
  2.976379e+00    4.543566e-01   5.722674e-03
  2.978590e+00    4.595645e-01   5.752231e-03
  2.980800e+00    4.564157e-01   5.729683e-03
  2.983011e+00    4.554696e-01   5.720931e-03
  2.985221e+00    4.677842e-01   5.794561e-03
  2.987432e+00    4.444775e-01   5.645298e-03
  2.989642e+00    4.506158e-01   5.681499e-03
  2.991853e+00    4.576644e-01   5.722493e-03
  2.994063e+00    4.569748e-01   5.715258e-03
  2.996274e+00    4.553779e-01   5.702069e-03
  2.998484e+00    4.608758e-01   5.733674e-03
  3.000694e+00    4.518847e-01   5.674026e-03
  3.002905e+00    4.443483e-01   5.623601e-03
  3.005115e+00    4.442540e-01   5.620054e-03
  3.007326e+00    4.423812e-01   5.605067e-03
  3.009536e+00    4.623170e-01   5.726691e-03
  3.011747e+00    4.591926e-01   5.704386e-03
  3.013957e+00    4.497662e-01   5.642341e-03
  3.016168e+00    4.629639e-01   5.721259e-03
  3.018378e+00    4.606573e-01   5.703900e-03
  3.020589e+00    4.580515e-01   5.684532e-03
  3.022799e+00    4.630866e-01   5.712470e-03
  3.025010e+00    4.612238e-01   5.697720e-03
  3.027220e+00    4.519621e-01   5.637092e-03
  3.029430e+00    4.546017e-01   5.650299e-03
  3.031641e+00    4.543163e-01   5.645366e-03
  3.033851e+00    4.502478e-01   5.616520e-03
  3.036062e+00    4.529578e-01   5.630601e-03
  3.038272e+00    4.718566e-01   5.743220e-03
  3.040483e+00    4.602407e-01   5.668848e-03
  3.042693e+00    4.414280e-01   5.548538e-03
  3.044904e+00    4.513862e-01   5.606747e-03
  3.047114e+00    4.639336e-01   5.679263e-03
  3.049325e+00    4.606416e-01   5.654647e-03
  3.051535e+00    4.522468e-01   5.598486e-03
  3.053745e+00    4.388506e-01   5.510248e-03
  3.055956e+00    4.464929e-01   5.553469e-03
  3.058166e+00    4.545532e-01   5.599079e-03
  3.060377e+00    4.580752e-01   5.615935e-03
  3.062587e+00    4.595251e-01   5.620136e-03
  3.064798e+00    4.479147e-01   5.544435e-03
  3.067008e+00    4.528168e-01   5.569946e-03
  3.069219e+00    4.578111e-01   5.596023e-03
  3.071429e+00    4.546976e-01   5.573431e-03
  3.073640e+00    4.563406e-01   5.580143e-03
  3.075850e+00    4.509166e-01   5.543282e-03
  3.078060e+00    4.515139e-01   5.543850e-03
  3.080271e+00    4.552502e-01   5.563225e-03
  3.082481e+00    4.419972e-01   5.478239e-03
  3.084692e+00    4.443648e-01   5.489535e-03
  3.086902e+00    4.501508e-01   5.521894e-03
  3.089113e+00    4.520662e-01   5.530048e-03
  3.091323e+00    4.551939e-01   5.545746e-03
  3.093534e+00    4.510520e-01   5.517079e-03
  3.095744e+00    4.545029e-01   5.534734e-03
  3.097955e+00    4.477689e-01   5.490031e-03
  3.100165e+00    4.361124e-01   5.414815e-03
  3.102375e+00    4.382890e-01   5.424919e-03
  3.104586e+00    4.414832e-01   5.441179e-03
  3.106796e+00    4.516268e-01   5.499784e-03
  3.109007e+00    4.504576e-01   5.489452e-03
  3.111217e+00    4.389274e-01   5.415061e-03
  3.113428e+00    4.382514e-01   5.407507e-03
  3.115638e+00    4.425668e-01   5.430833e-03
  3.117849e+00    4.434242e-01   5.432391e-03
  3.120059e+00    4.340331e-01   5.371123e-03
  3.122270e+00    4.529982e-01   5.483931e-03
  3.124480e+00    4.524963e-01   5.477173e-03
  3.126691e+00    4.536994e-01   5.480867e-03
  3.128901e+00    4.369121e-01   5.375393e-03
  3.131111e+00    4.647914e-01   5.540329e-03
  3.133322e+00    4.440502e-01   5.411867e-03
  3.135532e+00    4.548993e-01   5.474110e-03
  3.137743e+00    4.496146e-01   5.438755e-03
  3.139953e+00    4.362367e-01   5.353551e-03
  3.142164e+00    4.444301e-01   5.415633e-03
  3.144374e+00    4.437430e-01   5.439890e-03
  3.146585e+00    4.391595e-01   5.426239e-03
  3.148795e+00    4.399321e-01   5.441763e-03
  3.151006e+00    4.381364e-01   5.439143e-03
  3.153216e+00    4.444808e-01   5.485544e-03
  3.155426e+00    4.427676e-01   5.481290e-03
  3.157637e+00    4.394225e-01   5.466050e-03
  3.159847e+00    4.416278e-01   5.484641e-03
  3.162058e+00    4.371720e-01   5.461318e-03
  3.164268e+00    4.419607e-01   5.495210e-03
  3.166479e+00    4.436870e-01   5.509613e-03
  3.168689e+00    4.385593e-01   5.481038e-03
  3.170900e+00    4.298043e-01   5.429188e-03
  3.173110e+00    4.384831e-01   5.486599e-03
  3.175321e+00    4.322691e-01   5.450069e-03
  3.177531e+00    4.368108e-01   5.481345e-03
  3.179741e+00    4.359742e-01   5.478186e-03
  3.181952e+00    4.426164e-01   5.521855e-03
  3.184162e+00    4.472322e-01   5.552814e-03
  3.186373e+00    4.280797e-01   5.434174e-03
  3.188583e+00    4.380966e-01   5.499193e-03
  3.190794e+00    4.311064e-01   5.456876e-03
  3.193004e+00    4.308245e-01   5.456334e-03
  3.195215e+00    4.321285e-01   5.466080e-03
  3.197425e+00    4.363866e-01   5.494143e-03
  3.199636e+00    4.301816e-01   5.454206e-03
  3.201846e+00    4.237083e-01   5.412399e-03
  3.204056e+00    4.269643e-01   5.434027e-03
  3.206267e+00    4.382603e-01   5.506287e-03
  3.208477e+00    4.415893e-01   5.528126e-03
  3.210688e+00    4.231892e-01   5.412553e-03
  3.212898e+00    4.301856e-01   5.457656e-03
  3.215109e+00    4.387441e-01   5.512478e-03
  3.217319e+00    4.284970e-01   5.448339e-03
  3.219530e+00    4.201227e-01   5.395222e-03
  3.221740e+00    4.234880e-01   5.417342e-03
  3.223951e+00    4.218062e-01   5.407059e-03
  3.226161e+00    4.389011e-01   5.515688e-03
  3.228372e+00    4.427225e-01   5.540219e-03
  3.230582e+00    4.280338e-01   5.447672e-03
  3.232792e+00    4.291419e-01   5.454945e-03
  3.235003e+00    4.275849e-01   5.445273e-03
  3.237213e+00    4.341145e-01   5.486803e-03
  3.239424e+00    4.270883e-01   5.442219e-03
  3.241634e+00    4.376296e-01   5.509095e-03
  3.243845e+00    4.313134e-01   5.469265e-03
  3.246055e+00    4.320608e-01   5.473733e-03
  3.248266e+00    4.300941e-01   5.461448e-03
  3.250476e+00    4.430362e-01   5.542711e-03
  3.252687e+00    4.238621e-01   5.421388e-03
  3.254897e+00    4.136311e-01   5.355411e-03
  3.257107e+00    4.207358e-01   5.400901e-03
  3.259318e+00    4.239025e-01   5.420960e-03
  3.261528e+00    4.279332e-01   5.446522e-03
  3.263739e+00    4.338582e-01   5.483550e-03
  3.265949e+00    4.208914e-01   5.400862e-03
  3.268160e+00    4.224426e-01   5.410383e-03
  3.270370e+00    4.177701e-01   5.379874e-03
  3.272581e+00    4.248517e-01   5.425002e-03
  3.274791e+00    4.116230e-01   5.339359e-03
  3.277002e+00    4.221443e-01   5.406601e-03
  3.279212e+00    4.224907e-01   5.408432e-03
  3.281422e+00    4.210943e-01   5.398939e-03
  3.283633e+00    4.224130e-01   5.406678e-03
  3.285843e+00    4.279185e-01   5.441482e-03
  3.288054e+00    4.215361e-01   5.399796e-03
  3.290264e+00    4.305395e-01   5.456852e-03
  3.292475e+00    4.253891e-01   5.423273e-03
  3.294685e+00    4.279580e-01   5.438986e-03
  3.296896e+00    4.283105e-01   5.440477e-03
  3.299106e+00    4.169495e-01   5.367279e-03
  3.301317e+00    4.156735e-01   5.358045e-03
  3.303527e+00    4.117032e-01   5.331935e-03
  3.305737e+00    4.207838e-01   5.389373e-03
  3.307948e+00    4.169305e-01   5.363969e-03
  3.310158e+00    4.217216e-01   5.393856e-03
  3.312369e+00    4.175429e-01   5.366180e-03
  3.314579e+00    4.173692e-01   5.364183e-03
  3.316790e+00    4.151894e-01   5.349432e-03
  3.319000e+00    4.119577e-01   5.327407e-03
  3.321211e+00    4.254055e-01   5.413050e-03
  3.323421e+00    4.247054e-01   5.407391e-03
  3.325632e+00    4.224307e-01   5.392016e-03
  3.327842e+00    4.178150e-01   5.361537e-03
  3.330052e+00    4.478879e-01   5.550054e-03
  3.332263e+00    4.245729e-01   5.402653e-03
  3.334473e+00    4.110068e-01   5.314745e-03
  3.336684e+00    4.159341e-01   5.345229e-03
  3.338894e+00    4.241661e-01   5.397027e-03
  3.341105e+00    4.294316e-01   5.429200e-03
  3.343315e+00    4.233734e-01   5.389645e-03
  3.345526e+00    4.185396e-01   5.357867e-03
  3.347736e+00    4.213731e-01   5.374567e-03
  3.349947e+00    4.189301e-01   5.358057e-03
  3.352157e+00    4.138638e-01   5.324360e-03
  3.354368e+00    4.251158e-01   5.394972e-03
  3.356578e+00    4.250981e-01   5.393826e-03
  3.358788e+00    4.120613e-01   5.309156e-03
  3.360999e+00    4.065131e-01   5.272067e-03
  3.363209e+00    3.969845e-01   5.208927e-03
  3.365420e+00    4.030761e-01   5.247236e-03
  3.367630e+00    4.140468e-01   5.317158e-03
  3.369841e+00    4.100963e-01   5.290328e-03
  3.372051e+00    4.055183e-01   5.258744e-03
  3.374262e+00    4.231469e-01   5.369396e-03
  3.376472e+00    4.155357e-01   5.318423e-03
  3.378683e+00    4.255246e-01   5.379460e-03
  3.380893e+00    3.981503e-01   5.201257e-03
  3.383103e+00    4.066883e-01   5.254039e-03
  3.385314e+00    4.182548e-01   5.326006e-03
  3.387524e+00    4.095317e-01   5.267457e-03
  3.389735e+00    4.100531e-01   5.268186e-03
  3.391945e+00    4.259966e-01   5.365905e-03
  3.394156e+00    3.996431e-01   5.193127e-03
  3.396366e+00    4.114220e-01   5.265678e-03
  3.398577e+00    3.985273e-01   5.179524e-03
  3.400787e+00    4.055043e-01   5.236506e-03
  3.402998e+00    3.925894e-01   5.189668e-03
  3.405208e+00    3.913369e-01   5.201682e-03
  3.407418e+00    3.921226e-01   5.222529e-03
  3.409629e+00    3.949463e-01   5.255137e-03
  3.411839e+00    3.857299e-01   5.205026e-03
  3.414050e+00    4.001006e-01   5.312147e-03
  3.416260e+00    3.860686e-01   5.227701e-03
  3.418471e+00    3.997563e-01   5.329039e-03
  3.420681e+00    3.906051e-01   5.276206e-03
  3.422892e+00    3.732194e-01   5.165230e-03
  3.425102e+00    3.774065e-01   5.201820e-03
  3.427313e+00    3.966363e-01   5.339961e-03
  3.429523e+00    3.827234e-01   5.252504e-03
  3.431733e+00    3.797867e-01   5.238910e-03
  3.433944e+00    3.887710e-01   5.307043e-03
  3.436154e+00    3.792118e-01   5.247601e-03
  3.438365e+00    3.798229e-01   5.257723e-03
  3.440575e+00    3.982302e-01   5.389715e-03
  3.442786e+00    3.811230e-01   5.278298e-03
  3.444996e+00    3.666136e-01   5.182263e-03
  3.447207e+00    3.619125e-01   5.154129e-03
  3.449417e+00    3.725666e-01   5.270301e-03
  3.451628e+00    3.654677e-01   5.249186e-03
  3.453838e+00    3.766597e-01   5.350350e-03
  3.456049e+00    3.663085e-01   5.300215e-03
  3.458259e+00    3.746659e-01   5.382493e-03
  3.460469e+00    3.633542e-01   5.320346e-03
  3.462680e+00    3.757232e-01   5.429419e-03
  3.464890e+00    3.795912e-01   5.475419e-03
  3.467101e+00    3.651790e-01   5.387918e-03
  3.469311e+00    3.728870e-01   5.461055e-03
  3.471522e+00    3.823094e-01   5.546172e-03
  3.473732e+00    3.776532e-01   5.528241e-03
  3.475943e+00    4.052062e-01   5.742471e-03
  3.478153e+00    4.184243e-01   5.851469e-03
  3.480364e+00    4.082900e-01   5.795592e-03
  3.482574e+00    4.070166e-01   5.801950e-03
  3.484784e+00    4.144196e-01   5.869400e-03
  3.486995e+00    4.395355e-01   6.060174e-03
  3.489205e+00    4.404066e-01   6.081135e-03
  3.491416e+00    4.457351e-01   6.133054e-03
  3.493626e+00    4.391724e-01   6.102416e-03
  3.495837e+00    4.618451e-01   6.273029e-03
  3.498047e+00    4.600533e-01   6.275624e-03
  3.500258e+00    4.566565e-01   6.267060e-03
  3.502468e+00    4.580691e-01   6.291227e-03
  3.504679e+00    4.660859e-01   6.360580e-03
  3.506889e+00    4.782196e-01   6.457518e-03
  3.509099e+00    4.869701e-01   6.530897e-03
  3.511310e+00    4.664828e-01   6.406389e-03
  3.513520e+00    4.879255e-01   6.566437e-03
  3.515731e+00    5.105253e-01   6.731544e-03
  3.517941e+00    5.060318e-01   6.716448e-03
  3.520152e+00    5.126631e-01   6.774882e-03
  3.522362e+00    5.246317e-01   6.868348e-03
  3.524573e+00    5.037836e-01   6.744729e-03
  3.526783e+00    5.184675e-01   6.855782e-03
  3.528994e+00    5.199670e-01   6.877940e-03
  3.531204e+00    5.284125e-01   6.946157e-03
  3.533414e+00    5.290462e-01   6.962412e-03
  3.535625e+00    5.461507e-01   7.086649e-03
  3.537835e+00    5.300197e-01   6.993314e-03
  3.540046e+00    5.399618e-01   7.067540e-03
  3.542256e+00    5.480592e-01   7.127983e-03
  3.544467e+00    5.482324e-01   7.136792e-03
  3.546677e+00    5.487487e-01   7.147842e-03
  3.548888e+00    5.411970e-01   7.106015e-03
  3.551098e+00    5.226439e-01   6.990364e-03
  3.553309e+00    5.157578e-01   6.952158e-03
  3.555519e+00    5.159086e-01   6.964226e-03
  3.557729e+00    5.367864e-01   7.115496e-03
  3.559940e+00    5.243446e-01   7.043969e-03
  3.562150e+00    5.470042e-01   7.206378e-03
  3.564361e+00    5.518827e-01   7.251995e-03
  3.566571e+00    5.370992e-01   7.168031e-03
  3.568782e+00    5.256604e-01   7.105274e-03
  3.570992e+00    5.328083e-01   7.167118e-03
  3.573203e+00    5.308322e-01   7.167904e-03
  3.575413e+00    5.388357e-01   7.235541e-03
  3.577624e+00    5.199311e-01   7.121415e-03
  3.579834e+00    5.301012e-01   7.204487e-03
  3.582045e+00    5.393344e-01   7.281073e-03
  3.584255e+00    5.442647e-01   7.328417e-03
  3.586465e+00    5.454264e-01   7.350307e-03
  3.588676e+00    5.536786e-01   7.420118e-03
  3.590886e+00    5.446995e-01   7.373534e-03
  3.593097e+00    5.263603e-01   7.262709e-03
  3.595307e+00    5.530208e-01   7.458522e-03
  3.597518e+00    5.264794e-01   7.291432e-03
  3.599728e+00    5.230997e-01   7.281918e-03
  3.601939e+00    5.434690e-01   7.436512e-03
  3.604149e+00    5.456302e-01   7.465810e-03
  3.606360e+00    5.446669e-01   7.473539e-03
  3.608570e+00    5.371488e-01   7.435905e-03
  3.610780e+00    5.463402e-01   7.510464e-03
  3.612991e+00    5.427113e-01   7.495560e-03
  3.615201e+00    5.327185e-01   7.435997e-03
  3.617412e+00    5.294691e-01   7.420535e-03
  3.619622e+00    5.349885e-01   7.465078e-03
  3.621833e+00    5.200890e-01   7.367001e-03
  3.624043e+00    5.307970e-01   7.451908e-03
  3.626254e+00    5.510142e-01   7.602382e-03
  3.628464e+00    5.322124e-01   7.482486e-03
  3.630675e+00    5.448959e-01   7.585382e-03
  3.632885e+00    5.550240e-01   7.670293e-03
  3.635095e+00    5.518282e-01   7.662814e-03
  3.637306e+00    5.552098e-01   7.700917e-03
  3.639516e+00    5.364954e-01   7.584625e-03
  3.641727e+00    5.346549e-01   7.586132e-03
  3.643937e+00    5.496569e-01   7.706623e-03
  3.646148e+00    5.534005e-01   7.747707e-03
  3.648358e+00    5.400680e-01   7.668781e-03
  3.650569e+00    5.410609e-01   7.690666e-03
  3.652779e+00    5.423531e-01   7.714737e-03
  3.654990e+00    5.316806e-01   7.653328e-03
  3.657200e+00    5.468493e-01   7.776857e-03
  3.659410e+00    5.237609e-01   7.625759e-03
  3.661621e+00    5.418925e-01   7.771830e-03
  3.663831e+00    5.366256e-01   7.749207e-03
  3.666042e+00    5.412991e-01   7.798166e-03
  3.668252e+00    5.287581e-01   7.722504e-03
  3.670463e+00    5.259264e-01   7.716970e-03
  3.672673e+00    5.267928e-01   7.738638e-03
  3.674884e+00    5.426728e-01   7.870039e-03
  3.677094e+00    5.474532e-01   7.920325e-03
  3.679305e+00    5.409291e-01   7.888764e-03
  3.681515e+00    5.440001e-01   7.926904e-03
  3.683726e+00    5.397152e-01   7.911595e-03
  3.685936e+00    5.429198e-01   7.950929e-03
  3.688146e+00    5.546938e-01   8.052872e-03
  3.690357e+00    5.383679e-01   7.949610e-03
  3.692567e+00    5.330194e-01   7.926212e-03
  3.694778e+00    5.250064e-01   7.882437e-03
  3.696988e+00    5.354298e-01   7.976417e-03
  3.699199e+00    5.166706e-01   7.851571e-03
  3.701409e+00    5.093476e-01   7.811827e-03
  3.703620e+00    5.235962e-01   7.936643e-03
  3.705830e+00    5.409343e-01   8.083622e-03
  3.708041e+00    5.217691e-01   7.955720e-03
  3.710251e+00    5.138351e-01   7.911523e-03
  3.712461e+00    5.297045e-01   8.049632e-03
  3.714672e+00    5.259714e-01   8.038011e-03
  3.716882e+00    5.171813e-01   7.987240e-03
  3.719093e+00    5.113485e-01   7.959045e-03
  3.721303e+00    4.956158e-01   7.852200e-03
  3.723514e+00    5.062768e-01   7.953245e-03
  3.725724e+00    5.086055e-01   7.988522e-03
  3.727935e+00    5.170386e-01   8.071927e-03
  3.730145e+00    5.203655e-01   8.115237e-03
  3.732356e+00    5.282713e-01   8.194386e-03
  3.734566e+00    5.276621e-01   8.207390e-03
  3.736776e+00    5.301387e-01   8.244679e-03
  3.738987e+00    5.021943e-01   8.041978e-03
  3.741197e+00    5.188103e-01   8.192017e-03
  3.743408e+00    4.938760e-01   8.010457e-03
  3.745618e+00    4.987087e-01   8.067599e-03
  3.747829e+00    5.044781e-01   8.132102e-03
  3.750039e+00    4.986444e-01   8.103105e-03
  3.752250e+00    5.087639e-01   8.203311e-03
  3.754460e+00    5.055647e-01   8.195973e-03
  3.756671e+00    4.967672e-01   8.142892e-03
  3.758881e+00    5.025835e-01   8.208959e-03
  3.761091e+00    5.171960e-01   8.346736e-03
  3.763302e+00    4.855231e-01   8.105798e-03
  3.765512e+00    5.002947e-01   8.247264e-03
  3.767723e+00    5.130256e-01   8.370986e-03
  3.769933e+00    5.191622e-01   8.440536e-03
  3.772144e+00    5.077176e-01   8.366543e-03
  3.774354e+00    5.094106e-01   8.400421e-03
  3.776565e+00    5.012677e-01   8.352768e-03
  3.778775e+00    5.214810e-01   8.539789e-03
  3.780986e+00    5.263264e-01   8.600190e-03
  3.783196e+00    5.168428e-01   8.542795e-03
  3.785407e+00    5.021196e-01   8.440698e-03
  3.787617e+00    4.971033e-01   8.419071e-03
  3.789827e+00    4.886281e-01   8.367225e-03
  3.792038e+00    4.777878e-01   8.294179e-03
  3.794248e+00    5.190507e-01   8.666469e-03
  3.796459e+00    5.178644e-01   8.678291e-03
  3.798669e+00    5.241303e-01   8.752435e-03
  3.800880e+00    5.260346e-01   8.790411e-03
  3.803090e+00    5.060261e-01   8.643515e-03
  3.805301e+00    5.025150e-01   8.635616e-03
  3.807511e+00    4.892727e-01   8.542869e-03
  3.809722e+00    4.899282e-01   8.570519e-03
  3.811932e+00    4.769449e-01   8.478016e-03
  3.814142e+00    4.937823e-01   8.649030e-03
  3.816353e+00    5.045611e-01   8.765938e-03
  3.818563e+00    4.922259e-01   8.681015e-03
  3.820774e+00    5.189797e-01   8.937499e-03
  3.822984e+00    5.150543e-01   8.927400e-03
  3.825195e+00    5.197555e-01   8.992297e-03
  3.827405e+00    5.193517e-01   9.013202e-03
  3.829616e+00    5.057148e-01   8.918330e-03
  3.831826e+00    5.058915e-01   8.944282e-03
  3.834037e+00    4.905676e-01   8.832110e-03
  3.836247e+00    4.937937e-01   8.885719e-03
  3.838457e+00    4.900106e-01   8.876487e-03
  3.840668e+00    5.042186e-01   9.029592e-03
  3.842878e+00    5.302390e-01   9.286109e-03
  3.845089e+00    4.740589e-01   8.805412e-03
  3.847299e+00    4.742307e-01   8.832164e-03
  3.849510e+00    5.116550e-01   9.200360e-03
  3.851720e+00    5.001832e-01   9.118194e-03
  3.853931e+00    4.812883e-01   8.963036e-03
  3.856141e+00    4.817697e-01   8.986223e-03
  3.858352e+00    4.900135e-01   9.081996e-03
  3.860562e+00    4.707344e-01   8.920408e-03
  3.862772e+00    4.719646e-01   8.951123e-03
  3.864983e+00    4.867938e-01   9.110247e-03
  3.867193e+00    4.767153e-01   9.034902e-03
  3.869404e+00    4.722519e-01   9.011849e-03
  3.871614e+00    4.750056e-01   9.057652e-03
  3.873825e+00    4.957542e-01   9.273782e-03
  3.876035e+00    4.988428e-01   9.323296e-03
  3.878246e+00    5.029626e-01   9.387785e-03
  3.880456e+00    4.764262e-01   9.165335e-03
  3.882667e+00    5.134819e-01   9.544945e-03
  3.884877e+00    5.151586e-01   9.591043e-03
  3.887087e+00    5.121843e-01   9.593881e-03
  3.889298e+00    4.932857e-01   9.445617e-03
  3.891508e+00    5.116194e-01   9.650732e-03
  3.893719e+00    4.975487e-01   9.548299e-03
  3.895929e+00    4.961358e-01   9.566368e-03
  3.898140e+00    4.729053e-01   9.370810e-03
  3.900350e+00    4.726064e-01   9.399419e-03
  3.902561e+00    4.822617e-01   9.527001e-03
  3.904771e+00    4.949051e-01   9.684073e-03
  3.906982e+00    5.107657e-01   9.871878e-03
  3.909192e+00    5.167405e-01   9.963871e-03
  3.911403e+00    5.028937e-01   9.864021e-03
  3.913613e+00    4.990439e-01   9.860744e-03
  3.915823e+00    4.839219e-01   9.744921e-03
  3.918034e+00    5.035728e-01   9.976482e-03
  3.920244e+00    5.089741e-01   1.006644e-02
  3.922455e+00    4.877685e-01   9.890563e-03
  3.924665e+00    4.828722e-01   9.877026e-03
  3.926876e+00    4.570259e-01   9.644958e-03
  3.929086e+00    4.659171e-01   9.774803e-03
  3.931297e+00    4.834504e-01   9.991745e-03
  3.933507e+00    4.634659e-01   9.811216e-03
  3.935718e+00    4.735902e-01   9.946159e-03
  3.937928e+00    5.077045e-01   1.032817e-02
  3.940138e+00    4.992573e-01   1.027167e-02
  3.942349e+00    4.668249e-01   9.961630e-03
  3.944559e+00    4.865151e-01   1.019951e-02
  3.946770e+00    4.780958e-01   1.014080e-02
  3.948980e+00    4.824871e-01   1.021781e-02
  3.951191e+00    5.068125e-01   1.050369e-02
  3.953401e+00    5.105066e-01   1.057411e-02
  3.955612e+00    4.911015e-01   1.040298e-02
  3.957822e+00    4.829365e-01   1.034769e-02
  3.960033e+00    5.108106e-01   1.067564e-02
  3.962243e+00    4.520792e-01   1.007477e-02
  3.964453e+00    4.761298e-01   1.037211e-02
  3.966664e+00    4.969449e-01   1.063020e-02
  3.968874e+00    4.779049e-01   1.045277e-02
  3.971085e+00    4.531312e-01   1.019929e-02
  3.973295e+00    4.795411e-01   1.051378e-02
  3.975506e+00    4.625617e-01   1.034702e-02
  3.977716e+00    4.809743e-01   1.057286e-02
  3.979927e+00    4.814951e-01   1.060055e-02
  3.982137e+00    4.878103e-01   1.069228e-02
  3.984348e+00    4.771521e-01   1.059711e-02
  3.986558e+00    4.898311e-01   1.075944e-02
  3.988768e+00    4.956140e-01   1.084597e-02
  3.990979e+00    5.190864e-01   1.112349e-02
  3.993189e+00    4.769480e-01   1.068529e-02
  3.995400e+00    4.727038e-01   1.066085e-02
  3.997610e+00    4.819313e-01   1.079406e-02
  3.999821e+00    5.096186e-01   1.113837e-02
  4.002031e+00    4.916649e-01   1.097906e-02
  4.004242e+00    4.528607e-01   1.057408e-02
  4.006452e+00    4.957847e-01   1.110362e-02
  4.008663e+00    5.328991e-01   1.155374e-02
  4.010873e+00    4.911546e-01   1.113235e-02
  4.013084e+00    4.747690e-01   1.098544e-02
  4.015294e+00    4.996589e-01   1.131136e-02
  4.017504e+00    4.914966e-01   1.126077e-02
  4.019715e+00    4.888738e-01   1.127341e-02
  4.021925e+00    4.874318e-01   1.129995e-02
  4.024136e+00    4.443496e-01   1.083088e-02
  4.026346e+00    4.576059e-01   1.103400e-02
  4.028557e+00    4.397919e-01   1.085956e-02
  4.030767e+00    4.711876e-01   1.128529e-02
  4.032978e+00    4.696327e-01   1.131252e-02
  4.035188e+00    4.316395e-01   1.088881e-02
  4.037399e+00    5.035290e-01   1.180917e-02
  4.039609e+00    4.855568e-01   1.164439e-02
  4.041819e+00    4.861416e-01   1.170028e-02
  4.044030e+00    4.721106e-01   1.157956e-02
  4.046240e+00    4.803997e-01   1.173045e-02
  4.048451e+00    4.626963e-01   1.156226e-02
  4.050661e+00    4.761360e-01   1.177985e-02
  4.052872e+00    5.134528e-01   1.228740e-02
  4.055082e+00    4.793582e-01   1.192557e-02
  4.057293e+00    4.644136e-01   1.179107e-02
  4.059503e+00    4.556797e-01   1.173264e-02
  4.061714e+00    4.883144e-01   1.220242e-02
  4.063924e+00    4.908279e-01   1.229106e-02
  4.066134e+00    4.612411e-01   1.197097e-02
  4.068345e+00    4.436274e-01   1.179674e-02
  4.070555e+00    4.889363e-01   1.244424e-02
  4.072766e+00    4.657547e-01   1.220542e-02
  4.074976e+00    4.839783e-01   1.250403e-02
  4.077187e+00    5.004930e-01   1.277879e-02
  4.079397e+00    4.655036e-01   1.238690e-02
  4.081608e+00    5.115899e-01   1.305317e-02
  4.083818e+00    4.819167e-01   1.273485e-02
  4.086029e+00    4.548546e-01   1.243731e-02
  4.088239e+00    4.724369e-01   1.274371e-02
  4.090449e+00    4.988582e-01   1.316621e-02
  4.092660e+00    4.907943e-01   1.313117e-02
  4.094870e+00    4.494328e-01   1.263570e-02
  4.097081e+00    5.118851e-01   1.355869e-02
  4.099291e+00    4.882112e-01   1.329651e-02
  4.101502e+00    4.762069e-01   1.318086e-02
  4.103712e+00    5.075481e-01   1.365829e-02
  4.105923e+00    5.423821e-01   1.417407e-02
  4.108133e+00    5.053685e-01   1.373471e-02
  4.110344e+00    4.675665e-01   1.326141e-02
  4.112554e+00    4.744962e-01   1.341213e-02
  4.114764e+00    5.334259e-01   1.427781e-02
  4.116975e+00    4.580125e-01   1.328217e-02
  4.119185e+00    4.795764e-01   1.364645e-02
  4.121396e+00    4.615601e-01   1.344308e-02
  4.123606e+00    4.662644e-01   1.356669e-02
  4.125817e+00    5.050931e-01   1.417957e-02
  4.128027e+00    4.933282e-01   1.407241e-02
  4.130238e+00    4.564863e-01   1.359480e-02
  4.132448e+00    5.113776e-01   1.445136e-02
  4.134659e+00    5.105096e-01   1.450146e-02
  4.136869e+00    4.601264e-01   1.382843e-02
  4.139080e+00    4.795717e-01   1.418132e-02
  4.141290e+00    4.596744e-01   1.394561e-02
  4.143500e+00    5.067925e-01   1.471014e-02
  4.145711e+00    5.043079e-01   1.474293e-02
  4.147921e+00    4.934507e-01   1.465002e-02
  4.150132e+00    4.778263e-01   1.448536e-02
  4.152342e+00    4.985023e-01   1.486673e-02
  4.154553e+00    4.632199e-01   1.439936e-02
  4.156763e+00    5.190557e-01   1.531780e-02
  4.158974e+00    4.472297e-01   1.429009e-02
  4.161184e+00    4.764349e-01   1.482240e-02
  4.163395e+00    4.565514e-01   1.458390e-02
  4.165605e+00    4.464300e-01   1.449636e-02
  4.167815e+00    4.622035e-01   1.482695e-02
  4.170026e+00    5.024596e-01   1.554091e-02
  4.172236e+00    4.502692e-01   1.479109e-02
  4.174447e+00    5.182261e-01   1.595444e-02
  4.176657e+00    4.629050e-01   1.516128e-02
  4.178868e+00    4.731445e-01   1.541477e-02
  4.181078e+00    4.637908e-01   1.534749e-02
  4.183289e+00    4.986156e-01   1.600453e-02
  4.185499e+00    5.133314e-01   1.633476e-02
  4.187710e+00    4.837169e-01   1.594947e-02
  4.189920e+00    4.728950e-01   1.586500e-02
  4.192130e+00    4.548535e-01   1.565473e-02
  4.194341e+00    4.989538e-01   1.649613e-02
  4.196551e+00    5.280975e-01   1.707887e-02
  4.198762e+00    4.734038e-01   1.627299e-02
  4.200972e+00    4.701072e-01   1.632109e-02
  4.203183e+00    4.664610e-01   1.636468e-02
  4.205393e+00    4.649551e-01   1.644727e-02
  4.207604e+00    4.877260e-01   1.695995e-02
  4.209814e+00    4.939538e-01   1.718503e-02
  4.212025e+00    4.726793e-01   1.693000e-02
  4.214235e+00    4.971177e-01   1.748517e-02
  4.216445e+00    5.344266e-01   1.826055e-02
  4.218656e+00    4.566437e-01   1.700620e-02
  4.220866e+00    4.564965e-01   1.712899e-02
  4.223077e+00    5.472602e-01   1.889918e-02
  4.225287e+00    4.590090e-01   1.744439e-02
  4.227498e+00    4.981420e-01   1.831543e-02
  4.229708e+00    4.898120e-01   1.830924e-02
  4.231919e+00    5.184545e-01   1.899292e-02
  4.234129e+00    4.695062e-01   1.822579e-02
  4.236340e+00    4.308265e-01   1.760823e-02
  4.238550e+00    4.721444e-01   1.859576e-02
  4.240761e+00    5.007530e-01   1.932013e-02
  4.242971e+00    5.504543e-01   2.044180e-02
  4.245181e+00    4.729773e-01   1.912711e-02
  4.247392e+00    3.883092e-01   1.749227e-02
  4.249602e+00    4.402032e-01   1.880973e-02
  4.251813e+00    4.525982e-01   1.926039e-02
  4.254023e+00    4.885353e-01   2.021198e-02
  4.256234e+00    5.447410e-01   2.157165e-02
  4.258444e+00    4.501595e-01   1.981486e-02
  4.260655e+00    4.818617e-01   2.072600e-02
  4.262865e+00    4.299106e-01   1.979848e-02
  4.265076e+00    4.009119e-01   1.933701e-02
  4.267286e+00    4.570551e-01   2.089135e-02
  4.269496e+00    4.095119e-01   2.001623e-02
  4.271707e+00    4.074866e-01   2.021338e-02
  4.273917e+00    4.264831e-01   2.094628e-02
  4.276128e+00    4.661247e-01   2.218933e-02
  4.278338e+00    5.250598e-01   2.386523e-02
  4.280549e+00    4.200737e-01   2.165190e-02
  4.282759e+00    4.655582e-01   2.312174e-02
  4.284970e+00    4.757294e-01   2.371846e-02
  4.287180e+00    5.485071e-01   2.577415e-02
  4.289391e+00    5.118098e-01   2.508380e-02
  4.291601e+00    4.542270e-01   2.381932e-02
  4.293811e+00    4.470608e-01   2.381521e-02
  4.296022e+00    4.596591e-01   2.434241e-02
  4.298232e+00    4.814407e-01   2.512137e-02
  4.300443e+00    5.343115e-01   2.668277e-02
  4.302653e+00    4.491284e-01   2.467631e-02
  4.304864e+00    4.252644e-01   2.421927e-02
  4.307074e+00    4.944472e-01   2.634931e-02
  4.309285e+00    5.991788e-01   2.926973e-02
  4.311495e+00    5.270621e-01   2.770853e-02
  4.313706e+00    5.500293e-01   2.857200e-02
  4.315916e+00    4.679143e-01   2.661312e-02
  4.318126e+00    3.951499e-01   2.469792e-02
  4.320337e+00    4.119004e-01   2.547032e-02
  4.322547e+00    5.123153e-01   2.870775e-02
  4.324758e+00    4.870172e-01   2.828030e-02
  4.326968e+00    5.448287e-01   3.024979e-02
  4.329179e+00    4.766795e-01   2.860633e-02
  4.331389e+00    4.769516e-01   2.894314e-02
  4.333600e+00    4.610637e-01   2.879831e-02
  4.335810e+00    4.833087e-01   2.983485e-02
  4.338021e+00    5.312186e-01   3.167867e-02
  4.340231e+00    5.427126e-01   3.242239e-02
  4.342442e+00    5.613972e-01   3.341692e-02
  4.344652e+00    4.235583e-01   2.942129e-02
  4.346862e+00    3.511819e-01   2.716438e-02
  4.349073e+00    4.951549e-01   3.272454e-02
  4.351283e+00    5.530555e-01   3.510274e-02
  4.353494e+00    4.289213e-01   3.139126e-02
  4.355704e+00    4.281055e-01   3.186578e-02
  4.357915e+00    3.281973e-01   2.836516e-02
  4.360125e+00    3.813535e-01   3.109703e-02
  4.362336e+00    4.865805e-01   3.576779e-02
  4.364546e+00    4.289204e-01   3.419342e-02
  4.366757e+00    3.905172e-01   3.327485e-02
  4.368967e+00    4.422791e-01   3.611771e-02
  4.371177e+00    3.962058e-01   3.491269e-02
  4.373388e+00    4.623815e-01   3.855789e-02
  4.375598e+00    3.929740e-01   3.635902e-02
  4.377809e+00    4.109050e-01   3.811866e-02
  4.380019e+00    3.371416e-01   3.539710e-02
  4.382230e+00    3.332407e-01   3.617075e-02
  4.384440e+00    4.071620e-01   4.113623e-02
  4.386651e+00    5.179995e-01   4.782715e-02
  4.388861e+00    4.370281e-01   4.540554e-02
  4.391072e+00    4.889963e-01   4.971799e-02
  4.393282e+00    3.631642e-01   4.449986e-02
  4.395492e+00    5.135406e-01   5.512034e-02
  4.397703e+00    3.186951e-01   4.540661e-02
  4.399913e+00    2.888229e-01   4.541121e-02
  4.402124e+00    2.652259e-01   4.598816e-02
  4.404334e+00    2.300590e-01   4.552043e-02
  4.406545e+00    3.068328e-01   5.649239e-02
  4.408755e+00    3.478979e-01   6.523114e-02
  4.410966e+00    2.885659e-01   6.575762e-02
  4.413176e+00    1.451790e-01   5.280275e-02
  4.415387e+00   -7.191244e-01            nan
  4.417597e+00   -1.914176e+00            nan
  4.419807e+00   -3.766224e-01            nan
