# == pyFAI calibration ==
# Distance Sample to Detector: 0.216 m
# PONI: 1.166e-01, 1.308e-01 m
# Rotations: 0.000000 0.000000 0.000000 rad
# 
# == Fit2d calibration ==
# Distance Sample-beamCenter: 216.000 mm
# Center: x=1744.293, y=1555.000 pix
# Tilt: 0.000 deg  TiltPlanRot: 0.000 deg
# 
# Detector Eiger 9M	 PixelSize= 7.500e-05, 7.500e-05 m
#    Detector has a mask: True 
#    Detector has a dark current: False 
#    detector has a flat field: False 
# 
# Wavelength: 9.8e-11 m
# Mask applied: from detector
# Dark current applied: False
# Flat field applied: False
# Polarization factor: None
# Normalization factor: 1.0
# 
# Headers of the input frame:
# {
# "_array_data.header_convention": "SLS_1.0",
# "_array_data.header_contents": "# Detector: Dectris Eiger 9M, S/N E-18-0102\r\n# Pixel_size 75e-6 m x 75e-6 m\r\n# Silicon sensor, thickness 0.000450 m\r\n# Exposure_time 0.024997 s\r\n# Exposure_period 0.025000 s\r\n# Count_cutoff 62318 counts\r\n# Wavelength 0.980106 A\r\n# Detector_distance 0.215992 m\r\n# Beam_xy (1555, 1744) pixels\r\n# Start_angle 0.000000 deg.\r\n# Angle_increment 0.000000 deg.",
# "Content-Type": "application/octet-stream;",
# "conversions": "x-CBF_BYTE_OFFSET",
# "Content-Transfer-Encoding": "BINARY",
# "X-Binary-Size": "10166634",
# "X-Binary-ID": "1",
# "X-Binary-Element-Type": "signed 32-bit integer",
# "X-Binary-Element-Byte-Order": "LITTLE_ENDIAN",
# "Content-MD5": "KtNmPosK/xq6ZzqFzz3tYg==",
# "X-Binary-Number-of-Elements": "10166590",
# "X-Binary-Size-Fastest-Dimension": "3110",
# "X-Binary-Size-Second-Dimension": "3269",
# "X-Binary-Size-Padding": "4095"
# }
# --> H:/Proxima2a_2019-04-05/RAW_DATA/C5_gel17_position5/C5_mesh_1_data.cbf/C5_mesh_1_data.cbf000160.dat
#        q_A^-1              I           sigma 
  1.105228e-03    1.444329e+00   6.503094e-01
  3.315685e-03    1.349423e+00   3.821374e-01
  5.526141e-03    1.557879e+00   3.174965e-01
  7.736597e-03    1.733403e+00   2.829241e-01
  9.947054e-03    1.348144e+00   2.199605e-01
  1.215751e-02    1.392620e+00   2.021552e-01
  1.436797e-02    1.590767e+00   1.987372e-01
  1.657842e-02    1.530034e+00   1.814241e-01
  1.878888e-02    1.616722e+00   1.751787e-01
  2.099934e-02    1.510515e+00   1.602007e-01
  2.320979e-02    1.428754e+00   1.481875e-01
  2.542025e-02    1.463266e+00   1.433082e-01
  2.763070e-02    1.361673e+00   1.325948e-01
  2.984116e-02    1.614913e+00   1.389476e-01
  3.205162e-02    1.503094e+00   1.293539e-01
  3.426207e-02    1.412339e+00   1.212675e-01
  3.647253e-02    1.442206e+00   1.187691e-01
  3.868299e-02    1.428539e+00   1.147868e-01
  4.089344e-02    1.418140e+00   1.112347e-01
  4.310390e-02    1.415396e+00   1.082338e-01
  4.531436e-02    1.249630e+00   9.918740e-02
  4.752481e-02    1.370462e+00   1.014267e-01
  4.973527e-02    1.328228e+00   9.760860e-02
  5.194572e-02    1.360977e+00   9.667814e-02
  5.415618e-02    1.414749e+00   9.653359e-02
  5.636664e-02    1.508370e+00   9.770551e-02
  5.857709e-02    1.484892e+00   9.509595e-02
  6.078755e-02    1.460494e+00   9.257786e-02
  6.299801e-02    1.431316e+00   9.002524e-02
  6.520846e-02    1.336340e+00   8.550061e-02
  6.741892e-02    1.435445e+00   8.714511e-02
  6.962938e-02    1.591474e+00   9.029551e-02
  7.183983e-02    1.558641e+00   8.797216e-02
  7.405029e-02    1.435127e+00   8.314315e-02
  7.626074e-02    1.435431e+00   8.193728e-02
  7.847120e-02    1.469222e+00   8.171798e-02
  8.068166e-02    1.471563e+00   8.065433e-02
  8.289211e-02    1.479520e+00   7.978608e-02
  8.510257e-02    1.503481e+00   7.937768e-02
  8.731303e-02    1.484055e+00   7.785558e-02
  8.952348e-02    1.432560e+00   7.554471e-02
  9.173394e-02    1.417398e+00   7.423005e-02
  9.394439e-02    1.493425e+00   7.529063e-02
  9.615485e-02    1.497659e+00   7.452402e-02
  9.836531e-02    1.584638e+00   7.578921e-02
  1.005758e-01    1.587063e+00   7.500955e-02
  1.027862e-01    1.494002e+00   7.198855e-02
  1.049967e-01    1.535775e+00   7.221439e-02
  1.072071e-01    1.462997e+00   6.975133e-02
  1.094176e-01    1.496773e+00   6.983456e-02
  1.116280e-01    1.550282e+00   7.036311e-02
  1.138385e-01    1.547176e+00   6.960546e-02
  1.160490e-01    1.472250e+00   6.724852e-02
  1.182594e-01    1.541705e+00   6.816886e-02
  1.204699e-01    1.651530e+00   6.990428e-02
  1.226803e-01    1.626223e+00   6.873605e-02
  1.248908e-01    1.542807e+00   6.635405e-02
  1.271012e-01    1.436329e+00   6.346295e-02
  1.293117e-01    1.543009e+00   6.521206e-02
  1.315222e-01    1.567086e+00   6.516279e-02
  1.337326e-01    1.639419e+00   6.609530e-02
  1.359431e-01    1.705940e+00   6.746241e-02
  1.381535e-01    1.545893e+00   6.508189e-02
  1.403640e-01    1.645644e+00   6.743878e-02
  1.425744e-01    1.623788e+00   6.709646e-02
  1.447849e-01    1.616489e+00   6.696090e-02
  1.469953e-01    1.671008e+00   6.803809e-02
  1.492058e-01    1.628644e+00   6.709203e-02
  1.514163e-01    1.647988e+00   6.737723e-02
  1.536267e-01    1.621739e+00   6.670799e-02
  1.558372e-01    1.588283e+00   6.587057e-02
  1.580476e-01    1.578478e+00   6.550759e-02
  1.602581e-01    1.587666e+00   6.553110e-02
  1.624685e-01    1.647587e+00   6.657351e-02
  1.646790e-01    1.639164e+00   6.621245e-02
  1.668895e-01    1.742571e+00   6.807184e-02
  1.690999e-01    1.835583e+00   6.965517e-02
  1.713104e-01    1.785446e+00   6.848412e-02
  1.735208e-01    1.658203e+00   6.579345e-02
  1.757313e-01    1.788496e+00   6.811527e-02
  1.779417e-01    1.891248e+00   6.981618e-02
  1.801522e-01    1.876051e+00   6.931366e-02
  1.823626e-01    1.936022e+00   7.017837e-02
  1.845731e-01    1.910560e+00   6.948958e-02
  1.867836e-01    1.996264e+00   7.079130e-02
  1.889940e-01    2.000333e+00   7.063188e-02
  1.912045e-01    2.019526e+00   7.073292e-02
  1.934149e-01    2.019838e+00   7.050164e-02
  1.956254e-01    1.957835e+00   6.918217e-02
  1.978358e-01    2.025224e+00   7.012160e-02
  2.000463e-01    2.043580e+00   7.020525e-02
  2.022568e-01    1.910628e+00   6.766035e-02
  2.044672e-01    1.928442e+00   6.774212e-02
  2.066777e-01    1.979770e+00   6.840993e-02
  2.088881e-01    2.067946e+00   6.968803e-02
  2.110986e-01    2.013055e+00   6.852111e-02
  2.133090e-01    2.032562e+00   6.862850e-02
  2.155195e-01    2.006390e+00   6.795904e-02
  2.177300e-01    2.016204e+00   6.758985e-02
  2.199404e-01    1.898554e+00   6.385998e-02
  2.221509e-01    1.936325e+00   6.343306e-02
  2.243613e-01    2.045141e+00   6.436464e-02
  2.265718e-01    2.097085e+00   6.445853e-02
  2.287822e-01    2.050159e+00   6.310242e-02
  2.309927e-01    2.134792e+00   6.380515e-02
  2.332031e-01    2.114356e+00   6.295553e-02
  2.354136e-01    2.119113e+00   6.251549e-02
  2.376241e-01    2.128143e+00   6.216229e-02
  2.398345e-01    2.152205e+00   6.205006e-02
  2.420450e-01    2.140191e+00   6.143443e-02
  2.442554e-01    2.203469e+00   6.190655e-02
  2.464659e-01    2.213112e+00   6.162535e-02
  2.486763e-01    2.155004e+00   6.041120e-02
  2.508868e-01    2.131974e+00   5.970851e-02
  2.530973e-01    2.125062e+00   5.924203e-02
  2.553077e-01    2.116620e+00   5.876564e-02
  2.575182e-01    2.104273e+00   5.824728e-02
  2.597286e-01    2.152015e+00   5.856194e-02
  2.619391e-01    2.109975e+00   5.765328e-02
  2.641495e-01    2.065202e+00   5.672260e-02
  2.663600e-01    2.049564e+00   5.619669e-02
  2.685704e-01    2.093966e+00   5.649425e-02
  2.707809e-01    2.054165e+00   5.565777e-02
  2.729914e-01    2.062558e+00   5.548070e-02
  2.752018e-01    2.023700e+00   5.466958e-02
  2.774123e-01    2.005828e+00   5.414960e-02
  2.796227e-01    2.063553e+00   5.465159e-02
  2.818332e-01    1.946121e+00   5.280901e-02
  2.840436e-01    1.948592e+00   5.258635e-02
  2.862541e-01    1.949349e+00   5.234374e-02
  2.884646e-01    1.913690e+00   5.161663e-02
  2.906750e-01    1.936845e+00   5.168178e-02
  2.928855e-01    1.894706e+00   5.087960e-02
  2.950959e-01    1.991707e+00   5.192613e-02
  2.973064e-01    2.044460e+00   5.237287e-02
  2.995168e-01    1.987932e+00   5.140985e-02
  3.017273e-01    1.920350e+00   5.030569e-02
  3.039377e-01    1.902033e+00   4.984592e-02
  3.061482e-01    1.929240e+00   4.998403e-02
  3.083587e-01    1.897294e+00   4.935390e-02
  3.105691e-01    1.876480e+00   4.887279e-02
  3.127796e-01    1.866729e+00   4.854070e-02
  3.149900e-01    1.890876e+00   4.865009e-02
  3.172005e-01    1.909799e+00   4.869299e-02
  3.194109e-01    1.897623e+00   4.833715e-02
  3.216214e-01    1.846664e+00   4.748916e-02
  3.238319e-01    1.851561e+00   4.736366e-02
  3.260423e-01    1.821177e+00   4.678635e-02
  3.282528e-01    1.874078e+00   4.727203e-02
  3.304632e-01    1.914856e+00   4.759847e-02
  3.326737e-01    1.879632e+00   4.697466e-02
  3.348841e-01    1.888216e+00   4.689921e-02
  3.370946e-01    1.854580e+00   4.630474e-02
  3.393050e-01    1.823001e+00   4.573492e-02
  3.415155e-01    1.852277e+00   4.592733e-02
  3.437260e-01    1.888714e+00   4.620498e-02
  3.459364e-01    1.910848e+00   4.630302e-02
  3.481469e-01    1.850412e+00   4.539859e-02
  3.503573e-01    1.849157e+00   4.521787e-02
  3.525678e-01    1.814385e+00   4.463107e-02
  3.547782e-01    1.902506e+00   4.553686e-02
  3.569887e-01    1.863088e+00   4.490300e-02
  3.591992e-01    1.846735e+00   4.454730e-02
  3.614096e-01    1.807228e+00   4.391544e-02
  3.636201e-01    1.815706e+00   4.386364e-02
  3.658305e-01    1.789597e+00   4.339859e-02
  3.680410e-01    1.814947e+00   4.355455e-02
  3.702514e-01    1.776593e+00   4.294698e-02
  3.724619e-01    1.789385e+00   4.295455e-02
  3.746724e-01    1.770198e+00   4.258108e-02
  3.768828e-01    1.794479e+00   4.272786e-02
  3.790933e-01    1.822996e+00   4.292568e-02
  3.813037e-01    1.776581e+00   4.223707e-02
  3.835142e-01    1.787223e+00   4.222423e-02
  3.857246e-01    1.856897e+00   4.290011e-02
  3.879351e-01    1.828346e+00   4.243127e-02
  3.901455e-01    1.794158e+00   4.189885e-02
  3.923560e-01    1.822359e+00   4.209266e-02
  3.945665e-01    1.818558e+00   4.191539e-02
  3.967769e-01    1.801261e+00   4.158495e-02
  3.989874e-01    1.773146e+00   4.113030e-02
  4.011978e-01    1.784420e+00   4.113394e-02
  4.034083e-01    1.848888e+00   4.174187e-02
  4.056187e-01    1.835313e+00   4.146023e-02
  4.078292e-01    1.797375e+00   4.090532e-02
  4.100397e-01    1.768901e+00   4.045612e-02
  4.122501e-01    1.759277e+00   4.022519e-02
  4.144606e-01    1.817659e+00   4.076595e-02
  4.166710e-01    1.776229e+00   4.017887e-02
  4.188815e-01    1.800717e+00   4.033535e-02
  4.210919e-01    1.804411e+00   4.025840e-02
  4.233024e-01    1.776413e+00   3.982735e-02
  4.255128e-01    1.824365e+00   4.024463e-02
  4.277233e-01    1.854420e+00   4.045821e-02
  4.299338e-01    1.829387e+00   4.006859e-02
  4.321442e-01    1.821662e+00   3.986948e-02
  4.343547e-01    1.790210e+00   3.941204e-02
  4.365651e-01    1.776339e+00   3.914751e-02
  4.387756e-01    1.788470e+00   3.917096e-02
  4.409860e-01    1.811651e+00   3.931478e-02
  4.431965e-01    1.761570e+00   3.866036e-02
  4.454070e-01    1.807465e+00   3.905179e-02
  4.476174e-01    1.797652e+00   3.883872e-02
  4.498279e-01    1.711489e+00   3.779339e-02
  4.520383e-01    1.755264e+00   3.816861e-02
  4.542488e-01    1.743350e+00   3.793630e-02
  4.564592e-01    1.745707e+00   3.786007e-02
  4.586697e-01    1.772706e+00   3.805048e-02
  4.608801e-01    1.740627e+00   3.760363e-02
  4.630906e-01    1.786460e+00   3.799460e-02
  4.653011e-01    1.698820e+00   3.695351e-02
  4.675115e-01    1.725307e+00   3.714236e-02
  4.697220e-01    1.722160e+00   3.701135e-02
  4.719324e-01    1.749150e+00   3.720373e-02
  4.741429e-01    1.710939e+00   3.670034e-02
  4.763533e-01    1.727549e+00   3.678349e-02
  4.785638e-01    1.759805e+00   3.702942e-02
  4.807743e-01    1.717947e+00   3.649333e-02
  4.829847e-01    1.702158e+00   3.623348e-02
  4.851952e-01    1.721517e+00   3.634675e-02
  4.874056e-01    1.729433e+00   3.633833e-02
  4.896161e-01    1.747676e+00   3.643893e-02
  4.918265e-01    1.694333e+00   3.578941e-02
  4.940370e-01    1.709319e+00   3.585859e-02
  4.962475e-01    1.700701e+00   3.567974e-02
  4.984579e-01    1.701979e+00   3.560520e-02
  5.006684e-01    1.688252e+00   3.537484e-02
  5.028788e-01    1.711881e+00   3.553523e-02
  5.050893e-01    1.702690e+00   3.535352e-02
  5.072997e-01    1.685833e+00   3.509311e-02
  5.095102e-01    1.695280e+00   3.510702e-02
  5.117206e-01    1.684950e+00   3.491668e-02
  5.139311e-01    1.732623e+00   3.532337e-02
  5.161416e-01    1.724794e+00   3.516021e-02
  5.183520e-01    1.686283e+00   3.468285e-02
  5.205625e-01    1.654694e+00   3.427597e-02
  5.227729e-01    1.670648e+00   3.436047e-02
  5.249834e-01    1.679628e+00   3.437272e-02
  5.271938e-01    1.686963e+00   3.436731e-02
  5.294043e-01    1.717846e+00   3.460042e-02
  5.316148e-01    1.763413e+00   3.497604e-02
  5.338252e-01    1.785402e+00   3.511300e-02
  5.360357e-01    1.840787e+00   3.557229e-02
  5.382461e-01    1.776617e+00   3.486779e-02
  5.404566e-01    1.760685e+00   3.463207e-02
  5.426670e-01    1.778015e+00   3.472370e-02
  5.448775e-01    1.766073e+00   3.452957e-02
  5.470879e-01    1.793057e+00   3.471476e-02
  5.492984e-01    1.812313e+00   3.482307e-02
  5.515089e-01    1.830299e+00   3.491783e-02
  5.537193e-01    1.799960e+00   3.455093e-02
  5.559298e-01    1.796036e+00   3.443755e-02
  5.581402e-01    1.779913e+00   3.420771e-02
  5.603507e-01    1.832975e+00   3.463830e-02
  5.625611e-01    1.834846e+00   3.458078e-02
  5.647716e-01    1.820192e+00   3.436764e-02
  5.669821e-01    1.810117e+00   3.419849e-02
  5.691925e-01    1.837915e+00   3.438613e-02
  5.714030e-01    1.799923e+00   3.395633e-02
  5.736134e-01    1.753763e+00   3.344678e-02
  5.758239e-01    1.752131e+00   3.335987e-02
  5.780343e-01    1.709481e+00   3.288164e-02
  5.802448e-01    1.692997e+00   3.265421e-02
  5.824552e-01    1.688637e+00   3.254373e-02
  5.846657e-01    1.676192e+00   3.235598e-02
  5.868762e-01    1.665815e+00   3.218852e-02
  5.890866e-01    1.685525e+00   3.231121e-02
  5.912971e-01    1.662401e+00   3.202238e-02
  5.935075e-01    1.648679e+00   3.182402e-02
  5.957180e-01    1.662249e+00   3.188917e-02
  5.979284e-01    1.672966e+00   3.192649e-02
  6.001389e-01    1.665255e+00   3.178798e-02
  6.023494e-01    1.616692e+00   3.125743e-02
  6.045598e-01    1.674579e+00   3.174734e-02
  6.067703e-01    1.668897e+00   3.162971e-02
  6.089807e-01    1.670610e+00   3.158230e-02
  6.111912e-01    1.699455e+00   3.179019e-02
  6.134016e-01    1.680832e+00   3.155247e-02
  6.156121e-01    1.687129e+00   3.154869e-02
  6.178226e-01    1.696300e+00   3.157168e-02
  6.200330e-01    1.698808e+00   3.153269e-02
  6.222435e-01    1.718511e+00   3.165220e-02
  6.244539e-01    1.695377e+00   3.137687e-02
  6.266644e-01    1.709497e+00   3.144580e-02
  6.288748e-01    1.754839e+00   3.179808e-02
  6.310853e-01    1.773080e+00   3.190088e-02
  6.332957e-01    1.734362e+00   3.148973e-02
  6.355062e-01    1.748108e+00   3.155286e-02
  6.377167e-01    1.728999e+00   3.131972e-02
  6.399271e-01    1.711442e+00   3.110059e-02
  6.421376e-01    1.718424e+00   3.110448e-02
  6.443480e-01    1.728889e+00   3.113969e-02
  6.465585e-01    1.740727e+00   3.118693e-02
  6.487689e-01    1.740268e+00   3.112394e-02
  6.509794e-01    1.734228e+00   3.101127e-02
  6.531899e-01    1.687077e+00   3.052930e-02
  6.554003e-01    1.597978e+00   2.965632e-02
  6.576108e-01    1.621679e+00   2.981980e-02
  6.598212e-01    1.622091e+00   2.976819e-02
  6.620317e-01    1.612114e+00   2.962149e-02
  6.642421e-01    1.591323e+00   2.937541e-02
  6.664526e-01    1.626440e+00   2.964306e-02
  6.686630e-01    1.637320e+00   2.968704e-02
  6.708735e-01    1.635538e+00   2.961646e-02
  6.730840e-01    1.616119e+00   2.938645e-02
  6.752944e-01    1.637337e+00   2.952491e-02
  6.775049e-01    1.652065e+00   2.960357e-02
  6.797153e-01    1.655524e+00   2.958089e-02
  6.819258e-01    1.611515e+00   2.913242e-02
  6.841362e-01    1.615470e+00   2.911570e-02
  6.863467e-01    1.591206e+00   2.884447e-02
  6.885572e-01    1.610776e+00   2.896927e-02
  6.907676e-01    1.631384e+00   2.910178e-02
  6.929781e-01    1.623527e+00   2.898001e-02
  6.951885e-01    1.597739e+00   2.869803e-02
  6.973990e-01    1.581447e+00   2.850084e-02
  6.996094e-01    1.615616e+00   2.875641e-02
  7.018199e-01    1.617368e+00   2.872150e-02
  7.040303e-01    1.609461e+00   2.860088e-02
  7.062408e-01    1.570502e+00   2.820312e-02
  7.084513e-01    1.619354e+00   2.858858e-02
  7.106617e-01    1.616096e+00   2.851018e-02
  7.128722e-01    1.652954e+00   2.878358e-02
  7.150826e-01    1.611323e+00   2.836982e-02
  7.172931e-01    1.620700e+00   2.840320e-02
  7.195035e-01    1.573928e+00   2.794224e-02
  7.217140e-01    1.619458e+00   2.839364e-02
  7.239245e-01    1.586937e+00   2.833473e-02
  7.261349e-01    1.580881e+00   2.838944e-02
  7.283454e-01    1.569531e+00   2.835963e-02
  7.305558e-01    1.554065e+00   2.827320e-02
  7.327663e-01    1.591363e+00   2.865317e-02
  7.349767e-01    1.617488e+00   2.890403e-02
  7.371872e-01    1.610132e+00   2.882691e-02
  7.393976e-01    1.580975e+00   2.855043e-02
  7.416081e-01    1.576591e+00   2.849464e-02
  7.438186e-01    1.604287e+00   2.859815e-02
  7.460290e-01    1.570701e+00   2.800336e-02
  7.482395e-01    1.557281e+00   2.771323e-02
  7.504499e-01    1.567124e+00   2.766474e-02
  7.526604e-01    1.592629e+00   2.777173e-02
  7.548708e-01    1.588397e+00   2.764500e-02
  7.570813e-01    1.586934e+00   2.758112e-02
  7.592918e-01    1.619617e+00   2.782797e-02
  7.615022e-01    1.624324e+00   2.783409e-02
  7.637127e-01    1.587880e+00   2.748714e-02
  7.659231e-01    1.582315e+00   2.740685e-02
  7.681336e-01    1.576702e+00   2.732658e-02
  7.703440e-01    1.594174e+00   2.744613e-02
  7.725545e-01    1.603571e+00   2.749576e-02
  7.747650e-01    1.638714e+00   2.775645e-02
  7.769754e-01    1.580796e+00   2.720875e-02
  7.791859e-01    1.570400e+00   2.706572e-02
  7.813963e-01    1.577271e+00   2.707231e-02
  7.836068e-01    1.534198e+00   2.664893e-02
  7.858172e-01    1.594296e+00   2.711506e-02
  7.880277e-01    1.603701e+00   2.714321e-02
  7.902381e-01    1.601073e+00   2.707167e-02
  7.924486e-01    1.649350e+00   2.742588e-02
  7.946591e-01    1.696483e+00   2.776526e-02
  7.968695e-01    1.677561e+00   2.756061e-02
  7.990800e-01    1.650596e+00   2.728934e-02
  8.012904e-01    1.643260e+00   2.718154e-02
  8.035009e-01    1.639621e+00   2.710310e-02
  8.057113e-01    1.668239e+00   2.729134e-02
  8.079218e-01    1.661452e+00   2.718876e-02
  8.101323e-01    1.682606e+00   2.731485e-02
  8.123427e-01    1.702627e+00   2.743002e-02
  8.145532e-01    1.667475e+00   2.709897e-02
  8.167636e-01    1.630938e+00   2.675535e-02
  8.189741e-01    1.609279e+00   2.653279e-02
  8.211845e-01    1.636075e+00   2.670794e-02
  8.233950e-01    1.636629e+00   2.666902e-02
  8.256054e-01    1.654958e+00   2.677350e-02
  8.278159e-01    1.639339e+00   2.660288e-02
  8.300264e-01    1.643352e+00   2.659226e-02
  8.322368e-01    1.640501e+00   2.652605e-02
  8.344473e-01    1.653071e+00   2.658389e-02
  8.366577e-01    1.680982e+00   2.676427e-02
  8.388682e-01    1.707691e+00   2.693292e-02
  8.410786e-01    1.705970e+00   2.687647e-02
  8.432891e-01    1.685827e+00   2.667487e-02
  8.454996e-01    1.701719e+00   2.675790e-02
  8.477100e-01    1.660718e+00   2.639163e-02
  8.499205e-01    1.656107e+00   2.631358e-02
  8.521309e-01    1.621846e+00   2.599937e-02
  8.543414e-01    1.614767e+00   2.590208e-02
  8.565518e-01    1.664887e+00   2.626005e-02
  8.587623e-01    1.645532e+00   2.606631e-02
  8.609727e-01    1.650039e+00   2.606152e-02
  8.631832e-01    1.638361e+00   2.592908e-02
  8.653937e-01    1.666485e+00   2.611049e-02
  8.676041e-01    1.661851e+00   2.603483e-02
  8.698146e-01    1.652054e+00   2.591831e-02
  8.720250e-01    1.610988e+00   2.555514e-02
  8.742355e-01    1.604090e+00   2.546154e-02
  8.764459e-01    1.594733e+00   2.534846e-02
  8.786564e-01    1.553921e+00   2.498470e-02
  8.808669e-01    1.580200e+00   2.515684e-02
  8.830773e-01    1.649019e+00   2.566014e-02
  8.852878e-01    1.624578e+00   2.543109e-02
  8.874982e-01    1.597635e+00   2.518271e-02
  8.897087e-01    1.607605e+00   2.522342e-02
  8.919191e-01    1.593889e+00   2.507790e-02
  8.941296e-01    1.594707e+00   2.504713e-02
  8.963401e-01    1.602076e+00   2.506846e-02
  8.985505e-01    1.615370e+00   2.513514e-02
  9.007610e-01    1.599875e+00   2.497755e-02
  9.029714e-01    1.587156e+00   2.484237e-02
  9.051819e-01    1.595687e+00   2.487186e-02
  9.073923e-01    1.601374e+00   2.487957e-02
  9.096028e-01    1.595832e+00   2.480160e-02
  9.118132e-01    1.626344e+00   2.500107e-02
  9.140237e-01    1.589397e+00   2.467896e-02
  9.162342e-01    1.590793e+00   2.465531e-02
  9.184446e-01    1.638884e+00   2.498903e-02
  9.206551e-01    1.639752e+00   2.495963e-02
  9.228655e-01    1.618425e+00   2.476133e-02
  9.250760e-01    1.631660e+00   2.482669e-02
  9.272864e-01    1.636853e+00   2.483155e-02
  9.294969e-01    1.675405e+00   2.508563e-02
  9.317074e-01    1.665395e+00   2.497527e-02
  9.339178e-01    1.623078e+00   2.462224e-02
  9.361283e-01    1.612908e+00   2.450879e-02
  9.383387e-01    1.645563e+00   2.472198e-02
  9.405492e-01    1.628683e+00   2.456049e-02
  9.427596e-01    1.706959e+00   2.510758e-02
  9.449701e-01    1.684589e+00   2.490864e-02
  9.471805e-01    1.697482e+00   2.496836e-02
  9.493910e-01    1.677115e+00   2.478405e-02
  9.516015e-01    1.697466e+00   2.489916e-02
  9.538119e-01    1.694611e+00   2.484412e-02
  9.560224e-01    1.713687e+00   2.494838e-02
  9.582328e-01    1.756676e+00   2.522549e-02
  9.604433e-01    1.773586e+00   2.531073e-02
  9.626537e-01    1.724804e+00   2.492667e-02
  9.648642e-01    1.722996e+00   2.487945e-02
  9.670747e-01    1.775710e+00   2.522234e-02
  9.692851e-01    1.785456e+00   2.525786e-02
  9.714956e-01    1.809874e+00   2.539412e-02
  9.737060e-01    1.799564e+00   2.528843e-02
  9.759165e-01    1.829423e+00   2.546139e-02
  9.781269e-01    1.887399e+00   2.582789e-02
  9.803374e-01    1.888189e+00   2.579755e-02
  9.825478e-01    1.840785e+00   2.543809e-02
  9.847583e-01    1.777139e+00   2.496049e-02
  9.869688e-01    1.759933e+00   2.480612e-02
  9.891792e-01    1.771362e+00   2.485345e-02
  9.913897e-01    1.781050e+00   2.488770e-02
  9.936001e-01    1.846126e+00   2.530509e-02
  9.958106e-01    2.168419e+00   2.738782e-02
  9.980210e-01    2.004895e+00   2.630091e-02
  1.000231e+00    1.705713e+00   2.439211e-02
  1.002442e+00    1.636218e+00   2.401695e-02
  1.004652e+00    1.618110e+00   2.395031e-02
  1.006863e+00    1.636018e+00   2.413243e-02
  1.009073e+00    1.621834e+00   2.406439e-02
  1.011284e+00    1.608633e+00   2.399828e-02
  1.013494e+00    1.610959e+00   2.403945e-02
  1.015705e+00    1.579035e+00   2.382256e-02
  1.017915e+00    1.584027e+00   2.387662e-02
  1.020126e+00    1.561142e+00   2.371955e-02
  1.022336e+00    1.547133e+00   2.362450e-02
  1.024547e+00    1.541689e+00   2.359409e-02
  1.026757e+00    1.554688e+00   2.370174e-02
  1.028967e+00    1.537935e+00   2.358136e-02
  1.031178e+00    1.513046e+00   2.339590e-02
  1.033388e+00    1.492191e+00   2.323908e-02
  1.035599e+00    1.529641e+00   2.353229e-02
  1.037809e+00    1.546125e+00   2.366206e-02
  1.040020e+00    1.533989e+00   2.357029e-02
  1.042230e+00    1.520983e+00   2.347207e-02
  1.044441e+00    1.550576e+00   2.369911e-02
  1.046651e+00    1.522325e+00   2.348240e-02
  1.048862e+00    1.518616e+00   2.345297e-02
  1.051072e+00    1.534998e+00   2.357675e-02
  1.053282e+00    1.536769e+00   2.358937e-02
  1.055493e+00    1.564112e+00   2.379391e-02
  1.057703e+00    1.579565e+00   2.390958e-02
  1.059914e+00    1.792297e+00   2.546405e-02
  1.062124e+00    2.144978e+00   2.785209e-02
  1.064335e+00    2.394042e+00   2.942045e-02
  1.066545e+00    2.268196e+00   2.862938e-02
  1.068756e+00    2.316258e+00   2.892630e-02
  1.070966e+00    2.868865e+00   3.218341e-02
  1.073177e+00    2.553981e+00   3.035816e-02
  1.075387e+00    1.895313e+00   2.614615e-02
  1.077597e+00    1.654259e+00   2.441916e-02
  1.079808e+00    1.596331e+00   2.384918e-02
  1.082018e+00    1.559638e+00   2.337828e-02
  1.084229e+00    1.486312e+00   2.271108e-02
  1.086439e+00    1.471639e+00   2.251076e-02
  1.088650e+00    1.418180e+00   2.202341e-02
  1.090860e+00    1.431468e+00   2.205922e-02
  1.093071e+00    1.460365e+00   2.221838e-02
  1.095281e+00    1.452777e+00   2.210321e-02
  1.097492e+00    1.418301e+00   2.178496e-02
  1.099702e+00    1.424634e+00   2.178243e-02
  1.101912e+00    1.394563e+00   2.150325e-02
  1.104123e+00    1.409795e+00   2.157256e-02
  1.106333e+00    1.416089e+00   2.157651e-02
  1.108544e+00    1.436679e+00   2.168843e-02
  1.110754e+00    1.405729e+00   2.141086e-02
  1.112965e+00    1.412980e+00   2.142559e-02
  1.115175e+00    1.414219e+00   2.139389e-02
  1.117386e+00    1.417154e+00   2.137679e-02
  1.119596e+00    1.427132e+00   2.141383e-02
  1.121807e+00    1.386275e+00   2.106662e-02
  1.124017e+00    1.364827e+00   2.086688e-02
  1.126228e+00    1.382946e+00   2.096948e-02
  1.128438e+00    1.385095e+00   2.094920e-02
  1.130648e+00    1.409760e+00   2.110046e-02
  1.132859e+00    1.387611e+00   2.089980e-02
  1.135069e+00    1.398719e+00   2.094848e-02
  1.137280e+00    1.375540e+00   2.074135e-02
  1.139490e+00    1.372874e+00   2.068836e-02
  1.141701e+00    1.370999e+00   2.064126e-02
  1.143911e+00    1.402205e+00   2.084277e-02
  1.146122e+00    1.407622e+00   2.085068e-02
  1.148332e+00    1.393342e+00   2.071261e-02
  1.150543e+00    1.383369e+00   2.060746e-02
  1.152753e+00    1.342747e+00   2.027217e-02
  1.154963e+00    1.360762e+00   2.037680e-02
  1.157174e+00    1.381801e+00   2.050346e-02
  1.159384e+00    1.469848e+00   2.111568e-02
  1.161595e+00    1.559295e+00   2.171689e-02
  1.163805e+00    1.544725e+00   2.158410e-02
  1.166016e+00    1.567510e+00   2.171120e-02
  1.168226e+00    1.592381e+00   2.185151e-02
  1.170437e+00    1.539274e+00   2.145367e-02
  1.172647e+00    1.521545e+00   2.129924e-02
  1.174858e+00    1.495264e+00   2.108510e-02
  1.177068e+00    1.449970e+00   2.073414e-02
  1.179278e+00    1.407012e+00   2.039564e-02
  1.181489e+00    1.386120e+00   2.021637e-02
  1.183699e+00    1.377195e+00   2.012342e-02
  1.185910e+00    1.371782e+00   2.005592e-02
  1.188120e+00    1.380708e+00   2.009414e-02
  1.190331e+00    1.369571e+00   1.998605e-02
  1.192541e+00    1.368474e+00   1.995051e-02
  1.194752e+00    1.357250e+00   1.984144e-02
  1.196962e+00    1.349852e+00   1.976157e-02
  1.199173e+00    1.330847e+00   1.959565e-02
  1.201383e+00    1.350988e+00   1.971618e-02
  1.203593e+00    1.349388e+00   1.967971e-02
  1.205804e+00    1.332208e+00   1.952827e-02
  1.208014e+00    1.376540e+00   1.982341e-02
  1.210225e+00    1.391673e+00   1.990638e-02
  1.212435e+00    1.375967e+00   1.976871e-02
  1.214646e+00    1.372199e+00   1.971531e-02
  1.216856e+00    1.352122e+00   1.954504e-02
  1.219067e+00    1.338107e+00   1.941913e-02
  1.221277e+00    1.357321e+00   1.953295e-02
  1.223488e+00    1.370251e+00   1.959982e-02
  1.225698e+00    1.359723e+00   1.949741e-02
  1.227909e+00    1.379344e+00   1.960705e-02
  1.230119e+00    1.375714e+00   1.954911e-02
  1.232329e+00    1.373253e+00   1.950062e-02
  1.234540e+00    1.358729e+00   1.936685e-02
  1.236750e+00    1.351110e+00   1.928219e-02
  1.238961e+00    1.343448e+00   1.920053e-02
  1.241171e+00    1.337047e+00   1.913067e-02
  1.243382e+00    1.322932e+00   1.900614e-02
  1.245592e+00    1.342313e+00   1.912082e-02
  1.247803e+00    1.325532e+00   1.897750e-02
  1.250013e+00    1.347039e+00   1.910730e-02
  1.252224e+00    1.371194e+00   1.925443e-02
  1.254434e+00    1.367369e+00   1.920367e-02
  1.256644e+00    1.348787e+00   1.904954e-02
  1.258855e+00    1.346389e+00   1.900936e-02
  1.261065e+00    1.368876e+00   1.914391e-02
  1.263276e+00    1.361741e+00   1.907091e-02
  1.265486e+00    1.354699e+00   1.899863e-02
  1.267697e+00    1.353475e+00   1.896698e-02
  1.269907e+00    1.355397e+00   1.895772e-02
  1.272118e+00    1.317382e+00   1.866767e-02
  1.274328e+00    1.357092e+00   1.892411e-02
  1.276539e+00    1.394773e+00   1.916189e-02
  1.278749e+00    1.408906e+00   1.923598e-02
  1.280959e+00    1.375260e+00   1.898215e-02
  1.283170e+00    1.370306e+00   1.892534e-02
  1.285380e+00    1.356365e+00   1.880632e-02
  1.287591e+00    1.351796e+00   1.875256e-02
  1.289801e+00    1.348119e+00   1.870584e-02
  1.292012e+00    1.341659e+00   1.864392e-02
  1.294222e+00    1.341014e+00   1.862325e-02
  1.296433e+00    1.323251e+00   1.848407e-02
  1.298643e+00    1.343922e+00   1.861142e-02
  1.300854e+00    1.357866e+00   1.869128e-02
  1.303064e+00    1.328752e+00   1.847075e-02
  1.305274e+00    1.363196e+00   1.868705e-02
  1.307485e+00    1.370808e+00   1.871747e-02
  1.309695e+00    1.340447e+00   1.848686e-02
  1.311906e+00    1.349691e+00   1.852879e-02
  1.314116e+00    1.346322e+00   1.848487e-02
  1.316327e+00    1.356683e+00   1.853414e-02
  1.318537e+00    1.354329e+00   1.849612e-02
  1.320748e+00    1.378031e+00   1.863548e-02
  1.322958e+00    1.384030e+00   1.865524e-02
  1.325169e+00    1.382073e+00   1.862078e-02
  1.327379e+00    1.339483e+00   1.830991e-02
  1.329589e+00    1.366596e+00   1.847306e-02
  1.331800e+00    1.408416e+00   1.873247e-02
  1.334010e+00    1.384032e+00   1.854870e-02
  1.336221e+00    1.364115e+00   1.839287e-02
  1.338431e+00    1.365122e+00   1.837867e-02
  1.340642e+00    1.406786e+00   1.872252e-02
  1.342852e+00    1.383527e+00   1.866904e-02
  1.345063e+00    1.366724e+00   1.860510e-02
  1.347273e+00    1.355147e+00   1.856146e-02
  1.349484e+00    1.330722e+00   1.842088e-02
  1.351694e+00    1.336072e+00   1.848048e-02
  1.353905e+00    1.338669e+00   1.851635e-02
  1.356115e+00    1.333586e+00   1.849610e-02
  1.358325e+00    1.329423e+00   1.848044e-02
  1.360536e+00    1.330768e+00   1.850133e-02
  1.362746e+00    1.318297e+00   1.842388e-02
  1.364957e+00    1.316923e+00   1.842185e-02
  1.367167e+00    1.341891e+00   1.860280e-02
  1.369378e+00    1.328606e+00   1.851647e-02
  1.371588e+00    1.326941e+00   1.850996e-02
  1.373799e+00    1.304222e+00   1.835446e-02
  1.376009e+00    1.314573e+00   1.843049e-02
  1.378220e+00    1.305229e+00   1.836738e-02
  1.380430e+00    1.286619e+00   1.823864e-02
  1.382640e+00    1.282544e+00   1.821061e-02
  1.384851e+00    1.270834e+00   1.812815e-02
  1.387061e+00    1.315742e+00   1.844595e-02
  1.389272e+00    1.300026e+00   1.833568e-02
  1.391482e+00    1.293052e+00   1.828576e-02
  1.393693e+00    1.273714e+00   1.814764e-02
  1.395903e+00    1.277764e+00   1.817497e-02
  1.398114e+00    1.298157e+00   1.831805e-02
  1.400324e+00    1.289266e+00   1.825308e-02
  1.402535e+00    1.296386e+00   1.830107e-02
  1.404745e+00    1.283069e+00   1.820447e-02
  1.406955e+00    1.290720e+00   1.825594e-02
  1.409166e+00    1.274150e+00   1.813507e-02
  1.411376e+00    1.280462e+00   1.817682e-02
  1.413587e+00    1.271857e+00   1.811180e-02
  1.415797e+00    1.289772e+00   1.823536e-02
  1.418008e+00    1.276898e+00   1.810215e-02
  1.420218e+00    1.275676e+00   1.794342e-02
  1.422429e+00    1.259497e+00   1.774430e-02
  1.424639e+00    1.267528e+00   1.773616e-02
  1.426850e+00    1.268512e+00   1.768837e-02
  1.429060e+00    1.274323e+00   1.767978e-02
  1.431270e+00    1.277426e+00   1.765684e-02
  1.433481e+00    1.272167e+00   1.757948e-02
  1.435691e+00    1.268617e+00   1.751651e-02
  1.437902e+00    1.329785e+00   1.789649e-02
  1.440112e+00    1.423808e+00   1.848097e-02
  1.442323e+00    1.416678e+00   1.839979e-02
  1.444533e+00    1.291355e+00   1.753428e-02
  1.446744e+00    1.299173e+00   1.755575e-02
  1.448954e+00    1.300153e+00   1.753184e-02
  1.451165e+00    1.281413e+00   1.737514e-02
  1.453375e+00    1.258574e+00   1.719169e-02
  1.455586e+00    1.265739e+00   1.721243e-02
  1.457796e+00    1.245177e+00   1.704480e-02
  1.460006e+00    1.289138e+00   1.731561e-02
  1.462217e+00    1.274580e+00   1.719131e-02
  1.464427e+00    1.279755e+00   1.720046e-02
  1.466638e+00    1.250315e+00   1.697633e-02
  1.468848e+00    1.275637e+00   1.712197e-02
  1.471059e+00    1.257929e+00   1.697776e-02
  1.473269e+00    1.265575e+00   1.700491e-02
  1.475480e+00    1.273098e+00   1.703160e-02
  1.477690e+00    1.269637e+00   1.698455e-02
  1.479901e+00    1.308758e+00   1.722002e-02
  1.482111e+00    1.309826e+00   1.720336e-02
  1.484321e+00    1.264412e+00   1.687940e-02
  1.486532e+00    1.259966e+00   1.682740e-02
  1.488742e+00    1.253354e+00   1.676065e-02
  1.490953e+00    1.260492e+00   1.678574e-02
  1.493163e+00    1.258377e+00   1.674942e-02
  1.495374e+00    1.243163e+00   1.662654e-02
  1.497584e+00    1.237141e+00   1.656478e-02
  1.499795e+00    1.242180e+00   1.657697e-02
  1.502005e+00    1.262114e+00   1.668776e-02
  1.504216e+00    1.260770e+00   1.665783e-02
  1.506426e+00    1.268807e+00   1.668994e-02
  1.508636e+00    1.265662e+00   1.664872e-02
  1.510847e+00    1.275331e+00   1.669021e-02
  1.513057e+00    1.287581e+00   1.674479e-02
  1.515268e+00    1.283313e+00   1.669100e-02
  1.517478e+00    1.272485e+00   1.659510e-02
  1.519689e+00    1.283371e+00   1.664068e-02
  1.521899e+00    1.265713e+00   1.650258e-02
  1.524110e+00    1.279571e+00   1.657213e-02
  1.526320e+00    1.257926e+00   1.641176e-02
  1.528531e+00    1.228006e+00   1.619579e-02
  1.530741e+00    1.284640e+00   1.654564e-02
  1.532951e+00    1.252599e+00   1.631841e-02
  1.535162e+00    1.252466e+00   1.640424e-02
  1.537372e+00    1.228163e+00   1.631065e-02
  1.539583e+00    1.216736e+00   1.626838e-02
  1.541793e+00    1.241343e+00   1.643898e-02
  1.544004e+00    1.254327e+00   1.652500e-02
  1.546214e+00    1.268089e+00   1.661389e-02
  1.548425e+00    1.262133e+00   1.657509e-02
  1.550635e+00    1.254260e+00   1.653304e-02
  1.552846e+00    1.233606e+00   1.640595e-02
  1.555056e+00    1.239155e+00   1.640141e-02
  1.557266e+00    1.251490e+00   1.637208e-02
  1.559477e+00    1.243964e+00   1.626368e-02
  1.561687e+00    1.247830e+00   1.625823e-02
  1.563898e+00    1.256018e+00   1.629422e-02
  1.566108e+00    1.279327e+00   1.642855e-02
  1.568319e+00    1.301869e+00   1.655668e-02
  1.570529e+00    1.306825e+00   1.656242e-02
  1.572740e+00    1.276101e+00   1.633860e-02
  1.574950e+00    1.285624e+00   1.637270e-02
  1.577161e+00    1.265368e+00   1.621754e-02
  1.579371e+00    1.259664e+00   1.615711e-02
  1.581582e+00    1.263316e+00   1.616061e-02
  1.583792e+00    1.262125e+00   1.613483e-02
  1.586002e+00    1.243353e+00   1.599680e-02
  1.588213e+00    1.236157e+00   1.593323e-02
  1.590423e+00    1.252072e+00   1.601534e-02
  1.592634e+00    1.233142e+00   1.587229e-02
  1.594844e+00    1.252593e+00   1.597548e-02
  1.597055e+00    1.250859e+00   1.594388e-02
  1.599265e+00    1.247168e+00   1.589955e-02
  1.601476e+00    1.253525e+00   1.591963e-02
  1.603686e+00    1.240276e+00   1.581550e-02
  1.605897e+00    1.242379e+00   1.580871e-02
  1.608107e+00    1.244219e+00   1.580082e-02
  1.610317e+00    1.216366e+00   1.560381e-02
  1.612528e+00    1.248060e+00   1.578650e-02
  1.614738e+00    1.233458e+00   1.567493e-02
  1.616949e+00    1.235742e+00   1.567039e-02
  1.619159e+00    1.199756e+00   1.542200e-02
  1.621370e+00    1.189716e+00   1.533909e-02
  1.623580e+00    1.184677e+00   1.528846e-02
  1.625791e+00    1.186833e+00   1.528428e-02
  1.628001e+00    1.175513e+00   1.519316e-02
  1.630212e+00    1.165683e+00   1.511195e-02
  1.632422e+00    1.159012e+00   1.505094e-02
  1.634632e+00    1.161865e+00   1.505231e-02
  1.636843e+00    1.151438e+00   1.496726e-02
  1.639053e+00    1.146321e+00   1.491688e-02
  1.641264e+00    1.171319e+00   1.506155e-02
  1.643474e+00    1.174387e+00   1.506378e-02
  1.645685e+00    1.148249e+00   1.487862e-02
  1.647895e+00    1.140851e+00   1.481410e-02
  1.650106e+00    1.165737e+00   1.495770e-02
  1.652316e+00    1.172310e+00   1.498315e-02
  1.654527e+00    1.150450e+00   1.482609e-02
  1.656737e+00    1.128664e+00   1.466852e-02
  1.658947e+00    1.104038e+00   1.449155e-02
  1.661158e+00    1.092851e+00   1.440191e-02
  1.663368e+00    1.121697e+00   1.457472e-02
  1.665579e+00    1.117758e+00   1.453299e-02
  1.667789e+00    1.111104e+00   1.447347e-02
  1.670000e+00    1.090698e+00   1.432461e-02
  1.672210e+00    1.082137e+00   1.425259e-02
  1.674421e+00    1.073758e+00   1.418219e-02
  1.676631e+00    1.084493e+00   1.423716e-02
  1.678842e+00    1.082938e+00   1.421130e-02
  1.681052e+00    1.066817e+00   1.408993e-02
  1.683263e+00    1.068218e+00   1.408420e-02
  1.685473e+00    1.058208e+00   1.400308e-02
  1.687683e+00    1.092580e+00   1.421318e-02
  1.689894e+00    1.075043e+00   1.408296e-02
  1.692104e+00    1.057840e+00   1.395502e-02
  1.694315e+00    1.045209e+00   1.385715e-02
  1.696525e+00    1.047894e+00   1.385991e-02
  1.698736e+00    1.060859e+00   1.393061e-02
  1.700946e+00    1.045129e+00   1.381194e-02
  1.703157e+00    1.027459e+00   1.368023e-02
  1.705367e+00    1.024789e+00   1.364814e-02
  1.707578e+00    1.040398e+00   1.373716e-02
  1.709788e+00    1.040282e+00   1.372233e-02
  1.711998e+00    1.039832e+00   1.370437e-02
  1.714209e+00    1.012546e+00   1.350911e-02
  1.716419e+00    1.029476e+00   1.360735e-02
  1.718630e+00    1.029675e+00   1.359441e-02
  1.720840e+00    1.023984e+00   1.354264e-02
  1.723051e+00    1.004491e+00   1.339939e-02
  1.725261e+00    1.020954e+00   1.349406e-02
  1.727472e+00    1.005431e+00   1.337701e-02
  1.729682e+00    9.984654e-01   1.331725e-02
  1.731893e+00    9.936186e-01   1.327109e-02
  1.734103e+00    1.026411e+00   1.347438e-02
  1.736313e+00    1.037260e+00   1.353120e-02
  1.738524e+00    1.070593e+00   1.373261e-02
  1.740734e+00    1.077435e+00   1.376219e-02
  1.742945e+00    1.047545e+00   1.355617e-02
  1.745155e+00    1.026035e+00   1.340257e-02
  1.747366e+00    1.022406e+00   1.336482e-02
  1.749576e+00    9.913327e-01   1.314644e-02
  1.751787e+00    9.915462e-01   1.313446e-02
  1.753997e+00    9.822531e-01   1.305937e-02
  1.756208e+00    9.838938e-01   1.305700e-02
  1.758418e+00    9.831126e-01   1.303864e-02
  1.760628e+00    9.446525e-01   1.276789e-02
  1.762839e+00    9.502130e-01   1.279225e-02
  1.765049e+00    9.663685e-01   1.288742e-02
  1.767260e+00    9.642820e-01   1.286066e-02
  1.769470e+00    9.494503e-01   1.274842e-02
  1.771681e+00    9.422077e-01   1.268663e-02
  1.773891e+00    9.302920e-01   1.259325e-02
  1.776102e+00    9.123259e-01   1.245841e-02
  1.778312e+00    9.244160e-01   1.252809e-02
  1.780523e+00    9.208449e-01   1.249130e-02
  1.782733e+00    9.197403e-01   1.247122e-02
  1.784944e+00    9.248811e-01   1.249323e-02
  1.787154e+00    9.110913e-01   1.238736e-02
  1.789364e+00    9.179883e-01   1.242175e-02
  1.791575e+00    9.229509e-01   1.244278e-02
  1.793785e+00    9.507513e-01   1.261618e-02
  1.795996e+00    9.316558e-01   1.247628e-02
  1.798206e+00    9.343289e-01   1.248152e-02
  1.800417e+00    9.373294e-01   1.248873e-02
  1.802627e+00    9.680834e-01   1.267966e-02
  1.804838e+00    9.618201e-01   1.262614e-02
  1.807048e+00    1.019921e+00   1.298831e-02
  1.809259e+00    9.744359e-01   1.268132e-02
  1.811469e+00    9.166384e-01   1.228441e-02
  1.813679e+00    8.930706e-01   1.211055e-02
  1.815890e+00    8.869846e-01   1.205456e-02
  1.818100e+00    8.735410e-01   1.194794e-02
  1.820311e+00    8.845325e-01   1.200817e-02
  1.822521e+00    8.968764e-01   1.207680e-02
  1.824732e+00    8.826872e-01   1.196610e-02
  1.826942e+00    8.931830e-01   1.202468e-02
  1.829153e+00    8.832275e-01   1.194578e-02
  1.831363e+00    9.311415e-01   1.225317e-02
  1.833574e+00    9.520686e-01   1.237797e-02
  1.835784e+00    9.244692e-01   1.218556e-02
  1.837994e+00    8.843503e-01   1.190644e-02
  1.840205e+00    8.728574e-01   1.181765e-02
  1.842415e+00    8.852113e-01   1.188913e-02
  1.844626e+00    8.685741e-01   1.176534e-02
  1.846836e+00    8.594554e-01   1.169204e-02
  1.849047e+00    8.533922e-01   1.163919e-02
  1.851257e+00    8.680587e-01   1.172920e-02
  1.853468e+00    8.547735e-01   1.163033e-02
  1.855678e+00    8.561315e-01   1.163070e-02
  1.857889e+00    8.610334e-01   1.165546e-02
  1.860099e+00    8.616157e-01   1.165072e-02
  1.862309e+00    8.678591e-01   1.168431e-02
  1.864520e+00    8.546415e-01   1.158642e-02
  1.866730e+00    8.450606e-01   1.151196e-02
  1.868941e+00    8.369374e-01   1.144565e-02
  1.871151e+00    8.475681e-01   1.150675e-02
  1.873362e+00    8.425927e-01   1.146164e-02
  1.875572e+00    8.235866e-01   1.132085e-02
  1.877783e+00    8.463238e-01   1.146464e-02
  1.879993e+00    8.687140e-01   1.160400e-02
  1.882204e+00    8.471298e-01   1.144805e-02
  1.884414e+00    8.349273e-01   1.135426e-02
  1.886624e+00    8.573936e-01   1.149485e-02
  1.888835e+00    8.641878e-01   1.152917e-02
  1.891045e+00    8.858266e-01   1.166146e-02
  1.893256e+00    8.946436e-01   1.170791e-02
  1.895466e+00    8.680735e-01   1.152136e-02
  1.897677e+00    8.348031e-01   1.128753e-02
  1.899887e+00    8.063766e-01   1.108284e-02
  1.902098e+00    8.453421e-01   1.133652e-02
  1.904308e+00    8.523827e-01   1.137294e-02
  1.906519e+00    8.573629e-01   1.139508e-02
  1.908729e+00    8.933770e-01   1.162093e-02
  1.910940e+00    8.935267e-01   1.161037e-02
  1.913150e+00    8.407083e-01   1.125131e-02
  1.915360e+00    8.367239e-01   1.121390e-02
  1.917571e+00    8.198063e-01   1.108910e-02
  1.919781e+00    8.372228e-01   1.119549e-02
  1.921992e+00    8.287312e-01   1.112789e-02
  1.924202e+00    8.098655e-01   1.098980e-02
  1.926413e+00    8.113911e-01   1.098985e-02
  1.928623e+00    8.057595e-01   1.094119e-02
  1.930834e+00    7.987437e-01   1.088309e-02
  1.933044e+00    8.032596e-01   1.090321e-02
  1.935255e+00    8.155683e-01   1.097606e-02
  1.937465e+00    7.970507e-01   1.084042e-02
  1.939675e+00    8.007762e-01   1.085491e-02
  1.941886e+00    8.067072e-01   1.088474e-02
  1.944096e+00    8.194819e-01   1.096032e-02
  1.946307e+00    8.096445e-01   1.088393e-02
  1.948517e+00    7.937235e-01   1.076599e-02
  1.950728e+00    7.998413e-01   1.079714e-02
  1.952938e+00    7.826802e-01   1.067070e-02
  1.955149e+00    7.831916e-01   1.066404e-02
  1.957359e+00    7.839313e-01   1.065909e-02
  1.959570e+00    8.010686e-01   1.076406e-02
  1.961780e+00    7.960765e-01   1.072054e-02
  1.963990e+00    7.746592e-01   1.056535e-02
  1.966201e+00    7.861111e-01   1.063310e-02
  1.968411e+00    7.872146e-01   1.063044e-02
  1.970622e+00    7.933910e-01   1.066192e-02
  1.972832e+00    7.916945e-01   1.064053e-02
  1.975043e+00    7.807579e-01   1.055677e-02
  1.977253e+00    7.718570e-01   1.048655e-02
  1.979464e+00    7.937376e-01   1.062404e-02
  1.981674e+00    7.902319e-01   1.059025e-02
  1.983885e+00    7.907762e-01   1.058383e-02
  1.986095e+00    7.830421e-01   1.052222e-02
  1.988305e+00    7.795904e-01   1.048910e-02
  1.990516e+00    7.871475e-01   1.052985e-02
  1.992726e+00    7.894167e-01   1.053527e-02
  1.994937e+00    7.827271e-01   1.048038e-02
  1.997147e+00    7.738875e-01   1.041132e-02
  1.999358e+00    7.921489e-01   1.052346e-02
  2.001568e+00    7.809891e-01   1.043823e-02
  2.003779e+00    7.728750e-01   1.037193e-02
  2.005989e+00    7.662653e-01   1.031551e-02
  2.008200e+00    7.775491e-01   1.037959e-02
  2.010410e+00    7.879790e-01   1.043709e-02
  2.012621e+00    7.765232e-01   1.034918e-02
  2.014831e+00    7.665442e-01   1.027100e-02
  2.017041e+00    7.807888e-01   1.035552e-02
  2.019252e+00    7.632617e-01   1.022869e-02
  2.021462e+00    7.625206e-01   1.021422e-02
  2.023673e+00    7.865725e-01   1.036454e-02
  2.025883e+00    7.824445e-01   1.032767e-02
  2.028094e+00    7.835011e-01   1.032487e-02
  2.030304e+00    8.128182e-01   1.050640e-02
  2.032515e+00    8.369610e-01   1.065155e-02
  2.034725e+00    8.477202e-01   1.070983e-02
  2.036936e+00    8.008345e-01   1.039984e-02
  2.039146e+00    7.723046e-01   1.020326e-02
  2.041356e+00    7.763368e-01   1.022006e-02
  2.043567e+00    7.718369e-01   1.018101e-02
  2.045777e+00    7.646856e-01   1.012444e-02
  2.047988e+00    7.712675e-01   1.015844e-02
  2.050198e+00    7.521602e-01   1.002340e-02
  2.052409e+00    7.434141e-01   9.957343e-03
  2.054619e+00    7.375086e-01   9.910407e-03
  2.056830e+00    7.447271e-01   9.951633e-03
  2.059040e+00    7.695274e-01   1.010838e-02
  2.061251e+00    7.619874e-01   1.005144e-02
  2.063461e+00    7.652912e-01   1.006552e-02
  2.065671e+00    7.620745e-01   1.003556e-02
  2.067882e+00    7.317163e-01   9.824737e-03
  2.070092e+00    7.379645e-01   9.857435e-03
  2.072303e+00    7.546461e-01   9.959059e-03
  2.074513e+00    7.398897e-01   9.851906e-03
  2.076724e+00    7.622638e-01   9.990189e-03
  2.078934e+00    7.547006e-01   9.931426e-03
  2.081145e+00    7.578729e-01   9.943124e-03
  2.083355e+00    7.584203e-01   9.937407e-03
  2.085566e+00    8.023137e-01   1.021165e-02
  2.087776e+00    8.205631e-01   1.031714e-02
  2.089986e+00    8.005361e-01   1.018134e-02
  2.092197e+00    7.630119e-01   9.930734e-03
  2.094407e+00    7.469074e-01   9.816067e-03
  2.096618e+00    7.479898e-01   9.814208e-03
  2.098828e+00    7.478206e-01   9.803698e-03
  2.101039e+00    7.247632e-01   9.642461e-03
  2.103249e+00    7.222847e-01   9.617329e-03
  2.105460e+00    7.327454e-01   9.677694e-03
  2.107670e+00    7.316851e-01   9.661928e-03
  2.109881e+00    7.324513e-01   9.657805e-03
  2.112091e+00    7.170427e-01   9.546743e-03
  2.114301e+00    7.036336e-01   9.448403e-03
  2.116512e+00    7.195755e-01   9.546048e-03
  2.118722e+00    7.306778e-01   9.610543e-03
  2.120933e+00    7.348195e-01   9.628796e-03
  2.123143e+00    7.393342e-01   9.649287e-03
  2.125354e+00    7.313555e-01   9.588496e-03
  2.127564e+00    7.319475e-01   9.583516e-03
  2.129775e+00    7.435371e-01   9.650212e-03
  2.131985e+00    7.330101e-01   9.572491e-03
  2.134196e+00    7.084128e-01   9.401944e-03
  2.136406e+00    7.244110e-01   9.498688e-03
  2.138617e+00    7.089988e-01   9.388666e-03
  2.140827e+00    7.055787e-01   9.382002e-03
  2.143037e+00    7.162284e-01   9.498312e-03
  2.145248e+00    7.207859e-01   9.550723e-03
  2.147458e+00    7.165182e-01   9.537662e-03
  2.149669e+00    7.249203e-01   9.605473e-03
  2.151879e+00    7.150170e-01   9.548937e-03
  2.154090e+00    7.088798e-01   9.515223e-03
  2.156300e+00    6.987820e-01   9.453803e-03
  2.158511e+00    7.057169e-01   9.505923e-03
  2.160721e+00    6.899531e-01   9.403960e-03
  2.162932e+00    6.949457e-01   9.441626e-03
  2.165142e+00    7.100577e-01   9.546801e-03
  2.167352e+00    6.951196e-01   9.448751e-03
  2.169563e+00    6.823401e-01   9.363427e-03
  2.171773e+00    6.923562e-01   9.434340e-03
  2.173984e+00    6.883273e-01   9.408260e-03
  2.176194e+00    7.008711e-01   9.494805e-03
  2.178405e+00    6.919760e-01   9.435062e-03
  2.180615e+00    6.951718e-01   9.457499e-03
  2.182826e+00    6.837828e-01   9.380395e-03
  2.185036e+00    6.841353e-01   9.382862e-03
  2.187247e+00    6.886495e-01   9.413708e-03
  2.189457e+00    6.854375e-01   9.391327e-03
  2.191667e+00    6.824047e-01   9.370354e-03
  2.193878e+00    6.792242e-01   9.347917e-03
  2.196088e+00    7.005509e-01   9.492856e-03
  2.198299e+00    7.045299e-01   9.518677e-03
  2.200509e+00    6.861863e-01   9.392888e-03
  2.202720e+00    6.917610e-01   9.429783e-03
  2.204930e+00    6.955566e-01   9.454395e-03
  2.207141e+00    6.959695e-01   9.456046e-03
  2.209351e+00    6.970933e-01   9.461779e-03
  2.211562e+00    6.947262e-01   9.444068e-03
  2.213772e+00    6.939139e-01   9.382368e-03
  2.215982e+00    6.870550e-01   9.291306e-03
  2.218193e+00    6.786941e-01   9.204909e-03
  2.220403e+00    6.799673e-01   9.188853e-03
  2.222614e+00    6.774323e-01   9.150702e-03
  2.224824e+00    6.674597e-01   9.063811e-03
  2.227035e+00    6.727647e-01   9.082296e-03
  2.229245e+00    6.651605e-01   9.013960e-03
  2.231456e+00    6.794600e-01   9.094598e-03
  2.233666e+00    6.809045e-01   9.089081e-03
  2.235877e+00    6.649560e-01   8.967792e-03
  2.238087e+00    6.581927e-01   8.908701e-03
  2.240298e+00    6.678215e-01   8.959874e-03
  2.242508e+00    6.629679e-01   8.912197e-03
  2.244718e+00    6.588724e-01   8.868934e-03
  2.246929e+00    6.786796e-01   8.986722e-03
  2.249139e+00    6.748254e-01   8.948720e-03
  2.251350e+00    6.817585e-01   8.982743e-03
  2.253560e+00    6.765673e-01   8.936816e-03
  2.255771e+00    6.843851e-01   8.976730e-03
  2.257981e+00    6.983378e-01   9.056324e-03
  2.260192e+00    7.019354e-01   9.068206e-03
  2.262402e+00    7.006847e-01   9.048983e-03
  2.264613e+00    6.991057e-01   9.027636e-03
  2.266823e+00    7.176062e-01   9.135522e-03
  2.269033e+00    6.887735e-01   8.939534e-03
  2.271244e+00    6.665924e-01   8.783969e-03
  2.273454e+00    6.962954e-01   8.967005e-03
  2.275665e+00    7.210236e-01   9.114112e-03
  2.277875e+00    6.917582e-01   8.917092e-03
  2.280086e+00    6.735863e-01   8.789031e-03
  2.282296e+00    6.620495e-01   8.704018e-03
  2.284507e+00    6.483012e-01   8.603116e-03
  2.286717e+00    6.554253e-01   8.640798e-03
  2.288928e+00    6.564908e-01   8.637963e-03
  2.291138e+00    6.463298e-01   8.561499e-03
  2.293348e+00    6.529136e-01   8.595491e-03
  2.295559e+00    6.509759e-01   8.573422e-03
  2.297769e+00    6.534348e-01   8.580374e-03
  2.299980e+00    6.545241e-01   8.578182e-03
  2.302190e+00    6.479715e-01   8.526040e-03
  2.304401e+00    6.638254e-01   8.620307e-03
  2.306611e+00    6.499067e-01   8.520285e-03
  2.308822e+00    6.579927e-01   8.564682e-03
  2.311032e+00    6.544460e-01   8.535106e-03
  2.313243e+00    6.632232e-01   8.585807e-03
  2.315453e+00    6.640354e-01   8.583416e-03
  2.317663e+00    6.581951e-01   8.536376e-03
  2.319874e+00    6.459240e-01   8.447705e-03
  2.322084e+00    6.532990e-01   8.486768e-03
  2.324295e+00    6.535052e-01   8.479852e-03
  2.326505e+00    6.491917e-01   8.442714e-03
  2.328716e+00    6.398382e-01   8.373164e-03
  2.330926e+00    6.356586e-01   8.337006e-03
  2.333137e+00    6.422240e-01   8.371583e-03
  2.335347e+00    6.526359e-01   8.430225e-03
  2.337558e+00    6.475652e-01   8.389144e-03
  2.339768e+00    6.205059e-01   8.203547e-03
  2.341979e+00    6.473481e-01   8.370670e-03
  2.344189e+00    6.482599e-01   8.368119e-03
  2.346399e+00    6.385647e-01   8.296796e-03
  2.348610e+00    6.429592e-01   8.316776e-03
  2.350820e+00    6.403956e-01   8.291979e-03
  2.353031e+00    6.304545e-01   8.219093e-03
  2.355241e+00    6.416821e-01   8.283853e-03
  2.357452e+00    6.330510e-01   8.219530e-03
  2.359662e+00    6.331827e-01   8.212155e-03
  2.361873e+00    6.355778e-01   8.219398e-03
  2.364083e+00    6.397831e-01   8.238486e-03
  2.366294e+00    6.416365e-01   8.242223e-03
  2.368504e+00    6.386584e-01   8.214924e-03
  2.370714e+00    6.226990e-01   8.103586e-03
  2.372925e+00    6.246914e-01   8.108501e-03
  2.375135e+00    6.199601e-01   8.069690e-03
  2.377346e+00    6.282044e-01   8.115215e-03
  2.379556e+00    6.076566e-01   7.973587e-03
  2.381767e+00    6.171713e-01   8.027920e-03
  2.383977e+00    6.148769e-01   8.005106e-03
  2.386188e+00    6.144201e-01   7.994237e-03
  2.388398e+00    6.208941e-01   8.028263e-03
  2.390609e+00    6.123943e-01   7.965456e-03
  2.392819e+00    6.096499e-01   7.939826e-03
  2.395029e+00    6.247424e-01   8.029794e-03
  2.397240e+00    6.249038e-01   8.022895e-03
  2.399450e+00    6.134771e-01   7.941422e-03
  2.401661e+00    5.946517e-01   7.811031e-03
  2.403871e+00    6.060683e-01   7.877945e-03
  2.406082e+00    5.997743e-01   7.829538e-03
  2.408292e+00    6.191815e-01   7.947361e-03
  2.410503e+00    6.023079e-01   7.830884e-03
  2.412713e+00    6.095129e-01   7.869749e-03
  2.414924e+00    6.156875e-01   7.901981e-03
  2.417134e+00    6.107807e-01   7.862768e-03
  2.419344e+00    5.929032e-01   7.739471e-03
  2.421555e+00    6.074548e-01   7.826343e-03
  2.423765e+00    5.921243e-01   7.719612e-03
  2.425976e+00    5.780030e-01   7.619316e-03
  2.428186e+00    5.972340e-01   7.737839e-03
  2.430397e+00    5.988293e-01   7.740662e-03
  2.432607e+00    6.002443e-01   7.742505e-03
  2.434818e+00    5.922698e-01   7.683394e-03
  2.437028e+00    5.851931e-01   7.630238e-03
  2.439239e+00    5.963510e-01   7.694977e-03
  2.441449e+00    5.820830e-01   7.595229e-03
  2.443659e+00    5.839202e-01   7.599896e-03
  2.445870e+00    5.989772e-01   7.709594e-03
  2.448080e+00    5.858953e-01   7.659859e-03
  2.450291e+00    5.806038e-01   7.641820e-03
  2.452501e+00    5.783725e-01   7.638329e-03
  2.454712e+00    5.617901e-01   7.536361e-03
  2.456922e+00    5.769606e-01   7.644091e-03
  2.459133e+00    5.638924e-01   7.562455e-03
  2.461343e+00    5.715325e-01   7.617863e-03
  2.463554e+00    5.759508e-01   7.650774e-03
  2.465764e+00    5.716933e-01   7.625602e-03
  2.467975e+00    5.651343e-01   7.584027e-03
  2.470185e+00    5.609953e-01   7.558465e-03
  2.472395e+00    5.754820e-01   7.656673e-03
  2.474606e+00    5.493223e-01   7.482189e-03
  2.476816e+00    5.463030e-01   7.462327e-03
  2.479027e+00    5.480678e-01   7.475205e-03
  2.481237e+00    5.525001e-01   7.505663e-03
  2.483448e+00    5.473755e-01   7.471075e-03
  2.485658e+00    5.432780e-01   7.442915e-03
  2.487869e+00    5.320234e-01   7.365455e-03
  2.490079e+00    5.302824e-01   7.352878e-03
  2.492290e+00    5.406417e-01   7.423910e-03
  2.494500e+00    5.356190e-01   7.388628e-03
  2.496710e+00    5.321355e-01   7.363862e-03
  2.498921e+00    5.310483e-01   7.355350e-03
  2.501131e+00    5.377225e-01   7.400464e-03
  2.503342e+00    5.284918e-01   7.335437e-03
  2.505552e+00    5.074552e-01   7.186839e-03
  2.507763e+00    5.066224e-01   7.179558e-03
  2.509973e+00    5.202600e-01   7.274144e-03
  2.512184e+00    5.376431e-01   7.393047e-03
  2.514394e+00    5.472427e-01   7.449233e-03
  2.516605e+00    5.343530e-01   7.313562e-03
  2.518815e+00    5.264666e-01   7.231054e-03
  2.521025e+00    5.404290e-01   7.305057e-03
  2.523236e+00    5.415132e-01   7.294116e-03
  2.525446e+00    5.468740e-01   7.314230e-03
  2.527657e+00    5.450227e-01   7.286946e-03
  2.529867e+00    5.451674e-01   7.273484e-03
  2.532078e+00    5.421842e-01   7.238272e-03
  2.534288e+00    5.445855e-01   7.240110e-03
  2.536499e+00    5.479810e-01   7.250478e-03
  2.538709e+00    5.404112e-01   7.189043e-03
  2.540920e+00    5.490320e-01   7.235277e-03
  2.543130e+00    5.317070e-01   7.109761e-03
  2.545340e+00    5.277714e-01   7.073309e-03
  2.547551e+00    5.151911e-01   6.978605e-03
  2.549761e+00    5.268240e-01   7.047344e-03
  2.551972e+00    5.264732e-01   7.035599e-03
  2.554182e+00    5.131022e-01   6.936582e-03
  2.556393e+00    5.107105e-01   6.911382e-03
  2.558603e+00    5.322767e-01   7.046626e-03
  2.560814e+00    5.249740e-01   6.989378e-03
  2.563024e+00    5.296521e-01   7.011785e-03
  2.565235e+00    5.210570e-01   6.945141e-03
  2.567445e+00    5.047585e-01   6.826236e-03
  2.569656e+00    5.062981e-01   6.826992e-03
  2.571866e+00    5.183353e-01   6.898312e-03
  2.574076e+00    5.130069e-01   6.853533e-03
  2.576287e+00    5.157580e-01   6.863561e-03
  2.578497e+00    5.204713e-01   6.886971e-03
  2.580708e+00    5.206928e-01   6.880312e-03
  2.582918e+00    5.283414e-01   6.922795e-03
  2.585129e+00    5.175487e-01   6.843960e-03
  2.587339e+00    5.343751e-01   6.946475e-03
  2.589550e+00    5.125496e-01   6.795620e-03
  2.591760e+00    4.995494e-01   6.701231e-03
  2.593971e+00    4.978999e-01   6.682734e-03
  2.596181e+00    4.946356e-01   6.654652e-03
  2.598391e+00    5.198249e-01   6.816762e-03
  2.600602e+00    5.113661e-01   6.755174e-03
  2.602812e+00    5.053779e-01   6.707982e-03
  2.605023e+00    5.062481e-01   6.706601e-03
  2.607233e+00    5.149564e-01   6.756847e-03
  2.609444e+00    5.244074e-01   6.811229e-03
  2.611654e+00    5.138955e-01   6.735248e-03
  2.613865e+00    5.089104e-01   6.695431e-03
  2.616075e+00    5.199201e-01   6.760245e-03
  2.618286e+00    5.178504e-01   6.739696e-03
  2.620496e+00    5.069647e-01   6.661764e-03
  2.622706e+00    5.111411e-01   6.683378e-03
  2.624917e+00    5.064818e-01   6.646983e-03
  2.627127e+00    5.098889e-01   6.663525e-03
  2.629338e+00    5.190452e-01   6.717011e-03
  2.631548e+00    5.310259e-01   6.787773e-03
  2.633759e+00    5.252886e-01   6.743696e-03
  2.635969e+00    5.004052e-01   6.575364e-03
  2.638180e+00    4.991033e-01   6.559821e-03
  2.640390e+00    4.888959e-01   6.485883e-03
  2.642601e+00    4.865836e-01   6.463935e-03
  2.644811e+00    5.059538e-01   6.584243e-03
  2.647021e+00    4.955914e-01   6.509931e-03
  2.649232e+00    4.958924e-01   6.505209e-03
  2.651442e+00    5.171563e-01   6.636591e-03
  2.653653e+00    5.211102e-01   6.654981e-03
  2.655863e+00    5.124081e-01   6.592407e-03
  2.658074e+00    5.153320e-01   6.604460e-03
  2.660284e+00    5.029523e-01   6.518266e-03
  2.662495e+00    5.012043e-01   6.500141e-03
  2.664705e+00    4.908806e-01   6.426329e-03
  2.666916e+00    4.975053e-01   6.463053e-03
  2.669126e+00    5.172002e-01   6.583160e-03
  2.671337e+00    5.002559e-01   6.467819e-03
  2.673547e+00    5.027828e-01   6.477694e-03
  2.675757e+00    5.050807e-01   6.485973e-03
  2.677968e+00    4.989180e-01   6.439728e-03
  2.680178e+00    4.887128e-01   6.367154e-03
  2.682389e+00    4.878756e-01   6.355336e-03
  2.684599e+00    4.943531e-01   6.391188e-03
  2.686810e+00    4.908034e-01   6.361614e-03
  2.689020e+00    4.950449e-01   6.382718e-03
  2.691231e+00    5.047709e-01   6.438746e-03
  2.693441e+00    4.880252e-01   6.324914e-03
  2.695652e+00    4.871195e-01   6.312552e-03
  2.697862e+00    4.903904e-01   6.327344e-03
  2.700072e+00    4.951634e-01   6.351968e-03
  2.702283e+00    4.948107e-01   6.343446e-03
  2.704493e+00    4.898737e-01   6.305423e-03
  2.706704e+00    4.925591e-01   6.316250e-03
  2.708914e+00    4.920738e-01   6.307151e-03
  2.711125e+00    4.842111e-01   6.250348e-03
  2.713335e+00    4.776030e-01   6.201504e-03
  2.715546e+00    4.926770e-01   6.292108e-03
  2.717756e+00    4.962865e-01   6.309181e-03
  2.719967e+00    4.838009e-01   6.223115e-03
  2.722177e+00    4.837863e-01   6.216907e-03
  2.724387e+00    4.892884e-01   6.246013e-03
  2.726598e+00    4.895475e-01   6.241609e-03
  2.728808e+00    4.782774e-01   6.163219e-03
  2.731019e+00    4.757878e-01   6.141103e-03
  2.733229e+00    4.758870e-01   6.135984e-03
  2.735440e+00    4.863065e-01   6.196503e-03
  2.737650e+00    4.678137e-01   6.071649e-03
  2.739861e+00    4.593433e-01   6.010495e-03
  2.742071e+00    4.759532e-01   6.112490e-03
  2.744282e+00    4.898369e-01   6.194712e-03
  2.746492e+00    4.788432e-01   6.118814e-03
  2.748702e+00    4.770527e-01   6.101458e-03
  2.750913e+00    4.663825e-01   6.027168e-03
  2.753123e+00    4.675611e-01   6.028720e-03
  2.755334e+00    4.848336e-01   6.132973e-03
  2.757544e+00    4.873669e-01   6.143206e-03
  2.759755e+00    4.849886e-01   6.122271e-03
  2.761965e+00    4.845356e-01   6.113428e-03
  2.764176e+00    4.728504e-01   6.033302e-03
  2.766386e+00    4.889663e-01   6.129402e-03
  2.768597e+00    4.847555e-01   6.097087e-03
  2.770807e+00    4.882767e-01   6.113229e-03
  2.773017e+00    4.891026e-01   6.112377e-03
  2.775228e+00    4.830795e-01   6.068817e-03
  2.777438e+00    4.920361e-01   6.118920e-03
  2.779649e+00    4.926234e-01   6.116601e-03
  2.781859e+00    4.820720e-01   6.044947e-03
  2.784070e+00    4.940939e-01   6.113893e-03
  2.786280e+00    4.906344e-01   6.086604e-03
  2.788491e+00    4.911944e-01   6.084151e-03
  2.790701e+00    4.810756e-01   6.015504e-03
  2.792912e+00    4.662995e-01   5.916479e-03
  2.795122e+00    4.858070e-01   6.033170e-03
  2.797333e+00    4.682326e-01   5.917547e-03
  2.799543e+00    4.640371e-01   5.885160e-03
  2.801753e+00    4.696018e-01   5.914541e-03
  2.803964e+00    4.660559e-01   5.886540e-03
  2.806174e+00    4.800522e-01   5.968104e-03
  2.808385e+00    4.874073e-01   6.006779e-03
  2.810595e+00    4.815824e-01   5.963855e-03
  2.812806e+00    4.960845e-01   6.046218e-03
  2.815016e+00    4.829150e-01   5.960657e-03
  2.817227e+00    4.744515e-01   5.934121e-03
  2.819437e+00    4.826834e-01   5.996566e-03
  2.821648e+00    4.642243e-01   5.883057e-03
  2.823858e+00    4.750402e-01   5.956529e-03
  2.826068e+00    4.717559e-01   5.940889e-03
  2.828279e+00    4.729391e-01   5.952371e-03
  2.830489e+00    4.664325e-01   5.914608e-03
  2.832700e+00    4.538610e-01   5.836856e-03
  2.834910e+00    4.716646e-01   5.952288e-03
  2.837121e+00    4.749914e-01   5.974981e-03
  2.839331e+00    4.705798e-01   5.948395e-03
  2.841542e+00    4.640524e-01   5.908010e-03
  2.843752e+00    4.737490e-01   5.970173e-03
  2.845963e+00    4.885426e-01   6.063103e-03
  2.848173e+00    4.653316e-01   5.917411e-03
  2.850383e+00    4.597335e-01   5.881985e-03
  2.852594e+00    4.610838e-01   5.890537e-03
  2.854804e+00    4.658580e-01   5.920459e-03
  2.857015e+00    4.595017e-01   5.879508e-03
  2.859225e+00    4.583105e-01   5.871609e-03
  2.861436e+00    4.791389e-01   6.002892e-03
  2.863646e+00    4.709502e-01   5.951437e-03
  2.865857e+00    4.645945e-01   5.911458e-03
  2.868067e+00    4.715435e-01   5.955732e-03
  2.870278e+00    4.559210e-01   5.855901e-03
  2.872488e+00    4.588828e-01   5.873717e-03
  2.874698e+00    4.579737e-01   5.866885e-03
  2.876909e+00    4.600104e-01   5.878570e-03
  2.879119e+00    4.603050e-01   5.878854e-03
  2.881330e+00    4.667169e-01   5.918154e-03
  2.883540e+00    4.688632e-01   5.930367e-03
  2.885751e+00    4.706772e-01   5.940165e-03
  2.887961e+00    4.631901e-01   5.890842e-03
  2.890172e+00    4.622257e-01   5.883114e-03
  2.892382e+00    4.564143e-01   5.844199e-03
  2.894593e+00    4.531967e-01   5.821775e-03
  2.896803e+00    4.528337e-01   5.817472e-03
  2.899014e+00    4.608143e-01   5.866599e-03
  2.901224e+00    4.699441e-01   5.922407e-03
  2.903434e+00    4.799950e-01   5.983438e-03
  2.905645e+00    4.617365e-01   5.866298e-03
  2.907855e+00    4.482046e-01   5.777626e-03
  2.910066e+00    4.537485e-01   5.811173e-03
  2.912276e+00    4.580030e-01   5.836240e-03
  2.914487e+00    4.638431e-01   5.870847e-03
  2.916697e+00    4.711316e-01   5.914567e-03
  2.918908e+00    4.592364e-01   5.837399e-03
  2.921118e+00    4.553955e-01   5.810255e-03
  2.923329e+00    4.631088e-01   5.856926e-03
  2.925539e+00    4.573756e-01   5.818275e-03
  2.927749e+00    4.529767e-01   5.787940e-03
  2.929960e+00    4.490063e-01   5.759750e-03
  2.932170e+00    4.534208e-01   5.785685e-03
  2.934381e+00    4.547991e-01   5.792030e-03
  2.936591e+00    4.644920e-01   5.850823e-03
  2.938802e+00    4.483550e-01   5.745615e-03
  2.941012e+00    4.661808e-01   5.856349e-03
  2.943223e+00    4.658720e-01   5.851685e-03
  2.945433e+00    4.626211e-01   5.827467e-03
  2.947644e+00    4.669733e-01   5.850631e-03
  2.949854e+00    4.611611e-01   5.809824e-03
  2.952064e+00    4.649971e-01   5.829644e-03
  2.954275e+00    4.605228e-01   5.797114e-03
  2.956485e+00    4.497019e-01   5.724426e-03
  2.958696e+00    4.638912e-01   5.809614e-03
  2.960906e+00    4.615540e-01   5.790762e-03
  2.963117e+00    4.711204e-01   5.845891e-03
  2.965327e+00    4.761160e-01   5.872809e-03
  2.967538e+00    4.628092e-01   5.787235e-03
  2.969748e+00    4.585629e-01   5.757781e-03
  2.971959e+00    4.548786e-01   5.731472e-03
  2.974169e+00    4.605013e-01   5.764172e-03
  2.976379e+00    4.592313e-01   5.753304e-03
  2.978590e+00    4.506177e-01   5.695955e-03
  2.980800e+00    4.550916e-01   5.721366e-03
  2.983011e+00    4.527463e-01   5.703809e-03
  2.985221e+00    4.477099e-01   5.668860e-03
  2.987432e+00    4.571950e-01   5.725476e-03
  2.989642e+00    4.570404e-01   5.721875e-03
  2.991853e+00    4.482499e-01   5.663332e-03
  2.994063e+00    4.450797e-01   5.640375e-03
  2.996274e+00    4.582733e-01   5.720153e-03
  2.998484e+00    4.760018e-01   5.827005e-03
  3.000694e+00    4.717098e-01   5.797151e-03
  3.002905e+00    4.508944e-01   5.664879e-03
  3.005115e+00    4.693032e-01   5.776309e-03
  3.007326e+00    4.650689e-01   5.747012e-03
  3.009536e+00    4.749719e-01   5.804547e-03
  3.011747e+00    4.594810e-01   5.706175e-03
  3.013957e+00    4.547364e-01   5.673444e-03
  3.016168e+00    4.553903e-01   5.674256e-03
  3.018378e+00    4.489689e-01   5.631087e-03
  3.020589e+00    4.479817e-01   5.621686e-03
  3.022799e+00    4.536170e-01   5.653773e-03
  3.025010e+00    4.463254e-01   5.604927e-03
  3.027220e+00    4.638214e-01   5.710575e-03
  3.029430e+00    4.580940e-01   5.671952e-03
  3.031641e+00    4.586090e-01   5.671975e-03
  3.033851e+00    4.587764e-01   5.669468e-03
  3.036062e+00    4.688751e-01   5.728677e-03
  3.038272e+00    4.706480e-01   5.735873e-03
  3.040483e+00    4.630384e-01   5.686037e-03
  3.042693e+00    4.569514e-01   5.645257e-03
  3.044904e+00    4.618123e-01   5.671141e-03
  3.047114e+00    4.498000e-01   5.592082e-03
  3.049325e+00    4.668922e-01   5.692882e-03
  3.051535e+00    4.519296e-01   5.596510e-03
  3.053745e+00    4.572358e-01   5.624493e-03
  3.055956e+00    4.470133e-01   5.556717e-03
  3.058166e+00    4.455359e-01   5.543268e-03
  3.060377e+00    4.538081e-01   5.589704e-03
  3.062587e+00    4.569642e-01   5.604455e-03
  3.064798e+00    4.464475e-01   5.535353e-03
  3.067008e+00    4.476310e-01   5.537957e-03
  3.069219e+00    4.553550e-01   5.580993e-03
  3.071429e+00    4.417959e-01   5.493800e-03
  3.073640e+00    4.353269e-01   5.450143e-03
  3.075850e+00    4.436407e-01   5.498385e-03
  3.078060e+00    4.520653e-01   5.547208e-03
  3.080271e+00    4.547257e-01   5.560032e-03
  3.082481e+00    4.517946e-01   5.538621e-03
  3.084692e+00    4.463779e-01   5.501947e-03
  3.086902e+00    4.557614e-01   5.556210e-03
  3.089113e+00    4.467106e-01   5.497194e-03
  3.091323e+00    4.505507e-01   5.517385e-03
  3.093534e+00    4.435130e-01   5.470769e-03
  3.095744e+00    4.532457e-01   5.527068e-03
  3.097955e+00    4.581788e-01   5.553492e-03
  3.100165e+00    4.436457e-01   5.461372e-03
  3.102375e+00    4.587725e-01   5.550246e-03
  3.104586e+00    4.436434e-01   5.454466e-03
  3.106796e+00    4.451352e-01   5.460131e-03
  3.109007e+00    4.521549e-01   5.499763e-03
  3.111217e+00    4.499952e-01   5.482905e-03
  3.113428e+00    4.437726e-01   5.441474e-03
  3.115638e+00    4.447034e-01   5.443927e-03
  3.117849e+00    4.555527e-01   5.506174e-03
  3.120059e+00    4.556969e-01   5.503543e-03
  3.122270e+00    4.538617e-01   5.489161e-03
  3.124480e+00    4.523824e-01   5.476490e-03
  3.126691e+00    4.424017e-01   5.412185e-03
  3.128901e+00    4.432115e-01   5.414021e-03
  3.131111e+00    4.520213e-01   5.463684e-03
  3.133322e+00    4.619313e-01   5.519743e-03
  3.135532e+00    4.526057e-01   5.460308e-03
  3.137743e+00    4.621040e-01   5.513751e-03
  3.139953e+00    4.428141e-01   5.393765e-03
  3.142164e+00    4.459600e-01   5.424941e-03
  3.144374e+00    4.494370e-01   5.474695e-03
  3.146585e+00    4.432584e-01   5.451507e-03
  3.148795e+00    4.396008e-01   5.439710e-03
  3.151006e+00    4.357119e-01   5.424066e-03
  3.153216e+00    4.449015e-01   5.488144e-03
  3.155426e+00    4.444757e-01   5.491851e-03
  3.157637e+00    4.345989e-01   5.435973e-03
  3.159847e+00    4.487680e-01   5.528788e-03
  3.162058e+00    4.501464e-01   5.541763e-03
  3.164268e+00    4.416482e-01   5.493278e-03
  3.166479e+00    4.464009e-01   5.526416e-03
  3.168689e+00    4.512905e-01   5.560043e-03
  3.170900e+00    4.443986e-01   5.520584e-03
  3.173110e+00    4.393908e-01   5.492285e-03
  3.175321e+00    4.389669e-01   5.492131e-03
  3.177531e+00    4.346075e-01   5.467513e-03
  3.179741e+00    4.381595e-01   5.491879e-03
  3.181952e+00    4.439939e-01   5.530459e-03
  3.184162e+00    4.337394e-01   5.468401e-03
  3.186373e+00    4.356117e-01   5.481779e-03
  3.188583e+00    4.324538e-01   5.463658e-03
  3.190794e+00    4.372319e-01   5.495504e-03
  3.193004e+00    4.355014e-01   5.485875e-03
  3.195215e+00    4.321503e-01   5.466206e-03
  3.197425e+00    4.408888e-01   5.522435e-03
  3.199636e+00    4.371716e-01   5.498318e-03
  3.201846e+00    4.271802e-01   5.434541e-03
  3.204056e+00    4.228571e-01   5.407834e-03
  3.206267e+00    4.267969e-01   5.433827e-03
  3.208477e+00    4.341533e-01   5.481347e-03
  3.210688e+00    4.329218e-01   5.474441e-03
  3.212898e+00    4.333702e-01   5.477836e-03
  3.215109e+00    4.253071e-01   5.427402e-03
  3.217319e+00    4.179212e-01   5.380680e-03
  3.219530e+00    4.294031e-01   5.454475e-03
  3.221740e+00    4.403180e-01   5.523946e-03
  3.223951e+00    4.340325e-01   5.484866e-03
  3.226161e+00    4.391119e-01   5.517013e-03
  3.228372e+00    4.404231e-01   5.525814e-03
  3.230582e+00    4.312937e-01   5.468376e-03
  3.232792e+00    4.243095e-01   5.424158e-03
  3.235003e+00    4.279943e-01   5.447865e-03
  3.237213e+00    4.298572e-01   5.459849e-03
  3.239424e+00    4.257328e-01   5.433558e-03
  3.241634e+00    4.294251e-01   5.457218e-03
  3.243845e+00    4.339729e-01   5.486096e-03
  3.246055e+00    4.176686e-01   5.381804e-03
  3.248266e+00    4.235788e-01   5.419923e-03
  3.250476e+00    4.301839e-01   5.461726e-03
  3.252687e+00    4.321705e-01   5.474248e-03
  3.254897e+00    4.234211e-01   5.418423e-03
  3.257107e+00    4.212659e-01   5.404310e-03
  3.259318e+00    4.282778e-01   5.448851e-03
  3.261528e+00    4.361247e-01   5.498427e-03
  3.263739e+00    4.230936e-01   5.415095e-03
  3.265949e+00    4.331710e-01   5.479062e-03
  3.268160e+00    4.397381e-01   5.520028e-03
  3.270370e+00    4.424506e-01   5.536516e-03
  3.272581e+00    4.304012e-01   5.460319e-03
  3.274791e+00    4.325387e-01   5.473323e-03
  3.277002e+00    4.258548e-01   5.430332e-03
  3.279212e+00    4.249234e-01   5.423974e-03
  3.281422e+00    4.219011e-01   5.404098e-03
  3.283633e+00    4.307844e-01   5.459994e-03
  3.285843e+00    4.381940e-01   5.506420e-03
  3.288054e+00    4.325786e-01   5.470075e-03
  3.290264e+00    4.197330e-01   5.387942e-03
  3.292475e+00    4.273708e-01   5.435890e-03
  3.294685e+00    4.285313e-01   5.442621e-03
  3.296896e+00    4.257154e-01   5.423971e-03
  3.299106e+00    4.293732e-01   5.446650e-03
  3.301317e+00    4.274395e-01   5.433342e-03
  3.303527e+00    4.399854e-01   5.512030e-03
  3.305737e+00    4.428011e-01   5.528569e-03
  3.307948e+00    4.359414e-01   5.484897e-03
  3.310158e+00    4.421671e-01   5.523063e-03
  3.312369e+00    4.287239e-01   5.437559e-03
  3.314579e+00    4.302385e-01   5.446256e-03
  3.316790e+00    4.205892e-01   5.384108e-03
  3.319000e+00    4.267198e-01   5.422023e-03
  3.321211e+00    4.285229e-01   5.432865e-03
  3.323421e+00    4.203086e-01   5.379322e-03
  3.325632e+00    4.113587e-01   5.320865e-03
  3.327842e+00    4.260415e-01   5.414091e-03
  3.330052e+00    4.270565e-01   5.419435e-03
  3.332263e+00    4.315169e-01   5.446647e-03
  3.334473e+00    4.314180e-01   5.445116e-03
  3.336684e+00    4.216653e-01   5.381929e-03
  3.338894e+00    4.312717e-01   5.442067e-03
  3.341105e+00    4.092883e-01   5.300330e-03
  3.343315e+00    4.337717e-01   5.455414e-03
  3.345526e+00    4.242360e-01   5.394221e-03
  3.347736e+00    4.258014e-01   5.402734e-03
  3.349947e+00    4.313544e-01   5.436896e-03
  3.352157e+00    4.274605e-01   5.411145e-03
  3.354368e+00    4.296264e-01   5.423504e-03
  3.356578e+00    4.299252e-01   5.424376e-03
  3.358788e+00    4.219771e-01   5.372637e-03
  3.360999e+00    4.289771e-01   5.415785e-03
  3.363209e+00    4.129333e-01   5.312531e-03
  3.365420e+00    4.203774e-01   5.358660e-03
  3.367630e+00    4.268156e-01   5.398531e-03
  3.369841e+00    4.117070e-01   5.300714e-03
  3.372051e+00    4.000449e-01   5.223133e-03
  3.374262e+00    4.177514e-01   5.335050e-03
  3.376472e+00    4.164602e-01   5.324335e-03
  3.378683e+00    4.314988e-01   5.417079e-03
  3.380893e+00    4.242281e-01   5.368894e-03
  3.383103e+00    4.125370e-01   5.291685e-03
  3.385314e+00    4.258907e-01   5.374397e-03
  3.387524e+00    4.218152e-01   5.345866e-03
  3.389735e+00    4.295082e-01   5.391716e-03
  3.391945e+00    4.255371e-01   5.362995e-03
  3.394156e+00    4.267774e-01   5.366548e-03
  3.396366e+00    4.178468e-01   5.306641e-03
  3.398577e+00    4.063997e-01   5.230428e-03
  3.400787e+00    4.077294e-01   5.250832e-03
  3.402998e+00    4.005186e-01   5.241819e-03
  3.405208e+00    4.185849e-01   5.379732e-03
  3.407418e+00    4.003839e-01   5.277243e-03
  3.409629e+00    3.942249e-01   5.250358e-03
  3.411839e+00    3.851729e-01   5.201273e-03
  3.414050e+00    3.981915e-01   5.299444e-03
  3.416260e+00    3.898304e-01   5.253106e-03
  3.418471e+00    4.009309e-01   5.336873e-03
  3.420681e+00    3.966572e-01   5.316900e-03
  3.422892e+00    3.920754e-01   5.294128e-03
  3.425102e+00    3.890136e-01   5.281195e-03
  3.427313e+00    3.937714e-01   5.320658e-03
  3.429523e+00    3.853606e-01   5.270569e-03
  3.431733e+00    3.870206e-01   5.288573e-03
  3.433944e+00    3.737950e-01   5.203826e-03
  3.436154e+00    3.833832e-01   5.276382e-03
  3.438365e+00    3.755268e-01   5.227918e-03
  3.440575e+00    3.867011e-01   5.311107e-03
  3.442786e+00    3.931216e-01   5.360716e-03
  3.444996e+00    3.847280e-01   5.308777e-03
  3.447207e+00    3.640418e-01   5.169272e-03
  3.449417e+00    3.680579e-01   5.238330e-03
  3.451628e+00    3.618078e-01   5.222821e-03
  3.453838e+00    3.601178e-01   5.231546e-03
  3.456049e+00    3.578114e-01   5.238377e-03
  3.458259e+00    3.643243e-01   5.307690e-03
  3.460469e+00    3.676665e-01   5.351804e-03
  3.462680e+00    3.787561e-01   5.451296e-03
  3.464890e+00    3.911003e-01   5.557823e-03
  3.467101e+00    3.730188e-01   5.445413e-03
  3.469311e+00    3.871546e-01   5.564560e-03
  3.471522e+00    4.027472e-01   5.692477e-03
  3.473732e+00    4.087023e-01   5.751005e-03
  3.475943e+00    4.008034e-01   5.711230e-03
  3.478153e+00    4.049329e-01   5.756343e-03
  3.480364e+00    3.999459e-01   5.736081e-03
  3.482574e+00    4.100929e-01   5.823802e-03
  3.484784e+00    4.382703e-01   6.035960e-03
  3.486995e+00    4.353431e-01   6.031201e-03
  3.489205e+00    4.388879e-01   6.070649e-03
  3.491416e+00    4.502277e-01   6.163875e-03
  3.493626e+00    4.548862e-01   6.210624e-03
  3.495837e+00    4.476146e-01   6.175661e-03
  3.498047e+00    4.668534e-01   6.321803e-03
  3.500258e+00    4.573300e-01   6.271685e-03
  3.502468e+00    4.508425e-01   6.241399e-03
  3.504679e+00    4.682286e-01   6.375190e-03
  3.506889e+00    4.794728e-01   6.465964e-03
  3.509099e+00    4.760888e-01   6.457536e-03
  3.511310e+00    4.988582e-01   6.624927e-03
  3.513520e+00    4.863970e-01   6.556178e-03
  3.515731e+00    4.875266e-01   6.578177e-03
  3.517941e+00    4.994892e-01   6.672875e-03
  3.520152e+00    5.030016e-01   6.710755e-03
  3.522362e+00    5.062536e-01   6.746965e-03
  3.524573e+00    5.185438e-01   6.842817e-03
  3.526783e+00    5.241462e-01   6.893222e-03
  3.528994e+00    5.313198e-01   6.952639e-03
  3.531204e+00    5.321484e-01   6.970629e-03
  3.533414e+00    5.423882e-01   7.049684e-03
  3.535625e+00    5.344769e-01   7.010514e-03
  3.537835e+00    5.328974e-01   7.012259e-03
  3.540046e+00    5.168140e-01   6.914411e-03
  3.542256e+00    5.183040e-01   6.931770e-03
  3.544467e+00    5.394204e-01   7.079200e-03
  3.546677e+00    5.493810e-01   7.151939e-03
  3.548888e+00    5.538327e-01   7.188500e-03
  3.551098e+00    5.343512e-01   7.068212e-03
  3.553309e+00    5.411949e-01   7.121532e-03
  3.555519e+00    5.256091e-01   7.029415e-03
  3.557729e+00    5.343974e-01   7.099635e-03
  3.559940e+00    5.545249e-01   7.243841e-03
  3.562150e+00    5.418734e-01   7.172543e-03
  3.564361e+00    5.412389e-01   7.181697e-03
  3.566571e+00    5.421707e-01   7.201793e-03
  3.568782e+00    5.253010e-01   7.102853e-03
  3.570992e+00    5.422889e-01   7.230591e-03
  3.573203e+00    5.311439e-01   7.170011e-03
  3.575413e+00    5.501959e-01   7.311417e-03
  3.577624e+00    5.353208e-01   7.226035e-03
  3.579834e+00    5.199385e-01   7.135105e-03
  3.582045e+00    5.357544e-01   7.256860e-03
  3.584255e+00    5.387818e-01   7.291423e-03
  3.586465e+00    5.371716e-01   7.294459e-03
  3.588676e+00    5.449549e-01   7.361452e-03
  3.590886e+00    5.388541e-01   7.333861e-03
  3.593097e+00    5.399624e-01   7.355933e-03
  3.595307e+00    5.461702e-01   7.412189e-03
  3.597518e+00    5.342749e-01   7.345208e-03
  3.599728e+00    5.392970e-01   7.393812e-03
  3.601939e+00    5.218590e-01   7.287183e-03
  3.604149e+00    5.304875e-01   7.361488e-03
  3.606360e+00    5.286372e-01   7.362682e-03
  3.608570e+00    5.400161e-01   7.455768e-03
  3.610780e+00    5.415939e-01   7.477755e-03
  3.612991e+00    5.571721e-01   7.594740e-03
  3.615201e+00    5.490134e-01   7.548897e-03
  3.617412e+00    5.490559e-01   7.556530e-03
  3.619622e+00    5.418254e-01   7.512623e-03
  3.621833e+00    5.332662e-01   7.459749e-03
  3.624043e+00    5.393783e-01   7.511910e-03
  3.626254e+00    5.475588e-01   7.578509e-03
  3.628464e+00    5.432121e-01   7.559417e-03
  3.630675e+00    5.441265e-01   7.580022e-03
  3.632885e+00    5.419291e-01   7.579277e-03
  3.635095e+00    5.411914e-01   7.588595e-03
  3.637306e+00    5.472208e-01   7.645332e-03
  3.639516e+00    5.568236e-01   7.726931e-03
  3.641727e+00    5.556816e-01   7.733896e-03
  3.643937e+00    5.451143e-01   7.674742e-03
  3.646148e+00    5.318053e-01   7.595016e-03
  3.648358e+00    5.407065e-01   7.673311e-03
  3.650569e+00    5.468236e-01   7.731510e-03
  3.652779e+00    5.363490e-01   7.671912e-03
  3.654990e+00    5.588865e-01   7.846694e-03
  3.657200e+00    5.542049e-01   7.828968e-03
  3.659410e+00    5.600319e-01   7.885367e-03
  3.661621e+00    5.483876e-01   7.818302e-03
  3.663831e+00    5.414674e-01   7.784118e-03
  3.666042e+00    5.330260e-01   7.738300e-03
  3.668252e+00    5.439172e-01   7.832417e-03
  3.670463e+00    5.420651e-01   7.834465e-03
  3.672673e+00    5.425689e-01   7.853702e-03
  3.674884e+00    5.403940e-01   7.853468e-03
  3.677094e+00    5.566715e-01   7.986760e-03
  3.679305e+00    5.318392e-01   7.822194e-03
  3.681515e+00    5.240272e-01   7.780048e-03
  3.683726e+00    5.263960e-01   7.813329e-03
  3.685936e+00    5.241905e-01   7.812642e-03
  3.688146e+00    5.153269e-01   7.761846e-03
  3.690357e+00    5.350738e-01   7.925227e-03
  3.692567e+00    5.173696e-01   7.808988e-03
  3.694778e+00    5.308781e-01   7.926376e-03
  3.696988e+00    5.292226e-01   7.930057e-03
  3.699199e+00    5.302227e-01   7.953852e-03
  3.701409e+00    5.405833e-01   8.047811e-03
  3.703620e+00    5.301888e-01   7.986456e-03
  3.705830e+00    5.418466e-01   8.090429e-03
  3.708041e+00    5.323455e-01   8.035934e-03
  3.710251e+00    5.276936e-01   8.017526e-03
  3.712461e+00    5.275639e-01   8.033365e-03
  3.714672e+00    5.081953e-01   7.901024e-03
  3.716882e+00    5.241733e-01   8.041008e-03
  3.719093e+00    5.188127e-01   8.016955e-03
  3.721303e+00    4.945227e-01   7.843517e-03
  3.723514e+00    5.142242e-01   8.015457e-03
  3.725724e+00    5.083174e-01   7.986221e-03
  3.727935e+00    5.330539e-01   8.195988e-03
  3.730145e+00    5.198292e-01   8.111062e-03
  3.732356e+00    5.136833e-01   8.080446e-03
  3.734566e+00    5.148218e-01   8.106925e-03
  3.736776e+00    5.321179e-01   8.260059e-03
  3.738987e+00    5.295064e-01   8.257738e-03
  3.741197e+00    5.243161e-01   8.235369e-03
  3.743408e+00    5.306672e-01   8.303459e-03
  3.745618e+00    5.262331e-01   8.287233e-03
  3.747829e+00    5.068967e-01   8.151618e-03
  3.750039e+00    5.171913e-01   8.252356e-03
  3.752250e+00    5.252234e-01   8.335020e-03
  3.754460e+00    5.186058e-01   8.300968e-03
  3.756671e+00    5.259809e-01   8.378931e-03
  3.758881e+00    4.991464e-01   8.180841e-03
  3.761091e+00    4.944266e-01   8.160942e-03
  3.763302e+00    5.085383e-01   8.295665e-03
  3.765512e+00    5.163491e-01   8.378538e-03
  3.767723e+00    5.318919e-01   8.523552e-03
  3.769933e+00    5.207395e-01   8.453333e-03
  3.772144e+00    5.043644e-01   8.338887e-03
  3.774354e+00    5.034126e-01   8.350833e-03
  3.776565e+00    4.920611e-01   8.275699e-03
  3.778775e+00    5.263488e-01   8.579562e-03
  3.780986e+00    5.269296e-01   8.605074e-03
  3.783196e+00    5.187340e-01   8.558461e-03
  3.785407e+00    5.302665e-01   8.674035e-03
  3.787617e+00    5.116220e-01   8.541092e-03
  3.789827e+00    5.459592e-01   8.844459e-03
  3.792038e+00    5.230695e-01   8.678371e-03
  3.794248e+00    5.080372e-01   8.574046e-03
  3.796459e+00    5.175801e-01   8.675879e-03
  3.798669e+00    4.996181e-01   8.545409e-03
  3.800880e+00    4.949037e-01   8.526264e-03
  3.803090e+00    5.064772e-01   8.647380e-03
  3.805301e+00    4.762993e-01   8.407346e-03
  3.807511e+00    5.030337e-01   8.662126e-03
  3.809722e+00    5.113954e-01   8.756304e-03
  3.811932e+00    5.058003e-01   8.730670e-03
  3.814142e+00    5.158126e-01   8.839861e-03
  3.816353e+00    5.296922e-01   8.981607e-03
  3.818563e+00    4.973984e-01   8.726569e-03
  3.820774e+00    4.849507e-01   8.639499e-03
  3.822984e+00    5.006976e-01   8.802089e-03
  3.825195e+00    5.207132e-01   9.000579e-03
  3.827405e+00    5.126052e-01   8.954444e-03
  3.829616e+00    5.022649e-01   8.887885e-03
  3.831826e+00    4.944243e-01   8.842326e-03
  3.834037e+00    5.190442e-01   9.084801e-03
  3.836247e+00    5.093536e-01   9.024680e-03
  3.838457e+00    4.839699e-01   8.821581e-03
  3.840668e+00    4.920890e-01   8.920364e-03
  3.842878e+00    5.082021e-01   9.091047e-03
  3.845089e+00    4.883150e-01   8.936789e-03
  3.847299e+00    5.142174e-01   9.197002e-03
  3.849510e+00    5.126371e-01   9.209218e-03
  3.851720e+00    4.976006e-01   9.094603e-03
  3.853931e+00    5.166894e-01   9.286779e-03
  3.856141e+00    5.009512e-01   9.163408e-03
  3.858352e+00    4.737003e-01   8.929558e-03
  3.860562e+00    5.171567e-01   9.349860e-03
  3.862772e+00    4.916565e-01   9.136004e-03
  3.864983e+00    5.042006e-01   9.271665e-03
  3.867193e+00    4.912457e-01   9.171546e-03
  3.869404e+00    5.004786e-01   9.277271e-03
  3.871614e+00    4.829602e-01   9.133235e-03
  3.873825e+00    5.136567e-01   9.439696e-03
  3.876035e+00    5.039461e-01   9.370900e-03
  3.878246e+00    5.344203e-01   9.676876e-03
  3.880456e+00    5.133059e-01   9.513457e-03
  3.882667e+00    4.887069e-01   9.311919e-03
  3.884877e+00    4.840992e-01   9.297427e-03
  3.887087e+00    5.046970e-01   9.523405e-03
  3.889298e+00    5.273930e-01   9.766736e-03
  3.891508e+00    5.079194e-01   9.615777e-03
  3.893719e+00    5.064310e-01   9.633143e-03
  3.895929e+00    5.016411e-01   9.619285e-03
  3.898140e+00    5.027003e-01   9.661491e-03
  3.900350e+00    5.067092e-01   9.732600e-03
  3.902561e+00    4.925245e-01   9.627881e-03
  3.904771e+00    5.062295e-01   9.794260e-03
  3.906982e+00    4.928522e-01   9.697285e-03
  3.909192e+00    4.602797e-01   9.403766e-03
  3.911403e+00    5.136906e-01   9.969278e-03
  3.913613e+00    5.083012e-01   9.951849e-03
  3.915823e+00    5.075510e-01   9.979947e-03
  3.918034e+00    4.658089e-01   9.595203e-03
  3.920244e+00    4.979900e-01   9.957153e-03
  3.922455e+00    5.030008e-01   1.004381e-02
  3.924665e+00    5.216393e-01   1.026582e-02
  3.926876e+00    5.016210e-01   1.010453e-02
  3.929086e+00    5.151132e-01   1.027796e-02
  3.931297e+00    5.209029e-01   1.037152e-02
  3.933507e+00    4.961367e-01   1.015122e-02
  3.935718e+00    4.722981e-01   9.932566e-03
  3.937928e+00    4.964330e-01   1.021291e-02
  3.940138e+00    4.913216e-01   1.018968e-02
  3.942349e+00    5.075099e-01   1.038657e-02
  3.944559e+00    5.290038e-01   1.063559e-02
  3.946770e+00    5.125715e-01   1.050004e-02
  3.948980e+00    5.195084e-01   1.060268e-02
  3.951191e+00    5.049414e-01   1.048430e-02
  3.953401e+00    4.972591e-01   1.043605e-02
  3.955612e+00    4.919810e-01   1.041219e-02
  3.957822e+00    5.026579e-01   1.055692e-02
  3.960033e+00    4.733883e-01   1.027715e-02
  3.962243e+00    4.745398e-01   1.032199e-02
  3.964453e+00    5.035182e-01   1.066623e-02
  3.966664e+00    4.980823e-01   1.064240e-02
  3.968874e+00    4.901460e-01   1.058574e-02
  3.971085e+00    4.645628e-01   1.032724e-02
  3.973295e+00    4.811130e-01   1.053094e-02
  3.975506e+00    4.859766e-01   1.060566e-02
  3.977716e+00    5.079294e-01   1.086506e-02
  3.979927e+00    4.916547e-01   1.071185e-02
  3.982137e+00    5.179009e-01   1.101708e-02
  3.984348e+00    4.802177e-01   1.063119e-02
  3.986558e+00    5.129994e-01   1.101090e-02
  3.988768e+00    5.170944e-01   1.107861e-02
  3.990979e+00    4.996604e-01   1.091328e-02
  3.993189e+00    5.149909e-01   1.110321e-02
  3.995400e+00    4.987362e-01   1.095050e-02
  3.997610e+00    5.130132e-01   1.113674e-02
  3.999821e+00    5.236859e-01   1.129101e-02
  4.002031e+00    5.129406e-01   1.121408e-02
  4.004242e+00    4.853911e-01   1.094730e-02
  4.006452e+00    4.915309e-01   1.105595e-02
  4.008663e+00    4.796662e-01   1.096150e-02
  4.010873e+00    4.768799e-01   1.096920e-02
  4.013084e+00    4.647680e-01   1.086923e-02
  4.015294e+00    4.668052e-01   1.093314e-02
  4.017504e+00    4.435475e-01   1.069745e-02
  4.019715e+00    4.898098e-01   1.128408e-02
  4.021925e+00    5.135423e-01   1.159863e-02
  4.024136e+00    4.946570e-01   1.142749e-02
  4.026346e+00    5.082439e-01   1.162856e-02
  4.028557e+00    4.952078e-01   1.152342e-02
  4.030767e+00    4.817040e-01   1.141055e-02
  4.032978e+00    5.103884e-01   1.179317e-02
  4.035188e+00    4.802398e-01   1.148534e-02
  4.037399e+00    5.296330e-01   1.211148e-02
  4.039609e+00    5.213798e-01   1.206627e-02
  4.041819e+00    5.023255e-01   1.189351e-02
  4.044030e+00    4.960732e-01   1.186975e-02
  4.046240e+00    4.934215e-01   1.188843e-02
  4.048451e+00    4.819681e-01   1.180047e-02
  4.050661e+00    4.936382e-01   1.199450e-02
  4.052872e+00    4.887847e-01   1.198846e-02
  4.055082e+00    4.841609e-01   1.198531e-02
  4.057293e+00    4.582156e-01   1.171199e-02
  4.059503e+00    4.948887e-01   1.222702e-02
  4.061714e+00    4.865601e-01   1.218055e-02
  4.063924e+00    5.037134e-01   1.245129e-02
  4.066134e+00    4.676263e-01   1.205361e-02
  4.068345e+00    4.876418e-01   1.236800e-02
  4.070555e+00    4.975283e-01   1.255317e-02
  4.072766e+00    4.555477e-01   1.207100e-02
  4.074976e+00    4.555908e-01   1.213172e-02
  4.077187e+00    4.605809e-01   1.225872e-02
  4.079397e+00    4.445150e-01   1.210439e-02
  4.081608e+00    4.490010e-01   1.222863e-02
  4.083818e+00    4.672561e-01   1.253955e-02
  4.086029e+00    5.025536e-01   1.307323e-02
  4.088239e+00    5.155528e-01   1.331255e-02
  4.090449e+00    5.207840e-01   1.345233e-02
  4.092660e+00    5.620605e-01   1.405232e-02
  4.094870e+00    5.111644e-01   1.347549e-02
  4.097081e+00    5.039458e-01   1.345320e-02
  4.099291e+00    5.522384e-01   1.414144e-02
  4.101502e+00    4.909284e-01   1.338319e-02
  4.103712e+00    4.768168e-01   1.323848e-02
  4.105923e+00    5.135927e-01   1.379260e-02
  4.108133e+00    5.079280e-01   1.376933e-02
  4.110344e+00    5.231552e-01   1.402759e-02
  4.112554e+00    5.401477e-01   1.430991e-02
  4.114764e+00    5.114771e-01   1.398104e-02
  4.116975e+00    4.924564e-01   1.377268e-02
  4.119185e+00    4.628800e-01   1.340680e-02
  4.121396e+00    4.523089e-01   1.330761e-02
  4.123606e+00    4.993676e-01   1.403999e-02
  4.125817e+00    4.887120e-01   1.394768e-02
  4.128027e+00    5.215260e-01   1.446910e-02
  4.130238e+00    4.781967e-01   1.391422e-02
  4.132448e+00    4.960574e-01   1.423337e-02
  4.134659e+00    5.217333e-01   1.465981e-02
  4.136869e+00    4.800801e-01   1.412520e-02
  4.139080e+00    4.933680e-01   1.438377e-02
  4.141290e+00    4.945683e-01   1.446532e-02
  4.143500e+00    4.961051e-01   1.455430e-02
  4.145711e+00    4.927774e-01   1.457347e-02
  4.147921e+00    4.376964e-01   1.379759e-02
  4.150132e+00    4.886478e-01   1.464828e-02
  4.152342e+00    5.206025e-01   1.519274e-02
  4.154553e+00    4.815781e-01   1.468199e-02
  4.156763e+00    4.864421e-01   1.482862e-02
  4.158974e+00    5.012820e-01   1.512906e-02
  4.161184e+00    4.775840e-01   1.484033e-02
  4.163395e+00    4.921078e-01   1.514101e-02
  4.165605e+00    4.955461e-01   1.527311e-02
  4.167815e+00    5.130323e-01   1.562114e-02
  4.170026e+00    4.579170e-01   1.483613e-02
  4.172236e+00    5.605190e-01   1.650273e-02
  4.174447e+00    5.117107e-01   1.585387e-02
  4.176657e+00    4.855132e-01   1.552708e-02
  4.178868e+00    5.329699e-01   1.636018e-02
  4.181078e+00    5.143733e-01   1.616301e-02
  4.183289e+00    5.179335e-01   1.631160e-02
  4.185499e+00    4.948200e-01   1.603766e-02
  4.187710e+00    4.536214e-01   1.544531e-02
  4.189920e+00    4.437107e-01   1.536762e-02
  4.192130e+00    4.897712e-01   1.624412e-02
  4.194341e+00    5.134282e-01   1.673407e-02
  4.196551e+00    5.075721e-01   1.674357e-02
  4.198762e+00    4.968537e-01   1.667110e-02
  4.200972e+00    4.419270e-01   1.582442e-02
  4.203183e+00    4.356891e-01   1.581573e-02
  4.205393e+00    4.581507e-01   1.632634e-02
  4.207604e+00    4.648351e-01   1.655709e-02
  4.209814e+00    5.255108e-01   1.772547e-02
  4.212025e+00    5.486064e-01   1.823925e-02
  4.214235e+00    5.352288e-01   1.814304e-02
  4.216445e+00    4.979164e-01   1.762579e-02
  4.218656e+00    4.573686e-01   1.701966e-02
  4.220866e+00    4.362611e-01   1.674501e-02
  4.223077e+00    5.218194e-01   1.845453e-02
  4.225287e+00    4.860713e-01   1.795147e-02
  4.227498e+00    4.605926e-01   1.761177e-02
  4.229708e+00    4.932315e-01   1.837290e-02
  4.231919e+00    5.140619e-01   1.891205e-02
  4.234129e+00    5.039062e-01   1.888191e-02
  4.236340e+00    4.734684e-01   1.845884e-02
  4.238550e+00    5.445843e-01   1.997159e-02
  4.240761e+00    4.911513e-01   1.913409e-02
  4.242971e+00    4.673947e-01   1.883654e-02
  4.245181e+00    4.845174e-01   1.935871e-02
  4.247392e+00    5.064194e-01   1.997651e-02
  4.249602e+00    5.109165e-01   2.026406e-02
  4.251813e+00    5.392857e-01   2.102415e-02
  4.254023e+00    4.450557e-01   1.929203e-02
  4.256234e+00    4.745505e-01   2.013367e-02
  4.258444e+00    4.411147e-01   1.961474e-02
  4.260655e+00    4.610865e-01   2.027427e-02
  4.262865e+00    4.995224e-01   2.134159e-02
  4.265076e+00    4.385999e-01   2.022517e-02
  4.267286e+00    4.597007e-01   2.095201e-02
  4.269496e+00    4.742677e-01   2.154070e-02
  4.271707e+00    4.644553e-01   2.158016e-02
  4.273917e+00    4.595947e-01   2.174432e-02
  4.276128e+00    4.768679e-01   2.244362e-02
  4.278338e+00    4.350631e-01   2.172356e-02
  4.280549e+00    4.907652e-01   2.340339e-02
  4.282759e+00    4.185966e-01   2.192451e-02
  4.284970e+00    4.810669e-01   2.385129e-02
  4.287180e+00    4.778729e-01   2.405736e-02
  4.289391e+00    4.698721e-01   2.403425e-02
  4.291601e+00    4.064197e-01   2.253080e-02
  4.293811e+00    4.485290e-01   2.385459e-02
  4.296022e+00    4.239839e-01   2.337846e-02
  4.298232e+00    4.389028e-01   2.398611e-02
  4.300443e+00    4.874462e-01   2.548571e-02
  4.302653e+00    5.937149e-01   2.837069e-02
  4.304864e+00    5.540718e-01   2.764493e-02
  4.307074e+00    4.887470e-01   2.619763e-02
  4.309285e+00    5.159288e-01   2.716022e-02
  4.311495e+00    5.243071e-01   2.763621e-02
  4.313706e+00    4.316986e-01   2.531295e-02
  4.315916e+00    5.071841e-01   2.770640e-02
  4.318126e+00    4.467940e-01   2.626267e-02
  4.320337e+00    3.521871e-01   2.355209e-02
  4.322547e+00    3.932118e-01   2.515001e-02
  4.324758e+00    5.178111e-01   2.916123e-02
  4.326968e+00    4.688210e-01   2.806000e-02
  4.329179e+00    5.371411e-01   3.036567e-02
  4.331389e+00    5.061648e-01   2.981759e-02
  4.333600e+00    5.013045e-01   3.002798e-02
  4.335810e+00    4.350847e-01   2.830713e-02
  4.338021e+00    4.707096e-01   2.982073e-02
  4.340231e+00    4.328364e-01   2.895432e-02
  4.342442e+00    5.322577e-01   3.253894e-02
  4.344652e+00    3.638186e-01   2.726783e-02
  4.346862e+00    3.818030e-01   2.832337e-02
  4.349073e+00    3.831109e-01   2.878567e-02
  4.351283e+00    3.951766e-01   2.967219e-02
  4.353494e+00    5.099686e-01   3.422712e-02
  4.355704e+00    4.373630e-01   3.220961e-02
  4.357915e+00    4.818503e-01   3.436969e-02
  4.360125e+00    4.681790e-01   3.445613e-02
  4.362336e+00    5.294141e-01   3.730838e-02
  4.364546e+00    4.184072e-01   3.377179e-02
  4.366757e+00    4.272741e-01   3.480570e-02
  4.368967e+00    4.725875e-01   3.733530e-02
  4.371177e+00    5.258786e-01   4.022103e-02
  4.373388e+00    4.985737e-01   4.003859e-02
  4.375598e+00    5.440068e-01   4.277851e-02
  4.377809e+00    5.613520e-01   4.455281e-02
  4.380019e+00    5.684659e-01   4.596360e-02
  4.382230e+00    2.722849e-01   3.269930e-02
  4.384440e+00    3.249000e-01   3.674255e-02
  4.386651e+00    5.924614e-01   5.115227e-02
  4.388861e+00    3.185798e-01   3.876724e-02
  4.391072e+00    3.412822e-01   4.153395e-02
  4.393282e+00    4.492349e-01   4.949497e-02
  4.395492e+00    3.842810e-01   4.767827e-02
  4.397703e+00    3.966876e-01   5.065610e-02
  4.399913e+00    3.074740e-01   4.685818e-02
  4.402124e+00    3.754748e-01   5.471394e-02
  4.404334e+00    3.612491e-01   5.704860e-02
  4.406545e+00    2.733053e-01   5.331348e-02
  4.408755e+00    2.477020e-01   5.503988e-02
  4.410966e+00    4.781365e-01   8.463895e-02
  4.413176e+00    3.409578e-01   8.091108e-02
  4.415387e+00   -6.499968e-01            nan
  4.417597e+00   -1.720038e+00            nan
  4.419807e+00    7.946631e-01   3.202241e-01
