# == pyFAI calibration ==
# Distance Sample to Detector: 0.216 m
# PONI: 1.166e-01, 1.308e-01 m
# Rotations: 0.000000 0.000000 0.000000 rad
# 
# == Fit2d calibration ==
# Distance Sample-beamCenter: 216.000 mm
# Center: x=1744.293, y=1555.000 pix
# Tilt: 0.000 deg  TiltPlanRot: 0.000 deg
# 
# Detector Eiger 9M	 PixelSize= 7.500e-05, 7.500e-05 m
#    Detector has a mask: True 
#    Detector has a dark current: False 
#    detector has a flat field: False 
# 
# Wavelength: 9.8e-11 m
# Mask applied: from detector
# Dark current applied: False
# Flat field applied: False
# Polarization factor: None
# Normalization factor: 1.0
# 
# Headers of the input frame:
# {
# "_array_data.header_convention": "SLS_1.0",
# "_array_data.header_contents": "# Detector: Dectris Eiger 9M, S/N E-18-0102\r\n# Pixel_size 75e-6 m x 75e-6 m\r\n# Silicon sensor, thickness 0.000450 m\r\n# Exposure_time 0.024997 s\r\n# Exposure_period 0.025000 s\r\n# Count_cutoff 62318 counts\r\n# Wavelength 0.980106 A\r\n# Detector_distance 0.215992 m\r\n# Beam_xy (1555, 1744) pixels\r\n# Start_angle 0.000000 deg.\r\n# Angle_increment 0.000000 deg.",
# "Content-Type": "application/octet-stream;",
# "conversions": "x-CBF_BYTE_OFFSET",
# "Content-Transfer-Encoding": "BINARY",
# "X-Binary-Size": "10166624",
# "X-Binary-ID": "1",
# "X-Binary-Element-Type": "signed 32-bit integer",
# "X-Binary-Element-Byte-Order": "LITTLE_ENDIAN",
# "Content-MD5": "uAQnqv4A1xQuAtrmFo3Eqg==",
# "X-Binary-Number-of-Elements": "10166590",
# "X-Binary-Size-Fastest-Dimension": "3110",
# "X-Binary-Size-Second-Dimension": "3269",
# "X-Binary-Size-Padding": "4095"
# }
# --> H:/Proxima2a_2019-04-05/RAW_DATA/C5_gel17_position5/C5_mesh_1_data.cbf/C5_mesh_1_data.cbf000153.dat
#        q_A^-1              I           sigma 
  1.105228e-03    1.737888e+00   7.133422e-01
  3.315685e-03    1.437436e+00   3.944025e-01
  5.526141e-03    1.386140e+00   2.994854e-01
  7.736597e-03    1.167619e+00   2.322046e-01
  9.947054e-03    1.084402e+00   1.972748e-01
  1.215751e-02    1.346704e+00   1.987946e-01
  1.436797e-02    1.645915e+00   2.021527e-01
  1.657842e-02    1.195473e+00   1.603667e-01
  1.878888e-02    1.222975e+00   1.523605e-01
  2.099934e-02    1.367689e+00   1.524389e-01
  2.320979e-02    1.480944e+00   1.508697e-01
  2.542025e-02    1.658157e+00   1.525536e-01
  2.763070e-02    1.492415e+00   1.388146e-01
  2.984116e-02    1.403263e+00   1.295227e-01
  3.205162e-02    1.600688e+00   1.334872e-01
  3.426207e-02    1.690161e+00   1.326597e-01
  3.647253e-02    1.423462e+00   1.179948e-01
  3.868299e-02    1.427916e+00   1.147617e-01
  4.089344e-02    1.384445e+00   1.099053e-01
  4.310390e-02    1.340542e+00   1.053329e-01
  4.531436e-02    1.475558e+00   1.077814e-01
  4.752481e-02    1.429607e+00   1.035923e-01
  4.973527e-02    1.309112e+00   9.690365e-02
  5.194572e-02    1.454803e+00   9.995510e-02
  5.415618e-02    1.493929e+00   9.919818e-02
  5.636664e-02    1.474757e+00   9.661075e-02
  5.857709e-02    1.455363e+00   9.414563e-02
  6.078755e-02    1.514609e+00   9.427742e-02
  6.299801e-02    1.360777e+00   8.777885e-02
  6.520846e-02    1.466437e+00   8.956584e-02
  6.741892e-02    1.406144e+00   8.625114e-02
  6.962938e-02    1.451854e+00   8.624376e-02
  7.183983e-02    1.483228e+00   8.581755e-02
  7.405029e-02    1.548708e+00   8.637061e-02
  7.626074e-02    1.614210e+00   8.689012e-02
  7.847120e-02    1.630494e+00   8.608619e-02
  8.068166e-02    1.595826e+00   8.399069e-02
  8.289211e-02    1.467233e+00   7.945410e-02
  8.510257e-02    1.437929e+00   7.762796e-02
  8.731303e-02    1.514289e+00   7.864464e-02
  8.952348e-02    1.507849e+00   7.750443e-02
  9.173394e-02    1.451866e+00   7.512720e-02
  9.394439e-02    1.425966e+00   7.357053e-02
  9.615485e-02    1.459090e+00   7.355815e-02
  9.836531e-02    1.535667e+00   7.460894e-02
  1.005758e-01    1.508163e+00   7.312124e-02
  1.027862e-01    1.506886e+00   7.229830e-02
  1.049967e-01    1.568013e+00   7.296840e-02
  1.072071e-01    1.465837e+00   6.981900e-02
  1.094176e-01    1.341213e+00   6.610607e-02
  1.116280e-01    1.432213e+00   6.763063e-02
  1.138385e-01    1.559884e+00   6.989071e-02
  1.160490e-01    1.584367e+00   6.976216e-02
  1.182594e-01    1.459384e+00   6.632391e-02
  1.204699e-01    1.505663e+00   6.674588e-02
  1.226803e-01    1.676270e+00   6.978567e-02
  1.248908e-01    1.606210e+00   6.770375e-02
  1.271012e-01    1.601940e+00   6.702182e-02
  1.293117e-01    1.663884e+00   6.771819e-02
  1.315222e-01    1.599055e+00   6.582411e-02
  1.337326e-01    1.608158e+00   6.546211e-02
  1.359431e-01    1.615456e+00   6.564889e-02
  1.381535e-01    1.621709e+00   6.665872e-02
  1.403640e-01    1.668483e+00   6.790514e-02
  1.425744e-01    1.581364e+00   6.621416e-02
  1.447849e-01    1.593256e+00   6.647795e-02
  1.469953e-01    1.582168e+00   6.620476e-02
  1.492058e-01    1.547263e+00   6.539430e-02
  1.514163e-01    1.579459e+00   6.596144e-02
  1.536267e-01    1.629753e+00   6.687260e-02
  1.558372e-01    1.693380e+00   6.801499e-02
  1.580476e-01    1.656959e+00   6.711635e-02
  1.602581e-01    1.677221e+00   6.735393e-02
  1.624685e-01    1.771193e+00   6.902561e-02
  1.646790e-01    1.671842e+00   6.686920e-02
  1.668895e-01    1.681660e+00   6.687154e-02
  1.690999e-01    1.818770e+00   6.933542e-02
  1.713104e-01    1.779001e+00   6.836040e-02
  1.735208e-01    1.763623e+00   6.785262e-02
  1.757313e-01    1.861752e+00   6.949625e-02
  1.779417e-01    1.917148e+00   7.029264e-02
  1.801522e-01    1.781942e+00   6.755278e-02
  1.823626e-01    1.862342e+00   6.883001e-02
  1.845731e-01    1.988688e+00   7.089612e-02
  1.867836e-01    1.989689e+00   7.067465e-02
  1.889940e-01    2.059321e+00   7.166573e-02
  1.912045e-01    2.029284e+00   7.090361e-02
  1.934149e-01    1.994306e+00   7.005463e-02
  1.956254e-01    1.988554e+00   6.972279e-02
  1.978358e-01    2.012228e+00   6.989627e-02
  2.000463e-01    2.056936e+00   7.043428e-02
  2.022568e-01    1.965077e+00   6.861764e-02
  2.044672e-01    1.975210e+00   6.855865e-02
  2.066777e-01    1.996152e+00   6.869236e-02
  2.088881e-01    2.058442e+00   6.952769e-02
  2.110986e-01    2.045467e+00   6.907056e-02
  2.133090e-01    1.949322e+00   6.720854e-02
  2.155195e-01    1.979604e+00   6.750387e-02
  2.177300e-01    1.918705e+00   6.593534e-02
  2.199404e-01    1.981330e+00   6.523725e-02
  2.221509e-01    2.021128e+00   6.480722e-02
  2.243613e-01    2.072377e+00   6.479183e-02
  2.265718e-01    2.098302e+00   6.447723e-02
  2.287822e-01    2.050764e+00   6.311176e-02
  2.309927e-01    2.105666e+00   6.336839e-02
  2.332031e-01    2.110533e+00   6.289859e-02
  2.354136e-01    2.145471e+00   6.290308e-02
  2.376241e-01    2.171695e+00   6.279512e-02
  2.398345e-01    2.260623e+00   6.359377e-02
  2.420450e-01    2.232782e+00   6.274928e-02
  2.442554e-01    2.115530e+00   6.065867e-02
  2.464659e-01    2.136994e+00   6.055628e-02
  2.486763e-01    2.206737e+00   6.113203e-02
  2.508868e-01    2.134635e+00   5.974576e-02
  2.530973e-01    2.120101e+00   5.917285e-02
  2.553077e-01    2.110320e+00   5.867810e-02
  2.575182e-01    2.191309e+00   5.943970e-02
  2.597286e-01    2.136740e+00   5.835374e-02
  2.619391e-01    2.111634e+00   5.767591e-02
  2.641495e-01    2.156440e+00   5.796203e-02
  2.663600e-01    2.107671e+00   5.698776e-02
  2.685704e-01    2.038871e+00   5.574607e-02
  2.707809e-01    2.158777e+00   5.705740e-02
  2.729914e-01    2.106797e+00   5.607254e-02
  2.752018e-01    2.072778e+00   5.532852e-02
  2.774123e-01    2.050443e+00   5.474851e-02
  2.796227e-01    2.045632e+00   5.441374e-02
  2.818332e-01    2.073739e+00   5.451299e-02
  2.840436e-01    2.000160e+00   5.327766e-02
  2.862541e-01    1.963522e+00   5.253366e-02
  2.884646e-01    2.028331e+00   5.314021e-02
  2.906750e-01    2.009226e+00   5.263860e-02
  2.928855e-01    1.972891e+00   5.191878e-02
  2.950959e-01    1.947116e+00   5.134157e-02
  2.973064e-01    2.005357e+00   5.186960e-02
  2.995168e-01    1.978214e+00   5.128404e-02
  3.017273e-01    1.969925e+00   5.095086e-02
  3.039377e-01    1.950993e+00   5.048340e-02
  3.061482e-01    1.982973e+00   5.067530e-02
  3.083587e-01    1.995618e+00   5.061658e-02
  3.105691e-01    1.937689e+00   4.966348e-02
  3.127796e-01    1.955149e+00   4.967698e-02
  3.149900e-01    1.952683e+00   4.943882e-02
  3.172005e-01    1.940638e+00   4.908456e-02
  3.194109e-01    1.894029e+00   4.829135e-02
  3.216214e-01    1.902066e+00   4.819624e-02
  3.238319e-01    1.945827e+00   4.855436e-02
  3.260423e-01    1.948954e+00   4.839985e-02
  3.282528e-01    1.820645e+00   4.659328e-02
  3.304632e-01    1.885320e+00   4.722994e-02
  3.326737e-01    1.805134e+00   4.603434e-02
  3.348841e-01    1.855342e+00   4.648915e-02
  3.370946e-01    1.902920e+00   4.690431e-02
  3.393050e-01    1.890746e+00   4.657694e-02
  3.415155e-01    1.871411e+00   4.616397e-02
  3.437260e-01    1.831794e+00   4.550342e-02
  3.459364e-01    1.895195e+00   4.611297e-02
  3.481469e-01    1.927146e+00   4.633034e-02
  3.503573e-01    1.861226e+00   4.536519e-02
  3.525678e-01    1.863929e+00   4.523633e-02
  3.547782e-01    1.830956e+00   4.467237e-02
  3.569887e-01    1.851830e+00   4.476712e-02
  3.591992e-01    1.851175e+00   4.460082e-02
  3.614096e-01    1.856861e+00   4.451441e-02
  3.636201e-01    1.826241e+00   4.399070e-02
  3.658305e-01    1.853648e+00   4.416839e-02
  3.680410e-01    1.825778e+00   4.368432e-02
  3.702514e-01    1.832863e+00   4.362182e-02
  3.724619e-01    1.819144e+00   4.331025e-02
  3.746724e-01    1.858661e+00   4.363208e-02
  3.768828e-01    1.817418e+00   4.300010e-02
  3.790933e-01    1.803666e+00   4.269750e-02
  3.813037e-01    1.829281e+00   4.285894e-02
  3.835142e-01    1.857434e+00   4.304564e-02
  3.857246e-01    1.844890e+00   4.276120e-02
  3.879351e-01    1.834972e+00   4.250807e-02
  3.901455e-01    1.850711e+00   4.255407e-02
  3.923560e-01    1.784352e+00   4.165141e-02
  3.945665e-01    1.821760e+00   4.195226e-02
  3.967769e-01    1.832252e+00   4.194116e-02
  3.989874e-01    1.798136e+00   4.141911e-02
  4.011978e-01    1.820870e+00   4.155196e-02
  4.034083e-01    1.785426e+00   4.101923e-02
  4.056187e-01    1.801543e+00   4.107703e-02
  4.078292e-01    1.811404e+00   4.106464e-02
  4.100397e-01    1.816289e+00   4.099443e-02
  4.122501e-01    1.783170e+00   4.049744e-02
  4.144606e-01    1.843470e+00   4.105435e-02
  4.166710e-01    1.836674e+00   4.085679e-02
  4.188815e-01    1.801464e+00   4.034373e-02
  4.210919e-01    1.798996e+00   4.019794e-02
  4.233024e-01    1.812075e+00   4.022513e-02
  4.255128e-01    1.804255e+00   4.002222e-02
  4.277233e-01    1.811828e+00   3.999088e-02
  4.299338e-01    1.830701e+00   4.008296e-02
  4.321442e-01    1.816025e+00   3.980776e-02
  4.343547e-01    1.790669e+00   3.941708e-02
  4.365651e-01    1.814320e+00   3.956381e-02
  4.387756e-01    1.813717e+00   3.944647e-02
  4.409860e-01    1.814627e+00   3.934706e-02
  4.431965e-01    1.832200e+00   3.942778e-02
  4.454070e-01    1.811445e+00   3.909478e-02
  4.476174e-01    1.778005e+00   3.862588e-02
  4.498279e-01    1.794926e+00   3.870365e-02
  4.520383e-01    1.785202e+00   3.849275e-02
  4.542488e-01    1.789853e+00   3.843896e-02
  4.564592e-01    1.674650e+00   3.708155e-02
  4.586697e-01    1.748992e+00   3.779510e-02
  4.608801e-01    1.805888e+00   3.830207e-02
  4.630906e-01    1.796794e+00   3.810436e-02
  4.653011e-01    1.731295e+00   3.730503e-02
  4.675115e-01    1.758443e+00   3.749736e-02
  4.697220e-01    1.725080e+00   3.704270e-02
  4.719324e-01    1.761609e+00   3.733600e-02
  4.741429e-01    1.758410e+00   3.720598e-02
  4.763533e-01    1.706143e+00   3.655492e-02
  4.785638e-01    1.725754e+00   3.666938e-02
  4.807743e-01    1.764402e+00   3.698347e-02
  4.829847e-01    1.733632e+00   3.656692e-02
  4.851952e-01    1.763835e+00   3.679077e-02
  4.874056e-01    1.694996e+00   3.597474e-02
  4.896161e-01    1.695971e+00   3.589585e-02
  4.918265e-01    1.698151e+00   3.582971e-02
  4.940370e-01    1.720927e+00   3.598015e-02
  4.962475e-01    1.663563e+00   3.528803e-02
  4.984579e-01    1.669590e+00   3.526476e-02
  5.006684e-01    1.701499e+00   3.551337e-02
  5.028788e-01    1.711719e+00   3.553354e-02
  5.050893e-01    1.735413e+00   3.569162e-02
  5.072997e-01    1.736466e+00   3.561621e-02
  5.095102e-01    1.764427e+00   3.581583e-02
  5.117206e-01    1.710868e+00   3.518420e-02
  5.139311e-01    1.676063e+00   3.474205e-02
  5.161416e-01    1.693716e+00   3.484199e-02
  5.183520e-01    1.714959e+00   3.497650e-02
  5.205625e-01    1.708161e+00   3.482534e-02
  5.227729e-01    1.707846e+00   3.474090e-02
  5.249834e-01    1.691528e+00   3.449427e-02
  5.271938e-01    1.700609e+00   3.450603e-02
  5.294043e-01    1.724461e+00   3.466698e-02
  5.316148e-01    1.798023e+00   3.531759e-02
  5.338252e-01    1.826874e+00   3.551846e-02
  5.360357e-01    1.812830e+00   3.530115e-02
  5.382461e-01    1.791802e+00   3.501645e-02
  5.404566e-01    1.786630e+00   3.488632e-02
  5.426670e-01    1.776197e+00   3.470593e-02
  5.448775e-01    1.779424e+00   3.465983e-02
  5.470879e-01    1.780213e+00   3.459022e-02
  5.492984e-01    1.772225e+00   3.443577e-02
  5.515089e-01    1.748171e+00   3.412544e-02
  5.537193e-01    1.770574e+00   3.426772e-02
  5.559298e-01    1.801242e+00   3.448741e-02
  5.581402e-01    1.827276e+00   3.465986e-02
  5.603507e-01    1.812595e+00   3.444521e-02
  5.625611e-01    1.822726e+00   3.446639e-02
  5.647716e-01    1.795669e+00   3.413534e-02
  5.669821e-01    1.792476e+00   3.403144e-02
  5.691925e-01    1.826748e+00   3.428150e-02
  5.714030e-01    1.781972e+00   3.378657e-02
  5.736134e-01    1.779975e+00   3.369582e-02
  5.758239e-01    1.735590e+00   3.320201e-02
  5.780343e-01    1.741073e+00   3.318408e-02
  5.802448e-01    1.749144e+00   3.319129e-02
  5.824552e-01    1.705086e+00   3.270184e-02
  5.846657e-01    1.719353e+00   3.276991e-02
  5.868762e-01    1.727003e+00   3.277437e-02
  5.890866e-01    1.692534e+00   3.237833e-02
  5.912971e-01    1.648496e+00   3.188816e-02
  5.935075e-01    1.671069e+00   3.203940e-02
  5.957180e-01    1.664833e+00   3.191394e-02
  5.979284e-01    1.669980e+00   3.189800e-02
  6.001389e-01    1.640496e+00   3.155077e-02
  6.023494e-01    1.642018e+00   3.150132e-02
  6.045598e-01    1.628655e+00   3.130900e-02
  6.067703e-01    1.708677e+00   3.200442e-02
  6.089807e-01    1.769096e+00   3.249990e-02
  6.111912e-01    1.722803e+00   3.200784e-02
  6.134016e-01    1.722530e+00   3.194144e-02
  6.156121e-01    1.741275e+00   3.205095e-02
  6.178226e-01    1.686012e+00   3.147581e-02
  6.200330e-01    1.691894e+00   3.146845e-02
  6.222435e-01    1.708640e+00   3.156116e-02
  6.244539e-01    1.709279e+00   3.150526e-02
  6.266644e-01    1.733714e+00   3.166776e-02
  6.288748e-01    1.745715e+00   3.171531e-02
  6.310853e-01    1.732970e+00   3.153799e-02
  6.332957e-01    1.741653e+00   3.155584e-02
  6.355062e-01    1.754620e+00   3.161158e-02
  6.377167e-01    1.722496e+00   3.126077e-02
  6.399271e-01    1.729173e+00   3.126127e-02
  6.421376e-01    1.754966e+00   3.143345e-02
  6.443480e-01    1.765342e+00   3.146628e-02
  6.465585e-01    1.742859e+00   3.120602e-02
  6.487689e-01    1.727438e+00   3.100900e-02
  6.509794e-01    1.723372e+00   3.091407e-02
  6.531899e-01    1.677252e+00   3.044025e-02
  6.554003e-01    1.692100e+00   3.051721e-02
  6.576108e-01    1.666127e+00   3.022571e-02
  6.598212e-01    1.650215e+00   3.002515e-02
  6.620317e-01    1.620454e+00   2.969801e-02
  6.642421e-01    1.629254e+00   2.972344e-02
  6.664526e-01    1.652469e+00   2.987932e-02
  6.686630e-01    1.628641e+00   2.960826e-02
  6.708735e-01    1.663643e+00   2.986984e-02
  6.730840e-01    1.647103e+00   2.966681e-02
  6.752944e-01    1.634577e+00   2.950002e-02
  6.775049e-01    1.672709e+00   2.978796e-02
  6.797153e-01    1.646177e+00   2.949726e-02
  6.819258e-01    1.644782e+00   2.943158e-02
  6.841362e-01    1.624532e+00   2.919726e-02
  6.863467e-01    1.621295e+00   2.911589e-02
  6.885572e-01    1.633119e+00   2.916951e-02
  6.907676e-01    1.598110e+00   2.880347e-02
  6.929781e-01    1.613943e+00   2.889432e-02
  6.951885e-01    1.655547e+00   2.921258e-02
  6.973990e-01    1.620078e+00   2.884685e-02
  6.996094e-01    1.645439e+00   2.902061e-02
  7.018199e-01    1.657741e+00   2.907777e-02
  7.040303e-01    1.660182e+00   2.904805e-02
  7.062408e-01    1.618264e+00   2.862877e-02
  7.084513e-01    1.597679e+00   2.839661e-02
  7.106617e-01    1.614321e+00   2.849451e-02
  7.128722e-01    1.649856e+00   2.875659e-02
  7.150826e-01    1.636269e+00   2.858859e-02
  7.172931e-01    1.587551e+00   2.811122e-02
  7.195035e-01    1.584566e+00   2.803650e-02
  7.217140e-01    1.566867e+00   2.792881e-02
  7.239245e-01    1.590091e+00   2.836286e-02
  7.261349e-01    1.608357e+00   2.863508e-02
  7.283454e-01    1.633777e+00   2.893423e-02
  7.305558e-01    1.628919e+00   2.894611e-02
  7.327663e-01    1.598822e+00   2.872027e-02
  7.349767e-01    1.569076e+00   2.846819e-02
  7.371872e-01    1.581718e+00   2.857141e-02
  7.393976e-01    1.586649e+00   2.860162e-02
  7.416081e-01    1.603101e+00   2.873320e-02
  7.438186e-01    1.610720e+00   2.865544e-02
  7.460290e-01    1.576609e+00   2.805596e-02
  7.482395e-01    1.591412e+00   2.801528e-02
  7.504499e-01    1.597462e+00   2.793125e-02
  7.526604e-01    1.570153e+00   2.757507e-02
  7.548708e-01    1.568820e+00   2.747412e-02
  7.570813e-01    1.585179e+00   2.756582e-02
  7.592918e-01    1.611996e+00   2.776245e-02
  7.615022e-01    1.621847e+00   2.781284e-02
  7.637127e-01    1.623063e+00   2.778999e-02
  7.659231e-01    1.610680e+00   2.765140e-02
  7.681336e-01    1.612632e+00   2.763618e-02
  7.703440e-01    1.605516e+00   2.754360e-02
  7.725545e-01    1.616251e+00   2.760425e-02
  7.747650e-01    1.676400e+00   2.807379e-02
  7.769754e-01    1.621347e+00   2.755552e-02
  7.791859e-01    1.598008e+00   2.730260e-02
  7.813963e-01    1.621301e+00   2.744757e-02
  7.836068e-01    1.616905e+00   2.735780e-02
  7.858172e-01    1.637476e+00   2.747981e-02
  7.880277e-01    1.712841e+00   2.805159e-02
  7.902381e-01    1.817788e+00   2.884568e-02
  7.924486e-01    1.816318e+00   2.878065e-02
  7.946591e-01    1.710168e+00   2.787706e-02
  7.968695e-01    1.667304e+00   2.747622e-02
  7.990800e-01    1.654261e+00   2.731963e-02
  8.012904e-01    1.623773e+00   2.701988e-02
  8.035009e-01    1.615556e+00   2.690346e-02
  8.057113e-01    1.689956e+00   2.746839e-02
  8.079218e-01    1.708120e+00   2.756796e-02
  8.101323e-01    1.674791e+00   2.725135e-02
  8.123427e-01    1.645495e+00   2.696589e-02
  8.145532e-01    1.646395e+00   2.692712e-02
  8.167636e-01    1.633967e+00   2.678018e-02
  8.189741e-01    1.641313e+00   2.679558e-02
  8.211845e-01    1.654476e+00   2.685771e-02
  8.233950e-01    1.686217e+00   2.707003e-02
  8.256054e-01    1.660011e+00   2.681435e-02
  8.278159e-01    1.624855e+00   2.648510e-02
  8.300264e-01    1.638386e+00   2.655204e-02
  8.322368e-01    1.658097e+00   2.666791e-02
  8.344473e-01    1.661814e+00   2.665410e-02
  8.366577e-01    1.675745e+00   2.672254e-02
  8.388682e-01    1.685781e+00   2.675959e-02
  8.410786e-01    1.671774e+00   2.660573e-02
  8.432891e-01    1.675459e+00   2.659272e-02
  8.454996e-01    1.697110e+00   2.672164e-02
  8.477100e-01    1.669826e+00   2.646391e-02
  8.499205e-01    1.609513e+00   2.594079e-02
  8.521309e-01    1.619478e+00   2.598036e-02
  8.543414e-01    1.659452e+00   2.625802e-02
  8.565518e-01    1.671079e+00   2.630884e-02
  8.587623e-01    1.658476e+00   2.616865e-02
  8.609727e-01    1.617279e+00   2.580151e-02
  8.631832e-01    1.625626e+00   2.582810e-02
  8.653937e-01    1.640777e+00   2.590832e-02
  8.676041e-01    1.610131e+00   2.562650e-02
  8.698146e-01    1.625288e+00   2.570748e-02
  8.720250e-01    1.579281e+00   2.530241e-02
  8.742355e-01    1.584129e+00   2.530262e-02
  8.764459e-01    1.609386e+00   2.546463e-02
  8.786564e-01    1.598479e+00   2.534038e-02
  8.808669e-01    1.615417e+00   2.543563e-02
  8.830773e-01    1.649855e+00   2.566665e-02
  8.852878e-01    1.647530e+00   2.561011e-02
  8.874982e-01    1.608739e+00   2.527010e-02
  8.897087e-01    1.571362e+00   2.493746e-02
  8.919191e-01    1.609499e+00   2.520040e-02
  8.941296e-01    1.604951e+00   2.512744e-02
  8.963401e-01    1.585658e+00   2.493969e-02
  8.985505e-01    1.614676e+00   2.512972e-02
  9.007610e-01    1.613939e+00   2.508711e-02
  9.029714e-01    1.589725e+00   2.486246e-02
  9.051819e-01    1.577717e+00   2.473144e-02
  9.073923e-01    1.588592e+00   2.478006e-02
  9.096028e-01    1.621903e+00   2.500338e-02
  9.118132e-01    1.677312e+00   2.538979e-02
  9.140237e-01    1.604145e+00   2.479320e-02
  9.162342e-01    1.610526e+00   2.480776e-02
  9.184446e-01    1.651867e+00   2.508781e-02
  9.206551e-01    1.631068e+00   2.489346e-02
  9.228655e-01    1.589128e+00   2.453618e-02
  9.250760e-01    1.633469e+00   2.484044e-02
  9.272864e-01    1.634409e+00   2.481300e-02
  9.294969e-01    1.641330e+00   2.482924e-02
  9.317074e-01    1.623080e+00   2.465593e-02
  9.339178e-01    1.658635e+00   2.489047e-02
  9.361283e-01    1.682999e+00   2.503566e-02
  9.383387e-01    1.679866e+00   2.497832e-02
  9.405492e-01    1.684272e+00   2.497614e-02
  9.427596e-01    1.699093e+00   2.504965e-02
  9.449701e-01    1.730687e+00   2.524714e-02
  9.471805e-01    1.731682e+00   2.521862e-02
  9.493910e-01    1.702240e+00   2.496902e-02
  9.516015e-01    1.670142e+00   2.469794e-02
  9.538119e-01    1.718510e+00   2.501868e-02
  9.560224e-01    1.730307e+00   2.506909e-02
  9.582328e-01    1.704573e+00   2.484858e-02
  9.604433e-01    1.766482e+00   2.525996e-02
  9.626537e-01    1.815873e+00   2.557625e-02
  9.648642e-01    1.790080e+00   2.535918e-02
  9.670747e-01    1.838252e+00   2.566267e-02
  9.692851e-01    1.849240e+00   2.570506e-02
  9.714956e-01    1.907469e+00   2.606980e-02
  9.737060e-01    1.882768e+00   2.586645e-02
  9.759165e-01    1.859105e+00   2.566714e-02
  9.781269e-01    1.895527e+00   2.588342e-02
  9.803374e-01    1.911995e+00   2.595967e-02
  9.825478e-01    1.903368e+00   2.586687e-02
  9.847583e-01    1.918167e+00   2.593197e-02
  9.869688e-01    1.850477e+00   2.543624e-02
  9.891792e-01    1.770246e+00   2.484563e-02
  9.913897e-01    1.758679e+00   2.473090e-02
  9.936001e-01    1.746381e+00   2.461202e-02
  9.958106e-01    1.723319e+00   2.441574e-02
  9.980210e-01    1.719996e+00   2.436054e-02
  1.000231e+00    1.688580e+00   2.426926e-02
  1.002442e+00    1.668065e+00   2.424956e-02
  1.004652e+00    1.638340e+00   2.409955e-02
  1.006863e+00    1.642275e+00   2.417854e-02
  1.009073e+00    1.644541e+00   2.423225e-02
  1.011284e+00    1.667817e+00   2.443576e-02
  1.013494e+00    1.627920e+00   2.416568e-02
  1.015705e+00    1.620575e+00   2.413386e-02
  1.017915e+00    1.592814e+00   2.394277e-02
  1.020126e+00    1.567093e+00   2.376471e-02
  1.022336e+00    1.559585e+00   2.371939e-02
  1.024547e+00    1.534481e+00   2.353887e-02
  1.026757e+00    1.530165e+00   2.351406e-02
  1.028967e+00    1.521375e+00   2.345406e-02
  1.031178e+00    1.525804e+00   2.349431e-02
  1.033388e+00    1.520362e+00   2.345741e-02
  1.035599e+00    1.555932e+00   2.373368e-02
  1.037809e+00    1.570765e+00   2.384985e-02
  1.040020e+00    1.542274e+00   2.363386e-02
  1.042230e+00    1.490892e+00   2.323875e-02
  1.044441e+00    1.511511e+00   2.339865e-02
  1.046651e+00    1.511935e+00   2.340213e-02
  1.048862e+00    1.487204e+00   2.320915e-02
  1.051072e+00    1.510055e+00   2.338439e-02
  1.053282e+00    1.503238e+00   2.333063e-02
  1.055493e+00    1.480706e+00   2.315082e-02
  1.057703e+00    1.478538e+00   2.313236e-02
  1.059914e+00    1.492905e+00   2.324019e-02
  1.062124e+00    1.505013e+00   2.333019e-02
  1.064335e+00    1.501806e+00   2.330185e-02
  1.066545e+00    1.521086e+00   2.344488e-02
  1.068756e+00    1.515976e+00   2.340169e-02
  1.070966e+00    1.488941e+00   2.318553e-02
  1.073177e+00    1.489892e+00   2.318682e-02
  1.075387e+00    1.509614e+00   2.333451e-02
  1.077597e+00    1.455218e+00   2.290301e-02
  1.079808e+00    1.466346e+00   2.285756e-02
  1.082018e+00    1.445728e+00   2.250836e-02
  1.084229e+00    1.458395e+00   2.249676e-02
  1.086439e+00    1.466852e+00   2.247411e-02
  1.088650e+00    1.474984e+00   2.246014e-02
  1.090860e+00    1.456163e+00   2.224869e-02
  1.093071e+00    1.457718e+00   2.219825e-02
  1.095281e+00    1.456398e+00   2.213072e-02
  1.097492e+00    1.478492e+00   2.224242e-02
  1.099702e+00    1.474775e+00   2.216245e-02
  1.101912e+00    1.458985e+00   2.199431e-02
  1.104123e+00    1.475622e+00   2.207045e-02
  1.106333e+00    1.445518e+00   2.179958e-02
  1.108544e+00    1.409178e+00   2.147985e-02
  1.110754e+00    1.426731e+00   2.157020e-02
  1.112965e+00    1.419589e+00   2.147566e-02
  1.115175e+00    1.420662e+00   2.144256e-02
  1.117386e+00    1.437577e+00   2.153027e-02
  1.119596e+00    1.422923e+00   2.138225e-02
  1.121807e+00    1.406588e+00   2.122038e-02
  1.124017e+00    1.412119e+00   2.122534e-02
  1.126228e+00    1.429248e+00   2.131761e-02
  1.128438e+00    1.500601e+00   2.180520e-02
  1.130648e+00    1.496904e+00   2.174286e-02
  1.132859e+00    1.428636e+00   2.120652e-02
  1.135069e+00    1.400136e+00   2.095909e-02
  1.137280e+00    1.396814e+00   2.090113e-02
  1.139490e+00    1.383376e+00   2.076733e-02
  1.141701e+00    1.391829e+00   2.079749e-02
  1.143911e+00    1.367296e+00   2.058171e-02
  1.146122e+00    1.362382e+00   2.051287e-02
  1.148332e+00    1.371539e+00   2.054992e-02
  1.150543e+00    1.370927e+00   2.051456e-02
  1.152753e+00    1.386699e+00   2.060128e-02
  1.154963e+00    1.385800e+00   2.056341e-02
  1.157174e+00    1.392100e+00   2.057974e-02
  1.159384e+00    1.399422e+00   2.060365e-02
  1.161595e+00    1.374773e+00   2.039149e-02
  1.163805e+00    1.387728e+00   2.045788e-02
  1.166016e+00    1.352861e+00   2.016999e-02
  1.168226e+00    1.326007e+00   1.994026e-02
  1.170437e+00    1.349537e+00   2.008795e-02
  1.172647e+00    1.388172e+00   2.034432e-02
  1.174858e+00    1.384092e+00   2.028612e-02
  1.177068e+00    1.383918e+00   2.025635e-02
  1.179278e+00    1.400354e+00   2.034733e-02
  1.181489e+00    1.379608e+00   2.016882e-02
  1.183699e+00    1.366346e+00   2.004401e-02
  1.185910e+00    1.350588e+00   1.990039e-02
  1.188120e+00    1.352223e+00   1.988579e-02
  1.190331e+00    1.357422e+00   1.989719e-02
  1.192541e+00    1.347933e+00   1.980023e-02
  1.194752e+00    1.341731e+00   1.972767e-02
  1.196962e+00    1.355034e+00   1.979945e-02
  1.199173e+00    1.356569e+00   1.978409e-02
  1.201383e+00    1.373438e+00   1.987934e-02
  1.203593e+00    1.350259e+00   1.968606e-02
  1.205804e+00    1.387544e+00   1.992970e-02
  1.208014e+00    1.403814e+00   2.001885e-02
  1.210225e+00    1.517897e+00   2.078945e-02
  1.212435e+00    1.961495e+00   2.360293e-02
  1.214646e+00    1.900093e+00   2.319982e-02
  1.216856e+00    1.553205e+00   2.094808e-02
  1.219067e+00    1.443671e+00   2.017061e-02
  1.221277e+00    1.392010e+00   1.978097e-02
  1.223488e+00    1.395212e+00   1.977754e-02
  1.225698e+00    1.386847e+00   1.969090e-02
  1.227909e+00    1.342258e+00   1.934170e-02
  1.230119e+00    1.352416e+00   1.938285e-02
  1.232329e+00    1.360215e+00   1.940783e-02
  1.234540e+00    1.343688e+00   1.925934e-02
  1.236750e+00    1.349693e+00   1.927207e-02
  1.238961e+00    1.371368e+00   1.939902e-02
  1.241171e+00    1.367855e+00   1.934981e-02
  1.243382e+00    1.363895e+00   1.929815e-02
  1.245592e+00    1.377116e+00   1.936712e-02
  1.247803e+00    1.384183e+00   1.939279e-02
  1.250013e+00    1.405697e+00   1.951890e-02
  1.252224e+00    1.424159e+00   1.962277e-02
  1.254434e+00    1.476129e+00   1.995277e-02
  1.256644e+00    1.472074e+00   1.990114e-02
  1.258855e+00    1.436534e+00   1.963542e-02
  1.261065e+00    1.403499e+00   1.938451e-02
  1.263276e+00    1.424607e+00   1.950616e-02
  1.265486e+00    1.384055e+00   1.920339e-02
  1.267697e+00    1.350044e+00   1.894294e-02
  1.269907e+00    1.330164e+00   1.878042e-02
  1.272118e+00    1.351725e+00   1.890941e-02
  1.274328e+00    1.364624e+00   1.897658e-02
  1.276539e+00    1.374534e+00   1.902236e-02
  1.278749e+00    1.408647e+00   1.923419e-02
  1.280959e+00    1.477509e+00   1.967512e-02
  1.283170e+00    1.636906e+00   2.068453e-02
  1.285380e+00    1.648880e+00   2.073532e-02
  1.287591e+00    1.502027e+00   1.976718e-02
  1.289801e+00    1.424202e+00   1.922646e-02
  1.292012e+00    1.367197e+00   1.882053e-02
  1.294222e+00    1.345161e+00   1.865204e-02
  1.296433e+00    1.361818e+00   1.875147e-02
  1.298643e+00    1.393892e+00   1.895428e-02
  1.300854e+00    1.380631e+00   1.884732e-02
  1.303064e+00    1.366980e+00   1.873457e-02
  1.305274e+00    1.364504e+00   1.869602e-02
  1.307485e+00    1.377446e+00   1.876272e-02
  1.309695e+00    1.359429e+00   1.861731e-02
  1.311906e+00    1.346006e+00   1.850346e-02
  1.314116e+00    1.362809e+00   1.859772e-02
  1.316327e+00    1.343076e+00   1.844096e-02
  1.318537e+00    1.355810e+00   1.850622e-02
  1.320748e+00    1.393998e+00   1.874315e-02
  1.322958e+00    1.368955e+00   1.855337e-02
  1.325169e+00    1.329046e+00   1.826008e-02
  1.327379e+00    1.346482e+00   1.835766e-02
  1.329589e+00    1.357846e+00   1.841385e-02
  1.331800e+00    1.367912e+00   1.846113e-02
  1.334010e+00    1.396148e+00   1.862970e-02
  1.336221e+00    1.390293e+00   1.856852e-02
  1.338431e+00    1.375990e+00   1.845169e-02
  1.340642e+00    1.384573e+00   1.857413e-02
  1.342852e+00    1.368754e+00   1.856909e-02
  1.345063e+00    1.370339e+00   1.862969e-02
  1.347273e+00    1.375790e+00   1.870229e-02
  1.349484e+00    1.365737e+00   1.866168e-02
  1.351694e+00    1.324736e+00   1.840193e-02
  1.353905e+00    1.307496e+00   1.829949e-02
  1.356115e+00    1.328561e+00   1.846123e-02
  1.358325e+00    1.320721e+00   1.841986e-02
  1.360536e+00    1.361716e+00   1.871520e-02
  1.362746e+00    1.375926e+00   1.882228e-02
  1.364957e+00    1.348792e+00   1.864343e-02
  1.367167e+00    1.339720e+00   1.858774e-02
  1.369378e+00    1.336575e+00   1.857191e-02
  1.371588e+00    1.336627e+00   1.857739e-02
  1.373799e+00    1.354321e+00   1.870364e-02
  1.376009e+00    1.339234e+00   1.860259e-02
  1.378220e+00    1.322334e+00   1.848734e-02
  1.380430e+00    1.336225e+00   1.858689e-02
  1.382640e+00    1.334796e+00   1.857788e-02
  1.384851e+00    1.322421e+00   1.849242e-02
  1.387061e+00    1.332074e+00   1.856009e-02
  1.389272e+00    1.311728e+00   1.841803e-02
  1.391482e+00    1.296861e+00   1.831266e-02
  1.393693e+00    1.305300e+00   1.837127e-02
  1.395903e+00    1.308070e+00   1.838926e-02
  1.398114e+00    1.276967e+00   1.816792e-02
  1.400324e+00    1.295133e+00   1.829457e-02
  1.402535e+00    1.275584e+00   1.815365e-02
  1.404745e+00    1.291566e+00   1.826464e-02
  1.406955e+00    1.285295e+00   1.821754e-02
  1.409166e+00    1.286315e+00   1.822146e-02
  1.411376e+00    1.261936e+00   1.804484e-02
  1.413587e+00    1.264005e+00   1.805583e-02
  1.415797e+00    1.248882e+00   1.794398e-02
  1.418008e+00    1.263425e+00   1.800638e-02
  1.420218e+00    1.245373e+00   1.772903e-02
  1.422429e+00    1.259427e+00   1.774379e-02
  1.424639e+00    1.279468e+00   1.781951e-02
  1.426850e+00    1.267981e+00   1.768466e-02
  1.429060e+00    1.299117e+00   1.785094e-02
  1.431270e+00    1.296468e+00   1.778796e-02
  1.433481e+00    1.308495e+00   1.782870e-02
  1.435691e+00    1.319459e+00   1.786409e-02
  1.437902e+00    1.292166e+00   1.764157e-02
  1.440112e+00    1.307617e+00   1.771087e-02
  1.442323e+00    1.317116e+00   1.774142e-02
  1.444533e+00    1.319373e+00   1.772345e-02
  1.446744e+00    1.283619e+00   1.745036e-02
  1.448954e+00    1.291381e+00   1.747259e-02
  1.451165e+00    1.285089e+00   1.740004e-02
  1.453375e+00    1.299210e+00   1.746702e-02
  1.455586e+00    1.287338e+00   1.735866e-02
  1.457796e+00    1.304631e+00   1.744698e-02
  1.460006e+00    1.286875e+00   1.730043e-02
  1.462217e+00    1.315734e+00   1.746664e-02
  1.464427e+00    1.273726e+00   1.715990e-02
  1.466638e+00    1.279651e+00   1.717433e-02
  1.468848e+00    1.283423e+00   1.717416e-02
  1.471059e+00    1.277869e+00   1.711178e-02
  1.473269e+00    1.288320e+00   1.715705e-02
  1.475480e+00    1.280549e+00   1.708136e-02
  1.477690e+00    1.276794e+00   1.703236e-02
  1.479901e+00    1.290646e+00   1.710046e-02
  1.482111e+00    1.278937e+00   1.699930e-02
  1.484321e+00    1.263829e+00   1.687549e-02
  1.486532e+00    1.266405e+00   1.687036e-02
  1.488742e+00    1.262608e+00   1.682241e-02
  1.490953e+00    1.298104e+00   1.703432e-02
  1.493163e+00    1.279061e+00   1.688654e-02
  1.495374e+00    1.231318e+00   1.654713e-02
  1.497584e+00    1.250306e+00   1.665268e-02
  1.499795e+00    1.266330e+00   1.673735e-02
  1.502005e+00    1.270005e+00   1.673985e-02
  1.504216e+00    1.274761e+00   1.675001e-02
  1.506426e+00    1.247504e+00   1.654924e-02
  1.508636e+00    1.243421e+00   1.650179e-02
  1.510847e+00    1.266608e+00   1.663303e-02
  1.513057e+00    1.270412e+00   1.663277e-02
  1.515268e+00    1.262224e+00   1.655328e-02
  1.517478e+00    1.271850e+00   1.659095e-02
  1.519689e+00    1.292153e+00   1.669751e-02
  1.521899e+00    1.299154e+00   1.671916e-02
  1.524110e+00    1.285780e+00   1.661231e-02
  1.526320e+00    1.287509e+00   1.660359e-02
  1.528531e+00    1.269692e+00   1.646841e-02
  1.530741e+00    1.254926e+00   1.635318e-02
  1.532951e+00    1.253258e+00   1.632269e-02
  1.535162e+00    1.281656e+00   1.659429e-02
  1.537372e+00    1.244077e+00   1.641599e-02
  1.539583e+00    1.254197e+00   1.651691e-02
  1.541793e+00    1.268392e+00   1.661714e-02
  1.544004e+00    1.248404e+00   1.648594e-02
  1.546214e+00    1.245187e+00   1.646319e-02
  1.548425e+00    1.256681e+00   1.653924e-02
  1.550635e+00    1.239602e+00   1.643614e-02
  1.552846e+00    1.250509e+00   1.651795e-02
  1.555056e+00    1.261148e+00   1.654634e-02
  1.557266e+00    1.243620e+00   1.632053e-02
  1.559477e+00    1.243025e+00   1.625753e-02
  1.561687e+00    1.277590e+00   1.645096e-02
  1.563898e+00    1.256400e+00   1.629672e-02
  1.566108e+00    1.273044e+00   1.638815e-02
  1.568319e+00    1.263989e+00   1.631404e-02
  1.570529e+00    1.249703e+00   1.619640e-02
  1.572740e+00    1.258135e+00   1.622316e-02
  1.574950e+00    1.251039e+00   1.615098e-02
  1.577161e+00    1.253269e+00   1.613979e-02
  1.579371e+00    1.275278e+00   1.625693e-02
  1.581582e+00    1.281444e+00   1.627614e-02
  1.583792e+00    1.275959e+00   1.622302e-02
  1.586002e+00    1.273371e+00   1.618874e-02
  1.588213e+00    1.272567e+00   1.616619e-02
  1.590423e+00    1.269760e+00   1.612807e-02
  1.592634e+00    1.259109e+00   1.603852e-02
  1.594844e+00    1.264066e+00   1.604850e-02
  1.597055e+00    1.245726e+00   1.591112e-02
  1.599265e+00    1.260239e+00   1.598267e-02
  1.601476e+00    1.238271e+00   1.582248e-02
  1.603686e+00    1.222090e+00   1.569911e-02
  1.605897e+00    1.268882e+00   1.597645e-02
  1.608107e+00    1.258121e+00   1.588884e-02
  1.610317e+00    1.246269e+00   1.579445e-02
  1.612528e+00    1.232154e+00   1.568560e-02
  1.614738e+00    1.245506e+00   1.575128e-02
  1.616949e+00    1.235954e+00   1.567174e-02
  1.619159e+00    1.229062e+00   1.560920e-02
  1.621370e+00    1.219919e+00   1.553259e-02
  1.623580e+00    1.187592e+00   1.530727e-02
  1.625791e+00    1.196029e+00   1.534337e-02
  1.628001e+00    1.166052e+00   1.513189e-02
  1.630212e+00    1.182938e+00   1.522337e-02
  1.632422e+00    1.190954e+00   1.525695e-02
  1.634632e+00    1.187132e+00   1.521510e-02
  1.636843e+00    1.190914e+00   1.522166e-02
  1.639053e+00    1.200013e+00   1.526223e-02
  1.641264e+00    1.177812e+00   1.510325e-02
  1.643474e+00    1.175742e+00   1.507246e-02
  1.645685e+00    1.162502e+00   1.497068e-02
  1.647895e+00    1.171585e+00   1.501232e-02
  1.650106e+00    1.153985e+00   1.488212e-02
  1.652316e+00    1.158370e+00   1.489382e-02
  1.654527e+00    1.132054e+00   1.470707e-02
  1.656737e+00    1.132202e+00   1.469150e-02
  1.658947e+00    1.144521e+00   1.475483e-02
  1.661158e+00    1.152507e+00   1.478975e-02
  1.663368e+00    1.240920e+00   1.532971e-02
  1.665579e+00    1.311536e+00   1.574238e-02
  1.667789e+00    1.258150e+00   1.540148e-02
  1.670000e+00    1.199588e+00   1.502264e-02
  1.672210e+00    1.192844e+00   1.496389e-02
  1.674421e+00    1.214236e+00   1.508141e-02
  1.676631e+00    1.201068e+00   1.498285e-02
  1.678842e+00    1.147398e+00   1.462816e-02
  1.681052e+00    1.112084e+00   1.438575e-02
  1.683263e+00    1.129269e+00   1.448106e-02
  1.685473e+00    1.149768e+00   1.459632e-02
  1.687683e+00    1.152072e+00   1.459503e-02
  1.689894e+00    1.175533e+00   1.472644e-02
  1.692104e+00    1.165659e+00   1.464895e-02
  1.694315e+00    1.126396e+00   1.438525e-02
  1.696525e+00    1.140549e+00   1.445968e-02
  1.698736e+00    1.170532e+00   1.463299e-02
  1.700946e+00    1.137434e+00   1.440896e-02
  1.703157e+00    1.105031e+00   1.418725e-02
  1.705367e+00    1.088270e+00   1.406451e-02
  1.707578e+00    1.087191e+00   1.404271e-02
  1.709788e+00    1.078807e+00   1.397409e-02
  1.711998e+00    1.087981e+00   1.401808e-02
  1.714209e+00    1.122067e+00   1.422095e-02
  1.716419e+00    1.130041e+00   1.425649e-02
  1.718630e+00    1.097186e+00   1.403300e-02
  1.720840e+00    1.029610e+00   1.357981e-02
  1.723051e+00    1.022994e+00   1.352221e-02
  1.725261e+00    1.032903e+00   1.357282e-02
  1.727472e+00    1.016122e+00   1.344793e-02
  1.729682e+00    1.016277e+00   1.343550e-02
  1.731893e+00    1.008400e+00   1.336946e-02
  1.734103e+00    9.936576e-01   1.325767e-02
  1.736313e+00    9.962108e-01   1.326076e-02
  1.738524e+00    9.920698e-01   1.321940e-02
  1.740734e+00    1.004760e+00   1.328994e-02
  1.742945e+00    9.928035e-01   1.319721e-02
  1.745155e+00    9.903634e-01   1.316754e-02
  1.747366e+00    9.856141e-01   1.312214e-02
  1.749576e+00    9.821451e-01   1.308539e-02
  1.751787e+00    9.652067e-01   1.295883e-02
  1.753997e+00    9.696760e-01   1.297549e-02
  1.756208e+00    9.773498e-01   1.301351e-02
  1.758418e+00    9.550100e-01   1.285093e-02
  1.760628e+00    9.622418e-01   1.288619e-02
  1.762839e+00    9.507776e-01   1.279607e-02
  1.765049e+00    9.422659e-01   1.272569e-02
  1.767260e+00    9.493282e-01   1.276054e-02
  1.769470e+00    9.629022e-01   1.283841e-02
  1.771681e+00    9.672863e-01   1.285436e-02
  1.773891e+00    9.645894e-01   1.282328e-02
  1.776102e+00    9.623221e-01   1.279522e-02
  1.778312e+00    1.031139e+00   1.323153e-02
  1.780523e+00    9.799432e-01   1.288589e-02
  1.782733e+00    9.519850e-01   1.268797e-02
  1.784944e+00    9.409597e-01   1.260136e-02
  1.787154e+00    9.364809e-01   1.255876e-02
  1.789364e+00    9.544350e-01   1.266594e-02
  1.791575e+00    9.594095e-01   1.268616e-02
  1.793785e+00    9.635473e-01   1.270081e-02
  1.795996e+00    9.318892e-01   1.247784e-02
  1.798206e+00    9.177142e-01   1.237005e-02
  1.800417e+00    9.167743e-01   1.235103e-02
  1.802627e+00    9.249173e-01   1.239377e-02
  1.804838e+00    8.924963e-01   1.216264e-02
  1.807048e+00    9.126894e-01   1.228656e-02
  1.809259e+00    9.228701e-01   1.234120e-02
  1.811469e+00    9.184683e-01   1.229666e-02
  1.813679e+00    9.115858e-01   1.223545e-02
  1.815890e+00    8.897127e-01   1.207309e-02
  1.818100e+00    8.784784e-01   1.198165e-02
  1.820311e+00    9.031156e-01   1.213367e-02
  1.822521e+00    8.857206e-01   1.200145e-02
  1.824732e+00    8.687600e-01   1.187134e-02
  1.826942e+00    8.842248e-01   1.196422e-02
  1.829153e+00    8.702423e-01   1.185766e-02
  1.831363e+00    8.749695e-01   1.187784e-02
  1.833574e+00    8.687992e-01   1.182429e-02
  1.835784e+00    8.975554e-01   1.200684e-02
  1.837994e+00    9.048042e-01   1.204333e-02
  1.840205e+00    8.865944e-01   1.191029e-02
  1.842415e+00    8.657085e-01   1.175744e-02
  1.844626e+00    8.534796e-01   1.166266e-02
  1.846836e+00    8.478361e-01   1.161273e-02
  1.849047e+00    8.484882e-01   1.160571e-02
  1.851257e+00    8.593521e-01   1.167023e-02
  1.853468e+00    8.559949e-01   1.163863e-02
  1.855678e+00    8.459868e-01   1.156161e-02
  1.857889e+00    8.411664e-01   1.152018e-02
  1.860099e+00    8.712145e-01   1.171544e-02
  1.862309e+00    8.642994e-01   1.166032e-02
  1.864520e+00    8.374389e-01   1.146922e-02
  1.866730e+00    8.573757e-01   1.159552e-02
  1.868941e+00    8.662049e-01   1.164407e-02
  1.871151e+00    8.392848e-01   1.145038e-02
  1.873362e+00    8.332188e-01   1.139770e-02
  1.875572e+00    8.412388e-01   1.144153e-02
  1.877783e+00    8.409212e-01   1.142800e-02
  1.879993e+00    8.522765e-01   1.149369e-02
  1.882204e+00    8.578057e-01   1.151995e-02
  1.884414e+00    8.302962e-01   1.132275e-02
  1.886624e+00    8.385770e-01   1.136800e-02
  1.888835e+00    8.688158e-01   1.156002e-02
  1.891045e+00    8.655968e-01   1.152755e-02
  1.893256e+00    8.313237e-01   1.128598e-02
  1.895466e+00    8.333465e-01   1.128856e-02
  1.897677e+00    8.260401e-01   1.122809e-02
  1.899887e+00    8.321406e-01   1.125853e-02
  1.902098e+00    8.220642e-01   1.117936e-02
  1.904308e+00    8.280065e-01   1.120913e-02
  1.906519e+00    8.245582e-01   1.117496e-02
  1.908729e+00    8.492119e-01   1.133007e-02
  1.910940e+00    8.341603e-01   1.121802e-02
  1.913150e+00    8.384670e-01   1.123629e-02
  1.915360e+00    8.301501e-01   1.116977e-02
  1.917571e+00    8.187796e-01   1.108215e-02
  1.919781e+00    8.239685e-01   1.110652e-02
  1.921992e+00    8.216766e-01   1.108042e-02
  1.924202e+00    8.253826e-01   1.109457e-02
  1.926413e+00    8.117762e-01   1.099248e-02
  1.928623e+00    8.252328e-01   1.107258e-02
  1.930834e+00    8.223758e-01   1.104293e-02
  1.933044e+00    7.963789e-01   1.085642e-02
  1.935255e+00    8.143064e-01   1.096755e-02
  1.937465e+00    8.267208e-01   1.104035e-02
  1.939675e+00    8.189759e-01   1.097758e-02
  1.941886e+00    8.090587e-01   1.090060e-02
  1.944096e+00    7.979076e-01   1.081507e-02
  1.946307e+00    8.106589e-01   1.089075e-02
  1.948517e+00    8.271610e-01   1.099041e-02
  1.950728e+00    8.062930e-01   1.084061e-02
  1.952938e+00    8.006226e-01   1.079232e-02
  1.955149e+00    7.857520e-01   1.068143e-02
  1.957359e+00    8.076442e-01   1.081911e-02
  1.959570e+00    8.078512e-01   1.080954e-02
  1.961780e+00    7.927425e-01   1.069806e-02
  1.963990e+00    7.992195e-01   1.073153e-02
  1.966201e+00    7.785367e-01   1.058176e-02
  1.968411e+00    7.874092e-01   1.063175e-02
  1.970622e+00    7.971078e-01   1.068686e-02
  1.972832e+00    8.010963e-01   1.070352e-02
  1.975043e+00    8.138852e-01   1.077840e-02
  1.977253e+00    7.957655e-01   1.064773e-02
  1.979464e+00    8.232471e-01   1.081972e-02
  1.981674e+00    8.296514e-01   1.085118e-02
  1.983885e+00    8.252534e-01   1.081208e-02
  1.986095e+00    8.135492e-01   1.072524e-02
  1.988305e+00    8.055460e-01   1.066228e-02
  1.990516e+00    8.053057e-01   1.065062e-02
  1.992726e+00    7.856819e-01   1.051033e-02
  1.994937e+00    7.842986e-01   1.049088e-02
  1.997147e+00    7.986511e-01   1.057659e-02
  1.999358e+00    7.586389e-01   1.029849e-02
  2.001568e+00    7.559780e-01   1.026971e-02
  2.003779e+00    7.846026e-01   1.045032e-02
  2.005989e+00    7.784425e-01   1.039715e-02
  2.008200e+00    7.794341e-01   1.039217e-02
  2.010410e+00    7.808015e-01   1.038945e-02
  2.012621e+00    7.795133e-01   1.036909e-02
  2.014831e+00    7.678345e-01   1.027965e-02
  2.017041e+00    7.570553e-01   1.019691e-02
  2.019252e+00    7.714891e-01   1.028366e-02
  2.021462e+00    7.721332e-01   1.027840e-02
  2.023673e+00    8.034111e-01   1.047488e-02
  2.025883e+00    8.134601e-01   1.053039e-02
  2.028094e+00    7.935005e-01   1.039055e-02
  2.030304e+00    7.796050e-01   1.028953e-02
  2.032515e+00    7.858629e-01   1.032128e-02
  2.034725e+00    7.820240e-01   1.028645e-02
  2.036936e+00    7.891028e-01   1.032339e-02
  2.039146e+00    7.757084e-01   1.022571e-02
  2.041356e+00    7.741501e-01   1.020567e-02
  2.043567e+00    7.988150e-01   1.035740e-02
  2.045777e+00    8.254432e-01   1.051895e-02
  2.047988e+00    8.301463e-01   1.053907e-02
  2.050198e+00    7.984148e-01   1.032700e-02
  2.052409e+00    7.793816e-01   1.019538e-02
  2.054619e+00    7.574443e-01   1.004346e-02
  2.056830e+00    7.709494e-01   1.012533e-02
  2.059040e+00    7.468358e-01   9.958241e-03
  2.061251e+00    7.501952e-01   9.973350e-03
  2.063461e+00    7.653378e-01   1.006581e-02
  2.065671e+00    7.606677e-01   1.002629e-02
  2.067882e+00    7.749372e-01   1.011072e-02
  2.070092e+00    7.638558e-01   1.002888e-02
  2.072303e+00    7.569740e-01   9.974405e-03
  2.074513e+00    7.757785e-01   1.008801e-02
  2.076724e+00    7.769179e-01   1.008577e-02
  2.078934e+00    7.608410e-01   9.971761e-03
  2.081145e+00    7.572455e-01   9.938992e-03
  2.083355e+00    7.591341e-01   9.942099e-03
  2.085566e+00    7.765453e-01   1.004633e-02
  2.087776e+00    7.842767e-01   1.008645e-02
  2.089986e+00    7.939727e-01   1.013949e-02
  2.092197e+00    7.789710e-01   1.003405e-02
  2.094407e+00    7.826372e-01   1.004811e-02
  2.096618e+00    7.685983e-01   9.948492e-03
  2.098828e+00    7.614859e-01   9.892874e-03
  2.101039e+00    7.355414e-01   9.713907e-03
  2.103249e+00    7.299974e-01   9.668529e-03
  2.105460e+00    7.349128e-01   9.692000e-03
  2.107670e+00    7.375228e-01   9.700400e-03
  2.109881e+00    7.312748e-01   9.650032e-03
  2.112091e+00    7.446300e-01   9.728660e-03
  2.114301e+00    7.380980e-01   9.677020e-03
  2.116512e+00    7.296917e-01   9.612939e-03
  2.118722e+00    7.149259e-01   9.506386e-03
  2.120933e+00    7.312428e-01   9.605327e-03
  2.123143e+00    7.369629e-01   9.633805e-03
  2.125354e+00    7.294922e-01   9.576264e-03
  2.127564e+00    7.033243e-01   9.394288e-03
  2.129775e+00    6.961393e-01   9.337557e-03
  2.131985e+00    7.116821e-01   9.432183e-03
  2.134196e+00    7.085781e-01   9.403042e-03
  2.136406e+00    7.158535e-01   9.442414e-03
  2.138617e+00    7.046235e-01   9.359648e-03
  2.140827e+00    7.134227e-01   9.434005e-03
  2.143037e+00    7.122155e-01   9.471673e-03
  2.145248e+00    7.038805e-01   9.438058e-03
  2.147458e+00    7.062417e-01   9.469014e-03
  2.149669e+00    7.185550e-01   9.563205e-03
  2.151879e+00    7.123095e-01   9.530840e-03
  2.154090e+00    7.067190e-01   9.500714e-03
  2.156300e+00    7.027442e-01   9.480564e-03
  2.158511e+00    6.972019e-01   9.448403e-03
  2.160721e+00    7.164820e-01   9.583030e-03
  2.162932e+00    7.154076e-01   9.579628e-03
  2.165142e+00    7.026037e-01   9.496570e-03
  2.167352e+00    6.805179e-01   9.348986e-03
  2.169563e+00    6.783801e-01   9.336208e-03
  2.171773e+00    6.971814e-01   9.467159e-03
  2.173984e+00    6.822963e-01   9.366956e-03
  2.176194e+00    6.867771e-01   9.398851e-03
  2.178405e+00    6.997889e-01   9.488166e-03
  2.180615e+00    6.927208e-01   9.440826e-03
  2.182826e+00    6.808906e-01   9.360528e-03
  2.185036e+00    6.828636e-01   9.374135e-03
  2.187247e+00    6.842472e-01   9.383572e-03
  2.189457e+00    6.933365e-01   9.445276e-03
  2.191667e+00    6.990179e-01   9.483733e-03
  2.193878e+00    6.855942e-01   9.391667e-03
  2.196088e+00    6.860881e-01   9.394347e-03
  2.198299e+00    6.854982e-01   9.389233e-03
  2.200509e+00    6.873972e-01   9.401159e-03
  2.202720e+00    6.906841e-01   9.422462e-03
  2.204930e+00    6.813905e-01   9.357598e-03
  2.207141e+00    7.033138e-01   9.505818e-03
  2.209351e+00    6.907482e-01   9.418622e-03
  2.211562e+00    7.102957e-01   9.549301e-03
  2.213772e+00    6.869267e-01   9.335013e-03
  2.215982e+00    6.886434e-01   9.302053e-03
  2.218193e+00    6.712058e-01   9.153978e-03
  2.220403e+00    6.926367e-01   9.274058e-03
  2.222614e+00    7.113803e-01   9.377176e-03
  2.224824e+00    6.903429e-01   9.217879e-03
  2.227035e+00    6.626437e-01   9.013749e-03
  2.229245e+00    6.692469e-01   9.041572e-03
  2.231456e+00    6.911817e-01   9.172732e-03
  2.233666e+00    6.790892e-01   9.076945e-03
  2.235877e+00    6.766583e-01   9.046362e-03
  2.238087e+00    6.658305e-01   8.960242e-03
  2.240298e+00    6.735396e-01   8.998148e-03
  2.242508e+00    6.736594e-01   8.983776e-03
  2.244718e+00    6.616510e-01   8.887618e-03
  2.246929e+00    6.737121e-01   8.953769e-03
  2.249139e+00    6.706436e-01   8.920955e-03
  2.251350e+00    6.729001e-01   8.924182e-03
  2.253560e+00    6.656935e-01   8.864726e-03
  2.255771e+00    6.690655e-01   8.875692e-03
  2.257981e+00    6.553268e-01   8.773008e-03
  2.260192e+00    6.633711e-01   8.815580e-03
  2.262402e+00    6.604194e-01   8.785141e-03
  2.264613e+00    6.594828e-01   8.768083e-03
  2.266823e+00    6.586174e-01   8.751984e-03
  2.269033e+00    6.550362e-01   8.717829e-03
  2.271244e+00    6.564401e-01   8.716837e-03
  2.273454e+00    6.370301e-01   8.576923e-03
  2.275665e+00    6.504415e-01   8.656530e-03
  2.277875e+00    6.563138e-01   8.685607e-03
  2.280086e+00    6.602311e-01   8.701468e-03
  2.282296e+00    6.619743e-01   8.703512e-03
  2.284507e+00    6.737375e-01   8.770264e-03
  2.286717e+00    6.560202e-01   8.644731e-03
  2.288928e+00    6.702790e-01   8.728190e-03
  2.291138e+00    6.607441e-01   8.656455e-03
  2.293348e+00    6.611052e-01   8.649219e-03
  2.295559e+00    6.777837e-01   8.748186e-03
  2.297769e+00    6.734681e-01   8.710906e-03
  2.299980e+00    6.667506e-01   8.657943e-03
  2.302190e+00    6.460807e-01   8.513602e-03
  2.304401e+00    6.384755e-01   8.454105e-03
  2.306611e+00    6.456321e-01   8.492216e-03
  2.308822e+00    6.521232e-01   8.526394e-03
  2.311032e+00    6.511936e-01   8.513873e-03
  2.313243e+00    6.555983e-01   8.536310e-03
  2.315453e+00    6.497782e-01   8.490768e-03
  2.317663e+00    6.563439e-01   8.524362e-03
  2.319874e+00    6.458319e-01   8.447094e-03
  2.322084e+00    6.521972e-01   8.479628e-03
  2.324295e+00    6.474349e-01   8.440359e-03
  2.326505e+00    6.500930e-01   8.448579e-03
  2.328716e+00    6.605039e-01   8.507298e-03
  2.330926e+00    6.526999e-01   8.448038e-03
  2.333137e+00    6.332474e-01   8.312876e-03
  2.335347e+00    6.412258e-01   8.356198e-03
  2.337558e+00    6.468160e-01   8.384281e-03
  2.339768e+00    6.401960e-01   8.332690e-03
  2.341979e+00    6.355611e-01   8.294134e-03
  2.344189e+00    6.464592e-01   8.356469e-03
  2.346399e+00    6.473832e-01   8.353894e-03
  2.348610e+00    6.307331e-01   8.237339e-03
  2.350820e+00    6.290370e-01   8.218099e-03
  2.353031e+00    6.319166e-01   8.228621e-03
  2.355241e+00    6.392743e-01   8.268300e-03
  2.357452e+00    6.311479e-01   8.207167e-03
  2.359662e+00    6.480743e-01   8.308140e-03
  2.361873e+00    6.350735e-01   8.216154e-03
  2.364083e+00    6.302722e-01   8.177034e-03
  2.366294e+00    6.173071e-01   8.084443e-03
  2.368504e+00    6.366677e-01   8.202098e-03
  2.370714e+00    6.305076e-01   8.154242e-03
  2.372925e+00    6.205742e-01   8.081740e-03
  2.375135e+00    6.060010e-01   7.978327e-03
  2.377346e+00    6.283267e-01   8.115990e-03
  2.379556e+00    6.265444e-01   8.096555e-03
  2.381767e+00    6.200038e-01   8.046336e-03
  2.383977e+00    6.168248e-01   8.017772e-03
  2.386188e+00    6.215561e-01   8.040520e-03
  2.388398e+00    6.228386e-01   8.040834e-03
  2.390609e+00    6.214437e-01   8.024078e-03
  2.392819e+00    6.203908e-01   8.009476e-03
  2.395029e+00    6.119637e-01   7.947258e-03
  2.397240e+00    6.010279e-01   7.868142e-03
  2.399450e+00    6.047113e-01   7.884455e-03
  2.401661e+00    6.078978e-01   7.897565e-03
  2.403871e+00    6.053987e-01   7.873578e-03
  2.406082e+00    6.241385e-01   7.986995e-03
  2.408292e+00    6.063161e-01   7.864363e-03
  2.410503e+00    6.129108e-01   7.899494e-03
  2.412713e+00    6.199032e-01   7.936561e-03
  2.414924e+00    6.132101e-01   7.886064e-03
  2.417134e+00    6.126670e-01   7.874877e-03
  2.419344e+00    6.184016e-01   7.904162e-03
  2.421555e+00    6.069930e-01   7.823367e-03
  2.423765e+00    5.902381e-01   7.707301e-03
  2.425976e+00    5.767541e-01   7.611091e-03
  2.428186e+00    5.871815e-01   7.672434e-03
  2.430397e+00    5.916846e-01   7.694347e-03
  2.432607e+00    5.950797e-01   7.709130e-03
  2.434818e+00    5.972160e-01   7.715399e-03
  2.437028e+00    5.881118e-01   7.649249e-03
  2.439239e+00    5.848440e-01   7.620372e-03
  2.441449e+00    5.933180e-01   7.668172e-03
  2.443659e+00    5.837085e-01   7.598533e-03
  2.445870e+00    5.853683e-01   7.621507e-03
  2.448080e+00    5.925474e-01   7.703208e-03
  2.450291e+00    5.698410e-01   7.570677e-03
  2.452501e+00    5.675904e-01   7.566779e-03
  2.454712e+00    5.671157e-01   7.572001e-03
  2.456922e+00    5.719396e-01   7.610762e-03
  2.459133e+00    5.692751e-01   7.598448e-03
  2.461343e+00    5.727785e-01   7.626185e-03
  2.463554e+00    5.709819e-01   7.617690e-03
  2.465764e+00    5.462546e-01   7.454030e-03
  2.467975e+00    5.533701e-01   7.504663e-03
  2.470185e+00    5.440954e-01   7.443753e-03
  2.472395e+00    5.376568e-01   7.400766e-03
  2.474606e+00    5.543923e-01   7.516617e-03
  2.476816e+00    5.562655e-01   7.530082e-03
  2.479027e+00    5.417159e-01   7.431749e-03
  2.481237e+00    5.460509e-01   7.461736e-03
  2.483448e+00    5.447952e-01   7.453434e-03
  2.485658e+00    5.560378e-01   7.529806e-03
  2.487869e+00    5.495846e-01   7.486028e-03
  2.490079e+00    5.453141e-01   7.456366e-03
  2.492290e+00    5.447311e-01   7.451941e-03
  2.494500e+00    5.443096e-01   7.448324e-03
  2.496710e+00    5.505575e-01   7.490239e-03
  2.498921e+00    5.331903e-01   7.370169e-03
  2.501131e+00    5.387795e-01   7.407743e-03
  2.503342e+00    5.254295e-01   7.314143e-03
  2.505552e+00    5.336728e-01   7.370144e-03
  2.507763e+00    5.525900e-01   7.498190e-03
  2.509973e+00    5.446955e-01   7.443036e-03
  2.512184e+00    5.331964e-01   7.362425e-03
  2.514394e+00    5.195488e-01   7.258295e-03
  2.516605e+00    5.104381e-01   7.148040e-03
  2.518815e+00    5.155277e-01   7.155526e-03
  2.521025e+00    5.375105e-01   7.285292e-03
  2.523236e+00    5.305367e-01   7.219836e-03
  2.525446e+00    5.232317e-01   7.154366e-03
  2.527657e+00    5.254933e-01   7.155214e-03
  2.529867e+00    5.273213e-01   7.153428e-03
  2.532078e+00    5.369657e-01   7.203350e-03
  2.534288e+00    5.174886e-01   7.057717e-03
  2.536499e+00    5.316631e-01   7.141689e-03
  2.538709e+00    5.283970e-01   7.108688e-03
  2.540920e+00    5.346355e-01   7.139785e-03
  2.543130e+00    5.288073e-01   7.090347e-03
  2.545340e+00    5.174812e-01   7.003999e-03
  2.547551e+00    5.279146e-01   7.064264e-03
  2.549761e+00    5.288787e-01   7.061068e-03
  2.551972e+00    5.265450e-01   7.036082e-03
  2.554182e+00    5.257310e-01   7.021419e-03
  2.556393e+00    5.179131e-01   6.959961e-03
  2.558603e+00    5.171845e-01   6.946006e-03
  2.560814e+00    5.094521e-01   6.885286e-03
  2.563024e+00    5.110636e-01   6.887643e-03
  2.565235e+00    5.068260e-01   6.849626e-03
  2.567445e+00    5.274310e-01   6.977841e-03
  2.569656e+00    5.382369e-01   7.039050e-03
  2.571866e+00    5.185626e-01   6.899825e-03
  2.574076e+00    5.149975e-01   6.866825e-03
  2.576287e+00    5.121138e-01   6.839262e-03
  2.578497e+00    5.163293e-01   6.859512e-03
  2.580708e+00    5.189782e-01   6.868978e-03
  2.582918e+00    5.181432e-01   6.855659e-03
  2.585129e+00    5.170588e-01   6.840719e-03
  2.587339e+00    5.135307e-01   6.809652e-03
  2.589550e+00    5.276010e-01   6.894652e-03
  2.591760e+00    5.241901e-01   6.864515e-03
  2.593971e+00    5.238746e-01   6.854823e-03
  2.596181e+00    5.131977e-01   6.778388e-03
  2.598391e+00    5.214041e-01   6.827117e-03
  2.600602e+00    5.111497e-01   6.753740e-03
  2.602812e+00    5.057622e-01   6.710533e-03
  2.605023e+00    5.115227e-01   6.741441e-03
  2.607233e+00    5.231848e-01   6.810629e-03
  2.609444e+00    5.046603e-01   6.681756e-03
  2.611654e+00    5.147783e-01   6.741021e-03
  2.613865e+00    5.050592e-01   6.670060e-03
  2.616075e+00    5.081419e-01   6.683229e-03
  2.618286e+00    5.048082e-01   6.654284e-03
  2.620496e+00    5.080179e-01   6.668670e-03
  2.622706e+00    5.142834e-01   6.703900e-03
  2.624917e+00    4.905840e-01   6.541820e-03
  2.627127e+00    5.159822e-01   6.703232e-03
  2.629338e+00    5.048651e-01   6.624641e-03
  2.631548e+00    5.013363e-01   6.595285e-03
  2.633759e+00    4.926129e-01   6.530581e-03
  2.635969e+00    4.980693e-01   6.559982e-03
  2.638180e+00    5.073035e-01   6.613482e-03
  2.640390e+00    5.127181e-01   6.642016e-03
  2.642601e+00    5.109244e-01   6.623652e-03
  2.644811e+00    5.132638e-01   6.631624e-03
  2.647021e+00    5.066136e-01   6.581941e-03
  2.649232e+00    4.923030e-01   6.481624e-03
  2.651442e+00    4.993746e-01   6.521502e-03
  2.653653e+00    5.009479e-01   6.524973e-03
  2.655863e+00    4.986080e-01   6.503018e-03
  2.658074e+00    5.059330e-01   6.543956e-03
  2.660284e+00    5.051770e-01   6.532662e-03
  2.662495e+00    4.964141e-01   6.469009e-03
  2.664705e+00    5.031481e-01   6.506117e-03
  2.666916e+00    5.022219e-01   6.493634e-03
  2.669126e+00    5.008695e-01   6.478399e-03
  2.671337e+00    5.034001e-01   6.488103e-03
  2.673547e+00    4.970976e-01   6.440980e-03
  2.675757e+00    4.923876e-01   6.403947e-03
  2.677968e+00    4.934772e-01   6.404515e-03
  2.680178e+00    5.028883e-01   6.458830e-03
  2.682389e+00    5.014695e-01   6.443273e-03
  2.684599e+00    5.030904e-01   6.447426e-03
  2.686810e+00    4.944492e-01   6.385194e-03
  2.689020e+00    4.914058e-01   6.359221e-03
  2.691231e+00    4.863050e-01   6.319872e-03
  2.693441e+00    4.959191e-01   6.375859e-03
  2.695652e+00    4.938618e-01   6.356072e-03
  2.697862e+00    4.974031e-01   6.372450e-03
  2.700072e+00    4.806542e-01   6.258210e-03
  2.702283e+00    4.733023e-01   6.204046e-03
  2.704493e+00    4.813650e-01   6.250413e-03
  2.706704e+00    4.997718e-01   6.362328e-03
  2.708914e+00    4.853809e-01   6.264119e-03
  2.711125e+00    4.850794e-01   6.255934e-03
  2.713335e+00    4.821497e-01   6.230947e-03
  2.715546e+00    4.991806e-01   6.333516e-03
  2.717756e+00    4.888932e-01   6.261997e-03
  2.719967e+00    4.867899e-01   6.242324e-03
  2.722177e+00    4.815632e-01   6.202587e-03
  2.724387e+00    4.890942e-01   6.244790e-03
  2.726598e+00    4.851014e-01   6.213191e-03
  2.728808e+00    4.787403e-01   6.166209e-03
  2.731019e+00    4.760906e-01   6.143055e-03
  2.733229e+00    4.821092e-01   6.175956e-03
  2.735440e+00    4.904939e-01   6.223124e-03
  2.737650e+00    4.932059e-01   6.234239e-03
  2.739861e+00    4.847055e-01   6.174212e-03
  2.742071e+00    4.763282e-01   6.114901e-03
  2.744282e+00    4.811321e-01   6.139429e-03
  2.746492e+00    4.834427e-01   6.148109e-03
  2.748702e+00    4.835501e-01   6.142884e-03
  2.750913e+00    4.803780e-01   6.116911e-03
  2.753123e+00    4.890650e-01   6.165807e-03
  2.755334e+00    4.803918e-01   6.104826e-03
  2.757544e+00    4.875526e-01   6.144364e-03
  2.759755e+00    4.877968e-01   6.139978e-03
  2.761965e+00    4.870605e-01   6.129330e-03
  2.764176e+00    4.708760e-01   6.020689e-03
  2.766386e+00    4.870494e-01   6.117383e-03
  2.768597e+00    4.876927e-01   6.115515e-03
  2.770807e+00    4.877938e-01   6.110219e-03
  2.773017e+00    4.701161e-01   5.992565e-03
  2.775228e+00    4.825454e-01   6.065442e-03
  2.777438e+00    4.847252e-01   6.073316e-03
  2.779649e+00    4.679859e-01   5.961682e-03
  2.781859e+00    4.819542e-01   6.044200e-03
  2.784070e+00    4.673862e-01   5.946366e-03
  2.786280e+00    4.747143e-01   5.987037e-03
  2.788491e+00    4.811076e-01   6.021358e-03
  2.790701e+00    4.846198e-01   6.037611e-03
  2.792912e+00    4.680961e-01   5.927873e-03
  2.795122e+00    4.695609e-01   5.931440e-03
  2.797333e+00    4.811116e-01   5.998355e-03
  2.799543e+00    4.882046e-01   6.036476e-03
  2.801753e+00    4.934907e-01   6.063109e-03
  2.803964e+00    4.763749e-01   5.951364e-03
  2.806174e+00    4.823904e-01   5.982628e-03
  2.808385e+00    4.754054e-01   5.932361e-03
  2.810595e+00    4.699918e-01   5.891648e-03
  2.812806e+00    4.666848e-01   5.864338e-03
  2.815016e+00    4.718152e-01   5.891730e-03
  2.817227e+00    4.819856e-01   5.981051e-03
  2.819437e+00    4.787181e-01   5.971895e-03
  2.821648e+00    4.752628e-01   5.952578e-03
  2.823858e+00    4.761944e-01   5.963767e-03
  2.826068e+00    4.767763e-01   5.972416e-03
  2.828279e+00    4.641551e-01   5.896841e-03
  2.830489e+00    4.720027e-01   5.949808e-03
  2.832700e+00    4.570995e-01   5.857648e-03
  2.834910e+00    4.753673e-01   5.975609e-03
  2.837121e+00    4.771704e-01   5.988667e-03
  2.839331e+00    4.797701e-01   6.006195e-03
  2.841542e+00    4.758560e-01   5.982673e-03
  2.843752e+00    4.596413e-01   5.880626e-03
  2.845963e+00    4.676667e-01   5.932147e-03
  2.848173e+00    4.565302e-01   5.861175e-03
  2.850383e+00    4.673322e-01   5.930389e-03
  2.852594e+00    4.753521e-01   5.980989e-03
  2.854804e+00    4.768245e-01   5.989732e-03
  2.857015e+00    4.737505e-01   5.969974e-03
  2.859225e+00    4.662824e-01   5.922467e-03
  2.861436e+00    4.643390e-01   5.909457e-03
  2.863646e+00    4.735586e-01   5.967876e-03
  2.865857e+00    4.625827e-01   5.898662e-03
  2.868067e+00    4.474926e-01   5.801865e-03
  2.870278e+00    4.630102e-01   5.901237e-03
  2.872488e+00    4.647854e-01   5.911381e-03
  2.874698e+00    4.576216e-01   5.864628e-03
  2.876909e+00    4.533735e-01   5.836021e-03
  2.879119e+00    4.604261e-01   5.879602e-03
  2.881330e+00    4.663582e-01   5.915903e-03
  2.883540e+00    4.656812e-01   5.910198e-03
  2.885751e+00    4.655508e-01   5.907736e-03
  2.887961e+00    4.516724e-01   5.817142e-03
  2.890172e+00    4.704168e-01   5.934996e-03
  2.892382e+00    4.728076e-01   5.948228e-03
  2.894593e+00    4.668073e-01   5.908560e-03
  2.896803e+00    4.630083e-01   5.882465e-03
  2.899014e+00    4.675055e-01   5.909030e-03
  2.901224e+00    4.654014e-01   5.893731e-03
  2.903434e+00    4.788394e-01   5.976212e-03
  2.905645e+00    4.607372e-01   5.859956e-03
  2.907855e+00    4.571950e-01   5.835280e-03
  2.910066e+00    4.595315e-01   5.848097e-03
  2.912276e+00    4.580577e-01   5.836579e-03
  2.914487e+00    4.775026e-01   5.956671e-03
  2.916697e+00    4.811294e-01   5.976985e-03
  2.918908e+00    4.619251e-01   5.854473e-03
  2.921118e+00    4.593967e-01   5.835722e-03
  2.923329e+00    4.595195e-01   5.834188e-03
  2.925539e+00    4.565197e-01   5.812832e-03
  2.927749e+00    4.633376e-01   5.853744e-03
  2.929960e+00    4.566585e-01   5.808629e-03
  2.932170e+00    4.682025e-01   5.879216e-03
  2.934381e+00    4.721141e-01   5.901274e-03
  2.936591e+00    4.578395e-01   5.808775e-03
  2.938802e+00    4.613381e-01   5.828213e-03
  2.941012e+00    4.652397e-01   5.850427e-03
  2.943223e+00    4.681143e-01   5.865756e-03
  2.945433e+00    4.670703e-01   5.855432e-03
  2.947644e+00    4.567978e-01   5.786534e-03
  2.949854e+00    4.663344e-01   5.842308e-03
  2.952064e+00    4.519240e-01   5.747130e-03
  2.954275e+00    4.493807e-01   5.726543e-03
  2.956485e+00    4.712787e-01   5.860136e-03
  2.958696e+00    4.661827e-01   5.823965e-03
  2.960906e+00    4.522787e-01   5.732274e-03
  2.963117e+00    4.654996e-01   5.810910e-03
  2.965327e+00    4.646738e-01   5.801824e-03
  2.967538e+00    4.602564e-01   5.771230e-03
  2.969748e+00    4.646035e-01   5.795582e-03
  2.971959e+00    4.742732e-01   5.852376e-03
  2.974169e+00    4.628302e-01   5.778744e-03
  2.976379e+00    4.544322e-01   5.723156e-03
  2.978590e+00    4.502899e-01   5.693897e-03
  2.980800e+00    4.477605e-01   5.675085e-03
  2.983011e+00    4.688116e-01   5.804117e-03
  2.985221e+00    4.610799e-01   5.752887e-03
  2.987432e+00    4.590035e-01   5.736798e-03
  2.989642e+00    4.533824e-01   5.698927e-03
  2.991853e+00    4.663270e-01   5.776383e-03
  2.994063e+00    4.624875e-01   5.749634e-03
  2.996274e+00    4.517704e-01   5.679452e-03
  2.998484e+00    4.487847e-01   5.657949e-03
  3.000694e+00    4.608701e-01   5.730152e-03
  3.002905e+00    4.548398e-01   5.689604e-03
  3.005115e+00    4.493725e-01   5.652339e-03
  3.007326e+00    4.612187e-01   5.723150e-03
  3.009536e+00    4.515078e-01   5.659374e-03
  3.011747e+00    4.541046e-01   5.672673e-03
  3.013957e+00    4.643281e-01   5.732971e-03
  3.016168e+00    4.587512e-01   5.695156e-03
  3.018378e+00    4.541426e-01   5.663430e-03
  3.020589e+00    4.691845e-01   5.753184e-03
  3.022799e+00    4.628600e-01   5.711086e-03
  3.025010e+00    4.650346e-01   5.721198e-03
  3.027220e+00    4.660714e-01   5.724420e-03
  3.029430e+00    4.557804e-01   5.657611e-03
  3.031641e+00    4.513439e-01   5.626863e-03
  3.033851e+00    4.563365e-01   5.654374e-03
  3.036062e+00    4.495877e-01   5.609630e-03
  3.038272e+00    4.419938e-01   5.558514e-03
  3.040483e+00    4.546488e-01   5.634288e-03
  3.042693e+00    4.656740e-01   5.698870e-03
  3.044904e+00    4.662797e-01   5.698503e-03
  3.047114e+00    4.542215e-01   5.619518e-03
  3.049325e+00    4.541518e-01   5.614661e-03
  3.051535e+00    4.495421e-01   5.581723e-03
  3.053745e+00    4.509236e-01   5.585519e-03
  3.055956e+00    4.519322e-01   5.587208e-03
  3.058166e+00    4.494787e-01   5.567742e-03
  3.060377e+00    4.521558e-01   5.579531e-03
  3.062587e+00    4.574277e-01   5.607284e-03
  3.064798e+00    4.541012e-01   5.582595e-03
  3.067008e+00    4.487579e-01   5.544923e-03
  3.069219e+00    4.612551e-01   5.617031e-03
  3.071429e+00    4.561150e-01   5.582122e-03
  3.073640e+00    4.379327e-01   5.466435e-03
  3.075850e+00    4.534957e-01   5.559123e-03
  3.078060e+00    4.488101e-01   5.527200e-03
  3.080271e+00    4.593633e-01   5.588314e-03
  3.082481e+00    4.619076e-01   5.600268e-03
  3.084692e+00    4.561113e-01   5.561608e-03
  3.086902e+00    4.596537e-01   5.579872e-03
  3.089113e+00    4.641783e-01   5.603644e-03
  3.091323e+00    4.645778e-01   5.602624e-03
  3.093534e+00    4.480040e-01   5.498393e-03
  3.095744e+00    4.494911e-01   5.504144e-03
  3.097955e+00    4.401763e-01   5.443294e-03
  3.100165e+00    4.460358e-01   5.476060e-03
  3.102375e+00    4.448428e-01   5.465321e-03
  3.104586e+00    4.523195e-01   5.507553e-03
  3.106796e+00    4.429218e-01   5.446532e-03
  3.109007e+00    4.479505e-01   5.474142e-03
  3.111217e+00    4.429792e-01   5.439994e-03
  3.113428e+00    4.573557e-01   5.524107e-03
  3.115638e+00    4.591737e-01   5.531796e-03
  3.117849e+00    4.599402e-01   5.532624e-03
  3.120059e+00    4.568512e-01   5.510518e-03
  3.122270e+00    4.536918e-01   5.488117e-03
  3.124480e+00    4.531951e-01   5.481419e-03
  3.126691e+00    4.476354e-01   5.444099e-03
  3.128901e+00    4.480669e-01   5.443600e-03
  3.131111e+00    4.430053e-01   5.408919e-03
  3.133322e+00    4.556131e-01   5.481860e-03
  3.135532e+00    4.506692e-01   5.448629e-03
  3.137743e+00    4.473355e-01   5.424919e-03
  3.139953e+00    4.459174e-01   5.412641e-03
  3.142164e+00    4.295974e-01   5.324502e-03
  3.144374e+00    4.446993e-01   5.445746e-03
  3.146585e+00    4.458717e-01   5.467552e-03
  3.148795e+00    4.403469e-01   5.444312e-03
  3.151006e+00    4.364932e-01   5.428958e-03
  3.153216e+00    4.315094e-01   5.404895e-03
  3.155426e+00    4.495027e-01   5.522826e-03
  3.157637e+00    4.474803e-01   5.515938e-03
  3.159847e+00    4.333797e-01   5.433185e-03
  3.162058e+00    4.395479e-01   5.476136e-03
  3.164268e+00    4.333023e-01   5.441123e-03
  3.166479e+00    4.294996e-01   5.420789e-03
  3.168689e+00    4.505872e-01   5.555696e-03
  3.170900e+00    4.493113e-01   5.551022e-03
  3.173110e+00    4.453972e-01   5.529697e-03
  3.175321e+00    4.403120e-01   5.500528e-03
  3.177531e+00    4.560575e-01   5.600809e-03
  3.179741e+00    4.520406e-01   5.578207e-03
  3.181952e+00    4.312942e-01   5.450786e-03
  3.184162e+00    4.408774e-01   5.513207e-03
  3.186373e+00    4.499972e-01   5.571561e-03
  3.188583e+00    4.410522e-01   5.517703e-03
  3.190794e+00    4.326434e-01   5.466610e-03
  3.193004e+00    4.273736e-01   5.434431e-03
  3.195215e+00    4.434986e-01   5.537509e-03
  3.197425e+00    4.473452e-01   5.562721e-03
  3.199636e+00    4.355373e-01   5.488038e-03
  3.201846e+00    4.428053e-01   5.533017e-03
  3.204056e+00    4.419563e-01   5.528625e-03
  3.206267e+00    4.417913e-01   5.528441e-03
  3.208477e+00    4.395121e-01   5.515087e-03
  3.210688e+00    4.394662e-01   5.515658e-03
  3.212898e+00    4.411294e-01   5.526665e-03
  3.215109e+00    4.334928e-01   5.479377e-03
  3.217319e+00    4.230662e-01   5.413709e-03
  3.219530e+00    4.279477e-01   5.445225e-03
  3.221740e+00    4.414241e-01   5.530876e-03
  3.223951e+00    4.340039e-01   5.484673e-03
  3.226161e+00    4.419565e-01   5.534873e-03
  3.228372e+00    4.383381e-01   5.512713e-03
  3.230582e+00    4.252587e-01   5.429978e-03
  3.232792e+00    4.424811e-01   5.539068e-03
  3.235003e+00    4.477657e-01   5.572288e-03
  3.237213e+00    4.411709e-01   5.531231e-03
  3.239424e+00    4.351652e-01   5.493434e-03
  3.241634e+00    4.362652e-01   5.500504e-03
  3.243845e+00    4.288405e-01   5.453572e-03
  3.246055e+00    4.303139e-01   5.462646e-03
  3.248266e+00    4.420083e-01   5.536588e-03
  3.250476e+00    4.185631e-01   5.387462e-03
  3.252687e+00    4.295421e-01   5.457550e-03
  3.254897e+00    4.448610e-01   5.553912e-03
  3.257107e+00    4.362106e-01   5.499328e-03
  3.259318e+00    4.383134e-01   5.512348e-03
  3.261528e+00    4.296260e-01   5.457307e-03
  3.263739e+00    4.217100e-01   5.406223e-03
  3.265949e+00    4.132859e-01   5.351846e-03
  3.268160e+00    4.217215e-01   5.405748e-03
  3.270370e+00    4.230830e-01   5.413996e-03
  3.272581e+00    4.219377e-01   5.406355e-03
  3.274791e+00    4.275258e-01   5.441517e-03
  3.277002e+00    4.310561e-01   5.463374e-03
  3.279212e+00    4.336666e-01   5.479516e-03
  3.281422e+00    4.311195e-01   5.462806e-03
  3.283633e+00    4.220083e-01   5.404104e-03
  3.285843e+00    4.421133e-01   5.530981e-03
  3.288054e+00    4.304059e-01   5.456327e-03
  3.290264e+00    4.195024e-01   5.386462e-03
  3.292475e+00    4.112271e-01   5.332225e-03
  3.294685e+00    4.310818e-01   5.458797e-03
  3.296896e+00    4.270464e-01   5.432443e-03
  3.299106e+00    4.267799e-01   5.430175e-03
  3.301317e+00    4.352399e-01   5.482695e-03
  3.303527e+00    4.257097e-01   5.421877e-03
  3.305737e+00    4.401736e-01   5.512138e-03
  3.307948e+00    4.248340e-01   5.414587e-03
  3.310158e+00    4.297620e-01   5.445012e-03
  3.312369e+00    4.193259e-01   5.377648e-03
  3.314579e+00    4.300460e-01   5.445008e-03
  3.316790e+00    4.204433e-01   5.383196e-03
  3.319000e+00    4.296131e-01   5.440353e-03
  3.321211e+00    4.443677e-01   5.532387e-03
  3.323421e+00    4.295636e-01   5.438238e-03
  3.325632e+00    4.310368e-01   5.446651e-03
  3.327842e+00    4.268295e-01   5.419081e-03
  3.330052e+00    4.388042e-01   5.493471e-03
  3.332263e+00    4.349873e-01   5.468521e-03
  3.334473e+00    4.214045e-01   5.381547e-03
  3.336684e+00    4.245040e-01   5.400025e-03
  3.338894e+00    4.242205e-01   5.397381e-03
  3.341105e+00    4.197970e-01   5.367951e-03
  3.343315e+00    4.248718e-01   5.399163e-03
  3.345526e+00    4.229436e-01   5.385993e-03
  3.347736e+00    4.212578e-01   5.373831e-03
  3.349947e+00    4.312650e-01   5.436336e-03
  3.352157e+00    4.263570e-01   5.404148e-03
  3.354368e+00    4.274968e-01   5.410045e-03
  3.356578e+00    4.357472e-01   5.460981e-03
  3.358788e+00    4.217348e-01   5.371109e-03
  3.360999e+00    4.219665e-01   5.371341e-03
  3.363209e+00    4.235516e-01   5.380388e-03
  3.365420e+00    4.331186e-01   5.439273e-03
  3.367630e+00    4.163906e-01   5.332198e-03
  3.369841e+00    4.237186e-01   5.377462e-03
  3.372051e+00    4.193862e-01   5.347918e-03
  3.374262e+00    4.213938e-01   5.358259e-03
  3.376472e+00    4.248910e-01   5.377965e-03
  3.378683e+00    4.275422e-01   5.392189e-03
  3.380893e+00    4.237013e-01   5.365547e-03
  3.383103e+00    4.203459e-01   5.341541e-03
  3.385314e+00    4.144140e-01   5.301498e-03
  3.387524e+00    4.113197e-01   5.278935e-03
  3.389735e+00    4.240415e-01   5.357287e-03
  3.391945e+00    4.230989e-01   5.347623e-03
  3.394156e+00    4.087727e-01   5.252112e-03
  3.396366e+00    4.123365e-01   5.271540e-03
  3.398577e+00    4.083483e-01   5.242943e-03
  3.400787e+00    4.034422e-01   5.223176e-03
  3.402998e+00    3.939728e-01   5.198804e-03
  3.405208e+00    4.026287e-01   5.276200e-03
  3.407418e+00    4.092422e-01   5.335290e-03
  3.409629e+00    4.062472e-01   5.329806e-03
  3.411839e+00    3.939887e-01   5.260466e-03
  3.414050e+00    3.914565e-01   5.254436e-03
  3.416260e+00    4.019900e-01   5.334418e-03
  3.418471e+00    4.018804e-01   5.343183e-03
  3.420681e+00    3.866203e-01   5.249214e-03
  3.422892e+00    3.752115e-01   5.179000e-03
  3.425102e+00    3.889094e-01   5.280495e-03
  3.427313e+00    3.867001e-01   5.272657e-03
  3.429523e+00    3.987773e-01   5.361522e-03
  3.431733e+00    3.780768e-01   5.227130e-03
  3.433944e+00    3.758026e-01   5.217773e-03
  3.436154e+00    3.738168e-01   5.210136e-03
  3.438365e+00    3.897826e-01   5.326236e-03
  3.440575e+00    3.813680e-01   5.274352e-03
  3.442786e+00    3.817469e-01   5.282607e-03
  3.444996e+00    3.890146e-01   5.338244e-03
  3.447207e+00    3.609462e-01   5.147267e-03
  3.449417e+00    3.603893e-01   5.183471e-03
  3.451628e+00    3.551911e-01   5.174825e-03
  3.453838e+00    3.724396e-01   5.320291e-03
  3.456049e+00    3.712938e-01   5.336156e-03
  3.458259e+00    3.771296e-01   5.400160e-03
  3.460469e+00    3.657730e-01   5.338036e-03
  3.462680e+00    3.533933e-01   5.265636e-03
  3.464890e+00    3.647439e-01   5.367245e-03
  3.467101e+00    3.735403e-01   5.449234e-03
  3.469311e+00    3.827962e-01   5.533119e-03
  3.471522e+00    4.001979e-01   5.674462e-03
  3.473732e+00    3.938515e-01   5.645562e-03
  3.475943e+00    3.945606e-01   5.666556e-03
  3.478153e+00    3.974394e-01   5.702837e-03
  3.480364e+00    4.116309e-01   5.819241e-03
  3.482574e+00    4.278219e-01   5.948393e-03
  3.484784e+00    4.352619e-01   6.015195e-03
  3.486995e+00    4.337246e-01   6.019978e-03
  3.489205e+00    4.366899e-01   6.055448e-03
  3.491416e+00    4.366944e-01   6.070530e-03
  3.493626e+00    4.377083e-01   6.092206e-03
  3.495837e+00    4.452062e-01   6.159044e-03
  3.498047e+00    4.357222e-01   6.107389e-03
  3.500258e+00    4.580834e-01   6.276819e-03
  3.502468e+00    4.615640e-01   6.315175e-03
  3.504679e+00    4.702215e-01   6.388767e-03
  3.506889e+00    4.831892e-01   6.490961e-03
  3.509099e+00    4.775047e-01   6.467142e-03
  3.511310e+00    4.689744e-01   6.423463e-03
  3.513520e+00    4.918135e-01   6.592535e-03
  3.515731e+00    4.924230e-01   6.611125e-03
  3.517941e+00    5.150483e-01   6.776028e-03
  3.520152e+00    5.106234e-01   6.761391e-03
  3.522362e+00    5.012426e-01   6.713502e-03
  3.524573e+00    5.174933e-01   6.835877e-03
  3.526783e+00    5.362046e-01   6.972037e-03
  3.528994e+00    5.298722e-01   6.943201e-03
  3.531204e+00    5.129625e-01   6.843832e-03
  3.533414e+00    5.222722e-01   6.917690e-03
  3.535625e+00    5.462232e-01   7.087131e-03
  3.537835e+00    5.411912e-01   7.066611e-03
  3.540046e+00    5.295328e-01   6.998981e-03
  3.542256e+00    5.290776e-01   7.003439e-03
  3.544467e+00    5.548089e-01   7.179481e-03
  3.546677e+00    5.585360e-01   7.211294e-03
  3.548888e+00    5.384661e-01   7.088074e-03
  3.551098e+00    5.488232e-01   7.163263e-03
  3.553309e+00    5.601882e-01   7.245412e-03
  3.555519e+00    5.562129e-01   7.231183e-03
  3.557729e+00    5.265477e-01   7.047311e-03
  3.559940e+00    5.207231e-01   7.019620e-03
  3.562150e+00    5.306504e-01   7.097836e-03
  3.564361e+00    5.485550e-01   7.230082e-03
  3.566571e+00    5.348054e-01   7.152703e-03
  3.568782e+00    5.533479e-01   7.289990e-03
  3.570992e+00    5.537586e-01   7.306673e-03
  3.573203e+00    5.407574e-01   7.234600e-03
  3.575413e+00    5.614929e-01   7.386086e-03
  3.577624e+00    5.458218e-01   7.296583e-03
  3.579834e+00    5.406363e-01   7.275721e-03
  3.582045e+00    5.492059e-01   7.347428e-03
  3.584255e+00    5.304517e-01   7.234833e-03
  3.586465e+00    5.319033e-01   7.258608e-03
  3.588676e+00    5.331082e-01   7.280966e-03
  3.590886e+00    5.592639e-01   7.471455e-03
  3.593097e+00    5.421726e-01   7.370997e-03
  3.595307e+00    5.407997e-01   7.375638e-03
  3.597518e+00    5.414112e-01   7.394119e-03
  3.599728e+00    5.566035e-01   7.511497e-03
  3.601939e+00    5.440321e-01   7.440371e-03
  3.604149e+00    5.561836e-01   7.537690e-03
  3.606360e+00    5.458535e-01   7.481626e-03
  3.608570e+00    5.557222e-01   7.563379e-03
  3.610780e+00    5.666081e-01   7.648516e-03
  3.612991e+00    5.507360e-01   7.550775e-03
  3.615201e+00    5.343056e-01   7.447074e-03
  3.617412e+00    5.500604e-01   7.563446e-03
  3.619622e+00    5.356629e-01   7.469767e-03
  3.621833e+00    5.552118e-01   7.611688e-03
  3.624043e+00    5.644435e-01   7.684479e-03
  3.626254e+00    5.427278e-01   7.545010e-03
  3.628464e+00    5.327397e-01   7.486212e-03
  3.630675e+00    5.375278e-01   7.533886e-03
  3.632885e+00    5.373082e-01   7.546931e-03
  3.635095e+00    5.216016e-01   7.449998e-03
  3.637306e+00    5.325398e-01   7.542025e-03
  3.639516e+00    5.452808e-01   7.646476e-03
  3.641727e+00    5.265620e-01   7.528531e-03
  3.643937e+00    5.269248e-01   7.545581e-03
  3.646148e+00    5.239815e-01   7.538952e-03
  3.648358e+00    5.413305e-01   7.677731e-03
  3.650569e+00    5.368700e-01   7.660822e-03
  3.652779e+00    5.281852e-01   7.613311e-03
  3.654990e+00    5.314779e-01   7.651878e-03
  3.657200e+00    5.513391e-01   7.808682e-03
  3.659410e+00    5.605812e-01   7.889234e-03
  3.661621e+00    5.357532e-01   7.727745e-03
  3.663831e+00    5.334716e-01   7.726359e-03
  3.666042e+00    5.490282e-01   7.853650e-03
  3.668252e+00    5.373979e-01   7.785327e-03
  3.670463e+00    5.503705e-01   7.894264e-03
  3.672673e+00    5.374990e-01   7.816912e-03
  3.674884e+00    5.120851e-01   7.645017e-03
  3.677094e+00    5.400779e-01   7.866806e-03
  3.679305e+00    5.363706e-01   7.855427e-03
  3.681515e+00    5.420172e-01   7.912468e-03
  3.683726e+00    5.310664e-01   7.847924e-03
  3.685936e+00    5.451574e-01   7.967325e-03
  3.688146e+00    5.374228e-01   7.926526e-03
  3.690357e+00    5.269884e-01   7.865115e-03
  3.692567e+00    5.273646e-01   7.884061e-03
  3.694778e+00    5.498989e-01   8.067124e-03
  3.696988e+00    5.503178e-01   8.086574e-03
  3.699199e+00    5.537909e-01   8.128688e-03
  3.701409e+00    5.454552e-01   8.084017e-03
  3.703620e+00    5.189452e-01   7.901309e-03
  3.705830e+00    5.175960e-01   7.907322e-03
  3.708041e+00    4.986120e-01   7.777189e-03
  3.710251e+00    5.329804e-01   8.057527e-03
  3.712461e+00    5.360047e-01   8.097379e-03
  3.714672e+00    5.331512e-01   8.092690e-03
  3.716882e+00    5.376627e-01   8.143825e-03
  3.719093e+00    5.436374e-01   8.206462e-03
  3.721303e+00    5.388935e-01   8.187873e-03
  3.723514e+00    5.412984e-01   8.223769e-03
  3.725724e+00    5.004428e-01   7.924175e-03
  3.727935e+00    5.213252e-01   8.105256e-03
  3.730145e+00    5.367219e-01   8.241798e-03
  3.732356e+00    5.251041e-01   8.169823e-03
  3.734566e+00    5.104942e-01   8.072795e-03
  3.736776e+00    5.142644e-01   8.120274e-03
  3.738987e+00    5.108309e-01   8.110836e-03
  3.741197e+00    5.327337e-01   8.301200e-03
  3.743408e+00    5.213255e-01   8.230059e-03
  3.745618e+00    5.255893e-01   8.282161e-03
  3.747829e+00    5.149129e-01   8.215777e-03
  3.750039e+00    5.213013e-01   8.285116e-03
  3.752250e+00    5.253891e-01   8.336320e-03
  3.754460e+00    5.188965e-01   8.303314e-03
  3.756671e+00    5.204791e-01   8.334973e-03
  3.758881e+00    5.129560e-01   8.293202e-03
  3.761091e+00    5.287919e-01   8.439834e-03
  3.763302e+00    4.989681e-01   8.217236e-03
  3.765512e+00    5.213399e-01   8.418914e-03
  3.767723e+00    5.317898e-01   8.522744e-03
  3.769933e+00    5.016290e-01   8.296786e-03
  3.772144e+00    4.994998e-01   8.298533e-03
  3.774354e+00    5.099124e-01   8.404572e-03
  3.776565e+00    4.965901e-01   8.313709e-03
  3.778775e+00    5.133994e-01   8.473360e-03
  3.780986e+00    5.421705e-01   8.728640e-03
  3.783196e+00    5.168712e-01   8.543081e-03
  3.785407e+00    5.287148e-01   8.661317e-03
  3.787617e+00    4.943687e-01   8.395898e-03
  3.789827e+00    5.042620e-01   8.499975e-03
  3.792038e+00    5.375313e-01   8.797518e-03
  3.794248e+00    5.231054e-01   8.700267e-03
  3.796459e+00    4.974153e-01   8.505216e-03
  3.798669e+00    4.964209e-01   8.517994e-03
  3.800880e+00    4.935575e-01   8.514694e-03
  3.803090e+00    5.018457e-01   8.607716e-03
  3.805301e+00    5.059286e-01   8.664886e-03
  3.807511e+00    5.269418e-01   8.865615e-03
  3.809722e+00    5.037216e-01   8.690370e-03
  3.811932e+00    5.006164e-01   8.685843e-03
  3.814142e+00    5.269231e-01   8.934539e-03
  3.816353e+00    5.197547e-01   8.896936e-03
  3.818563e+00    5.151280e-01   8.880723e-03
  3.820774e+00    4.989299e-01   8.763182e-03
  3.822984e+00    5.016083e-01   8.810047e-03
  3.825195e+00    5.099337e-01   8.906967e-03
  3.827405e+00    5.207649e-01   9.025411e-03
  3.829616e+00    5.105422e-01   8.960803e-03
  3.831826e+00    5.197319e-01   9.065775e-03
  3.834037e+00    5.087652e-01   8.994468e-03
  3.836247e+00    5.086253e-01   9.018151e-03
  3.838457e+00    4.930318e-01   8.903812e-03
  3.840668e+00    5.013036e-01   9.003482e-03
  3.842878e+00    5.279516e-01   9.266011e-03
  3.845089e+00    5.016724e-01   9.058211e-03
  3.847299e+00    5.165849e-01   9.218207e-03
  3.849510e+00    4.855632e-01   8.962708e-03
  3.851720e+00    4.990515e-01   9.107818e-03
  3.853931e+00    5.261150e-01   9.371078e-03
  3.856141e+00    5.131464e-01   9.274363e-03
  3.858352e+00    4.842622e-01   9.028522e-03
  3.860562e+00    4.977950e-01   9.173183e-03
  3.862772e+00    5.057159e-01   9.265670e-03
  3.864983e+00    5.147802e-01   9.368488e-03
  3.867193e+00    5.080084e-01   9.326680e-03
  3.869404e+00    4.981314e-01   9.255540e-03
  3.871614e+00    5.027220e-01   9.318144e-03
  3.873825e+00    5.011973e-01   9.324575e-03
  3.876035e+00    4.869172e-01   9.211182e-03
  3.878246e+00    5.020282e-01   9.379070e-03
  3.880456e+00    5.056576e-01   9.442259e-03
  3.882667e+00    4.842256e-01   9.269141e-03
  3.884877e+00    5.103884e-01   9.546501e-03
  3.887087e+00    4.970567e-01   9.451112e-03
  3.889298e+00    4.954966e-01   9.466750e-03
  3.891508e+00    5.318629e-01   9.839823e-03
  3.893719e+00    4.932952e-01   9.507413e-03
  3.895929e+00    4.759358e-01   9.369526e-03
  3.898140e+00    4.755032e-01   9.396557e-03
  3.900350e+00    4.848900e-01   9.520710e-03
  3.902561e+00    5.033708e-01   9.733318e-03
  3.904771e+00    4.762100e-01   9.499445e-03
  3.906982e+00    4.981043e-01   9.748718e-03
  3.909192e+00    4.871054e-01   9.673981e-03
  3.911403e+00    5.151434e-01   9.983371e-03
  3.913613e+00    5.033537e-01   9.903247e-03
  3.915823e+00    4.803502e-01   9.708923e-03
  3.918034e+00    4.663103e-01   9.600375e-03
  3.920244e+00    4.812441e-01   9.788289e-03
  3.922455e+00    4.912847e-01   9.926126e-03
  3.924665e+00    4.770619e-01   9.817453e-03
  3.926876e+00    4.651356e-01   9.730114e-03
  3.929086e+00    4.854673e-01   9.977777e-03
  3.931297e+00    4.979766e-01   1.014073e-02
  3.933507e+00    4.847370e-01   1.003381e-02
  3.935718e+00    5.241569e-01   1.046368e-02
  3.937928e+00    4.763046e-01   1.000384e-02
  3.940138e+00    4.957916e-01   1.023580e-02
  3.942349e+00    5.313405e-01   1.062770e-02
  3.944559e+00    4.968320e-01   1.030713e-02
  3.946770e+00    4.839553e-01   1.020277e-02
  3.948980e+00    4.959017e-01   1.035893e-02
  3.951191e+00    4.877890e-01   1.030472e-02
  3.953401e+00    5.124543e-01   1.059418e-02
  3.955612e+00    4.914881e-01   1.040705e-02
  3.957822e+00    5.034772e-01   1.056552e-02
  3.960033e+00    4.737209e-01   1.028073e-02
  3.962243e+00    4.979427e-01   1.057344e-02
  3.964453e+00    4.782876e-01   1.039564e-02
  3.966664e+00    5.273854e-01   1.095085e-02
  3.968874e+00    5.048107e-01   1.074303e-02
  3.971085e+00    4.902005e-01   1.060832e-02
  3.973295e+00    5.143320e-01   1.088846e-02
  3.975506e+00    4.812848e-01   1.055440e-02
  3.977716e+00    4.871776e-01   1.064069e-02
  3.979927e+00    5.089355e-01   1.089857e-02
  3.982137e+00    4.624695e-01   1.041084e-02
  3.984348e+00    5.034940e-01   1.088564e-02
  3.986558e+00    5.125831e-01   1.100655e-02
  3.988768e+00    4.862573e-01   1.074322e-02
  3.990979e+00    4.645204e-01   1.052253e-02
  3.993189e+00    4.640708e-01   1.054005e-02
  3.995400e+00    4.678050e-01   1.060543e-02
  3.997610e+00    5.097175e-01   1.110087e-02
  3.999821e+00    4.994304e-01   1.102651e-02
  4.002031e+00    4.786754e-01   1.083298e-02
  4.004242e+00    4.901567e-01   1.100086e-02
  4.006452e+00    5.199602e-01   1.137122e-02
  4.008663e+00    4.761738e-01   1.092154e-02
  4.010873e+00    4.827088e-01   1.103607e-02
  4.013084e+00    5.064389e-01   1.134598e-02
  4.015294e+00    4.711641e-01   1.098411e-02
  4.017504e+00    4.817937e-01   1.114905e-02
  4.019715e+00    4.934356e-01   1.132591e-02
  4.021925e+00    4.479850e-01   1.083297e-02
  4.024136e+00    4.785595e-01   1.124003e-02
  4.026346e+00    4.744563e-01   1.123546e-02
  4.028557e+00    4.737091e-01   1.127037e-02
  4.030767e+00    4.963216e-01   1.158246e-02
  4.032978e+00    4.921682e-01   1.158076e-02
  4.035188e+00    4.504226e-01   1.112325e-02
  4.037399e+00    4.910721e-01   1.166211e-02
  4.039609e+00    4.788837e-01   1.156418e-02
  4.041819e+00    4.580288e-01   1.135696e-02
  4.044030e+00    4.711271e-01   1.156748e-02
  4.046240e+00    4.715001e-01   1.162134e-02
  4.048451e+00    4.832394e-01   1.181602e-02
  4.050661e+00    4.717506e-01   1.172555e-02
  4.052872e+00    4.796242e-01   1.187559e-02
  4.055082e+00    4.796908e-01   1.192983e-02
  4.057293e+00    4.844387e-01   1.204247e-02
  4.059503e+00    4.696646e-01   1.191143e-02
  4.061714e+00    4.688869e-01   1.195721e-02
  4.063924e+00    4.897402e-01   1.227730e-02
  4.066134e+00    5.047808e-01   1.252331e-02
  4.068345e+00    4.876342e-01   1.236802e-02
  4.070555e+00    4.768100e-01   1.228895e-02
  4.072766e+00    4.618999e-01   1.215488e-02
  4.074976e+00    4.819090e-01   1.247717e-02
  4.077187e+00    5.232577e-01   1.306621e-02
  4.079397e+00    4.825885e-01   1.261218e-02
  4.081608e+00    4.810729e-01   1.265788e-02
  4.083818e+00    4.536920e-01   1.235630e-02
  4.086029e+00    5.048080e-01   1.310234e-02
  4.088239e+00    4.795071e-01   1.283894e-02
  4.090449e+00    4.780420e-01   1.288846e-02
  4.092660e+00    4.888480e-01   1.310517e-02
  4.094870e+00    4.917607e-01   1.321718e-02
  4.097081e+00    4.943859e-01   1.332517e-02
  4.099291e+00    4.750718e-01   1.311610e-02
  4.101502e+00    4.876255e-01   1.333808e-02
  4.103712e+00    4.670669e-01   1.310237e-02
  4.105923e+00    5.125189e-01   1.377819e-02
  4.108133e+00    4.888335e-01   1.350814e-02
  4.110344e+00    4.656788e-01   1.323473e-02
  4.112554e+00    5.208719e-01   1.405221e-02
  4.114764e+00    4.618298e-01   1.328522e-02
  4.116975e+00    4.550861e-01   1.323958e-02
  4.119185e+00    5.025281e-01   1.396924e-02
  4.121396e+00    5.235302e-01   1.431701e-02
  4.123606e+00    4.932390e-01   1.395364e-02
  4.125817e+00    4.805768e-01   1.383116e-02
  4.128027e+00    4.526837e-01   1.348029e-02
  4.130238e+00    5.132928e-01   1.441587e-02
  4.132448e+00    4.677320e-01   1.382092e-02
  4.134659e+00    5.162467e-01   1.458260e-02
  4.136869e+00    5.091066e-01   1.454590e-02
  4.139080e+00    5.091360e-01   1.461190e-02
  4.141290e+00    5.190862e-01   1.481925e-02
  4.143500e+00    4.982674e-01   1.458611e-02
  4.145711e+00    4.869700e-01   1.448739e-02
  4.147921e+00    4.504639e-01   1.399739e-02
  4.150132e+00    4.661085e-01   1.430637e-02
  4.152342e+00    4.802452e-01   1.459210e-02
  4.154553e+00    5.092155e-01   1.509724e-02
  4.156763e+00    5.055915e-01   1.511779e-02
  4.158974e+00    5.465863e-01   1.579776e-02
  4.161184e+00    5.580237e-01   1.604158e-02
  4.163395e+00    5.116960e-01   1.543955e-02
  4.165605e+00    4.907427e-01   1.519889e-02
  4.167815e+00    4.904775e-01   1.527389e-02
  4.170026e+00    4.922203e-01   1.538168e-02
  4.172236e+00    4.976824e-01   1.555041e-02
  4.174447e+00    4.950130e-01   1.559308e-02
  4.176657e+00    4.747329e-01   1.535367e-02
  4.178868e+00    4.910437e-01   1.570361e-02
  4.181078e+00    5.140254e-01   1.615755e-02
  4.183289e+00    4.639588e-01   1.543831e-02
  4.185499e+00    4.974675e-01   1.608025e-02
  4.187710e+00    4.938663e-01   1.611602e-02
  4.189920e+00    4.740933e-01   1.588504e-02
  4.192130e+00    4.977842e-01   1.637669e-02
  4.194341e+00    4.982705e-01   1.648503e-02
  4.196551e+00    4.932876e-01   1.650627e-02
  4.198762e+00    4.716566e-01   1.624295e-02
  4.200972e+00    4.361631e-01   1.572098e-02
  4.203183e+00    4.418884e-01   1.592793e-02
  4.205393e+00    4.568821e-01   1.630361e-02
  4.207604e+00    4.646843e-01   1.655476e-02
  4.209814e+00    4.688797e-01   1.674307e-02
  4.212025e+00    4.631316e-01   1.675819e-02
  4.214235e+00    4.788797e-01   1.716148e-02
  4.216445e+00    4.808576e-01   1.732118e-02
  4.218656e+00    5.062765e-01   1.790636e-02
  4.220866e+00    4.934180e-01   1.780846e-02
  4.223077e+00    4.409188e-01   1.696387e-02
  4.225287e+00    4.100032e-01   1.648694e-02
  4.227498e+00    4.863251e-01   1.809693e-02
  4.229708e+00    4.836206e-01   1.819306e-02
  4.231919e+00    4.584773e-01   1.786066e-02
  4.234129e+00    5.173019e-01   1.913039e-02
  4.236340e+00    5.038000e-01   1.904153e-02
  4.238550e+00    4.174720e-01   1.748608e-02
  4.240761e+00    5.127246e-01   1.954961e-02
  4.242971e+00    4.803034e-01   1.909486e-02
  4.245181e+00    4.723072e-01   1.911318e-02
  4.247392e+00    4.818752e-01   1.948617e-02
  4.249602e+00    4.934183e-01   1.991424e-02
  4.251813e+00    5.028739e-01   2.030220e-02
  4.254023e+00    4.646606e-01   1.971221e-02
  4.256234e+00    4.771880e-01   2.018945e-02
  4.258444e+00    5.431454e-01   2.176510e-02
  4.260655e+00    4.869729e-01   2.083550e-02
  4.262865e+00    4.865006e-01   2.106220e-02
  4.265076e+00    4.271007e-01   1.995819e-02
  4.267286e+00    4.891384e-01   2.161185e-02
  4.269496e+00    5.082279e-01   2.229902e-02
  4.271707e+00    4.307822e-01   2.078304e-02
  4.273917e+00    4.959987e-01   2.258905e-02
  4.276128e+00    5.199142e-01   2.343500e-02
  4.278338e+00    5.151517e-01   2.363834e-02
  4.280549e+00    5.206056e-01   2.410410e-02
  4.282759e+00    5.204883e-01   2.444807e-02
  4.284970e+00    4.954166e-01   2.420485e-02
  4.287180e+00    4.376201e-01   2.302163e-02
  4.289391e+00    4.552262e-01   2.365624e-02
  4.291601e+00    5.388956e-01   2.594486e-02
  4.293811e+00    5.390097e-01   2.614991e-02
  4.296022e+00    4.817340e-01   2.492037e-02
  4.298232e+00    4.362330e-01   2.391240e-02
  4.300443e+00    4.364434e-01   2.411668e-02
  4.302653e+00    4.770740e-01   2.543108e-02
  4.304864e+00    4.850243e-01   2.586543e-02
  4.307074e+00    4.036026e-01   2.380650e-02
  4.309285e+00    5.470167e-01   2.796618e-02
  4.311495e+00    4.796821e-01   2.643422e-02
  4.313706e+00    3.740775e-01   2.356326e-02
  4.315916e+00    4.980785e-01   2.745633e-02
  4.318126e+00    5.154177e-01   2.820745e-02
  4.320337e+00    4.172404e-01   2.563571e-02
  4.322547e+00    5.292193e-01   2.917692e-02
  4.324758e+00    5.505944e-01   3.007000e-02
  4.326968e+00    5.334839e-01   2.993317e-02
  4.329179e+00    5.076392e-01   2.951989e-02
  4.331389e+00    5.576721e-01   3.129803e-02
  4.333600e+00    3.494794e-01   2.507281e-02
  4.335810e+00    4.046742e-01   2.729903e-02
  4.338021e+00    5.157624e-01   3.121528e-02
  4.340231e+00    3.945120e-01   2.764345e-02
  4.342442e+00    4.907010e-01   3.124196e-02
  4.344652e+00    3.796288e-01   2.785425e-02
  4.346862e+00    4.219975e-01   2.977762e-02
  4.349073e+00    3.982717e-01   2.934943e-02
  4.351283e+00    3.940929e-01   2.963164e-02
  4.353494e+00    4.597354e-01   3.249752e-02
  4.355704e+00    4.385013e-01   3.225110e-02
  4.357915e+00    5.342730e-01   3.618981e-02
  4.360125e+00    4.855832e-01   3.509228e-02
  4.362336e+00    5.073475e-01   3.652183e-02
  4.364546e+00    5.033144e-01   3.704012e-02
  4.366757e+00    4.811057e-01   3.693339e-02
  4.368967e+00    3.997682e-01   3.433942e-02
  4.371177e+00    5.545954e-01   4.130358e-02
  4.373388e+00    6.563211e-01   4.593952e-02
  4.375598e+00    3.629037e-01   3.493904e-02
  4.377809e+00    4.604872e-01   4.035226e-02
  4.380019e+00    3.558199e-01   3.636481e-02
  4.382230e+00    3.248665e-01   3.571637e-02
  4.384440e+00    3.087689e-01   3.582052e-02
  4.386651e+00    4.160915e-01   4.286831e-02
  4.388861e+00    4.018700e-01   4.353803e-02
  4.391072e+00    4.894834e-01   4.974262e-02
  4.393282e+00    2.516320e-01   3.704334e-02
  4.395492e+00    2.866711e-01   4.118152e-02
  4.397703e+00    3.893345e-01   5.018254e-02
  4.399913e+00    6.531231e-01   6.829172e-02
  4.402124e+00    3.256834e-01   5.095894e-02
  4.404334e+00    1.787673e-01   4.013237e-02
  4.406545e+00    4.568368e-01   6.891694e-02
  4.408755e+00    4.509301e-01   7.427743e-02
  4.410966e+00    4.018573e-02   2.454077e-02
  4.413176e+00    5.055005e-01   9.850129e-02
  4.415387e+00   -4.435926e-01            nan
  4.417597e+00   -2.044852e+00            nan
  4.419807e+00   -3.766224e-01            nan
