# == pyFAI calibration ==
# Distance Sample to Detector: 0.216 m
# PONI: 1.166e-01, 1.308e-01 m
# Rotations: 0.000000 0.000000 0.000000 rad
# 
# == Fit2d calibration ==
# Distance Sample-beamCenter: 216.000 mm
# Center: x=1744.293, y=1555.000 pix
# Tilt: 0.000 deg  TiltPlanRot: 0.000 deg
# 
# Detector Eiger 9M	 PixelSize= 7.500e-05, 7.500e-05 m
#    Detector has a mask: True 
#    Detector has a dark current: False 
#    detector has a flat field: False 
# 
# Wavelength: 9.8e-11 m
# Mask applied: from detector
# Dark current applied: False
# Flat field applied: False
# Polarization factor: None
# Normalization factor: 1.0
# 
# Headers of the input frame:
# {
# "_array_data.header_convention": "SLS_1.0",
# "_array_data.header_contents": "# Detector: Dectris Eiger 9M, S/N E-18-0102\r\n# Pixel_size 75e-6 m x 75e-6 m\r\n# Silicon sensor, thickness 0.000450 m\r\n# Exposure_time 0.024997 s\r\n# Exposure_period 0.025000 s\r\n# Count_cutoff 62318 counts\r\n# Wavelength 0.980106 A\r\n# Detector_distance 0.215992 m\r\n# Beam_xy (1555, 1744) pixels\r\n# Start_angle 0.000000 deg.\r\n# Angle_increment 0.000000 deg.",
# "Content-Type": "application/octet-stream;",
# "conversions": "x-CBF_BYTE_OFFSET",
# "Content-Transfer-Encoding": "BINARY",
# "X-Binary-Size": "10166594",
# "X-Binary-ID": "1",
# "X-Binary-Element-Type": "signed 32-bit integer",
# "X-Binary-Element-Byte-Order": "LITTLE_ENDIAN",
# "Content-MD5": "qLzomEW5P4HGIvc6I1ItLQ==",
# "X-Binary-Number-of-Elements": "10166590",
# "X-Binary-Size-Fastest-Dimension": "3110",
# "X-Binary-Size-Second-Dimension": "3269",
# "X-Binary-Size-Padding": "4095"
# }
# --> H:/Proxima2a_2019-04-05/RAW_DATA/C5_gel17_position5/C5_mesh_1_data.cbf/C5_mesh_1_data.cbf000180.dat
#        q_A^-1              I           sigma 
  1.105228e-03    1.052113e+00   5.550323e-01
  3.315685e-03    1.797702e+00   4.410667e-01
  5.526141e-03    1.512974e+00   3.128872e-01
  7.736597e-03    1.520733e+00   2.650005e-01
  9.947054e-03    1.420766e+00   2.258072e-01
  1.215751e-02    1.061083e+00   1.764588e-01
  1.436797e-02    1.404058e+00   1.867103e-01
  1.657842e-02    1.350731e+00   1.704625e-01
  1.878888e-02    1.282870e+00   1.560468e-01
  2.099934e-02    1.324397e+00   1.500069e-01
  2.320979e-02    1.148165e+00   1.328419e-01
  2.542025e-02    1.278617e+00   1.339614e-01
  2.763070e-02    1.357494e+00   1.323912e-01
  2.984116e-02    1.482950e+00   1.331496e-01
  3.205162e-02    1.535317e+00   1.307330e-01
  3.426207e-02    1.550631e+00   1.270659e-01
  3.647253e-02    1.462734e+00   1.196114e-01
  3.868299e-02    1.570000e+00   1.203360e-01
  4.089344e-02    1.492698e+00   1.141213e-01
  4.310390e-02    1.422401e+00   1.085013e-01
  4.531436e-02    1.389224e+00   1.045808e-01
  4.752481e-02    1.379299e+00   1.017532e-01
  4.973527e-02    1.291641e+00   9.625487e-02
  5.194572e-02    1.331451e+00   9.562369e-02
  5.415618e-02    1.407210e+00   9.627602e-02
  5.636664e-02    1.407090e+00   9.436829e-02
  5.857709e-02    1.391069e+00   9.204259e-02
  6.078755e-02    1.292410e+00   8.708784e-02
  6.299801e-02    1.362361e+00   8.782991e-02
  6.520846e-02    1.321011e+00   8.500881e-02
  6.741892e-02    1.272448e+00   8.204834e-02
  6.962938e-02    1.448350e+00   8.613963e-02
  7.183983e-02    1.475916e+00   8.560576e-02
  7.405029e-02    1.448130e+00   8.351895e-02
  7.626074e-02    1.532469e+00   8.466155e-02
  7.847120e-02    1.565272e+00   8.434686e-02
  8.068166e-02    1.466576e+00   8.051757e-02
  8.289211e-02    1.429831e+00   7.843484e-02
  8.510257e-02    1.403006e+00   7.667947e-02
  8.731303e-02    1.385674e+00   7.523073e-02
  8.952348e-02    1.334736e+00   7.291978e-02
  9.173394e-02    1.392789e+00   7.358283e-02
  9.394439e-02    1.486766e+00   7.512261e-02
  9.615485e-02    1.499735e+00   7.457562e-02
  9.836531e-02    1.513500e+00   7.406851e-02
  1.005758e-01    1.494052e+00   7.277836e-02
  1.027862e-01    1.538329e+00   7.304868e-02
  1.049967e-01    1.526851e+00   7.200428e-02
  1.072071e-01    1.524400e+00   7.120005e-02
  1.094176e-01    1.552312e+00   7.111837e-02
  1.116280e-01    1.495294e+00   6.910399e-02
  1.138385e-01    1.421915e+00   6.672829e-02
  1.160490e-01    1.504071e+00   6.797139e-02
  1.182594e-01    1.514520e+00   6.756516e-02
  1.204699e-01    1.498010e+00   6.657605e-02
  1.226803e-01    1.512513e+00   6.628939e-02
  1.248908e-01    1.481944e+00   6.503206e-02
  1.271012e-01    1.516353e+00   6.520689e-02
  1.293117e-01    1.527823e+00   6.489038e-02
  1.315222e-01    1.555873e+00   6.492925e-02
  1.337326e-01    1.633725e+00   6.598043e-02
  1.359431e-01    1.596991e+00   6.527261e-02
  1.381535e-01    1.535499e+00   6.486276e-02
  1.403640e-01    1.543838e+00   6.531945e-02
  1.425744e-01    1.629653e+00   6.721753e-02
  1.447849e-01    1.542368e+00   6.540772e-02
  1.469953e-01    1.534738e+00   6.520486e-02
  1.492058e-01    1.584093e+00   6.616803e-02
  1.514163e-01    1.512995e+00   6.455871e-02
  1.536267e-01    1.551758e+00   6.525284e-02
  1.558372e-01    1.576414e+00   6.562398e-02
  1.580476e-01    1.574166e+00   6.541806e-02
  1.602581e-01    1.554368e+00   6.484028e-02
  1.624685e-01    1.574580e+00   6.508180e-02
  1.646790e-01    1.659522e+00   6.662234e-02
  1.668895e-01    1.691727e+00   6.707143e-02
  1.690999e-01    1.747943e+00   6.797198e-02
  1.713104e-01    1.646561e+00   6.576661e-02
  1.735208e-01    1.671055e+00   6.604792e-02
  1.757313e-01    1.726435e+00   6.692301e-02
  1.779417e-01    1.894591e+00   6.987788e-02
  1.801522e-01    1.755646e+00   6.705251e-02
  1.823626e-01    1.800667e+00   6.768072e-02
  1.845731e-01    1.794190e+00   6.734006e-02
  1.867836e-01    1.836173e+00   6.789342e-02
  1.889940e-01    1.980420e+00   7.027942e-02
  1.912045e-01    1.943115e+00   6.938189e-02
  1.934149e-01    1.949246e+00   6.925868e-02
  1.956254e-01    1.945571e+00   6.896516e-02
  1.978358e-01    1.903372e+00   6.797937e-02
  2.000463e-01    2.035804e+00   7.007152e-02
  2.022568e-01    2.088681e+00   7.074277e-02
  2.044672e-01    2.057074e+00   6.996495e-02
  2.066777e-01    2.056815e+00   6.972834e-02
  2.088881e-01    1.921260e+00   6.717099e-02
  2.110986e-01    1.967333e+00   6.773848e-02
  2.133090e-01    1.947506e+00   6.717721e-02
  2.155195e-01    1.966537e+00   6.728072e-02
  2.177300e-01    1.925692e+00   6.605531e-02
  2.199404e-01    1.966901e+00   6.499925e-02
  2.221509e-01    1.933411e+00   6.338533e-02
  2.243613e-01    1.945259e+00   6.277323e-02
  2.265718e-01    2.038077e+00   6.354517e-02
  2.287822e-01    2.085982e+00   6.365135e-02
  2.309927e-01    2.117589e+00   6.354753e-02
  2.332031e-01    2.071521e+00   6.231458e-02
  2.354136e-01    2.060922e+00   6.165117e-02
  2.376241e-01    2.127904e+00   6.215880e-02
  2.398345e-01    2.047472e+00   6.052148e-02
  2.420450e-01    2.073857e+00   6.047486e-02
  2.442554e-01    2.084074e+00   6.020600e-02
  2.464659e-01    2.037828e+00   5.913458e-02
  2.486763e-01    2.065914e+00   5.914930e-02
  2.508868e-01    2.062445e+00   5.872679e-02
  2.530973e-01    2.121167e+00   5.918774e-02
  2.553077e-01    2.069385e+00   5.810620e-02
  2.575182e-01    2.097217e+00   5.814956e-02
  2.597286e-01    2.024016e+00   5.679364e-02
  2.619391e-01    2.060184e+00   5.696896e-02
  2.641495e-01    2.008338e+00   5.593624e-02
  2.663600e-01    1.959653e+00   5.495025e-02
  2.685704e-01    2.002957e+00   5.525291e-02
  2.707809e-01    2.031371e+00   5.534810e-02
  2.729914e-01    2.019415e+00   5.489739e-02
  2.752018e-01    1.984909e+00   5.414307e-02
  2.774123e-01    1.987670e+00   5.390395e-02
  2.796227e-01    1.985341e+00   5.360589e-02
  2.818332e-01    1.942282e+00   5.275688e-02
  2.840436e-01    1.898310e+00   5.190346e-02
  2.862541e-01    1.928682e+00   5.206552e-02
  2.884646e-01    1.960632e+00   5.224587e-02
  2.906750e-01    1.955750e+00   5.193338e-02
  2.928855e-01    2.001586e+00   5.229497e-02
  2.950959e-01    1.998091e+00   5.200930e-02
  2.973064e-01    1.884252e+00   5.027898e-02
  2.995168e-01    1.959058e+00   5.103512e-02
  3.017273e-01    1.953323e+00   5.073570e-02
  3.039377e-01    1.905808e+00   4.989540e-02
  3.061482e-01    1.865795e+00   4.915524e-02
  3.083587e-01    1.908007e+00   4.949303e-02
  3.105691e-01    1.870409e+00   4.879366e-02
  3.127796e-01    1.848195e+00   4.829914e-02
  3.149900e-01    1.891150e+00   4.865360e-02
  3.172005e-01    1.914160e+00   4.874856e-02
  3.194109e-01    1.806376e+00   4.716071e-02
  3.216214e-01    1.833575e+00   4.732053e-02
  3.238319e-01    1.851551e+00   4.736354e-02
  3.260423e-01    1.886892e+00   4.762296e-02
  3.282528e-01    1.868027e+00   4.719568e-02
  3.304632e-01    1.853818e+00   4.683371e-02
  3.326737e-01    1.771258e+00   4.560032e-02
  3.348841e-01    1.850902e+00   4.643349e-02
  3.370946e-01    1.806406e+00   4.569939e-02
  3.393050e-01    1.823664e+00   4.574323e-02
  3.415155e-01    1.813191e+00   4.544019e-02
  3.437260e-01    1.801660e+00   4.512758e-02
  3.459364e-01    1.844544e+00   4.549259e-02
  3.481469e-01    1.777967e+00   4.450103e-02
  3.503573e-01    1.740307e+00   4.386679e-02
  3.525678e-01    1.795663e+00   4.440020e-02
  3.547782e-01    1.800133e+00   4.429476e-02
  3.569887e-01    1.796250e+00   4.409019e-02
  3.591992e-01    1.796003e+00   4.393116e-02
  3.614096e-01    1.772803e+00   4.349516e-02
  3.636201e-01    1.814724e+00   4.385176e-02
  3.658305e-01    1.830713e+00   4.389430e-02
  3.680410e-01    1.807149e+00   4.346088e-02
  3.702514e-01    1.790687e+00   4.311701e-02
  3.724619e-01    1.696407e+00   4.182368e-02
  3.746724e-01    1.778494e+00   4.268074e-02
  3.768828e-01    1.731773e+00   4.197469e-02
  3.790933e-01    1.797095e+00   4.261965e-02
  3.813037e-01    1.789928e+00   4.239543e-02
  3.835142e-01    1.739728e+00   4.165941e-02
  3.857246e-01    1.747391e+00   4.161594e-02
  3.879351e-01    1.752140e+00   4.153757e-02
  3.901455e-01    1.757034e+00   4.146313e-02
  3.923560e-01    1.727129e+00   4.097809e-02
  3.945665e-01    1.764564e+00   4.128845e-02
  3.967769e-01    1.739153e+00   4.086173e-02
  3.989874e-01    1.756931e+00   4.094179e-02
  4.011978e-01    1.774648e+00   4.102117e-02
  4.034083e-01    1.780085e+00   4.095783e-02
  4.056187e-01    1.852690e+00   4.165604e-02
  4.078292e-01    1.796033e+00   4.089005e-02
  4.100397e-01    1.774984e+00   4.052561e-02
  4.122501e-01    1.781176e+00   4.047478e-02
  4.144606e-01    1.797108e+00   4.053484e-02
  4.166710e-01    1.783212e+00   4.025776e-02
  4.188815e-01    1.791817e+00   4.023556e-02
  4.210919e-01    1.783988e+00   4.002991e-02
  4.233024e-01    1.788454e+00   3.996209e-02
  4.255128e-01    1.730825e+00   3.919936e-02
  4.277233e-01    1.697493e+00   3.870850e-02
  4.299338e-01    1.813533e+00   3.989455e-02
  4.321442e-01    1.814193e+00   3.978767e-02
  4.343547e-01    1.798297e+00   3.950095e-02
  4.365651e-01    1.763668e+00   3.900764e-02
  4.387756e-01    1.710301e+00   3.830538e-02
  4.409860e-01    1.686131e+00   3.792837e-02
  4.431965e-01    1.705555e+00   3.804073e-02
  4.454070e-01    1.713761e+00   3.802605e-02
  4.476174e-01    1.708914e+00   3.786797e-02
  4.498279e-01    1.734358e+00   3.804503e-02
  4.520383e-01    1.748111e+00   3.809078e-02
  4.542488e-01    1.691321e+00   3.736593e-02
  4.564592e-01    1.673709e+00   3.707114e-02
  4.586697e-01    1.719102e+00   3.747075e-02
  4.608801e-01    1.693341e+00   3.708936e-02
  4.630906e-01    1.684207e+00   3.689123e-02
  4.653011e-01    1.707256e+00   3.704512e-02
  4.675115e-01    1.730589e+00   3.719919e-02
  4.697220e-01    1.690500e+00   3.666957e-02
  4.719324e-01    1.663211e+00   3.627829e-02
  4.741429e-01    1.649564e+00   3.603605e-02
  4.763533e-01    1.718873e+00   3.669102e-02
  4.785638e-01    1.660883e+00   3.597362e-02
  4.807743e-01    1.692578e+00   3.622288e-02
  4.829847e-01    1.717861e+00   3.640022e-02
  4.851952e-01    1.673136e+00   3.583239e-02
  4.874056e-01    1.604450e+00   3.500068e-02
  4.896161e-01    1.671181e+00   3.563253e-02
  4.918265e-01    1.667273e+00   3.550247e-02
  4.940370e-01    1.674451e+00   3.549097e-02
  4.962475e-01    1.651234e+00   3.515703e-02
  4.984579e-01    1.655694e+00   3.511770e-02
  5.006684e-01    1.705748e+00   3.555767e-02
  5.028788e-01    1.685881e+00   3.526434e-02
  5.050893e-01    1.655489e+00   3.486006e-02
  5.072997e-01    1.629939e+00   3.450645e-02
  5.095102e-01    1.688141e+00   3.503301e-02
  5.117206e-01    1.657415e+00   3.463021e-02
  5.139311e-01    1.679439e+00   3.477701e-02
  5.161416e-01    1.642022e+00   3.430619e-02
  5.183520e-01    1.635876e+00   3.416052e-02
  5.205625e-01    1.666448e+00   3.439749e-02
  5.227729e-01    1.662851e+00   3.428020e-02
  5.249834e-01    1.651208e+00   3.408070e-02
  5.271938e-01    1.669053e+00   3.418439e-02
  5.294043e-01    1.718630e+00   3.460832e-02
  5.316148e-01    1.707804e+00   3.442014e-02
  5.338252e-01    1.731759e+00   3.458149e-02
  5.360357e-01    1.738060e+00   3.456547e-02
  5.382461e-01    1.751902e+00   3.462439e-02
  5.404566e-01    1.715843e+00   3.418824e-02
  5.426670e-01    1.684122e+00   3.379441e-02
  5.448775e-01    1.726133e+00   3.413688e-02
  5.470879e-01    1.721910e+00   3.401908e-02
  5.492984e-01    1.725057e+00   3.397441e-02
  5.515089e-01    1.746819e+00   3.411224e-02
  5.537193e-01    1.748619e+00   3.405460e-02
  5.559298e-01    1.763051e+00   3.411984e-02
  5.581402e-01    1.795019e+00   3.435257e-02
  5.603507e-01    1.771535e+00   3.405285e-02
  5.625611e-01    1.779426e+00   3.405453e-02
  5.647716e-01    1.757764e+00   3.377314e-02
  5.669821e-01    1.766768e+00   3.378651e-02
  5.691925e-01    1.751146e+00   3.356463e-02
  5.714030e-01    1.699093e+00   3.299151e-02
  5.736134e-01    1.705357e+00   3.298197e-02
  5.758239e-01    1.699586e+00   3.285584e-02
  5.780343e-01    1.683098e+00   3.262692e-02
  5.802448e-01    1.673031e+00   3.246110e-02
  5.824552e-01    1.641373e+00   3.208505e-02
  5.846657e-01    1.618049e+00   3.178986e-02
  5.868762e-01    1.611997e+00   3.166429e-02
  5.890866e-01    1.655896e+00   3.202597e-02
  5.912971e-01    1.629755e+00   3.170638e-02
  5.935075e-01    1.620446e+00   3.155037e-02
  5.957180e-01    1.634646e+00   3.162328e-02
  5.979284e-01    1.666730e+00   3.186693e-02
  6.001389e-01    1.620334e+00   3.135630e-02
  6.023494e-01    1.607360e+00   3.116709e-02
  6.045598e-01    1.590401e+00   3.093913e-02
  6.067703e-01    1.611924e+00   3.108511e-02
  6.089807e-01    1.666160e+00   3.154023e-02
  6.111912e-01    1.609021e+00   3.093280e-02
  6.134016e-01    1.622607e+00   3.100115e-02
  6.156121e-01    1.648870e+00   3.118892e-02
  6.178226e-01    1.663378e+00   3.126382e-02
  6.200330e-01    1.660149e+00   3.117183e-02
  6.222435e-01    1.684701e+00   3.133929e-02
  6.244539e-01    1.662144e+00   3.106782e-02
  6.266644e-01    1.670270e+00   3.108292e-02
  6.288748e-01    1.671173e+00   3.103081e-02
  6.310853e-01    1.682347e+00   3.107392e-02
  6.332957e-01    1.738885e+00   3.153076e-02
  6.355062e-01    1.705324e+00   3.116435e-02
  6.377167e-01    1.711912e+00   3.116458e-02
  6.399271e-01    1.688387e+00   3.089040e-02
  6.421376e-01    1.649777e+00   3.047688e-02
  6.443480e-01    1.624646e+00   3.018632e-02
  6.465585e-01    1.638592e+00   3.025817e-02
  6.487689e-01    1.645533e+00   3.026494e-02
  6.509794e-01    1.659599e+00   3.033668e-02
  6.531899e-01    1.667846e+00   3.035479e-02
  6.554003e-01    1.598784e+00   2.966380e-02
  6.576108e-01    1.593671e+00   2.956117e-02
  6.598212e-01    1.579749e+00   2.937711e-02
  6.620317e-01    1.557223e+00   2.911283e-02
  6.642421e-01    1.566937e+00   2.914946e-02
  6.664526e-01    1.597028e+00   2.937380e-02
  6.686630e-01    1.588228e+00   2.923860e-02
  6.708735e-01    1.603796e+00   2.932765e-02
  6.730840e-01    1.617040e+00   2.939482e-02
  6.752944e-01    1.581738e+00   2.901930e-02
  6.775049e-01    1.606120e+00   2.918902e-02
  6.797153e-01    1.562422e+00   2.873708e-02
  6.819258e-01    1.596402e+00   2.899549e-02
  6.841362e-01    1.623251e+00   2.918574e-02
  6.863467e-01    1.582895e+00   2.876903e-02
  6.885572e-01    1.611575e+00   2.897648e-02
  6.907676e-01    1.548654e+00   2.835429e-02
  6.929781e-01    1.549835e+00   2.831466e-02
  6.951885e-01    1.580960e+00   2.854692e-02
  6.973990e-01    1.602674e+00   2.869148e-02
  6.996094e-01    1.595363e+00   2.857561e-02
  7.018199e-01    1.576587e+00   2.835709e-02
  7.040303e-01    1.557142e+00   2.813219e-02
  7.062408e-01    1.546225e+00   2.798428e-02
  7.084513e-01    1.582606e+00   2.826234e-02
  7.106617e-01    1.587903e+00   2.826040e-02
  7.128722e-01    1.581603e+00   2.815551e-02
  7.150826e-01    1.548089e+00   2.780757e-02
  7.172931e-01    1.603326e+00   2.825053e-02
  7.195035e-01    1.584221e+00   2.803345e-02
  7.217140e-01    1.574344e+00   2.799537e-02
  7.239245e-01    1.587077e+00   2.833597e-02
  7.261349e-01    1.563288e+00   2.823104e-02
  7.283454e-01    1.591610e+00   2.855840e-02
  7.305558e-01    1.563070e+00   2.835500e-02
  7.327663e-01    1.545619e+00   2.823836e-02
  7.349767e-01    1.570633e+00   2.848230e-02
  7.371872e-01    1.538302e+00   2.817659e-02
  7.393976e-01    1.529033e+00   2.807749e-02
  7.416081e-01    1.546236e+00   2.821899e-02
  7.438186e-01    1.576697e+00   2.835117e-02
  7.460290e-01    1.535923e+00   2.769160e-02
  7.482395e-01    1.528246e+00   2.745368e-02
  7.504499e-01    1.530620e+00   2.734062e-02
  7.526604e-01    1.556670e+00   2.745643e-02
  7.548708e-01    1.536612e+00   2.719063e-02
  7.570813e-01    1.536700e+00   2.714106e-02
  7.592918e-01    1.548826e+00   2.721304e-02
  7.615022e-01    1.511835e+00   2.685300e-02
  7.637127e-01    1.504599e+00   2.675660e-02
  7.659231e-01    1.562143e+00   2.723158e-02
  7.681336e-01    1.542551e+00   2.702902e-02
  7.703440e-01    1.517231e+00   2.677561e-02
  7.725545e-01    1.580282e+00   2.729535e-02
  7.747650e-01    1.599496e+00   2.742231e-02
  7.769754e-01    1.567738e+00   2.709613e-02
  7.791859e-01    1.531195e+00   2.672574e-02
  7.813963e-01    1.550756e+00   2.684377e-02
  7.836068e-01    1.603701e+00   2.724587e-02
  7.858172e-01    1.594305e+00   2.711516e-02
  7.880277e-01    1.581831e+00   2.695748e-02
  7.902381e-01    1.593441e+00   2.700707e-02
  7.924486e-01    1.581891e+00   2.685917e-02
  7.946591e-01    1.565574e+00   2.667251e-02
  7.968695e-01    1.592380e+00   2.685176e-02
  7.990800e-01    1.608168e+00   2.693633e-02
  8.012904e-01    1.600215e+00   2.682317e-02
  8.035009e-01    1.593857e+00   2.672219e-02
  8.057113e-01    1.602254e+00   2.674616e-02
  8.079218e-01    1.607943e+00   2.674735e-02
  8.101323e-01    1.644975e+00   2.700768e-02
  8.123427e-01    1.640250e+00   2.692288e-02
  8.145532e-01    1.641247e+00   2.688498e-02
  8.167636e-01    1.634131e+00   2.678152e-02
  8.189741e-01    1.665444e+00   2.699183e-02
  8.211845e-01    1.653228e+00   2.684758e-02
  8.233950e-01    1.627749e+00   2.659659e-02
  8.256054e-01    1.599070e+00   2.631754e-02
  8.278159e-01    1.613233e+00   2.639019e-02
  8.300264e-01    1.654463e+00   2.668199e-02
  8.322368e-01    1.647986e+00   2.658649e-02
  8.344473e-01    1.642665e+00   2.650010e-02
  8.366577e-01    1.635913e+00   2.640305e-02
  8.388682e-01    1.647379e+00   2.645305e-02
  8.410786e-01    1.639526e+00   2.634788e-02
  8.432891e-01    1.623485e+00   2.617700e-02
  8.454996e-01    1.641283e+00   2.627845e-02
  8.477100e-01    1.611231e+00   2.599544e-02
  8.499205e-01    1.612568e+00   2.596538e-02
  8.521309e-01    1.597252e+00   2.580149e-02
  8.543414e-01    1.614221e+00   2.589769e-02
  8.565518e-01    1.619930e+00   2.590309e-02
  8.587623e-01    1.614797e+00   2.582174e-02
  8.609727e-01    1.563671e+00   2.537029e-02
  8.631832e-01    1.571670e+00   2.539586e-02
  8.653937e-01    1.572223e+00   2.536130e-02
  8.676041e-01    1.574325e+00   2.533997e-02
  8.698146e-01    1.546826e+00   2.507928e-02
  8.720250e-01    1.548823e+00   2.505722e-02
  8.742355e-01    1.562973e+00   2.513310e-02
  8.764459e-01    1.554440e+00   2.502617e-02
  8.786564e-01    1.546748e+00   2.492695e-02
  8.808669e-01    1.599678e+00   2.531143e-02
  8.830773e-01    1.576272e+00   2.508776e-02
  8.852878e-01    1.572544e+00   2.502050e-02
  8.874982e-01    1.563197e+00   2.490982e-02
  8.897087e-01    1.541073e+00   2.469597e-02
  8.919191e-01    1.548436e+00   2.471773e-02
  8.941296e-01    1.589848e+00   2.500893e-02
  8.963401e-01    1.579133e+00   2.488832e-02
  8.985505e-01    1.615606e+00   2.513697e-02
  9.007610e-01    1.608693e+00   2.504627e-02
  9.029714e-01    1.657193e+00   2.538458e-02
  9.051819e-01    1.609068e+00   2.497595e-02
  9.073923e-01    1.575992e+00   2.468162e-02
  9.096028e-01    1.546954e+00   2.441882e-02
  9.118132e-01    1.578616e+00   2.463150e-02
  9.140237e-01    1.567969e+00   2.451203e-02
  9.162342e-01    1.558850e+00   2.440653e-02
  9.184446e-01    1.580327e+00   2.453854e-02
  9.206551e-01    1.590906e+00   2.458506e-02
  9.228655e-01    1.564269e+00   2.434351e-02
  9.250760e-01    1.601417e+00   2.459553e-02
  9.272864e-01    1.591489e+00   2.448503e-02
  9.294969e-01    1.593656e+00   2.446599e-02
  9.317074e-01    1.593819e+00   2.443265e-02
  9.339178e-01    1.618414e+00   2.458683e-02
  9.361283e-01    1.618918e+00   2.455440e-02
  9.383387e-01    1.649440e+00   2.475108e-02
  9.405492e-01    1.669420e+00   2.486577e-02
  9.427596e-01    1.645586e+00   2.465210e-02
  9.449701e-01    1.630799e+00   2.450773e-02
  9.471805e-01    1.660691e+00   2.469629e-02
  9.493910e-01    1.660882e+00   2.466381e-02
  9.516015e-01    1.686866e+00   2.482130e-02
  9.538119e-01    1.709819e+00   2.495535e-02
  9.560224e-01    1.728394e+00   2.505521e-02
  9.582328e-01    1.698748e+00   2.480610e-02
  9.604433e-01    1.719220e+00   2.491977e-02
  9.626537e-01    1.725428e+00   2.493117e-02
  9.648642e-01    1.723254e+00   2.488131e-02
  9.670747e-01    1.762527e+00   2.512855e-02
  9.692851e-01    1.762095e+00   2.509207e-02
  9.714956e-01    1.812136e+00   2.540998e-02
  9.737060e-01    1.862964e+00   2.573002e-02
  9.759165e-01    1.884795e+00   2.584387e-02
  9.781269e-01    1.864057e+00   2.566768e-02
  9.803374e-01    1.842056e+00   2.548046e-02
  9.825478e-01    1.843221e+00   2.545489e-02
  9.847583e-01    1.796963e+00   2.509933e-02
  9.869688e-01    1.776124e+00   2.491996e-02
  9.891792e-01    1.779255e+00   2.490877e-02
  9.913897e-01    1.755448e+00   2.470818e-02
  9.936001e-01    1.720220e+00   2.442698e-02
  9.958106e-01    1.709898e+00   2.432049e-02
  9.980210e-01    1.658570e+00   2.392160e-02
  1.000231e+00    1.607020e+00   2.367590e-02
  1.002442e+00    1.609448e+00   2.381965e-02
  1.004652e+00    1.620815e+00   2.397032e-02
  1.006863e+00    1.582150e+00   2.373183e-02
  1.009073e+00    1.566557e+00   2.365072e-02
  1.011284e+00    1.588095e+00   2.384460e-02
  1.013494e+00    1.537546e+00   2.348532e-02
  1.015705e+00    1.540703e+00   2.353162e-02
  1.017915e+00    1.520105e+00   2.338990e-02
  1.020126e+00    1.551517e+00   2.364630e-02
  1.022336e+00    1.529798e+00   2.349180e-02
  1.024547e+00    1.493545e+00   2.322276e-02
  1.026757e+00    1.545057e+00   2.362820e-02
  1.028967e+00    1.543580e+00   2.362461e-02
  1.031178e+00    1.496750e+00   2.326957e-02
  1.033388e+00    1.493188e+00   2.324682e-02
  1.035599e+00    1.533476e+00   2.356180e-02
  1.037809e+00    1.511770e+00   2.339770e-02
  1.040020e+00    1.495512e+00   2.327280e-02
  1.042230e+00    1.495444e+00   2.327418e-02
  1.044441e+00    1.536124e+00   2.358840e-02
  1.046651e+00    1.541105e+00   2.362680e-02
  1.048862e+00    1.484257e+00   2.318616e-02
  1.051072e+00    1.442749e+00   2.285733e-02
  1.053282e+00    1.424137e+00   2.270849e-02
  1.055493e+00    1.439237e+00   2.282433e-02
  1.057703e+00    1.422217e+00   2.268750e-02
  1.059914e+00    1.414892e+00   2.262484e-02
  1.062124e+00    1.409018e+00   2.257388e-02
  1.064335e+00    1.439440e+00   2.281288e-02
  1.066545e+00    1.466554e+00   2.302080e-02
  1.068756e+00    1.402384e+00   2.250788e-02
  1.070966e+00    1.395182e+00   2.244364e-02
  1.073177e+00    1.432115e+00   2.273280e-02
  1.075387e+00    1.412606e+00   2.257231e-02
  1.077597e+00    1.431342e+00   2.271433e-02
  1.079808e+00    1.451991e+00   2.274541e-02
  1.082018e+00    1.424933e+00   2.234589e-02
  1.084229e+00    1.411914e+00   2.213537e-02
  1.086439e+00    1.411645e+00   2.204713e-02
  1.088650e+00    1.395929e+00   2.184995e-02
  1.090860e+00    1.383341e+00   2.168523e-02
  1.093071e+00    1.433656e+00   2.201425e-02
  1.095281e+00    1.403032e+00   2.172151e-02
  1.097492e+00    1.394731e+00   2.160317e-02
  1.099702e+00    1.408778e+00   2.166087e-02
  1.101912e+00    1.383484e+00   2.141767e-02
  1.104123e+00    1.370839e+00   2.127242e-02
  1.106333e+00    1.396430e+00   2.142622e-02
  1.108544e+00    1.382185e+00   2.127314e-02
  1.110754e+00    1.377319e+00   2.119339e-02
  1.112965e+00    1.385584e+00   2.121686e-02
  1.115175e+00    1.391994e+00   2.122513e-02
  1.117386e+00    1.395258e+00   2.121100e-02
  1.119596e+00    1.372391e+00   2.099915e-02
  1.121807e+00    1.366615e+00   2.091666e-02
  1.124017e+00    1.409890e+00   2.120859e-02
  1.126228e+00    1.376703e+00   2.092209e-02
  1.128438e+00    1.371061e+00   2.084281e-02
  1.130648e+00    1.359714e+00   2.072254e-02
  1.132859e+00    1.393300e+00   2.094259e-02
  1.135069e+00    1.381589e+00   2.081982e-02
  1.137280e+00    1.364192e+00   2.065562e-02
  1.139490e+00    1.353733e+00   2.054363e-02
  1.141701e+00    1.350103e+00   2.048337e-02
  1.143911e+00    1.355569e+00   2.049324e-02
  1.146122e+00    1.368445e+00   2.055848e-02
  1.148332e+00    1.350226e+00   2.038962e-02
  1.150543e+00    1.356977e+00   2.040992e-02
  1.152753e+00    1.371514e+00   2.048817e-02
  1.154963e+00    1.356594e+00   2.034559e-02
  1.157174e+00    1.348863e+00   2.025763e-02
  1.159384e+00    1.335104e+00   2.012460e-02
  1.161595e+00    1.353276e+00   2.023143e-02
  1.163805e+00    1.354467e+00   2.021122e-02
  1.166016e+00    1.368251e+00   2.028437e-02
  1.168226e+00    1.352519e+00   2.013863e-02
  1.170437e+00    1.322565e+00   1.988620e-02
  1.172647e+00    1.353054e+00   2.008534e-02
  1.174858e+00    1.355406e+00   2.007480e-02
  1.177068e+00    1.349832e+00   2.000535e-02
  1.179278e+00    1.340709e+00   1.990929e-02
  1.181489e+00    1.360904e+00   2.003162e-02
  1.183699e+00    1.366632e+00   2.004611e-02
  1.185910e+00    1.352339e+00   1.991328e-02
  1.188120e+00    1.366609e+00   1.999129e-02
  1.190331e+00    1.330644e+00   1.969996e-02
  1.192541e+00    1.337309e+00   1.972202e-02
  1.194752e+00    1.359112e+00   1.985504e-02
  1.196962e+00    1.326985e+00   1.959346e-02
  1.199173e+00    1.324786e+00   1.955097e-02
  1.201383e+00    1.317027e+00   1.946681e-02
  1.203593e+00    1.312477e+00   1.940867e-02
  1.205804e+00    1.333137e+00   1.953510e-02
  1.208014e+00    1.311836e+00   1.935192e-02
  1.210225e+00    1.314426e+00   1.934603e-02
  1.212435e+00    1.300050e+00   1.921562e-02
  1.214646e+00    1.318336e+00   1.932448e-02
  1.216856e+00    1.321743e+00   1.932422e-02
  1.219067e+00    1.323218e+00   1.931079e-02
  1.221277e+00    1.309718e+00   1.918737e-02
  1.223488e+00    1.316828e+00   1.921396e-02
  1.225698e+00    1.323569e+00   1.923642e-02
  1.227909e+00    1.357461e+00   1.945092e-02
  1.230119e+00    1.345937e+00   1.933637e-02
  1.232329e+00    1.361674e+00   1.941823e-02
  1.234540e+00    1.358210e+00   1.936314e-02
  1.236750e+00    1.343010e+00   1.922431e-02
  1.238961e+00    1.334980e+00   1.913992e-02
  1.241171e+00    1.332519e+00   1.909825e-02
  1.243382e+00    1.302395e+00   1.885805e-02
  1.245592e+00    1.300846e+00   1.882316e-02
  1.247803e+00    1.322596e+00   1.895648e-02
  1.250013e+00    1.286978e+00   1.867647e-02
  1.252224e+00    1.329687e+00   1.896077e-02
  1.254434e+00    1.298028e+00   1.871041e-02
  1.256644e+00    1.314503e+00   1.880588e-02
  1.258855e+00    1.332727e+00   1.891266e-02
  1.261065e+00    1.327714e+00   1.885389e-02
  1.263276e+00    1.324358e+00   1.880731e-02
  1.265486e+00    1.330678e+00   1.882943e-02
  1.267697e+00    1.329497e+00   1.879823e-02
  1.269907e+00    1.335668e+00   1.881923e-02
  1.272118e+00    1.334880e+00   1.879124e-02
  1.274328e+00    1.332251e+00   1.875013e-02
  1.276539e+00    1.350317e+00   1.885406e-02
  1.278749e+00    1.315799e+00   1.858951e-02
  1.280959e+00    1.312682e+00   1.854525e-02
  1.283170e+00    1.319542e+00   1.857148e-02
  1.285380e+00    1.321735e+00   1.856467e-02
  1.287591e+00    1.345984e+00   1.871221e-02
  1.289801e+00    1.359231e+00   1.878277e-02
  1.292012e+00    1.359059e+00   1.876442e-02
  1.294222e+00    1.340779e+00   1.862163e-02
  1.296433e+00    1.339845e+00   1.859958e-02
  1.298643e+00    1.347476e+00   1.863604e-02
  1.300854e+00    1.326978e+00   1.847746e-02
  1.303064e+00    1.319487e+00   1.840623e-02
  1.305274e+00    1.344489e+00   1.855838e-02
  1.307485e+00    1.355652e+00   1.861370e-02
  1.309695e+00    1.350243e+00   1.855429e-02
  1.311906e+00    1.348711e+00   1.852206e-02
  1.314116e+00    1.343984e+00   1.846883e-02
  1.316327e+00    1.363626e+00   1.858148e-02
  1.318537e+00    1.349329e+00   1.846197e-02
  1.320748e+00    1.339535e+00   1.837335e-02
  1.322958e+00    1.331753e+00   1.829952e-02
  1.325169e+00    1.345873e+00   1.837530e-02
  1.327379e+00    1.350701e+00   1.838640e-02
  1.329589e+00    1.363392e+00   1.845142e-02
  1.331800e+00    1.363930e+00   1.843425e-02
  1.334010e+00    1.359868e+00   1.838604e-02
  1.336221e+00    1.354411e+00   1.832733e-02
  1.338431e+00    1.351153e+00   1.828440e-02
  1.340642e+00    1.375477e+00   1.851301e-02
  1.342852e+00    1.354560e+00   1.847257e-02
  1.345063e+00    1.324370e+00   1.831455e-02
  1.347273e+00    1.340711e+00   1.846231e-02
  1.349484e+00    1.369991e+00   1.869070e-02
  1.351694e+00    1.374025e+00   1.874114e-02
  1.353905e+00    1.341708e+00   1.853736e-02
  1.356115e+00    1.343760e+00   1.856652e-02
  1.358325e+00    1.341059e+00   1.856115e-02
  1.360536e+00    1.325504e+00   1.846469e-02
  1.362746e+00    1.329769e+00   1.850388e-02
  1.364957e+00    1.326241e+00   1.848689e-02
  1.367167e+00    1.357456e+00   1.871037e-02
  1.369378e+00    1.365418e+00   1.877125e-02
  1.371588e+00    1.297987e+00   1.830691e-02
  1.373799e+00    1.340186e+00   1.860576e-02
  1.376009e+00    1.348208e+00   1.866481e-02
  1.378220e+00    1.356115e+00   1.872196e-02
  1.380430e+00    1.377448e+00   1.887144e-02
  1.382640e+00    1.361221e+00   1.876086e-02
  1.384851e+00    1.376549e+00   1.886709e-02
  1.387061e+00    1.342612e+00   1.863338e-02
  1.389272e+00    1.332061e+00   1.856020e-02
  1.391482e+00    1.367331e+00   1.880363e-02
  1.393693e+00    1.356705e+00   1.872953e-02
  1.395903e+00    1.377028e+00   1.886773e-02
  1.398114e+00    1.370205e+00   1.881953e-02
  1.400324e+00    1.350251e+00   1.867980e-02
  1.402535e+00    1.331241e+00   1.854547e-02
  1.404745e+00    1.312856e+00   1.841458e-02
  1.406955e+00    1.301811e+00   1.833421e-02
  1.409166e+00    1.297353e+00   1.829947e-02
  1.411376e+00    1.281103e+00   1.818136e-02
  1.413587e+00    1.264267e+00   1.805769e-02
  1.415797e+00    1.288182e+00   1.822411e-02
  1.418008e+00    1.291000e+00   1.820183e-02
  1.420218e+00    1.222742e+00   1.756722e-02
  1.422429e+00    1.233753e+00   1.756200e-02
  1.424639e+00    1.270677e+00   1.775818e-02
  1.426850e+00    1.251400e+00   1.756867e-02
  1.429060e+00    1.241896e+00   1.745338e-02
  1.431270e+00    1.256494e+00   1.751159e-02
  1.433481e+00    1.237544e+00   1.733860e-02
  1.435691e+00    1.261072e+00   1.746435e-02
  1.437902e+00    1.286666e+00   1.760398e-02
  1.440112e+00    1.284976e+00   1.755688e-02
  1.442323e+00    1.288851e+00   1.755003e-02
  1.444533e+00    1.265782e+00   1.735977e-02
  1.446744e+00    1.268516e+00   1.734739e-02
  1.448954e+00    1.289128e+00   1.745733e-02
  1.451165e+00    1.283007e+00   1.738595e-02
  1.453375e+00    1.259348e+00   1.719697e-02
  1.455586e+00    1.246776e+00   1.708301e-02
  1.457796e+00    1.258113e+00   1.713310e-02
  1.460006e+00    1.279711e+00   1.725221e-02
  1.462217e+00    1.249664e+00   1.702245e-02
  1.464427e+00    1.264772e+00   1.709947e-02
  1.466638e+00    1.273670e+00   1.713415e-02
  1.468848e+00    1.285588e+00   1.718864e-02
  1.471059e+00    1.272203e+00   1.707380e-02
  1.473269e+00    1.254631e+00   1.693124e-02
  1.475480e+00    1.241822e+00   1.682108e-02
  1.477690e+00    1.258525e+00   1.691006e-02
  1.479901e+00    1.256472e+00   1.687256e-02
  1.482111e+00    1.245178e+00   1.677343e-02
  1.484321e+00    1.248793e+00   1.677481e-02
  1.486532e+00    1.245042e+00   1.672746e-02
  1.488742e+00    1.247604e+00   1.672215e-02
  1.490953e+00    1.252170e+00   1.673025e-02
  1.493163e+00    1.241983e+00   1.663995e-02
  1.495374e+00    1.261400e+00   1.674805e-02
  1.497584e+00    1.255383e+00   1.668647e-02
  1.499795e+00    1.244363e+00   1.659155e-02
  1.502005e+00    1.233135e+00   1.649508e-02
  1.504216e+00    1.215764e+00   1.635781e-02
  1.506426e+00    1.235648e+00   1.647040e-02
  1.508636e+00    1.232456e+00   1.642888e-02
  1.510847e+00    1.224914e+00   1.635698e-02
  1.513057e+00    1.223564e+00   1.632322e-02
  1.515268e+00    1.233297e+00   1.636249e-02
  1.517478e+00    1.237663e+00   1.636646e-02
  1.519689e+00    1.238382e+00   1.634641e-02
  1.521899e+00    1.255958e+00   1.643886e-02
  1.524110e+00    1.248586e+00   1.637025e-02
  1.526320e+00    1.243654e+00   1.631838e-02
  1.528531e+00    1.241299e+00   1.628323e-02
  1.530741e+00    1.261251e+00   1.639432e-02
  1.532951e+00    1.268627e+00   1.642247e-02
  1.535162e+00    1.262236e+00   1.646808e-02
  1.537372e+00    1.281806e+00   1.666304e-02
  1.539583e+00    1.296178e+00   1.679108e-02
  1.541793e+00    1.260669e+00   1.656648e-02
  1.544004e+00    1.268651e+00   1.661908e-02
  1.546214e+00    1.262491e+00   1.657718e-02
  1.548425e+00    1.247539e+00   1.647899e-02
  1.550635e+00    1.245569e+00   1.647564e-02
  1.552846e+00    1.244972e+00   1.648136e-02
  1.555056e+00    1.227999e+00   1.632741e-02
  1.557266e+00    1.261026e+00   1.643434e-02
  1.559477e+00    1.240467e+00   1.624081e-02
  1.561687e+00    1.259709e+00   1.633542e-02
  1.563898e+00    1.247034e+00   1.623587e-02
  1.566108e+00    1.219758e+00   1.604151e-02
  1.568319e+00    1.237797e+00   1.614412e-02
  1.570529e+00    1.233657e+00   1.609208e-02
  1.572740e+00    1.205924e+00   1.588298e-02
  1.574950e+00    1.230175e+00   1.601572e-02
  1.577161e+00    1.240278e+00   1.605593e-02
  1.579371e+00    1.219600e+00   1.589810e-02
  1.581582e+00    1.232730e+00   1.596377e-02
  1.583792e+00    1.230042e+00   1.592845e-02
  1.586002e+00    1.228350e+00   1.589998e-02
  1.588213e+00    1.226133e+00   1.586850e-02
  1.590423e+00    1.247023e+00   1.598302e-02
  1.592634e+00    1.244332e+00   1.594413e-02
  1.594844e+00    1.233165e+00   1.585112e-02
  1.597055e+00    1.212889e+00   1.570003e-02
  1.599265e+00    1.191894e+00   1.554325e-02
  1.601476e+00    1.215441e+00   1.567591e-02
  1.603686e+00    1.220159e+00   1.568671e-02
  1.605897e+00    1.233888e+00   1.575461e-02
  1.608107e+00    1.215032e+00   1.561438e-02
  1.610317e+00    1.207941e+00   1.554968e-02
  1.612528e+00    1.221291e+00   1.561628e-02
  1.614738e+00    1.240387e+00   1.571890e-02
  1.616949e+00    1.207778e+00   1.549208e-02
  1.619159e+00    1.190471e+00   1.536219e-02
  1.621370e+00    1.208883e+00   1.546215e-02
  1.623580e+00    1.208678e+00   1.544255e-02
  1.625791e+00    1.220567e+00   1.549996e-02
  1.628001e+00    1.237466e+00   1.558837e-02
  1.630212e+00    1.247285e+00   1.563194e-02
  1.632422e+00    1.242029e+00   1.558066e-02
  1.634632e+00    1.210956e+00   1.536702e-02
  1.636843e+00    1.187032e+00   1.519686e-02
  1.639053e+00    1.165198e+00   1.503921e-02
  1.641264e+00    1.161711e+00   1.499965e-02
  1.643474e+00    1.147460e+00   1.489008e-02
  1.645685e+00    1.156525e+00   1.493213e-02
  1.647895e+00    1.167915e+00   1.498880e-02
  1.650106e+00    1.147035e+00   1.483723e-02
  1.652316e+00    1.142606e+00   1.479213e-02
  1.654527e+00    1.109889e+00   1.456237e-02
  1.656737e+00    1.118007e+00   1.459911e-02
  1.658947e+00    1.124312e+00   1.462398e-02
  1.661158e+00    1.139641e+00   1.470700e-02
  1.663368e+00    1.107023e+00   1.447909e-02
  1.665579e+00    1.090589e+00   1.435528e-02
  1.667789e+00    1.071051e+00   1.421019e-02
  1.670000e+00    1.103219e+00   1.440660e-02
  1.672210e+00    1.069035e+00   1.416605e-02
  1.674421e+00    1.059812e+00   1.408980e-02
  1.676631e+00    1.070586e+00   1.414558e-02
  1.678842e+00    1.073466e+00   1.414901e-02
  1.681052e+00    1.055584e+00   1.401556e-02
  1.683263e+00    1.051384e+00   1.397277e-02
  1.685473e+00    1.051369e+00   1.395777e-02
  1.687683e+00    1.064599e+00   1.403000e-02
  1.689894e+00    1.067604e+00   1.403415e-02
  1.692104e+00    1.050250e+00   1.390487e-02
  1.694315e+00    1.051341e+00   1.389771e-02
  1.696525e+00    1.046497e+00   1.385070e-02
  1.698736e+00    1.036590e+00   1.377034e-02
  1.700946e+00    1.045902e+00   1.381702e-02
  1.703157e+00    1.056234e+00   1.387047e-02
  1.705367e+00    1.047683e+00   1.379976e-02
  1.707578e+00    1.019874e+00   1.360100e-02
  1.709788e+00    1.028015e+00   1.364119e-02
  1.711998e+00    9.938846e-01   1.339818e-02
  1.714209e+00    9.956205e-01   1.339572e-02
  1.716419e+00    1.007283e+00   1.345989e-02
  1.718630e+00    1.001207e+00   1.340517e-02
  1.720840e+00    1.017314e+00   1.349845e-02
  1.723051e+00    1.015187e+00   1.347054e-02
  1.725261e+00    1.008160e+00   1.340927e-02
  1.727472e+00    9.763654e-01   1.318223e-02
  1.729682e+00    9.842451e-01   1.322208e-02
  1.731893e+00    9.855738e-01   1.321726e-02
  1.734103e+00    9.771488e-01   1.314708e-02
  1.736313e+00    9.794787e-01   1.314893e-02
  1.738524e+00    9.625269e-01   1.302108e-02
  1.740734e+00    9.689283e-01   1.305081e-02
  1.742945e+00    9.707187e-01   1.304960e-02
  1.745155e+00    9.611727e-01   1.297204e-02
  1.747366e+00    9.614317e-01   1.296015e-02
  1.749576e+00    9.726124e-01   1.302172e-02
  1.751787e+00    9.598082e-01   1.292255e-02
  1.753997e+00    9.427155e-01   1.279384e-02
  1.756208e+00    9.365437e-01   1.273894e-02
  1.758418e+00    9.430254e-01   1.277005e-02
  1.760628e+00    9.383002e-01   1.272486e-02
  1.762839e+00    9.164792e-01   1.256315e-02
  1.765049e+00    9.271899e-01   1.262347e-02
  1.767260e+00    9.334422e-01   1.265333e-02
  1.769470e+00    9.241459e-01   1.257739e-02
  1.771681e+00    9.234935e-01   1.256002e-02
  1.773891e+00    9.281634e-01   1.257882e-02
  1.776102e+00    8.947081e-01   1.233755e-02
  1.778312e+00    9.226453e-01   1.251607e-02
  1.780523e+00    9.256496e-01   1.252385e-02
  1.782733e+00    9.062341e-01   1.237932e-02
  1.784944e+00    9.158859e-01   1.243233e-02
  1.787154e+00    9.185246e-01   1.243779e-02
  1.789364e+00    8.991605e-01   1.229372e-02
  1.791575e+00    8.841773e-01   1.217862e-02
  1.793785e+00    8.878158e-01   1.219147e-02
  1.795996e+00    9.234681e-01   1.242131e-02
  1.798206e+00    9.416453e-01   1.253031e-02
  1.800417e+00    9.107024e-01   1.231007e-02
  1.802627e+00    8.963980e-01   1.220120e-02
  1.804838e+00    8.706545e-01   1.201287e-02
  1.807048e+00    9.017658e-01   1.221283e-02
  1.809259e+00    8.921780e-01   1.213425e-02
  1.811469e+00    8.864123e-01   1.208017e-02
  1.813679e+00    8.827460e-01   1.204034e-02
  1.815890e+00    8.779301e-01   1.199287e-02
  1.818100e+00    8.658909e-01   1.189551e-02
  1.820311e+00    8.724167e-01   1.192567e-02
  1.822521e+00    8.674526e-01   1.187702e-02
  1.824732e+00    8.716245e-01   1.189090e-02
  1.826942e+00    8.530782e-01   1.175162e-02
  1.829153e+00    8.457379e-01   1.168952e-02
  1.831363e+00    8.619962e-01   1.178945e-02
  1.833574e+00    8.587621e-01   1.175580e-02
  1.835784e+00    8.538548e-01   1.171089e-02
  1.837994e+00    8.755538e-01   1.184707e-02
  1.840205e+00    8.703759e-01   1.180084e-02
  1.842415e+00    8.746709e-01   1.181814e-02
  1.844626e+00    8.532910e-01   1.166138e-02
  1.846836e+00    8.621607e-01   1.171041e-02
  1.849047e+00    8.580676e-01   1.167105e-02
  1.851257e+00    8.598328e-01   1.167347e-02
  1.853468e+00    8.644282e-01   1.169585e-02
  1.855678e+00    8.552403e-01   1.162465e-02
  1.857889e+00    8.535632e-01   1.160477e-02
  1.860099e+00    8.660597e-01   1.168074e-02
  1.862309e+00    8.511172e-01   1.157105e-02
  1.864520e+00    8.746419e-01   1.172120e-02
  1.866730e+00    8.575079e-01   1.159644e-02
  1.868941e+00    8.634622e-01   1.162561e-02
  1.871151e+00    8.418871e-01   1.146813e-02
  1.873362e+00    8.357630e-01   1.141508e-02
  1.875572e+00    8.505713e-01   1.150482e-02
  1.877783e+00    8.363984e-01   1.139723e-02
  1.879993e+00    8.485037e-01   1.146823e-02
  1.882204e+00    8.341605e-01   1.136007e-02
  1.884414e+00    8.426060e-01   1.140635e-02
  1.886624e+00    8.284796e-01   1.129939e-02
  1.888835e+00    8.210106e-01   1.123748e-02
  1.891045e+00    8.459229e-01   1.139578e-02
  1.893256e+00    8.158724e-01   1.118061e-02
  1.895466e+00    8.331183e-01   1.128700e-02
  1.897677e+00    8.371040e-01   1.130305e-02
  1.899887e+00    8.268749e-01   1.122284e-02
  1.902098e+00    8.223107e-01   1.118105e-02
  1.904308e+00    8.093413e-01   1.108206e-02
  1.906519e+00    8.124120e-01   1.109236e-02
  1.908729e+00    8.086803e-01   1.105637e-02
  1.910940e+00    8.050733e-01   1.102070e-02
  1.913150e+00    8.295498e-01   1.117637e-02
  1.915360e+00    8.172230e-01   1.108246e-02
  1.917571e+00    7.920044e-01   1.089946e-02
  1.919781e+00    8.148324e-01   1.104475e-02
  1.921992e+00    8.090816e-01   1.099519e-02
  1.924202e+00    7.986157e-01   1.091319e-02
  1.926413e+00    7.939418e-01   1.087105e-02
  1.928623e+00    7.995895e-01   1.089919e-02
  1.930834e+00    8.120760e-01   1.097355e-02
  1.933044e+00    7.880731e-01   1.079967e-02
  1.935255e+00    7.687932e-01   1.065665e-02
  1.937465e+00    7.769079e-01   1.070256e-02
  1.939675e+00    7.929494e-01   1.080174e-02
  1.941886e+00    7.846205e-01   1.073471e-02
  1.944096e+00    7.895516e-01   1.075828e-02
  1.946307e+00    7.992343e-01   1.081374e-02
  1.948517e+00    7.735400e-01   1.062823e-02
  1.950728e+00    7.724593e-01   1.061071e-02
  1.952938e+00    7.884572e-01   1.071000e-02
  1.955149e+00    7.939622e-01   1.073711e-02
  1.957359e+00    7.897467e-01   1.069856e-02
  1.959570e+00    7.857497e-01   1.066065e-02
  1.961780e+00    7.801712e-01   1.061291e-02
  1.963990e+00    7.764197e-01   1.057734e-02
  1.966201e+00    7.761956e-01   1.056584e-02
  1.968411e+00    7.789793e-01   1.057469e-02
  1.970622e+00    7.850726e-01   1.060589e-02
  1.972832e+00    7.809419e-01   1.056801e-02
  1.975043e+00    7.954297e-01   1.065550e-02
  1.977253e+00    7.814304e-01   1.055138e-02
  1.979464e+00    7.910224e-01   1.060587e-02
  1.981674e+00    7.680717e-01   1.044072e-02
  1.983885e+00    7.636974e-01   1.040103e-02
  1.986095e+00    7.553464e-01   1.033447e-02
  1.988305e+00    7.532265e-01   1.031021e-02
  1.990516e+00    7.645479e-01   1.037759e-02
  1.992726e+00    7.723366e-01   1.042067e-02
  1.994937e+00    7.719554e-01   1.040802e-02
  1.997147e+00    7.653729e-01   1.035389e-02
  1.999358e+00    7.589805e-01   1.030079e-02
  2.001568e+00    7.750078e-01   1.039816e-02
  2.003779e+00    7.728100e-01   1.037151e-02
  2.005989e+00    7.521256e-01   1.021989e-02
  2.008200e+00    7.622321e-01   1.027685e-02
  2.010410e+00    7.569464e-01   1.022951e-02
  2.012621e+00    7.623621e-01   1.025437e-02
  2.014831e+00    7.687761e-01   1.028595e-02
  2.017041e+00    7.594236e-01   1.021285e-02
  2.019252e+00    7.661473e-01   1.024801e-02
  2.021462e+00    7.548221e-01   1.016253e-02
  2.023673e+00    7.433773e-01   1.007596e-02
  2.025883e+00    7.220941e-01   9.921383e-03
  2.028094e+00    7.432758e-01   1.005633e-02
  2.030304e+00    7.580727e-01   1.014643e-02
  2.032515e+00    7.518522e-01   1.009547e-02
  2.034725e+00    7.642196e-01   1.016869e-02
  2.036936e+00    7.588994e-01   1.012389e-02
  2.039146e+00    7.378400e-01   9.972989e-03
  2.041356e+00    7.517515e-01   1.005695e-02
  2.043567e+00    7.444475e-01   9.998739e-03
  2.045777e+00    7.375062e-01   9.942880e-03
  2.047988e+00    7.266308e-01   9.860101e-03
  2.050198e+00    7.425740e-01   9.959295e-03
  2.052409e+00    7.652188e-01   1.010231e-02
  2.054619e+00    7.602864e-01   1.006229e-02
  2.056830e+00    7.558980e-01   1.002600e-02
  2.059040e+00    7.521092e-01   9.993322e-03
  2.061251e+00    7.700971e-01   1.010478e-02
  2.063461e+00    7.668289e-01   1.007563e-02
  2.065671e+00    7.372890e-01   9.871030e-03
  2.067882e+00    7.355209e-01   9.850224e-03
  2.070092e+00    7.453978e-01   9.906973e-03
  2.072303e+00    7.374553e-01   9.844969e-03
  2.074513e+00    7.188494e-01   9.710830e-03
  2.076724e+00    7.403710e-01   9.845666e-03
  2.078934e+00    7.348505e-01   9.799963e-03
  2.081145e+00    7.315478e-01   9.768900e-03
  2.083355e+00    7.260947e-01   9.723330e-03
  2.085566e+00    7.346628e-01   9.771679e-03
  2.087776e+00    7.250393e-01   9.698050e-03
  2.089986e+00    7.174726e-01   9.638647e-03
  2.092197e+00    7.325459e-01   9.730432e-03
  2.094407e+00    7.323833e-01   9.720175e-03
  2.096618e+00    7.213579e-01   9.637900e-03
  2.098828e+00    7.073609e-01   9.534819e-03
  2.101039e+00    7.018024e-01   9.488479e-03
  2.103249e+00    7.206711e-01   9.606570e-03
  2.105460e+00    7.304036e-01   9.662222e-03
  2.107670e+00    7.139815e-01   9.544336e-03
  2.109881e+00    7.042054e-01   9.469747e-03
  2.112091e+00    7.145935e-01   9.530419e-03
  2.114301e+00    7.164486e-01   9.534046e-03
  2.116512e+00    7.137533e-01   9.507370e-03
  2.118722e+00    7.041709e-01   9.434606e-03
  2.120933e+00    7.171089e-01   9.512055e-03
  2.123143e+00    7.040938e-01   9.416522e-03
  2.125354e+00    6.995979e-01   9.377990e-03
  2.127564e+00    6.870599e-01   9.285024e-03
  2.129775e+00    7.026927e-01   9.381415e-03
  2.131985e+00    7.022120e-01   9.369211e-03
  2.134196e+00    7.063627e-01   9.388328e-03
  2.136406e+00    7.004256e-01   9.340123e-03
  2.138617e+00    6.909673e-01   9.268493e-03
  2.140827e+00    6.944384e-01   9.307655e-03
  2.143037e+00    6.971409e-01   9.370888e-03
  2.145248e+00    6.858491e-01   9.316385e-03
  2.147458e+00    7.025109e-01   9.443983e-03
  2.149669e+00    6.716713e-01   9.245965e-03
  2.151879e+00    6.873932e-01   9.362642e-03
  2.154090e+00    7.059203e-01   9.495341e-03
  2.156300e+00    7.040992e-01   9.489702e-03
  2.158511e+00    7.027561e-01   9.485969e-03
  2.160721e+00    6.803989e-01   9.338608e-03
  2.162932e+00    6.916794e-01   9.419428e-03
  2.165142e+00    6.777301e-01   9.326941e-03
  2.167352e+00    6.808113e-01   9.350991e-03
  2.169563e+00    6.911444e-01   9.423646e-03
  2.171773e+00    6.870276e-01   9.397960e-03
  2.173984e+00    6.945879e-01   9.450948e-03
  2.176194e+00    6.930604e-01   9.441753e-03
  2.178405e+00    6.846252e-01   9.384830e-03
  2.180615e+00    6.740764e-01   9.312888e-03
  2.182826e+00    6.803945e-01   9.357131e-03
  2.185036e+00    6.705292e-01   9.289077e-03
  2.187247e+00    6.826529e-01   9.372634e-03
  2.189457e+00    6.774766e-01   9.336637e-03
  2.191667e+00    6.637749e-01   9.241567e-03
  2.193878e+00    6.564630e-01   9.189959e-03
  2.196088e+00    6.745173e-01   9.314796e-03
  2.198299e+00    6.832832e-01   9.374041e-03
  2.200509e+00    6.882854e-01   9.407241e-03
  2.202720e+00    6.683407e-01   9.268804e-03
  2.204930e+00    6.510232e-01   9.146710e-03
  2.207141e+00    6.613558e-01   9.217914e-03
  2.209351e+00    6.647268e-01   9.239503e-03
  2.211562e+00    6.613911e-01   9.214717e-03
  2.213772e+00    6.465760e-01   9.056685e-03
  2.215982e+00    6.650141e-01   9.141048e-03
  2.218193e+00    6.691098e-01   9.139678e-03
  2.220403e+00    6.713176e-01   9.130218e-03
  2.222614e+00    6.493245e-01   8.958873e-03
  2.224824e+00    6.501986e-01   8.945814e-03
  2.227035e+00    6.758984e-01   9.103435e-03
  2.229245e+00    6.677579e-01   9.031550e-03
  2.231456e+00    6.566148e-01   8.940400e-03
  2.233666e+00    6.680298e-01   9.002730e-03
  2.235877e+00    6.779343e-01   9.054881e-03
  2.238087e+00    6.636800e-01   8.945761e-03
  2.240298e+00    6.625109e-01   8.924188e-03
  2.242508e+00    6.635710e-01   8.916244e-03
  2.244718e+00    6.652271e-01   8.911598e-03
  2.246929e+00    6.623518e-01   8.877969e-03
  2.249139e+00    6.498359e-01   8.781471e-03
  2.251350e+00    6.437353e-01   8.728653e-03
  2.253560e+00    6.679384e-01   8.879634e-03
  2.255771e+00    6.738111e-01   8.907126e-03
  2.257981e+00    6.610363e-01   8.811146e-03
  2.260192e+00    6.514223e-01   8.735832e-03
  2.262402e+00    6.577928e-01   8.767635e-03
  2.264613e+00    6.552128e-01   8.739671e-03
  2.266823e+00    6.537814e-01   8.719788e-03
  2.269033e+00    6.565610e-01   8.727973e-03
  2.271244e+00    6.534964e-01   8.697262e-03
  2.273454e+00    6.678398e-01   8.781873e-03
  2.275665e+00    6.635404e-01   8.743274e-03
  2.277875e+00    6.682555e-01   8.764268e-03
  2.280086e+00    6.659657e-01   8.739177e-03
  2.282296e+00    6.501252e-01   8.625274e-03
  2.284507e+00    6.426283e-01   8.565391e-03
  2.286717e+00    6.486194e-01   8.595818e-03
  2.288928e+00    6.450304e-01   8.562242e-03
  2.291138e+00    6.337397e-01   8.477701e-03
  2.293348e+00    6.545014e-01   8.605920e-03
  2.295559e+00    6.549368e-01   8.599486e-03
  2.297769e+00    6.412453e-01   8.499960e-03
  2.299980e+00    6.530463e-01   8.568488e-03
  2.302190e+00    6.449136e-01   8.505904e-03
  2.304401e+00    6.399495e-01   8.463868e-03
  2.306611e+00    6.586678e-01   8.577502e-03
  2.308822e+00    6.492801e-01   8.507813e-03
  2.311032e+00    6.311698e-01   8.381949e-03
  2.313243e+00    6.276419e-01   8.352324e-03
  2.315453e+00    6.363382e-01   8.402491e-03
  2.317663e+00    6.343951e-01   8.380614e-03
  2.319874e+00    6.426974e-01   8.426579e-03
  2.322084e+00    6.463608e-01   8.441598e-03
  2.324295e+00    6.372845e-01   8.373933e-03
  2.326505e+00    6.229220e-01   8.270156e-03
  2.328716e+00    6.303963e-01   8.311125e-03
  2.330926e+00    6.336750e-01   8.324008e-03
  2.333137e+00    6.348326e-01   8.323263e-03
  2.335347e+00    6.409103e-01   8.354153e-03
  2.337558e+00    6.266054e-01   8.252247e-03
  2.339768e+00    6.300575e-01   8.266450e-03
  2.341979e+00    6.340674e-01   8.284372e-03
  2.344189e+00    6.265641e-01   8.226904e-03
  2.346399e+00    6.137146e-01   8.133738e-03
  2.348610e+00    6.437390e-01   8.321812e-03
  2.350820e+00    6.419449e-01   8.302012e-03
  2.353031e+00    6.160045e-01   8.124368e-03
  2.355241e+00    6.217195e-01   8.153968e-03
  2.357452e+00    6.403090e-01   8.266515e-03
  2.359662e+00    6.179256e-01   8.112611e-03
  2.361873e+00    6.232827e-01   8.139513e-03
  2.364083e+00    6.244516e-01   8.139181e-03
  2.366294e+00    6.210629e-01   8.109001e-03
  2.368504e+00    6.308725e-01   8.164689e-03
  2.370714e+00    6.147270e-01   8.051553e-03
  2.372925e+00    6.051832e-01   7.980893e-03
  2.375135e+00    5.996943e-01   7.936702e-03
  2.377346e+00    5.965081e-01   7.907834e-03
  2.379556e+00    6.097253e-01   7.987133e-03
  2.381767e+00    6.095435e-01   7.978168e-03
  2.383977e+00    6.023303e-01   7.923007e-03
  2.386188e+00    6.047538e-01   7.931106e-03
  2.388398e+00    6.063649e-01   7.933777e-03
  2.390609e+00    6.049064e-01   7.916596e-03
  2.392819e+00    5.888720e-01   7.803370e-03
  2.395029e+00    6.006708e-01   7.873570e-03
  2.397240e+00    5.994635e-01   7.857899e-03
  2.399450e+00    5.999135e-01   7.853122e-03
  2.401661e+00    5.919349e-01   7.793177e-03
  2.403871e+00    5.943530e-01   7.801422e-03
  2.406082e+00    6.094607e-01   7.892517e-03
  2.408292e+00    5.977640e-01   7.808712e-03
  2.410503e+00    5.935926e-01   7.774004e-03
  2.412713e+00    5.980512e-01   7.795419e-03
  2.414924e+00    6.013638e-01   7.809512e-03
  2.417134e+00    5.968208e-01   7.772388e-03
  2.419344e+00    5.924583e-01   7.736574e-03
  2.421555e+00    5.871967e-01   7.694740e-03
  2.423765e+00    5.837258e-01   7.664647e-03
  2.425976e+00    5.945875e-01   7.727866e-03
  2.428186e+00    5.843177e-01   7.653713e-03
  2.430397e+00    5.782664e-01   7.606613e-03
  2.432607e+00    5.768018e-01   7.589795e-03
  2.434818e+00    5.866642e-01   7.646946e-03
  2.437028e+00    5.868576e-01   7.641092e-03
  2.439239e+00    5.781410e-01   7.576562e-03
  2.441449e+00    6.003532e-01   7.713517e-03
  2.443659e+00    5.655206e-01   7.479212e-03
  2.445870e+00    5.635855e-01   7.478368e-03
  2.448080e+00    5.604990e-01   7.491990e-03
  2.450291e+00    5.762169e-01   7.612896e-03
  2.452501e+00    5.490709e-01   7.442332e-03
  2.454712e+00    5.495924e-01   7.454090e-03
  2.456922e+00    5.615422e-01   7.541264e-03
  2.459133e+00    5.566171e-01   7.513511e-03
  2.461343e+00    5.376441e-01   7.388580e-03
  2.463554e+00    5.487279e-01   7.467759e-03
  2.465764e+00    5.502036e-01   7.480917e-03
  2.467975e+00    5.401527e-01   7.414503e-03
  2.470185e+00    5.428784e-01   7.435414e-03
  2.472395e+00    5.334597e-01   7.371830e-03
  2.474606e+00    5.505518e-01   7.490547e-03
  2.476816e+00    5.323848e-01   7.366657e-03
  2.479027e+00    5.306503e-01   7.355473e-03
  2.481237e+00    5.409135e-01   7.426536e-03
  2.483448e+00    5.369571e-01   7.399627e-03
  2.485658e+00    5.460552e-01   7.461910e-03
  2.487869e+00    5.308681e-01   7.357466e-03
  2.490079e+00    5.202520e-01   7.282998e-03
  2.492290e+00    5.320178e-01   7.364468e-03
  2.494500e+00    5.230309e-01   7.301286e-03
  2.496710e+00    5.151844e-01   7.245625e-03
  2.498921e+00    5.246342e-01   7.310791e-03
  2.501131e+00    5.231957e-01   7.299825e-03
  2.503342e+00    5.195726e-01   7.273269e-03
  2.505552e+00    5.064390e-01   7.179623e-03
  2.507763e+00    5.076277e-01   7.186687e-03
  2.509973e+00    5.099466e-01   7.201688e-03
  2.512184e+00    5.161787e-01   7.243984e-03
  2.514394e+00    5.095110e-01   7.187827e-03
  2.516605e+00    5.198576e-01   7.213689e-03
  2.518815e+00    5.055426e-01   7.085898e-03
  2.521025e+00    5.081418e-01   7.083471e-03
  2.523236e+00    5.230041e-01   7.168387e-03
  2.525446e+00    5.173494e-01   7.114037e-03
  2.527657e+00    5.189838e-01   7.110765e-03
  2.529867e+00    5.087197e-01   7.026135e-03
  2.532078e+00    4.997289e-01   6.949095e-03
  2.534288e+00    5.193416e-01   7.070325e-03
  2.536499e+00    5.050215e-01   6.960475e-03
  2.538709e+00    5.071886e-01   6.964555e-03
  2.540920e+00    5.130680e-01   6.994289e-03
  2.543130e+00    5.091743e-01   6.957482e-03
  2.545340e+00    5.046932e-01   6.916910e-03
  2.547551e+00    5.145113e-01   6.974012e-03
  2.549761e+00    5.114920e-01   6.944041e-03
  2.551972e+00    4.956864e-01   6.826793e-03
  2.554182e+00    4.982692e-01   6.835571e-03
  2.556393e+00    5.112033e-01   6.914719e-03
  2.558603e+00    4.982434e-01   6.817632e-03
  2.560814e+00    5.029275e-01   6.841033e-03
  2.563024e+00    5.207490e-01   6.952612e-03
  2.565235e+00    5.068904e-01   6.850072e-03
  2.567445e+00    5.013185e-01   6.802930e-03
  2.569656e+00    4.948255e-01   6.749204e-03
  2.571866e+00    5.116732e-01   6.853824e-03
  2.574076e+00    5.116599e-01   6.844541e-03
  2.576287e+00    4.981464e-01   6.745366e-03
  2.578497e+00    4.962228e-01   6.724616e-03
  2.580708e+00    5.141435e-01   6.836909e-03
  2.582918e+00    4.961505e-01   6.708593e-03
  2.585129e+00    5.081074e-01   6.781234e-03
  2.587339e+00    5.070627e-01   6.766643e-03
  2.589550e+00    4.975665e-01   6.695539e-03
  2.591760e+00    4.998403e-01   6.703172e-03
  2.593971e+00    5.078664e-01   6.749275e-03
  2.596181e+00    5.064037e-01   6.733361e-03
  2.598391e+00    5.113211e-01   6.760786e-03
  2.600602e+00    5.083293e-01   6.735082e-03
  2.602812e+00    4.940868e-01   6.632617e-03
  2.605023e+00    5.011698e-01   6.672887e-03
  2.607233e+00    4.942836e-01   6.619845e-03
  2.609444e+00    4.846301e-01   6.547809e-03
  2.611654e+00    5.079697e-01   6.696282e-03
  2.613865e+00    5.187573e-01   6.759909e-03
  2.616075e+00    5.057153e-01   6.667260e-03
  2.618286e+00    5.016274e-01   6.633286e-03
  2.620496e+00    4.886716e-01   6.540473e-03
  2.622706e+00    4.859048e-01   6.516301e-03
  2.624917e+00    4.870066e-01   6.517937e-03
  2.627127e+00    4.898474e-01   6.531252e-03
  2.629338e+00    4.994431e-01   6.588963e-03
  2.631548e+00    5.022148e-01   6.601073e-03
  2.633759e+00    4.866782e-01   6.491111e-03
  2.635969e+00    4.959155e-01   6.545789e-03
  2.638180e+00    4.880641e-01   6.486880e-03
  2.640390e+00    4.775899e-01   6.410438e-03
  2.642601e+00    4.964947e-01   6.529443e-03
  2.644811e+00    4.956779e-01   6.517038e-03
  2.647021e+00    4.971060e-01   6.519864e-03
  2.649232e+00    4.915482e-01   6.476667e-03
  2.651442e+00    4.823194e-01   6.409175e-03
  2.653653e+00    4.828829e-01   6.406238e-03
  2.655863e+00    4.882436e-01   6.435073e-03
  2.658074e+00    4.979528e-01   6.492134e-03
  2.660284e+00    5.033256e-01   6.520679e-03
  2.662495e+00    4.933523e-01   6.449024e-03
  2.664705e+00    4.923637e-01   6.436024e-03
  2.666916e+00    4.903350e-01   6.416325e-03
  2.669126e+00    4.834584e-01   6.364809e-03
  2.671337e+00    4.745315e-01   6.299319e-03
  2.673547e+00    4.751095e-01   6.296907e-03
  2.675757e+00    4.936967e-01   6.412451e-03
  2.677968e+00    4.841649e-01   6.343806e-03
  2.680178e+00    4.830116e-01   6.329902e-03
  2.682389e+00    4.885302e-01   6.359602e-03
  2.684599e+00    4.719426e-01   6.244655e-03
  2.686810e+00    4.785527e-01   6.281697e-03
  2.689020e+00    4.854101e-01   6.320314e-03
  2.691231e+00    4.877875e-01   6.329491e-03
  2.693441e+00    4.918423e-01   6.349598e-03
  2.695652e+00    4.916525e-01   6.341849e-03
  2.697862e+00    4.879346e-01   6.311497e-03
  2.700072e+00    4.747692e-01   6.219786e-03
  2.702283e+00    4.642777e-01   6.144611e-03
  2.704493e+00    4.689116e-01   6.169035e-03
  2.706704e+00    4.856098e-01   6.271533e-03
  2.708914e+00    4.851582e-01   6.262674e-03
  2.711125e+00    4.797722e-01   6.221622e-03
  2.713335e+00    4.842033e-01   6.244211e-03
  2.715546e+00    4.799047e-01   6.210033e-03
  2.717756e+00    4.699378e-01   6.139406e-03
  2.719967e+00    4.794861e-01   6.195288e-03
  2.722177e+00    4.864430e-01   6.233952e-03
  2.724387e+00    4.706552e-01   6.125953e-03
  2.726598e+00    4.800120e-01   6.180497e-03
  2.728808e+00    4.787610e-01   6.166353e-03
  2.731019e+00    4.705782e-01   6.107378e-03
  2.733229e+00    4.628288e-01   6.051228e-03
  2.735440e+00    4.682379e-01   6.080288e-03
  2.737650e+00    4.758407e-01   6.123497e-03
  2.739861e+00    4.835138e-01   6.166611e-03
  2.742071e+00    4.744604e-01   6.102906e-03
  2.744282e+00    4.733716e-01   6.089719e-03
  2.746492e+00    4.704903e-01   6.065188e-03
  2.748702e+00    4.823205e-01   6.135064e-03
  2.750913e+00    4.692535e-01   6.045683e-03
  2.753123e+00    4.683890e-01   6.034066e-03
  2.755334e+00    4.742866e-01   6.065893e-03
  2.757544e+00    4.728238e-01   6.050861e-03
  2.759755e+00    4.583713e-01   5.951910e-03
  2.761965e+00    4.744379e-01   6.049367e-03
  2.764176e+00    4.695333e-01   6.012110e-03
  2.766386e+00    4.662296e-01   5.985206e-03
  2.768597e+00    4.753844e-01   6.037851e-03
  2.770807e+00    4.672126e-01   5.979931e-03
  2.773017e+00    4.722734e-01   6.006291e-03
  2.775228e+00    4.689319e-01   5.979293e-03
  2.777438e+00    4.677426e-01   5.965956e-03
  2.779649e+00    4.783385e-01   6.027256e-03
  2.781859e+00    4.730709e-01   5.988252e-03
  2.784070e+00    4.713385e-01   5.971441e-03
  2.786280e+00    4.653490e-01   5.927706e-03
  2.788491e+00    4.554351e-01   5.858499e-03
  2.790701e+00    4.733181e-01   5.966787e-03
  2.792912e+00    4.633770e-01   5.897909e-03
  2.795122e+00    4.702994e-01   5.936111e-03
  2.797333e+00    4.686096e-01   5.919908e-03
  2.799543e+00    4.658507e-01   5.896658e-03
  2.801753e+00    4.611263e-01   5.860924e-03
  2.803964e+00    4.656307e-01   5.883857e-03
  2.806174e+00    4.591401e-01   5.836680e-03
  2.808385e+00    4.617830e-01   5.846745e-03
  2.810595e+00    4.730812e-01   5.910962e-03
  2.812806e+00    4.786560e-01   5.939091e-03
  2.815016e+00    4.461412e-01   5.729199e-03
  2.817227e+00    4.741715e-01   5.932355e-03
  2.819437e+00    4.721071e-01   5.930514e-03
  2.821648e+00    4.640979e-01   5.882242e-03
  2.823858e+00    4.695454e-01   5.921990e-03
  2.826068e+00    4.721098e-01   5.943106e-03
  2.828279e+00    4.707275e-01   5.938448e-03
  2.830489e+00    4.615257e-01   5.883409e-03
  2.832700e+00    4.633807e-01   5.897747e-03
  2.834910e+00    4.705813e-01   5.945468e-03
  2.837121e+00    4.607793e-01   5.884909e-03
  2.839331e+00    4.713264e-01   5.953101e-03
  2.841542e+00    4.603068e-01   5.884123e-03
  2.843752e+00    4.530664e-01   5.838418e-03
  2.845963e+00    4.577115e-01   5.868657e-03
  2.848173e+00    4.589852e-01   5.876905e-03
  2.850383e+00    4.550448e-01   5.851927e-03
  2.852594e+00    4.530097e-01   5.838729e-03
  2.854804e+00    4.563092e-01   5.859464e-03
  2.857015e+00    4.615819e-01   5.892792e-03
  2.859225e+00    4.654138e-01   5.916939e-03
  2.861436e+00    4.702218e-01   5.946792e-03
  2.863646e+00    4.397550e-01   5.750942e-03
  2.865857e+00    4.494592e-01   5.814373e-03
  2.868067e+00    4.505175e-01   5.821437e-03
  2.870278e+00    4.600942e-01   5.882634e-03
  2.872488e+00    4.570751e-01   5.862154e-03
  2.874698e+00    4.481733e-01   5.803757e-03
  2.876909e+00    4.583826e-01   5.868158e-03
  2.879119e+00    4.611821e-01   5.884446e-03
  2.881330e+00    4.581322e-01   5.863487e-03
  2.883540e+00    4.548072e-01   5.840801e-03
  2.885751e+00    4.589770e-01   5.865854e-03
  2.887961e+00    4.630368e-01   5.889873e-03
  2.890172e+00    4.559952e-01   5.843324e-03
  2.892382e+00    4.519202e-01   5.815367e-03
  2.894593e+00    4.554979e-01   5.836532e-03
  2.896803e+00    4.654039e-01   5.897663e-03
  2.899014e+00    4.463005e-01   5.773481e-03
  2.901224e+00    4.397264e-01   5.728844e-03
  2.903434e+00    4.546993e-01   5.823630e-03
  2.905645e+00    4.655655e-01   5.890562e-03
  2.907855e+00    4.541786e-01   5.816008e-03
  2.910066e+00    4.552206e-01   5.820596e-03
  2.912276e+00    4.577500e-01   5.834629e-03
  2.914487e+00    4.522271e-01   5.796885e-03
  2.916697e+00    4.427702e-01   5.733768e-03
  2.918908e+00    4.595798e-01   5.839580e-03
  2.921118e+00    4.530576e-01   5.795328e-03
  2.923329e+00    4.490904e-01   5.767591e-03
  2.925539e+00    4.597946e-01   5.833647e-03
  2.927749e+00    4.543896e-01   5.796948e-03
  2.929960e+00    4.580893e-01   5.817718e-03
  2.932170e+00    4.515559e-01   5.773778e-03
  2.934381e+00    4.512569e-01   5.769425e-03
  2.936591e+00    4.463364e-01   5.735361e-03
  2.938802e+00    4.410498e-01   5.698605e-03
  2.941012e+00    4.553889e-01   5.788159e-03
  2.943223e+00    4.520223e-01   5.764051e-03
  2.945433e+00    4.587633e-01   5.803125e-03
  2.947644e+00    4.522320e-01   5.757544e-03
  2.949854e+00    4.568051e-01   5.782309e-03
  2.952064e+00    4.568512e-01   5.778364e-03
  2.954275e+00    4.594333e-01   5.790242e-03
  2.956485e+00    4.621011e-01   5.802811e-03
  2.958696e+00    4.559530e-01   5.759702e-03
  2.960906e+00    4.523801e-01   5.732934e-03
  2.963117e+00    4.333554e-01   5.606692e-03
  2.965327e+00    4.436717e-01   5.669179e-03
  2.967538e+00    4.578577e-01   5.756175e-03
  2.969748e+00    4.455689e-01   5.675630e-03
  2.971959e+00    4.423491e-01   5.651980e-03
  2.974169e+00    4.512448e-01   5.705952e-03
  2.976379e+00    4.512900e-01   5.703328e-03
  2.978590e+00    4.457543e-01   5.665150e-03
  2.980800e+00    4.396532e-01   5.623472e-03
  2.983011e+00    4.475529e-01   5.671002e-03
  2.985221e+00    4.590696e-01   5.740325e-03
  2.987432e+00    4.598439e-01   5.742036e-03
  2.989642e+00    4.517004e-01   5.688356e-03
  2.991853e+00    4.494864e-01   5.671137e-03
  2.994063e+00    4.318685e-01   5.556032e-03
  2.996274e+00    4.347723e-01   5.571583e-03
  2.998484e+00    4.371808e-01   5.584330e-03
  3.000694e+00    4.378569e-01   5.585266e-03
  3.002905e+00    4.394831e-01   5.592710e-03
  3.005115e+00    4.446669e-01   5.622681e-03
  3.007326e+00    4.382634e-01   5.578916e-03
  3.009536e+00    4.484572e-01   5.640202e-03
  3.011747e+00    4.426147e-01   5.600460e-03
  3.013957e+00    4.369276e-01   5.561240e-03
  3.016168e+00    4.595057e-01   5.699833e-03
  3.018378e+00    4.587618e-01   5.692161e-03
  3.020589e+00    4.397812e-01   5.570008e-03
  3.022799e+00    4.396459e-01   5.566020e-03
  3.025010e+00    4.422745e-01   5.579437e-03
  3.027220e+00    4.468870e-01   5.605366e-03
  3.029430e+00    4.377200e-01   5.544382e-03
  3.031641e+00    4.391273e-01   5.550195e-03
  3.033851e+00    4.333406e-01   5.510062e-03
  3.036062e+00    4.504461e-01   5.614979e-03
  3.038272e+00    4.298428e-01   5.481582e-03
  3.040483e+00    4.435761e-01   5.565255e-03
  3.042693e+00    4.431985e-01   5.559648e-03
  3.044904e+00    4.468873e-01   5.578745e-03
  3.047114e+00    4.554659e-01   5.627197e-03
  3.049325e+00    4.458000e-01   5.562801e-03
  3.051535e+00    4.389012e-01   5.515260e-03
  3.053745e+00    4.459920e-01   5.554901e-03
  3.055956e+00    4.448920e-01   5.543506e-03
  3.058166e+00    4.404632e-01   5.511630e-03
  3.060377e+00    4.465708e-01   5.544967e-03
  3.062587e+00    4.374455e-01   5.483446e-03
  3.064798e+00    4.306083e-01   5.436279e-03
  3.067008e+00    4.410973e-01   5.497386e-03
  3.069219e+00    4.360365e-01   5.461328e-03
  3.071429e+00    4.309530e-01   5.425959e-03
  3.073640e+00    4.418944e-01   5.491092e-03
  3.075850e+00    4.611124e-01   5.605600e-03
  3.078060e+00    4.507155e-01   5.538938e-03
  3.080271e+00    4.499797e-01   5.530934e-03
  3.082481e+00    4.457631e-01   5.501534e-03
  3.084692e+00    4.401056e-01   5.463158e-03
  3.086902e+00    4.390010e-01   5.453084e-03
  3.089113e+00    4.319863e-01   5.405833e-03
  3.091323e+00    4.466525e-01   5.493464e-03
  3.093534e+00    4.560604e-01   5.547609e-03
  3.095744e+00    4.488944e-01   5.500494e-03
  3.097955e+00    4.476440e-01   5.489256e-03
  3.100165e+00    4.359991e-01   5.414125e-03
  3.102375e+00    4.366970e-01   5.415046e-03
  3.104586e+00    4.473022e-01   5.476926e-03
  3.106796e+00    4.307014e-01   5.370878e-03
  3.109007e+00    4.309489e-01   5.369246e-03
  3.111217e+00    4.355531e-01   5.394215e-03
  3.113428e+00    4.318029e-01   5.367573e-03
  3.115638e+00    4.404269e-01   5.417693e-03
  3.117849e+00    4.264329e-01   5.327293e-03
  3.120059e+00    4.345576e-01   5.374366e-03
  3.122270e+00    4.339601e-01   5.367463e-03
  3.124480e+00    4.313679e-01   5.347772e-03
  3.126691e+00    4.364368e-01   5.375574e-03
  3.128901e+00    4.340062e-01   5.357502e-03
  3.131111e+00    4.447645e-01   5.419640e-03
  3.133322e+00    4.421619e-01   5.400351e-03
  3.135532e+00    4.459367e-01   5.419917e-03
  3.137743e+00    4.407311e-01   5.384756e-03
  3.139953e+00    4.268047e-01   5.295358e-03
  3.142164e+00    4.314998e-01   5.336278e-03
  3.144374e+00    4.270129e-01   5.336360e-03
  3.146585e+00    4.394058e-01   5.427752e-03
  3.148795e+00    4.357954e-01   5.416114e-03
  3.151006e+00    4.283128e-01   5.377834e-03
  3.153216e+00    4.343949e-01   5.422936e-03
  3.155426e+00    4.316284e-01   5.411911e-03
  3.157637e+00    4.263211e-01   5.383948e-03
  3.159847e+00    4.362519e-01   5.451148e-03
  3.162058e+00    4.321835e-01   5.430066e-03
  3.164268e+00    4.249584e-01   5.388492e-03
  3.166479e+00    4.264316e-01   5.401399e-03
  3.168689e+00    4.250993e-01   5.396267e-03
  3.170900e+00    4.243875e-01   5.394868e-03
  3.173110e+00    4.254028e-01   5.404159e-03
  3.175321e+00    4.373918e-01   5.482247e-03
  3.177531e+00    4.294255e-01   5.434836e-03
  3.179741e+00    4.246656e-01   5.406649e-03
  3.181952e+00    4.259611e-01   5.416985e-03
  3.184162e+00    4.188365e-01   5.373638e-03
  3.186373e+00    4.128945e-01   5.336925e-03
  3.188583e+00    4.184560e-01   5.374499e-03
  3.190794e+00    4.362185e-01   5.489116e-03
  3.193004e+00    4.379870e-01   5.501519e-03
  3.195215e+00    4.358261e-01   5.489414e-03
  3.197425e+00    4.267327e-01   5.433046e-03
  3.199636e+00    4.346286e-01   5.482305e-03
  3.201846e+00    4.156184e-01   5.360495e-03
  3.204056e+00    4.212344e-01   5.397440e-03
  3.206267e+00    4.321513e-01   5.467796e-03
  3.208477e+00    4.222650e-01   5.405799e-03
  3.210688e+00    4.244510e-01   5.420608e-03
  3.212898e+00    4.403637e-01   5.521846e-03
  3.215109e+00    4.378997e-01   5.507173e-03
  3.217319e+00    4.220322e-01   5.407073e-03
  3.219530e+00    4.222268e-01   5.408724e-03
  3.221740e+00    4.198277e-01   5.393883e-03
  3.223951e+00    4.264885e-01   5.436969e-03
  3.226161e+00    4.287712e-01   5.451690e-03
  3.228372e+00    4.273603e-01   5.443243e-03
  3.230582e+00    4.190733e-01   5.390354e-03
  3.232792e+00    4.171248e-01   5.378016e-03
  3.235003e+00    4.304706e-01   5.463615e-03
  3.237213e+00    4.294011e-01   5.456929e-03
  3.239424e+00    4.226708e-01   5.414018e-03
  3.241634e+00    4.132628e-01   5.353535e-03
  3.243845e+00    4.083039e-01   5.321368e-03
  3.246055e+00    4.233172e-01   5.418065e-03
  3.248266e+00    4.151797e-01   5.365927e-03
  3.250476e+00    4.219862e-01   5.409442e-03
  3.252687e+00    4.114261e-01   5.341234e-03
  3.254897e+00    4.227095e-01   5.413861e-03
  3.257107e+00    4.215875e-01   5.406381e-03
  3.259318e+00    4.122615e-01   5.346011e-03
  3.261528e+00    4.278247e-01   5.445831e-03
  3.263739e+00    4.227203e-01   5.412702e-03
  3.265949e+00    4.211667e-01   5.402626e-03
  3.268160e+00    4.189169e-01   5.387758e-03
  3.270370e+00    4.262770e-01   5.434365e-03
  3.272581e+00    4.159833e-01   5.368093e-03
  3.274791e+00    4.171702e-01   5.375210e-03
  3.277002e+00    4.260784e-01   5.431741e-03
  3.279212e+00    4.207708e-01   5.397413e-03
  3.281422e+00    4.243843e-01   5.419978e-03
  3.283633e+00    4.118108e-01   5.338402e-03
  3.285843e+00    4.266299e-01   5.433276e-03
  3.288054e+00    4.153313e-01   5.359923e-03
  3.290264e+00    4.164594e-01   5.366876e-03
  3.292475e+00    4.286763e-01   5.444189e-03
  3.294685e+00    4.071125e-01   5.304885e-03
  3.296896e+00    4.091045e-01   5.317082e-03
  3.299106e+00    4.052323e-01   5.291314e-03
  3.301317e+00    4.224904e-01   5.401804e-03
  3.303527e+00    4.093856e-01   5.316908e-03
  3.305737e+00    4.069012e-01   5.299708e-03
  3.307948e+00    4.150280e-01   5.351731e-03
  3.310158e+00    4.049101e-01   5.285251e-03
  3.312369e+00    4.137310e-01   5.341624e-03
  3.314579e+00    4.251978e-01   5.414249e-03
  3.316790e+00    4.230604e-01   5.399898e-03
  3.319000e+00    4.228986e-01   5.397695e-03
  3.321211e+00    4.222904e-01   5.393199e-03
  3.323421e+00    4.208868e-01   5.383045e-03
  3.325632e+00    3.893828e-01   5.176781e-03
  3.327842e+00    4.146489e-01   5.341196e-03
  3.330052e+00    4.256676e-01   5.410631e-03
  3.332263e+00    4.248490e-01   5.404407e-03
  3.334473e+00    4.097441e-01   5.306571e-03
  3.336684e+00    4.258501e-01   5.408567e-03
  3.338894e+00    4.170947e-01   5.351873e-03
  3.341105e+00    4.199184e-01   5.368723e-03
  3.343315e+00    4.257148e-01   5.404503e-03
  3.345526e+00    4.214834e-01   5.376679e-03
  3.347736e+00    4.267801e-01   5.408953e-03
  3.349947e+00    4.245842e-01   5.394076e-03
  3.352157e+00    4.107754e-01   5.304497e-03
  3.354368e+00    4.078923e-01   5.284532e-03
  3.356578e+00    4.119152e-01   5.309528e-03
  3.358788e+00    4.116019e-01   5.306199e-03
  3.360999e+00    4.080564e-01   5.282065e-03
  3.363209e+00    4.097161e-01   5.291777e-03
  3.365420e+00    4.177745e-01   5.342064e-03
  3.367630e+00    4.095847e-01   5.288441e-03
  3.369841e+00    3.992788e-01   5.220074e-03
  3.372051e+00    4.101526e-01   5.288719e-03
  3.374262e+00    3.958589e-01   5.193377e-03
  3.376472e+00    4.015505e-01   5.228171e-03
  3.378683e+00    3.964281e-01   5.192282e-03
  3.380893e+00    3.976302e-01   5.197844e-03
  3.383103e+00    3.922808e-01   5.160154e-03
  3.385314e+00    3.976032e-01   5.192852e-03
  3.387524e+00    4.021243e-01   5.219577e-03
  3.389735e+00    4.066432e-01   5.246256e-03
  3.391945e+00    3.970146e-01   5.180142e-03
  3.394156e+00    3.940697e-01   5.156800e-03
  3.396366e+00    3.862762e-01   5.102230e-03
  3.398577e+00    4.008504e-01   5.194586e-03
  3.400787e+00    3.961230e-01   5.175581e-03
  3.402998e+00    3.799753e-01   5.105615e-03
  3.405208e+00    3.939168e-01   5.218803e-03
  3.407418e+00    3.798057e-01   5.139850e-03
  3.409629e+00    3.858983e-01   5.194576e-03
  3.411839e+00    3.931636e-01   5.254979e-03
  3.414050e+00    3.724601e-01   5.125348e-03
  3.416260e+00    3.924580e-01   5.270794e-03
  3.418471e+00    3.745646e-01   5.158409e-03
  3.420681e+00    3.792094e-01   5.198645e-03
  3.422892e+00    3.722741e-01   5.158696e-03
  3.425102e+00    3.728576e-01   5.170376e-03
  3.427313e+00    3.830245e-01   5.247537e-03
  3.429523e+00    3.786215e-01   5.224282e-03
  3.431733e+00    3.739037e-01   5.198177e-03
  3.433944e+00    3.750927e-01   5.212828e-03
  3.436154e+00    3.867249e-01   5.299342e-03
  3.438365e+00    3.614538e-01   5.129035e-03
  3.440575e+00    3.819660e-01   5.278486e-03
  3.442786e+00    3.771466e-01   5.250681e-03
  3.444996e+00    3.763600e-01   5.250704e-03
  3.447207e+00    3.633407e-01   5.164290e-03
  3.449417e+00    3.635641e-01   5.206254e-03
  3.451628e+00    3.543316e-01   5.168580e-03
  3.453838e+00    3.484941e-01   5.146426e-03
  3.456049e+00    3.647414e-01   5.288848e-03
  3.458259e+00    3.652524e-01   5.314448e-03
  3.460469e+00    3.684288e-01   5.357379e-03
  3.462680e+00    3.704350e-01   5.391075e-03
  3.464890e+00    3.688151e-01   5.397177e-03
  3.467101e+00    3.447818e-01   5.235233e-03
  3.469311e+00    3.673263e-01   5.420177e-03
  3.471522e+00    3.790703e-01   5.522639e-03
  3.473732e+00    3.764011e-01   5.519060e-03
  3.475943e+00    3.950342e-01   5.669935e-03
  3.478153e+00    4.154772e-01   5.830825e-03
  3.480364e+00    4.146040e-01   5.840233e-03
  3.482574e+00    4.039184e-01   5.779848e-03
  3.484784e+00    4.002386e-01   5.768080e-03
  3.486995e+00    4.403498e-01   6.065807e-03
  3.489205e+00    4.219053e-01   5.952036e-03
  3.491416e+00    4.400393e-01   6.093726e-03
  3.493626e+00    4.530484e-01   6.198066e-03
  3.495837e+00    4.442787e-01   6.152596e-03
  3.498047e+00    4.306622e-01   6.071846e-03
  3.500258e+00    4.538816e-01   6.247978e-03
  3.502468e+00    4.490981e-01   6.229309e-03
  3.504679e+00    4.651420e-01   6.354165e-03
  3.506889e+00    4.783124e-01   6.458110e-03
  3.509099e+00    4.772147e-01   6.465185e-03
  3.511310e+00    4.738929e-01   6.457036e-03
  3.513520e+00    4.834503e-01   6.536274e-03
  3.515731e+00    4.891291e-01   6.588981e-03
  3.517941e+00    4.755989e-01   6.511350e-03
  3.520152e+00    4.917694e-01   6.635388e-03
  3.522362e+00    5.033743e-01   6.727749e-03
  3.524573e+00    5.050782e-01   6.753389e-03
  3.526783e+00    5.022344e-01   6.747609e-03
  3.528994e+00    5.115489e-01   6.822043e-03
  3.531204e+00    5.266653e-01   6.934636e-03
  3.533414e+00    5.246545e-01   6.933484e-03
  3.535625e+00    5.208879e-01   6.920786e-03
  3.537835e+00    5.397524e-01   7.057217e-03
  3.540046e+00    5.373145e-01   7.050213e-03
  3.542256e+00    5.399365e-01   7.074962e-03
  3.544467e+00    5.299552e-01   7.016830e-03
  3.546677e+00    5.313576e-01   7.033666e-03
  3.548888e+00    5.363840e-01   7.074311e-03
  3.551098e+00    5.472535e-01   7.153040e-03
  3.553309e+00    5.442625e-01   7.141697e-03
  3.555519e+00    5.334835e-01   7.081869e-03
  3.557729e+00    5.086082e-01   6.926244e-03
  3.559940e+00    5.168065e-01   6.993148e-03
  3.562150e+00    5.271240e-01   7.074209e-03
  3.564361e+00    5.428702e-01   7.192522e-03
  3.566571e+00    5.246123e-01   7.084240e-03
  3.568782e+00    5.384561e-01   7.191185e-03
  3.570992e+00    5.372554e-01   7.197004e-03
  3.573203e+00    5.152725e-01   7.062058e-03
  3.575413e+00    5.259331e-01   7.148414e-03
  3.577624e+00    5.186862e-01   7.112847e-03
  3.579834e+00    5.186509e-01   7.126271e-03
  3.582045e+00    5.389408e-01   7.278420e-03
  3.584255e+00    5.168959e-01   7.141776e-03
  3.586465e+00    5.539753e-01   7.407690e-03
  3.588676e+00    5.402867e-01   7.329828e-03
  3.590886e+00    5.481931e-01   7.397140e-03
  3.593097e+00    5.296416e-01   7.285309e-03
  3.595307e+00    5.386494e-01   7.360977e-03
  3.597518e+00    5.318152e-01   7.328298e-03
  3.599728e+00    5.238225e-01   7.286944e-03
  3.601939e+00    5.266626e-01   7.320619e-03
  3.604149e+00    5.333986e-01   7.381667e-03
  3.606360e+00    5.417373e-01   7.453377e-03
  3.608570e+00    5.287384e-01   7.377491e-03
  3.610780e+00    5.216863e-01   7.339050e-03
  3.612991e+00    5.359923e-01   7.449003e-03
  3.615201e+00    5.319690e-01   7.430780e-03
  3.617412e+00    5.433444e-01   7.517124e-03
  3.619622e+00    5.350302e-01   7.465368e-03
  3.621833e+00    5.330610e-01   7.458299e-03
  3.624043e+00    5.441825e-01   7.545293e-03
  3.626254e+00    5.311077e-01   7.463820e-03
  3.628464e+00    5.039184e-01   7.280862e-03
  3.630675e+00    5.289553e-01   7.473610e-03
  3.632885e+00    5.368266e-01   7.543503e-03
  3.635095e+00    5.188630e-01   7.430429e-03
  3.637306e+00    5.203817e-01   7.455460e-03
  3.639516e+00    5.394531e-01   7.605465e-03
  3.641727e+00    5.408646e-01   7.630103e-03
  3.643937e+00    5.176690e-01   7.479015e-03
  3.646148e+00    5.235313e-01   7.535732e-03
  3.648358e+00    5.136893e-01   7.479125e-03
  3.650569e+00    5.226762e-01   7.558887e-03
  3.652779e+00    5.269349e-01   7.604271e-03
  3.654990e+00    5.294426e-01   7.637216e-03
  3.657200e+00    5.368992e-01   7.705756e-03
  3.659410e+00    5.274967e-01   7.652917e-03
  3.661621e+00    5.246000e-01   7.646861e-03
  3.663831e+00    5.202435e-01   7.629965e-03
  3.666042e+00    5.497037e-01   7.858466e-03
  3.668252e+00    5.263456e-01   7.704867e-03
  3.670463e+00    5.268484e-01   7.723721e-03
  3.672673e+00    5.300900e-01   7.762841e-03
  3.674884e+00    5.119948e-01   7.644347e-03
  3.677094e+00    5.098021e-01   7.643172e-03
  3.679305e+00    5.039897e-01   7.614591e-03
  3.681515e+00    5.263460e-01   7.797236e-03
  3.683726e+00    5.329722e-01   7.861984e-03
  3.685936e+00    5.419663e-01   7.943970e-03
  3.688146e+00    5.289017e-01   7.863459e-03
  3.690357e+00    5.233583e-01   7.837978e-03
  3.692567e+00    5.160517e-01   7.799018e-03
  3.694778e+00    5.427636e-01   8.014623e-03
  3.696988e+00    5.201662e-01   7.861929e-03
  3.699199e+00    5.063775e-01   7.772954e-03
  3.701409e+00    5.076674e-01   7.798931e-03
  3.703620e+00    5.305006e-01   7.988783e-03
  3.705830e+00    5.310060e-01   8.009109e-03
  3.708041e+00    5.161492e-01   7.912749e-03
  3.710251e+00    5.049911e-01   7.843167e-03
  3.712461e+00    5.210459e-01   7.983535e-03
  3.714672e+00    5.294654e-01   8.064702e-03
  3.716882e+00    5.242537e-01   8.041623e-03
  3.719093e+00    5.359100e-01   8.147937e-03
  3.721303e+00    5.362325e-01   8.167648e-03
  3.723514e+00    4.994671e-01   7.899616e-03
  3.725724e+00    4.622939e-01   7.616160e-03
  3.727935e+00    5.025977e-01   7.958365e-03
  3.730145e+00    5.002131e-01   7.956539e-03
  3.732356e+00    5.130486e-01   8.075443e-03
  3.734566e+00    5.147602e-01   8.106475e-03
  3.736776e+00    5.058758e-01   8.053760e-03
  3.738987e+00    4.974780e-01   8.004153e-03
  3.741197e+00    4.989684e-01   8.033823e-03
  3.743408e+00    5.035751e-01   8.088730e-03
  3.745618e+00    4.998555e-01   8.076869e-03
  3.747829e+00    5.140607e-01   8.208961e-03
  3.750039e+00    5.125328e-01   8.215159e-03
  3.752250e+00    5.007042e-01   8.138102e-03
  3.754460e+00    4.986173e-01   8.139468e-03
  3.756671e+00    4.937550e-01   8.118156e-03
  3.758881e+00    5.087565e-01   8.259213e-03
  3.761091e+00    5.131280e-01   8.313871e-03
  3.763302e+00    4.846760e-01   8.098683e-03
  3.765512e+00    4.960544e-01   8.212280e-03
  3.767723e+00    4.865739e-01   8.152339e-03
  3.769933e+00    5.093140e-01   8.360044e-03
  3.772144e+00    5.163812e-01   8.437665e-03
  3.774354e+00    4.825504e-01   8.175980e-03
  3.776565e+00    4.823845e-01   8.193928e-03
  3.778775e+00    5.126747e-01   8.467361e-03
  3.780986e+00    5.004688e-01   8.386256e-03
  3.783196e+00    5.102471e-01   8.488165e-03
  3.785407e+00    4.930447e-01   8.364069e-03
  3.787617e+00    4.750679e-01   8.230312e-03
  3.789827e+00    4.855041e-01   8.340414e-03
  3.792038e+00    4.903483e-01   8.402538e-03
  3.794248e+00    4.886803e-01   8.409096e-03
  3.796459e+00    4.970760e-01   8.502332e-03
  3.798669e+00    4.856966e-01   8.425486e-03
  3.800880e+00    4.791803e-01   8.389752e-03
  3.803090e+00    5.101365e-01   8.678504e-03
  3.805301e+00    4.967310e-01   8.585799e-03
  3.807511e+00    4.860885e-01   8.514991e-03
  3.809722e+00    4.949977e-01   8.614799e-03
  3.811932e+00    4.751818e-01   8.462321e-03
  3.814142e+00    4.608286e-01   8.355453e-03
  3.816353e+00    4.777844e-01   8.530133e-03
  3.818563e+00    4.906206e-01   8.666887e-03
  3.820774e+00    4.690872e-01   8.497041e-03
  3.822984e+00    4.795142e-01   8.613879e-03
  3.825195e+00    5.051271e-01   8.864833e-03
  3.827405e+00    5.112948e-01   8.942987e-03
  3.829616e+00    4.944218e-01   8.818218e-03
  3.831826e+00    4.918280e-01   8.819087e-03
  3.834037e+00    4.673341e-01   8.620437e-03
  3.836247e+00    4.804426e-01   8.764738e-03
  3.838457e+00    4.725216e-01   8.716634e-03
  3.840668e+00    4.900659e-01   8.901988e-03
  3.842878e+00    5.100008e-01   9.107133e-03
  3.845089e+00    4.782333e-01   8.844101e-03
  3.847299e+00    4.735615e-01   8.825988e-03
  3.849510e+00    4.788467e-01   8.900449e-03
  3.851720e+00    4.826674e-01   8.957090e-03
  3.853931e+00    5.042518e-01   9.174327e-03
  3.856141e+00    4.857535e-01   9.023382e-03
  3.858352e+00    4.689870e-01   8.885009e-03
  3.860562e+00    4.815055e-01   9.021845e-03
  3.862772e+00    5.081944e-01   9.288333e-03
  3.864983e+00    4.869263e-01   9.111534e-03
  3.867193e+00    4.825737e-01   9.090208e-03
  3.869404e+00    4.882730e-01   9.163431e-03
  3.871614e+00    4.877487e-01   9.178394e-03
  3.873825e+00    4.992421e-01   9.306309e-03
  3.876035e+00    4.937585e-01   9.275718e-03
  3.878246e+00    4.937772e-01   9.301649e-03
  3.880456e+00    4.830204e-01   9.228504e-03
  3.882667e+00    4.788731e-01   9.217692e-03
  3.884877e+00    5.041132e-01   9.487674e-03
  3.887087e+00    4.544937e-01   9.037462e-03
  3.889298e+00    4.692011e-01   9.212114e-03
  3.891508e+00    4.734689e-01   9.283877e-03
  3.893719e+00    4.841211e-01   9.418628e-03
  3.895929e+00    4.810418e-01   9.419671e-03
  3.898140e+00    4.945592e-01   9.582969e-03
  3.900350e+00    4.750038e-01   9.423197e-03
  3.902561e+00    4.929684e-01   9.632170e-03
  3.904771e+00    4.879234e-01   9.615557e-03
  3.906982e+00    4.991980e-01   9.759492e-03
  3.909192e+00    4.912992e-01   9.715442e-03
  3.911403e+00    4.690664e-01   9.526540e-03
  3.913613e+00    4.491278e-01   9.354601e-03
  3.915823e+00    4.840124e-01   9.745763e-03
  3.918034e+00    4.726808e-01   9.665702e-03
  3.920244e+00    4.721965e-01   9.695930e-03
  3.922455e+00    4.998240e-01   1.001199e-02
  3.924665e+00    4.803984e-01   9.851684e-03
  3.926876e+00    5.124537e-01   1.021307e-02
  3.929086e+00    4.738481e-01   9.857700e-03
  3.931297e+00    5.120112e-01   1.028253e-02
  3.933507e+00    5.290755e-01   1.048282e-02
  3.935718e+00    4.655446e-01   9.861329e-03
  3.937928e+00    4.852016e-01   1.009668e-02
  3.940138e+00    4.643829e-01   9.906398e-03
  3.942349e+00    5.033934e-01   1.034441e-02
  3.944559e+00    5.019760e-01   1.036033e-02
  3.946770e+00    4.872817e-01   1.023776e-02
  3.948980e+00    4.798414e-01   1.018981e-02
  3.951191e+00    4.705525e-01   1.012104e-02
  3.953401e+00    4.846981e-01   1.030324e-02
  3.955612e+00    4.869687e-01   1.035915e-02
  3.957822e+00    4.596689e-01   1.009538e-02
  3.960033e+00    4.698046e-01   1.023807e-02
  3.962243e+00    4.826876e-01   1.041031e-02
  3.964453e+00    4.473086e-01   1.005329e-02
  3.966664e+00    4.394710e-01   9.996631e-03
  3.968874e+00    4.748609e-01   1.041930e-02
  3.971085e+00    5.050645e-01   1.076800e-02
  3.973295e+00    5.017209e-01   1.075411e-02
  3.975506e+00    4.859908e-01   1.060588e-02
  3.977716e+00    4.881198e-01   1.065106e-02
  3.979927e+00    4.601598e-01   1.036317e-02
  3.982137e+00    4.658113e-01   1.044825e-02
  3.984348e+00    4.927153e-01   1.076861e-02
  3.986558e+00    5.161778e-01   1.104504e-02
  3.988768e+00    4.941471e-01   1.082993e-02
  3.990979e+00    4.837717e-01   1.073850e-02
  3.993189e+00    4.627889e-01   1.052534e-02
  3.995400e+00    4.914804e-01   1.087058e-02
  3.997610e+00    4.893481e-01   1.087688e-02
  3.999821e+00    4.725620e-01   1.072578e-02
  4.002031e+00    4.940983e-01   1.100612e-02
  4.004242e+00    4.818530e-01   1.090734e-02
  4.006452e+00    4.639886e-01   1.074171e-02
  4.008663e+00    4.914543e-01   1.109529e-02
  4.010873e+00    4.733356e-01   1.092851e-02
  4.013084e+00    4.745738e-01   1.098314e-02
  4.015294e+00    4.818101e-01   1.110756e-02
  4.017504e+00    4.875455e-01   1.121537e-02
  4.019715e+00    4.825959e-01   1.120081e-02
  4.021925e+00    4.632363e-01   1.101592e-02
  4.024136e+00    4.739342e-01   1.118548e-02
  4.026346e+00    4.882787e-01   1.139793e-02
  4.028557e+00    4.914231e-01   1.147917e-02
  4.030767e+00    4.763961e-01   1.134774e-02
  4.032978e+00    4.787203e-01   1.142130e-02
  4.035188e+00    4.753256e-01   1.142654e-02
  4.037399e+00    4.648240e-01   1.134625e-02
  4.039609e+00    4.959382e-01   1.176824e-02
  4.041819e+00    5.111821e-01   1.199772e-02
  4.044030e+00    5.297523e-01   1.226614e-02
  4.046240e+00    4.665543e-01   1.156019e-02
  4.048451e+00    4.836949e-01   1.182166e-02
  4.050661e+00    4.812814e-01   1.184343e-02
  4.052872e+00    4.746356e-01   1.181368e-02
  4.055082e+00    4.886517e-01   1.204069e-02
  4.057293e+00    4.844319e-01   1.204240e-02
  4.059503e+00    4.655111e-01   1.185869e-02
  4.061714e+00    4.479603e-01   1.168732e-02
  4.063924e+00    4.448942e-01   1.170175e-02
  4.066134e+00    4.891225e-01   1.232747e-02
  4.068345e+00    4.731866e-01   1.218344e-02
  4.070555e+00    4.879929e-01   1.243219e-02
  4.072766e+00    5.030699e-01   1.268496e-02
  4.074976e+00    4.997601e-01   1.270622e-02
  4.077187e+00    4.767961e-01   1.247267e-02
  4.079397e+00    4.597394e-01   1.230998e-02
  4.081608e+00    4.739155e-01   1.256333e-02
  4.083818e+00    4.735731e-01   1.262405e-02
  4.086029e+00    4.913814e-01   1.292710e-02
  4.088239e+00    4.504841e-01   1.244430e-02
  4.090449e+00    4.082368e-01   1.191032e-02
  4.092660e+00    5.066122e-01   1.334102e-02
  4.094870e+00    5.065130e-01   1.341408e-02
  4.097081e+00    4.734597e-01   1.304000e-02
  4.099291e+00    4.617096e-01   1.293057e-02
  4.101502e+00    4.342154e-01   1.258632e-02
  4.103712e+00    4.569263e-01   1.295944e-02
  4.105923e+00    4.725508e-01   1.323007e-02
  4.108133e+00    4.973292e-01   1.362489e-02
  4.110344e+00    5.086748e-01   1.383210e-02
  4.112554e+00    4.650254e-01   1.327763e-02
  4.114764e+00    5.145324e-01   1.402261e-02
  4.116975e+00    5.044121e-01   1.393885e-02
  4.119185e+00    4.592596e-01   1.335427e-02
  4.121396e+00    4.626803e-01   1.345930e-02
  4.123606e+00    4.868878e-01   1.386355e-02
  4.125817e+00    4.462910e-01   1.332864e-02
  4.128027e+00    4.791532e-01   1.386872e-02
  4.130238e+00    4.776954e-01   1.390711e-02
  4.132448e+00    4.660529e-01   1.379615e-02
  4.134659e+00    4.537174e-01   1.367093e-02
  4.136869e+00    5.005766e-01   1.442342e-02
  4.139080e+00    4.891666e-01   1.432261e-02
  4.141290e+00    4.606045e-01   1.395969e-02
  4.143500e+00    4.791031e-01   1.430272e-02
  4.145711e+00    4.906784e-01   1.454225e-02
  4.147921e+00    4.757522e-01   1.438508e-02
  4.150132e+00    4.881135e-01   1.464025e-02
  4.152342e+00    4.678755e-01   1.440300e-02
  4.154553e+00    4.821477e-01   1.469046e-02
  4.156763e+00    4.728119e-01   1.461956e-02
  4.158974e+00    5.185564e-01   1.538736e-02
  4.161184e+00    5.020548e-01   1.521570e-02
  4.163395e+00    4.914734e-01   1.513145e-02
  4.165605e+00    4.877887e-01   1.515304e-02
  4.167815e+00    4.361497e-01   1.440336e-02
  4.170026e+00    4.554779e-01   1.479635e-02
  4.172236e+00    4.920536e-01   1.546217e-02
  4.174447e+00    4.583957e-01   1.500526e-02
  4.176657e+00    4.730309e-01   1.532607e-02
  4.178868e+00    4.916076e-01   1.571272e-02
  4.181078e+00    4.999786e-01   1.593503e-02
  4.183289e+00    5.220291e-01   1.637595e-02
  4.185499e+00    4.612084e-01   1.548343e-02
  4.187710e+00    4.595997e-01   1.554666e-02
  4.189920e+00    4.837842e-01   1.604672e-02
  4.192130e+00    4.700546e-01   1.591400e-02
  4.194341e+00    4.923027e-01   1.638609e-02
  4.196551e+00    4.240870e-01   1.530471e-02
  4.198762e+00    4.562077e-01   1.597457e-02
  4.200972e+00    4.962556e-01   1.676898e-02
  4.203183e+00    4.688044e-01   1.640589e-02
  4.205393e+00    4.458487e-01   1.610552e-02
  4.207604e+00    4.553854e-01   1.638830e-02
  4.209814e+00    4.567196e-01   1.652445e-02
  4.212025e+00    4.729658e-01   1.693507e-02
  4.214235e+00    4.503025e-01   1.664182e-02
  4.216445e+00    4.699963e-01   1.712423e-02
  4.218656e+00    4.595842e-01   1.706077e-02
  4.220866e+00    4.575401e-01   1.714859e-02
  4.223077e+00    5.016858e-01   1.809524e-02
  4.225287e+00    4.243147e-01   1.677222e-02
  4.227498e+00    4.603624e-01   1.760729e-02
  4.229708e+00    4.390047e-01   1.733377e-02
  4.231919e+00    4.786075e-01   1.824834e-02
  4.234129e+00    4.894046e-01   1.860773e-02
  4.236340e+00    4.680734e-01   1.835359e-02
  4.238550e+00    4.436707e-01   1.802654e-02
  4.240761e+00    5.352879e-01   1.997516e-02
  4.242971e+00    5.382233e-01   2.021370e-02
  4.245181e+00    4.577415e-01   1.881606e-02
  4.247392e+00    4.629782e-01   1.910043e-02
  4.249602e+00    4.742786e-01   1.952387e-02
  4.251813e+00    4.470558e-01   1.914234e-02
  4.254023e+00    4.777227e-01   1.998750e-02
  4.256234e+00    4.527679e-01   1.966622e-02
  4.258444e+00    4.506532e-01   1.982549e-02
  4.260655e+00    5.387953e-01   2.191583e-02
  4.262865e+00    5.166765e-01   2.170516e-02
  4.265076e+00    4.806846e-01   2.117351e-02
  4.267286e+00    4.666388e-01   2.110940e-02
  4.269496e+00    4.180490e-01   2.022388e-02
  4.271707e+00    4.809260e-01   2.195940e-02
  4.273917e+00    4.481527e-01   2.147206e-02
  4.276128e+00    4.398482e-01   2.155484e-02
  4.278338e+00    3.952119e-01   2.070482e-02
  4.280549e+00    4.354248e-01   2.204387e-02
  4.282759e+00    5.180470e-01   2.439017e-02
  4.284970e+00    4.986415e-01   2.428358e-02
  4.287180e+00    3.897519e-01   2.172632e-02
  4.289391e+00    5.163721e-01   2.519492e-02
  4.291601e+00    4.951594e-01   2.486974e-02
  4.293811e+00    4.688986e-01   2.439003e-02
  4.296022e+00    4.940617e-01   2.523707e-02
  4.298232e+00    4.936596e-01   2.543827e-02
  4.300443e+00    4.603893e-01   2.476888e-02
  4.302653e+00    3.469616e-01   2.168834e-02
  4.304864e+00    4.985116e-01   2.622176e-02
  4.307074e+00    4.600608e-01   2.541703e-02
  4.309285e+00    4.479484e-01   2.530787e-02
  4.311495e+00    4.316851e-01   2.507665e-02
  4.313706e+00    4.495531e-01   2.583114e-02
  4.315916e+00    4.204868e-01   2.522785e-02
  4.318126e+00    4.042141e-01   2.497925e-02
  4.320337e+00    4.128369e-01   2.549940e-02
  4.322547e+00    3.990579e-01   2.533656e-02
  4.324758e+00    4.088180e-01   2.591145e-02
  4.326968e+00    5.099612e-01   2.926492e-02
  4.329179e+00    5.013194e-01   2.933636e-02
  4.331389e+00    4.330142e-01   2.757897e-02
  4.333600e+00    4.487590e-01   2.841035e-02
  4.335810e+00    4.674328e-01   2.934157e-02
  4.338021e+00    3.095832e-01   2.418392e-02
  4.340231e+00    3.961135e-01   2.769841e-02
  4.342442e+00    5.364683e-01   3.266689e-02
  4.344652e+00    4.049935e-01   2.876979e-02
  4.346862e+00    3.196745e-01   2.591687e-02
  4.349073e+00    5.330097e-01   3.395265e-02
  4.351283e+00    4.253765e-01   3.078538e-02
  4.353494e+00    3.563536e-01   2.861243e-02
  4.355704e+00    3.989905e-01   3.076215e-02
  4.357915e+00    3.546266e-01   2.948581e-02
  4.360125e+00    4.417952e-01   3.347081e-02
  4.362336e+00    4.743222e-01   3.531471e-02
  4.364546e+00    4.614652e-01   3.546579e-02
  4.366757e+00    3.548415e-01   3.172009e-02
  4.368967e+00    4.190595e-01   3.515778e-02
  4.371177e+00    3.417265e-01   3.242167e-02
  4.373388e+00    5.245204e-01   4.106716e-02
  4.375598e+00    4.783472e-01   4.011330e-02
  4.377809e+00    4.376851e-01   3.934048e-02
  4.380019e+00    4.159694e-01   3.931940e-02
  4.382230e+00    4.101508e-01   4.012977e-02
  4.384440e+00    3.889991e-01   4.020804e-02
  4.386651e+00    4.160268e-01   4.286035e-02
  4.388861e+00    3.445522e-01   4.031757e-02
  4.391072e+00    3.905222e-01   4.443046e-02
  4.393282e+00    4.549908e-01   4.981071e-02
  4.395492e+00    5.469422e-01   5.688200e-02
  4.397703e+00    3.978542e-01   5.073281e-02
  4.399913e+00    3.990604e-01   5.338147e-02
  4.402124e+00    2.292062e-01   4.275174e-02
  4.404334e+00    2.121389e-01   4.371372e-02
  4.406545e+00    1.722762e-01   4.233217e-02
  4.408755e+00    2.950116e-01   6.006851e-02
  4.410966e+00    1.058875e-01   3.983714e-02
  4.413176e+00    6.666861e-02   3.578423e-02
  4.415387e+00   -7.878580e-01            nan
  4.417597e+00   -1.916099e+00            nan
  4.419807e+00   -3.766224e-01            nan
