# == pyFAI calibration ==
# Distance Sample to Detector: 0.216 m
# PONI: 1.166e-01, 1.308e-01 m
# Rotations: 0.000000 0.000000 0.000000 rad
# 
# == Fit2d calibration ==
# Distance Sample-beamCenter: 216.000 mm
# Center: x=1744.293, y=1555.000 pix
# Tilt: 0.000 deg  TiltPlanRot: 0.000 deg
# 
# Detector Eiger 9M	 PixelSize= 7.500e-05, 7.500e-05 m
#    Detector has a mask: True 
#    Detector has a dark current: False 
#    detector has a flat field: False 
# 
# Wavelength: 9.8e-11 m
# Mask applied: from detector
# Dark current applied: False
# Flat field applied: False
# Polarization factor: None
# Normalization factor: 1.0
# 
# Headers of the input frame:
# {
# "_array_data.header_convention": "SLS_1.0",
# "_array_data.header_contents": "# Detector: Dectris Eiger 9M, S/N E-18-0102\r\n# Pixel_size 75e-6 m x 75e-6 m\r\n# Silicon sensor, thickness 0.000450 m\r\n# Exposure_time 0.024997 s\r\n# Exposure_period 0.025000 s\r\n# Count_cutoff 62318 counts\r\n# Wavelength 0.980106 A\r\n# Detector_distance 0.215992 m\r\n# Beam_xy (1555, 1744) pixels\r\n# Start_angle 0.000000 deg.\r\n# Angle_increment 0.000000 deg.",
# "Content-Type": "application/octet-stream;",
# "conversions": "x-CBF_BYTE_OFFSET",
# "Content-Transfer-Encoding": "BINARY",
# "X-Binary-Size": "10166594",
# "X-Binary-ID": "1",
# "X-Binary-Element-Type": "signed 32-bit integer",
# "X-Binary-Element-Byte-Order": "LITTLE_ENDIAN",
# "Content-MD5": "4g+wnuk4xMzhAOh7G3KBRw==",
# "X-Binary-Number-of-Elements": "10166590",
# "X-Binary-Size-Fastest-Dimension": "3110",
# "X-Binary-Size-Second-Dimension": "3269",
# "X-Binary-Size-Padding": "4095"
# }
# --> H:/Proxima2a_2019-04-05/RAW_DATA/C5_gel17_position5/C5_mesh_1_data.cbf/C5_mesh_1_data.cbf000111.dat
#        q_A^-1              I           sigma 
  1.105228e-03    1.078117e+00   5.618494e-01
  3.315685e-03    1.188716e+00   3.586612e-01
  5.526141e-03    1.410338e+00   3.020881e-01
  7.736597e-03    1.186561e+00   2.340804e-01
  9.947054e-03    1.311788e+00   2.169743e-01
  1.215751e-02    1.288822e+00   1.944756e-01
  1.436797e-02    1.232491e+00   1.749314e-01
  1.657842e-02    1.096226e+00   1.535658e-01
  1.878888e-02    1.182102e+00   1.497928e-01
  2.099934e-02    1.336239e+00   1.506760e-01
  2.320979e-02    1.373974e+00   1.453189e-01
  2.542025e-02    1.373384e+00   1.388371e-01
  2.763070e-02    1.463019e+00   1.374407e-01
  2.984116e-02    1.530616e+00   1.352725e-01
  3.205162e-02    1.489263e+00   1.287573e-01
  3.426207e-02    1.373650e+00   1.195950e-01
  3.647253e-02    1.479013e+00   1.202751e-01
  3.868299e-02    1.513993e+00   1.181701e-01
  4.089344e-02    1.408832e+00   1.108690e-01
  4.310390e-02    1.571917e+00   1.140614e-01
  4.531436e-02    1.576828e+00   1.114187e-01
  4.752481e-02    1.462828e+00   1.047890e-01
  4.973527e-02    1.429399e+00   1.012578e-01
  5.194572e-02    1.350373e+00   9.630078e-02
  5.415618e-02    1.280015e+00   9.182189e-02
  5.636664e-02    1.391577e+00   9.384665e-02
  5.857709e-02    1.509218e+00   9.587172e-02
  6.078755e-02    1.445760e+00   9.210971e-02
  6.299801e-02    1.401313e+00   8.907669e-02
  6.520846e-02    1.353187e+00   8.603785e-02
  6.741892e-02    1.378864e+00   8.541036e-02
  6.962938e-02    1.371423e+00   8.382088e-02
  7.183983e-02    1.377118e+00   8.269088e-02
  7.405029e-02    1.367905e+00   8.117255e-02
  7.626074e-02    1.397559e+00   8.084915e-02
  7.847120e-02    1.397509e+00   7.969871e-02
  8.068166e-02    1.484895e+00   8.101885e-02
  8.289211e-02    1.489619e+00   8.005792e-02
  8.510257e-02    1.438816e+00   7.765189e-02
  8.731303e-02    1.428544e+00   7.638559e-02
  8.952348e-02    1.581579e+00   7.937669e-02
  9.173394e-02    1.568817e+00   7.809442e-02
  9.394439e-02    1.581411e+00   7.747680e-02
  9.615485e-02    1.466660e+00   7.374875e-02
  9.836531e-02    1.522495e+00   7.428826e-02
  1.005758e-01    1.536595e+00   7.380728e-02
  1.027862e-01    1.600095e+00   7.450075e-02
  1.049967e-01    1.583290e+00   7.332299e-02
  1.072071e-01    1.547237e+00   7.173138e-02
  1.094176e-01    1.615544e+00   7.255241e-02
  1.116280e-01    1.512842e+00   6.950828e-02
  1.138385e-01    1.478939e+00   6.805319e-02
  1.160490e-01    1.499189e+00   6.786100e-02
  1.182594e-01    1.429010e+00   6.563010e-02
  1.204699e-01    1.476260e+00   6.609094e-02
  1.226803e-01    1.550398e+00   6.711445e-02
  1.248908e-01    1.587963e+00   6.731807e-02
  1.271012e-01    1.513750e+00   6.515089e-02
  1.293117e-01    1.534363e+00   6.502911e-02
  1.315222e-01    1.603286e+00   6.591113e-02
  1.337326e-01    1.598380e+00   6.526280e-02
  1.359431e-01    1.462959e+00   6.247353e-02
  1.381535e-01    1.412938e+00   6.222029e-02
  1.403640e-01    1.478667e+00   6.392591e-02
  1.425744e-01    1.498142e+00   6.444829e-02
  1.447849e-01    1.585426e+00   6.631438e-02
  1.469953e-01    1.689773e+00   6.841905e-02
  1.492058e-01    1.571089e+00   6.589589e-02
  1.514163e-01    1.556389e+00   6.547796e-02
  1.536267e-01    1.646872e+00   6.722289e-02
  1.558372e-01    1.625649e+00   6.664091e-02
  1.580476e-01    1.617971e+00   6.632202e-02
  1.602581e-01    1.574352e+00   6.525578e-02
  1.624685e-01    1.586116e+00   6.531978e-02
  1.646790e-01    1.541993e+00   6.421991e-02
  1.668895e-01    1.625800e+00   6.575153e-02
  1.690999e-01    1.641261e+00   6.586505e-02
  1.713104e-01    1.771837e+00   6.822260e-02
  1.735208e-01    1.704820e+00   6.671187e-02
  1.757313e-01    1.699158e+00   6.639227e-02
  1.779417e-01    1.811797e+00   6.833396e-02
  1.801522e-01    1.848846e+00   6.880926e-02
  1.823626e-01    1.849542e+00   6.859310e-02
  1.845731e-01    1.842627e+00   6.824297e-02
  1.867836e-01    1.866697e+00   6.845544e-02
  1.889940e-01    1.885648e+00   6.857722e-02
  1.912045e-01    1.902153e+00   6.864669e-02
  1.934149e-01    1.934715e+00   6.900006e-02
  1.956254e-01    1.972157e+00   6.943474e-02
  1.978358e-01    1.988801e+00   6.948819e-02
  2.000463e-01    1.983114e+00   6.915882e-02
  2.022568e-01    1.926168e+00   6.793492e-02
  2.044672e-01    1.928410e+00   6.774157e-02
  2.066777e-01    1.990622e+00   6.859716e-02
  2.088881e-01    1.916609e+00   6.708962e-02
  2.110986e-01    1.882643e+00   6.626444e-02
  2.133090e-01    1.952306e+00   6.725993e-02
  2.155195e-01    1.983078e+00   6.756309e-02
  2.177300e-01    1.952321e+00   6.651045e-02
  2.199404e-01    1.937600e+00   6.451330e-02
  2.221509e-01    1.899797e+00   6.283192e-02
  2.243613e-01    1.943649e+00   6.274725e-02
  2.265718e-01    1.984216e+00   6.269990e-02
  2.287822e-01    2.021034e+00   6.265262e-02
  2.309927e-01    1.982489e+00   6.148700e-02
  2.332031e-01    2.081095e+00   6.245838e-02
  2.354136e-01    2.087564e+00   6.204839e-02
  2.376241e-01    2.106404e+00   6.184397e-02
  2.398345e-01    2.052584e+00   6.059698e-02
  2.420450e-01    2.013220e+00   5.958420e-02
  2.442554e-01    2.137504e+00   6.097287e-02
  2.464659e-01    2.133108e+00   6.050121e-02
  2.486763e-01    2.101204e+00   5.965237e-02
  2.508868e-01    2.120754e+00   5.955117e-02
  2.530973e-01    2.077318e+00   5.857278e-02
  2.553077e-01    2.036491e+00   5.764252e-02
  2.575182e-01    2.124474e+00   5.852622e-02
  2.597286e-01    2.057581e+00   5.726263e-02
  2.619391e-01    2.035054e+00   5.662045e-02
  2.641495e-01    2.001871e+00   5.584611e-02
  2.663600e-01    2.007467e+00   5.561656e-02
  2.685704e-01    2.057865e+00   5.600515e-02
  2.707809e-01    2.018618e+00   5.517409e-02
  2.729914e-01    1.990646e+00   5.450496e-02
  2.752018e-01    1.997932e+00   5.432039e-02
  2.774123e-01    2.094643e+00   5.533544e-02
  2.796227e-01    2.062206e+00   5.463375e-02
  2.818332e-01    2.008687e+00   5.365116e-02
  2.840436e-01    1.999698e+00   5.327149e-02
  2.862541e-01    1.973514e+00   5.266717e-02
  2.884646e-01    2.013943e+00   5.295142e-02
  2.906750e-01    1.933480e+00   5.163685e-02
  2.928855e-01    1.905293e+00   5.102155e-02
  2.950959e-01    1.960170e+00   5.151338e-02
  2.973064e-01    1.975823e+00   5.148622e-02
  2.995168e-01    1.989433e+00   5.142927e-02
  3.017273e-01    1.912582e+00   5.020380e-02
  3.039377e-01    1.959089e+00   5.058806e-02
  3.061482e-01    1.841950e+00   4.884014e-02
  3.083587e-01    1.887002e+00   4.921983e-02
  3.105691e-01    1.899296e+00   4.916902e-02
  3.127796e-01    1.878850e+00   4.869802e-02
  3.149900e-01    1.918896e+00   4.900923e-02
  3.172005e-01    1.880373e+00   4.831639e-02
  3.194109e-01    1.950765e+00   4.900932e-02
  3.216214e-01    1.875415e+00   4.785740e-02
  3.238319e-01    1.903502e+00   4.802339e-02
  3.260423e-01    1.891640e+00   4.768287e-02
  3.282528e-01    1.884780e+00   4.740682e-02
  3.304632e-01    1.829311e+00   4.652313e-02
  3.326737e-01    1.846422e+00   4.655778e-02
  3.348841e-01    1.873581e+00   4.671711e-02
  3.370946e-01    1.876704e+00   4.658011e-02
  3.393050e-01    1.856349e+00   4.615133e-02
  3.415155e-01    1.814051e+00   4.545096e-02
  3.437260e-01    1.793769e+00   4.502866e-02
  3.459364e-01    1.816983e+00   4.515142e-02
  3.481469e-01    1.886605e+00   4.584042e-02
  3.503573e-01    1.855940e+00   4.530071e-02
  3.525678e-01    1.887578e+00   4.552240e-02
  3.547782e-01    1.813301e+00   4.445648e-02
  3.569887e-01    1.760769e+00   4.365257e-02
  3.591992e-01    1.794429e+00   4.391189e-02
  3.614096e-01    1.838292e+00   4.429126e-02
  3.636201e-01    1.826836e+00   4.399788e-02
  3.658305e-01    1.738559e+00   4.277526e-02
  3.680410e-01    1.775015e+00   4.307275e-02
  3.702514e-01    1.766460e+00   4.282434e-02
  3.724619e-01    1.777495e+00   4.281159e-02
  3.746724e-01    1.804591e+00   4.299273e-02
  3.768828e-01    1.770831e+00   4.244540e-02
  3.790933e-01    1.692962e+00   4.136643e-02
  3.813037e-01    1.741749e+00   4.182095e-02
  3.835142e-01    1.756636e+00   4.186135e-02
  3.857246e-01    1.809665e+00   4.235101e-02
  3.879351e-01    1.758033e+00   4.160735e-02
  3.901455e-01    1.802935e+00   4.200123e-02
  3.923560e-01    1.758022e+00   4.134295e-02
  3.945665e-01    1.790210e+00   4.158742e-02
  3.967769e-01    1.759264e+00   4.109728e-02
  3.989874e-01    1.796847e+00   4.140427e-02
  4.011978e-01    1.792914e+00   4.123175e-02
  4.034083e-01    1.782691e+00   4.098779e-02
  4.056187e-01    1.749288e+00   4.047693e-02
  4.078292e-01    1.735506e+00   4.019512e-02
  4.100397e-01    1.753174e+00   4.027587e-02
  4.122501e-01    1.744456e+00   4.005541e-02
  4.144606e-01    1.804491e+00   4.061801e-02
  4.166710e-01    1.798421e+00   4.042907e-02
  4.188815e-01    1.805475e+00   4.038862e-02
  4.210919e-01    1.783511e+00   4.002456e-02
  4.233024e-01    1.798856e+00   4.007814e-02
  4.255128e-01    1.822906e+00   4.022854e-02
  4.277233e-01    1.831484e+00   4.020724e-02
  4.299338e-01    1.810365e+00   3.985971e-02
  4.321442e-01    1.817256e+00   3.982124e-02
  4.343547e-01    1.772141e+00   3.921263e-02
  4.365651e-01    1.737330e+00   3.871528e-02
  4.387756e-01    1.754250e+00   3.879441e-02
  4.409860e-01    1.789915e+00   3.907821e-02
  4.431965e-01    1.782157e+00   3.888563e-02
  4.454070e-01    1.727768e+00   3.818113e-02
  4.476174e-01    1.743300e+00   3.824706e-02
  4.498279e-01    1.769390e+00   3.842735e-02
  4.520383e-01    1.778416e+00   3.841954e-02
  4.542488e-01    1.713273e+00   3.760763e-02
  4.564592e-01    1.717839e+00   3.755667e-02
  4.586697e-01    1.760299e+00   3.791710e-02
  4.608801e-01    1.719407e+00   3.737372e-02
  4.630906e-01    1.722232e+00   3.730536e-02
  4.653011e-01    1.689904e+00   3.685640e-02
  4.675115e-01    1.705514e+00   3.692870e-02
  4.697220e-01    1.749165e+00   3.730039e-02
  4.719324e-01    1.718148e+00   3.687258e-02
  4.741429e-01    1.752719e+00   3.714571e-02
  4.763533e-01    1.731192e+00   3.682227e-02
  4.785638e-01    1.686223e+00   3.624700e-02
  4.807743e-01    1.673116e+00   3.601402e-02
  4.829847e-01    1.717337e+00   3.639468e-02
  4.851952e-01    1.711115e+00   3.623677e-02
  4.874056e-01    1.654893e+00   3.554662e-02
  4.896161e-01    1.693664e+00   3.587143e-02
  4.918265e-01    1.690147e+00   3.574517e-02
  4.940370e-01    1.661853e+00   3.535721e-02
  4.962475e-01    1.677354e+00   3.543399e-02
  4.984579e-01    1.706479e+00   3.565224e-02
  5.006684e-01    1.665152e+00   3.513200e-02
  5.028788e-01    1.634719e+00   3.472513e-02
  5.050893e-01    1.656678e+00   3.487256e-02
  5.072997e-01    1.670702e+00   3.493526e-02
  5.095102e-01    1.647916e+00   3.461314e-02
  5.117206e-01    1.633109e+00   3.437531e-02
  5.139311e-01    1.675014e+00   3.473118e-02
  5.161416e-01    1.647262e+00   3.436087e-02
  5.183520e-01    1.629888e+00   3.409796e-02
  5.205625e-01    1.621894e+00   3.393454e-02
  5.227729e-01    1.676709e+00   3.442275e-02
  5.249834e-01    1.659217e+00   3.416323e-02
  5.271938e-01    1.675237e+00   3.424765e-02
  5.294043e-01    1.739608e+00   3.481890e-02
  5.316148e-01    1.704832e+00   3.439019e-02
  5.338252e-01    1.733956e+00   3.460340e-02
  5.360357e-01    1.723704e+00   3.442245e-02
  5.382461e-01    1.694938e+00   3.405681e-02
  5.404566e-01    1.739410e+00   3.442221e-02
  5.426670e-01    1.747465e+00   3.442409e-02
  5.448775e-01    1.752294e+00   3.439460e-02
  5.470879e-01    1.788966e+00   3.467514e-02
  5.492984e-01    1.767021e+00   3.438518e-02
  5.515089e-01    1.779319e+00   3.442809e-02
  5.537193e-01    1.764365e+00   3.420760e-02
  5.559298e-01    1.742365e+00   3.391910e-02
  5.581402e-01    1.729044e+00   3.371534e-02
  5.603507e-01    1.786033e+00   3.419189e-02
  5.625611e-01    1.792236e+00   3.417690e-02
  5.647716e-01    1.785552e+00   3.403904e-02
  5.669821e-01    1.761120e+00   3.373248e-02
  5.691925e-01    1.746838e+00   3.352331e-02
  5.714030e-01    1.765500e+00   3.363005e-02
  5.736134e-01    1.737322e+00   3.328963e-02
  5.758239e-01    1.733923e+00   3.318609e-02
  5.780343e-01    1.701519e+00   3.280497e-02
  5.802448e-01    1.690543e+00   3.263055e-02
  5.824552e-01    1.665571e+00   3.232069e-02
  5.846657e-01    1.640511e+00   3.200976e-02
  5.868762e-01    1.629878e+00   3.183942e-02
  5.890866e-01    1.630101e+00   3.177554e-02
  5.912971e-01    1.617491e+00   3.158687e-02
  5.935075e-01    1.624899e+00   3.159369e-02
  5.957180e-01    1.616963e+00   3.145178e-02
  5.979284e-01    1.608466e+00   3.130500e-02
  6.001389e-01    1.611491e+00   3.127060e-02
  6.023494e-01    1.666848e+00   3.173859e-02
  6.045598e-01    1.642030e+00   3.143730e-02
  6.067703e-01    1.645974e+00   3.141173e-02
  6.089807e-01    1.622032e+00   3.111976e-02
  6.111912e-01    1.642163e+00   3.124973e-02
  6.134016e-01    1.679318e+00   3.153826e-02
  6.156121e-01    1.677603e+00   3.145950e-02
  6.178226e-01    1.641248e+00   3.105513e-02
  6.200330e-01    1.681149e+00   3.136836e-02
  6.222435e-01    1.691476e+00   3.140224e-02
  6.244539e-01    1.655286e+00   3.100368e-02
  6.266644e-01    1.689965e+00   3.126563e-02
  6.288748e-01    1.717552e+00   3.145846e-02
  6.310853e-01    1.704349e+00   3.127646e-02
  6.332957e-01    1.682007e+00   3.101080e-02
  6.355062e-01    1.686346e+00   3.099044e-02
  6.377167e-01    1.727980e+00   3.131049e-02
  6.399271e-01    1.685888e+00   3.086752e-02
  6.421376e-01    1.713352e+00   3.105854e-02
  6.443480e-01    1.729797e+00   3.114788e-02
  6.465585e-01    1.671816e+00   3.056340e-02
  6.487689e-01    1.654567e+00   3.034789e-02
  6.509794e-01    1.673040e+00   3.045929e-02
  6.531899e-01    1.612706e+00   2.984881e-02
  6.554003e-01    1.580848e+00   2.949692e-02
  6.576108e-01    1.607522e+00   2.968937e-02
  6.598212e-01    1.592781e+00   2.949802e-02
  6.620317e-01    1.599580e+00   2.950612e-02
  6.642421e-01    1.570433e+00   2.918196e-02
  6.664526e-01    1.596578e+00   2.936966e-02
  6.686630e-01    1.604559e+00   2.938855e-02
  6.708735e-01    1.636619e+00   2.962624e-02
  6.730840e-01    1.630611e+00   2.951791e-02
  6.752944e-01    1.616813e+00   2.933930e-02
  6.775049e-01    1.649203e+00   2.957791e-02
  6.797153e-01    1.622917e+00   2.928814e-02
  6.819258e-01    1.633596e+00   2.933134e-02
  6.841362e-01    1.598035e+00   2.895817e-02
  6.863467e-01    1.592361e+00   2.885492e-02
  6.885572e-01    1.616225e+00   2.901825e-02
  6.907676e-01    1.591655e+00   2.874524e-02
  6.929781e-01    1.590805e+00   2.868648e-02
  6.951885e-01    1.616146e+00   2.886285e-02
  6.973990e-01    1.601105e+00   2.867744e-02
  6.996094e-01    1.602181e+00   2.863660e-02
  7.018199e-01    1.599669e+00   2.856392e-02
  7.040303e-01    1.599455e+00   2.851184e-02
  7.062408e-01    1.619040e+00   2.863561e-02
  7.084513e-01    1.599578e+00   2.841350e-02
  7.106617e-01    1.569956e+00   2.810024e-02
  7.128722e-01    1.582961e+00   2.816758e-02
  7.150826e-01    1.582837e+00   2.811792e-02
  7.172931e-01    1.593578e+00   2.816453e-02
  7.195035e-01    1.598918e+00   2.816318e-02
  7.217140e-01    1.577245e+00   2.802116e-02
  7.239245e-01    1.566632e+00   2.815287e-02
  7.261349e-01    1.561907e+00   2.821857e-02
  7.283454e-01    1.536891e+00   2.806320e-02
  7.305558e-01    1.561561e+00   2.834130e-02
  7.327663e-01    1.562082e+00   2.838836e-02
  7.349767e-01    1.542790e+00   2.822872e-02
  7.371872e-01    1.579162e+00   2.854832e-02
  7.393976e-01    1.589670e+00   2.862883e-02
  7.416081e-01    1.562920e+00   2.837083e-02
  7.438186e-01    1.553704e+00   2.814370e-02
  7.460290e-01    1.524785e+00   2.759101e-02
  7.482395e-01    1.551129e+00   2.765843e-02
  7.504499e-01    1.558340e+00   2.758711e-02
  7.526604e-01    1.565117e+00   2.753080e-02
  7.548708e-01    1.577273e+00   2.754803e-02
  7.570813e-01    1.596358e+00   2.766288e-02
  7.592918e-01    1.575200e+00   2.744376e-02
  7.615022e-01    1.572592e+00   2.738726e-02
  7.637127e-01    1.526933e+00   2.695447e-02
  7.659231e-01    1.574251e+00   2.733691e-02
  7.681336e-01    1.567895e+00   2.725015e-02
  7.703440e-01    1.571494e+00   2.725020e-02
  7.725545e-01    1.607160e+00   2.752650e-02
  7.747650e-01    1.656865e+00   2.790975e-02
  7.769754e-01    1.601823e+00   2.738910e-02
  7.791859e-01    1.566495e+00   2.703206e-02
  7.813963e-01    1.554010e+00   2.687192e-02
  7.836068e-01    1.603625e+00   2.724521e-02
  7.858172e-01    1.615607e+00   2.729569e-02
  7.880277e-01    1.590279e+00   2.702938e-02
  7.902381e-01    1.597371e+00   2.704035e-02
  7.924486e-01    1.600263e+00   2.701469e-02
  7.946591e-01    1.607692e+00   2.702893e-02
  7.968695e-01    1.623715e+00   2.711466e-02
  7.990800e-01    1.637036e+00   2.717702e-02
  8.012904e-01    1.660025e+00   2.731984e-02
  8.035009e-01    1.647039e+00   2.716435e-02
  8.057113e-01    1.659307e+00   2.721816e-02
  8.079218e-01    1.699975e+00   2.750216e-02
  8.101323e-01    1.668067e+00   2.719659e-02
  8.123427e-01    1.650374e+00   2.700585e-02
  8.145532e-01    1.603939e+00   2.657766e-02
  8.167636e-01    1.627435e+00   2.672660e-02
  8.189741e-01    1.610184e+00   2.654025e-02
  8.211845e-01    1.664079e+00   2.693553e-02
  8.233950e-01    1.660099e+00   2.685958e-02
  8.256054e-01    1.663730e+00   2.684435e-02
  8.278159e-01    1.662870e+00   2.679313e-02
  8.300264e-01    1.645005e+00   2.660563e-02
  8.322368e-01    1.683317e+00   2.686995e-02
  8.344473e-01    1.688887e+00   2.687035e-02
  8.366577e-01    1.653447e+00   2.654417e-02
  8.388682e-01    1.611478e+00   2.616324e-02
  8.410786e-01    1.602448e+00   2.604823e-02
  8.432891e-01    1.616885e+00   2.612375e-02
  8.454996e-01    1.643077e+00   2.629280e-02
  8.477100e-01    1.672666e+00   2.648640e-02
  8.499205e-01    1.632102e+00   2.612218e-02
  8.521309e-01    1.646012e+00   2.619234e-02
  8.543414e-01    1.628953e+00   2.601562e-02
  8.565518e-01    1.597196e+00   2.572068e-02
  8.587623e-01    1.634457e+00   2.597842e-02
  8.609727e-01    1.713274e+00   2.655618e-02
  8.631832e-01    1.766216e+00   2.692182e-02
  8.653937e-01    1.682974e+00   2.623938e-02
  8.676041e-01    1.658216e+00   2.600634e-02
  8.698146e-01    1.620364e+00   2.566852e-02
  8.720250e-01    1.599918e+00   2.546719e-02
  8.742355e-01    1.570896e+00   2.519671e-02
  8.764459e-01    1.618086e+00   2.553336e-02
  8.786564e-01    1.659536e+00   2.581977e-02
  8.808669e-01    1.745589e+00   2.644059e-02
  8.830773e-01    1.841242e+00   2.711448e-02
  8.852878e-01    1.891585e+00   2.744150e-02
  8.874982e-01    1.776796e+00   2.655725e-02
  8.897087e-01    1.686540e+00   2.583527e-02
  8.919191e-01    1.621777e+00   2.529636e-02
  8.941296e-01    1.573446e+00   2.487960e-02
  8.963401e-01    1.586174e+00   2.494374e-02
  8.985505e-01    1.603608e+00   2.504346e-02
  9.007610e-01    1.577492e+00   2.480221e-02
  9.029714e-01    1.599627e+00   2.493977e-02
  9.051819e-01    1.600597e+00   2.491010e-02
  9.073923e-01    1.643888e+00   2.520765e-02
  9.096028e-01    1.642970e+00   2.516524e-02
  9.118132e-01    1.626184e+00   2.499985e-02
  9.140237e-01    1.599631e+00   2.475828e-02
  9.162342e-01    1.607584e+00   2.478511e-02
  9.184446e-01    1.600661e+00   2.469591e-02
  9.206551e-01    1.600567e+00   2.465959e-02
  9.228655e-01    1.614588e+00   2.473195e-02
  9.250760e-01    1.639253e+00   2.488439e-02
  9.272864e-01    1.634403e+00   2.481295e-02
  9.294969e-01    1.627089e+00   2.472129e-02
  9.317074e-01    1.595422e+00   2.444496e-02
  9.339178e-01    1.578532e+00   2.428199e-02
  9.361283e-01    1.648151e+00   2.477510e-02
  9.383387e-01    1.639217e+00   2.467427e-02
  9.405492e-01    1.632415e+00   2.458863e-02
  9.427596e-01    1.642918e+00   2.463209e-02
  9.449701e-01    1.671326e+00   2.481038e-02
  9.471805e-01    1.659240e+00   2.468550e-02
  9.493910e-01    1.670181e+00   2.473276e-02
  9.516015e-01    1.643032e+00   2.449667e-02
  9.538119e-01    1.695314e+00   2.484926e-02
  9.560224e-01    1.710861e+00   2.492781e-02
  9.582328e-01    1.753345e+00   2.520156e-02
  9.604433e-01    1.765436e+00   2.525250e-02
  9.626537e-01    1.782949e+00   2.534332e-02
  9.648642e-01    1.743311e+00   2.502572e-02
  9.670747e-01    1.745405e+00   2.500620e-02
  9.692851e-01    1.776322e+00   2.519316e-02
  9.714956e-01    1.815496e+00   2.543353e-02
  9.737060e-01    1.806579e+00   2.533768e-02
  9.759165e-01    1.818137e+00   2.538275e-02
  9.781269e-01    1.801695e+00   2.523468e-02
  9.803374e-01    1.763314e+00   2.492991e-02
  9.825478e-01    1.777029e+00   2.499365e-02
  9.847583e-01    1.755073e+00   2.480505e-02
  9.869688e-01    1.752411e+00   2.475305e-02
  9.891792e-01    1.724542e+00   2.452280e-02
  9.913897e-01    1.737257e+00   2.457982e-02
  9.936001e-01    1.717024e+00   2.440428e-02
  9.958106e-01    1.701348e+00   2.425961e-02
  9.980210e-01    1.680759e+00   2.408107e-02
  1.000231e+00    1.669477e+00   2.413160e-02
  1.002442e+00    1.626526e+00   2.394571e-02
  1.004652e+00    1.619539e+00   2.396087e-02
  1.006863e+00    1.582167e+00   2.373197e-02
  1.009073e+00    1.532074e+00   2.338899e-02
  1.011284e+00    1.554492e+00   2.359095e-02
  1.013494e+00    1.575587e+00   2.377408e-02
  1.015705e+00    1.546686e+00   2.357726e-02
  1.017915e+00    1.561194e+00   2.370390e-02
  1.020126e+00    1.558697e+00   2.370097e-02
  1.022336e+00    1.595187e+00   2.398856e-02
  1.024547e+00    1.636570e+00   2.430931e-02
  1.026757e+00    1.541299e+00   2.359948e-02
  1.028967e+00    1.471302e+00   2.306484e-02
  1.031178e+00    1.504819e+00   2.333219e-02
  1.033388e+00    1.498264e+00   2.328632e-02
  1.035599e+00    1.482252e+00   2.316493e-02
  1.037809e+00    1.509337e+00   2.337884e-02
  1.040020e+00    1.510208e+00   2.338687e-02
  1.042230e+00    1.514620e+00   2.342295e-02
  1.044441e+00    1.486376e+00   2.320330e-02
  1.046651e+00    1.517485e+00   2.344502e-02
  1.048862e+00    1.538828e+00   2.360852e-02
  1.051072e+00    1.568532e+00   2.383290e-02
  1.053282e+00    1.536329e+00   2.358601e-02
  1.055493e+00    1.547038e+00   2.366369e-02
  1.057703e+00    1.525616e+00   2.349776e-02
  1.059914e+00    1.498037e+00   2.328011e-02
  1.062124e+00    1.565827e+00   2.379686e-02
  1.064335e+00    1.581287e+00   2.391053e-02
  1.066545e+00    1.517155e+00   2.341458e-02
  1.068756e+00    1.502812e+00   2.329986e-02
  1.070966e+00    1.477338e+00   2.309502e-02
  1.073177e+00    1.426708e+00   2.268985e-02
  1.075387e+00    1.404067e+00   2.250399e-02
  1.077597e+00    1.390454e+00   2.238755e-02
  1.079808e+00    1.433026e+00   2.259637e-02
  1.082018e+00    1.426938e+00   2.236160e-02
  1.084229e+00    1.440434e+00   2.235781e-02
  1.086439e+00    1.426856e+00   2.216561e-02
  1.088650e+00    1.437979e+00   2.217659e-02
  1.090860e+00    1.452899e+00   2.222375e-02
  1.093071e+00    1.439677e+00   2.206045e-02
  1.095281e+00    1.434678e+00   2.196507e-02
  1.097492e+00    1.424632e+00   2.183355e-02
  1.099702e+00    1.390269e+00   2.151811e-02
  1.101912e+00    1.399767e+00   2.154333e-02
  1.104123e+00    1.374331e+00   2.129950e-02
  1.106333e+00    1.388712e+00   2.136692e-02
  1.108544e+00    1.401165e+00   2.141869e-02
  1.110754e+00    1.394845e+00   2.132781e-02
  1.112965e+00    1.401838e+00   2.134094e-02
  1.115175e+00    1.415608e+00   2.140440e-02
  1.117386e+00    1.408016e+00   2.130775e-02
  1.119596e+00    1.395138e+00   2.117246e-02
  1.121807e+00    1.373078e+00   2.096607e-02
  1.124017e+00    1.407252e+00   2.118874e-02
  1.126228e+00    1.398660e+00   2.108828e-02
  1.128438e+00    1.403406e+00   2.108723e-02
  1.130648e+00    1.414560e+00   2.113634e-02
  1.132859e+00    1.424236e+00   2.117380e-02
  1.135069e+00    1.487244e+00   2.160122e-02
  1.137280e+00    1.406579e+00   2.097410e-02
  1.139490e+00    1.384455e+00   2.077542e-02
  1.141701e+00    1.373309e+00   2.065866e-02
  1.143911e+00    1.372594e+00   2.062152e-02
  1.146122e+00    1.371301e+00   2.057992e-02
  1.148332e+00    1.373634e+00   2.056560e-02
  1.150543e+00    1.364075e+00   2.046325e-02
  1.152753e+00    1.314503e+00   2.005784e-02
  1.154963e+00    1.331476e+00   2.015632e-02
  1.157174e+00    1.377691e+00   2.047296e-02
  1.159384e+00    1.352926e+00   2.025848e-02
  1.161595e+00    1.335168e+00   2.009562e-02
  1.163805e+00    1.374333e+00   2.035889e-02
  1.166016e+00    1.399804e+00   2.051693e-02
  1.168226e+00    1.400372e+00   2.049178e-02
  1.170437e+00    1.373151e+00   2.026293e-02
  1.172647e+00    1.400655e+00   2.043560e-02
  1.174858e+00    1.370474e+00   2.018608e-02
  1.177068e+00    1.373638e+00   2.018099e-02
  1.179278e+00    1.381701e+00   2.021134e-02
  1.181489e+00    1.389204e+00   2.023886e-02
  1.183699e+00    1.357369e+00   1.997805e-02
  1.185910e+00    1.369428e+00   2.003871e-02
  1.188120e+00    1.358217e+00   1.992981e-02
  1.190331e+00    1.354160e+00   1.987328e-02
  1.192541e+00    1.334759e+00   1.970321e-02
  1.194752e+00    1.342103e+00   1.973042e-02
  1.196962e+00    1.345351e+00   1.972858e-02
  1.199173e+00    1.351817e+00   1.974943e-02
  1.201383e+00    1.348372e+00   1.969710e-02
  1.203593e+00    1.331350e+00   1.954773e-02
  1.205804e+00    1.363550e+00   1.975665e-02
  1.208014e+00    1.357612e+00   1.968667e-02
  1.210225e+00    1.355408e+00   1.964529e-02
  1.212435e+00    1.330040e+00   1.943600e-02
  1.214646e+00    1.331315e+00   1.941938e-02
  1.216856e+00    1.323880e+00   1.933984e-02
  1.219067e+00    1.331844e+00   1.937363e-02
  1.221277e+00    1.350749e+00   1.948561e-02
  1.223488e+00    1.359467e+00   1.952255e-02
  1.225698e+00    1.345210e+00   1.939305e-02
  1.227909e+00    1.372345e+00   1.955727e-02
  1.230119e+00    1.320215e+00   1.915072e-02
  1.232329e+00    1.333721e+00   1.921788e-02
  1.234540e+00    1.339581e+00   1.922990e-02
  1.236750e+00    1.344597e+00   1.923564e-02
  1.238961e+00    1.323596e+00   1.905816e-02
  1.241171e+00    1.308790e+00   1.892743e-02
  1.243382e+00    1.309300e+00   1.890796e-02
  1.245592e+00    1.344112e+00   1.913363e-02
  1.247803e+00    1.337753e+00   1.906478e-02
  1.250013e+00    1.336385e+00   1.903160e-02
  1.252224e+00    1.331764e+00   1.897558e-02
  1.254434e+00    1.331872e+00   1.895276e-02
  1.256644e+00    1.340225e+00   1.898898e-02
  1.258855e+00    1.329927e+00   1.889279e-02
  1.261065e+00    1.335148e+00   1.890660e-02
  1.263276e+00    1.339849e+00   1.891699e-02
  1.265486e+00    1.333863e+00   1.885197e-02
  1.267697e+00    1.295829e+00   1.855868e-02
  1.269907e+00    1.339012e+00   1.884276e-02
  1.272118e+00    1.335891e+00   1.879836e-02
  1.274328e+00    1.327376e+00   1.871579e-02
  1.276539e+00    1.354997e+00   1.888669e-02
  1.278749e+00    1.341540e+00   1.877046e-02
  1.280959e+00    1.346298e+00   1.878121e-02
  1.283170e+00    1.353190e+00   1.880676e-02
  1.285380e+00    1.367334e+00   1.888220e-02
  1.287591e+00    1.372419e+00   1.889507e-02
  1.289801e+00    1.365980e+00   1.882934e-02
  1.292012e+00    1.353624e+00   1.872688e-02
  1.294222e+00    1.369431e+00   1.881952e-02
  1.296433e+00    1.389160e+00   1.893880e-02
  1.298643e+00    1.363138e+00   1.874404e-02
  1.300854e+00    1.333807e+00   1.852494e-02
  1.303064e+00    1.372925e+00   1.877525e-02
  1.305274e+00    1.356429e+00   1.864063e-02
  1.307485e+00    1.364298e+00   1.867296e-02
  1.309695e+00    1.363158e+00   1.864281e-02
  1.311906e+00    1.378649e+00   1.872648e-02
  1.314116e+00    1.411436e+00   1.892660e-02
  1.316327e+00    1.410960e+00   1.890125e-02
  1.318537e+00    1.409660e+00   1.887016e-02
  1.320748e+00    1.390412e+00   1.871905e-02
  1.322958e+00    1.365247e+00   1.852821e-02
  1.325169e+00    1.401382e+00   1.875039e-02
  1.327379e+00    1.399062e+00   1.871268e-02
  1.329589e+00    1.372477e+00   1.851280e-02
  1.331800e+00    1.357470e+00   1.839054e-02
  1.334010e+00    1.347805e+00   1.830432e-02
  1.336221e+00    1.374798e+00   1.846474e-02
  1.338431e+00    1.380843e+00   1.848421e-02
  1.340642e+00    1.364484e+00   1.843889e-02
  1.342852e+00    1.353537e+00   1.846557e-02
  1.345063e+00    1.357978e+00   1.854549e-02
  1.347273e+00    1.341615e+00   1.846854e-02
  1.349484e+00    1.349947e+00   1.855349e-02
  1.351694e+00    1.341739e+00   1.851962e-02
  1.353905e+00    1.354276e+00   1.862397e-02
  1.356115e+00    1.335435e+00   1.850894e-02
  1.358325e+00    1.316177e+00   1.838815e-02
  1.360536e+00    1.314811e+00   1.839006e-02
  1.362746e+00    1.324263e+00   1.846553e-02
  1.364957e+00    1.319541e+00   1.844016e-02
  1.367167e+00    1.333149e+00   1.854209e-02
  1.369378e+00    1.334718e+00   1.855901e-02
  1.371588e+00    1.309866e+00   1.839050e-02
  1.373799e+00    1.279629e+00   1.818057e-02
  1.376009e+00    1.297902e+00   1.831326e-02
  1.378220e+00    1.300377e+00   1.833321e-02
  1.380430e+00    1.280970e+00   1.819856e-02
  1.382640e+00    1.277097e+00   1.817189e-02
  1.384851e+00    1.298675e+00   1.832564e-02
  1.387061e+00    1.306528e+00   1.838126e-02
  1.389272e+00    1.299470e+00   1.833177e-02
  1.391482e+00    1.279033e+00   1.818636e-02
  1.393693e+00    1.289687e+00   1.826108e-02
  1.395903e+00    1.283865e+00   1.821831e-02
  1.398114e+00    1.302555e+00   1.834904e-02
  1.400324e+00    1.320489e+00   1.847278e-02
  1.402535e+00    1.301679e+00   1.833840e-02
  1.404745e+00    1.298564e+00   1.831406e-02
  1.406955e+00    1.273665e+00   1.813494e-02
  1.409166e+00    1.256921e+00   1.801205e-02
  1.411376e+00    1.267592e+00   1.808523e-02
  1.413587e+00    1.252883e+00   1.797621e-02
  1.415797e+00    1.259793e+00   1.802218e-02
  1.418008e+00    1.263070e+00   1.800386e-02
  1.420218e+00    1.257382e+00   1.781429e-02
  1.422429e+00    1.262806e+00   1.776760e-02
  1.424639e+00    1.276520e+00   1.779895e-02
  1.426850e+00    1.268465e+00   1.768806e-02
  1.429060e+00    1.251628e+00   1.752164e-02
  1.431270e+00    1.250533e+00   1.746999e-02
  1.433481e+00    1.293204e+00   1.772422e-02
  1.435691e+00    1.274488e+00   1.755702e-02
  1.437902e+00    1.258618e+00   1.741105e-02
  1.440112e+00    1.275469e+00   1.749180e-02
  1.442323e+00    1.263922e+00   1.737948e-02
  1.444533e+00    1.269818e+00   1.738742e-02
  1.446744e+00    1.264005e+00   1.731652e-02
  1.448954e+00    1.266299e+00   1.730208e-02
  1.451165e+00    1.268624e+00   1.728820e-02
  1.453375e+00    1.277578e+00   1.732099e-02
  1.455586e+00    1.262545e+00   1.719071e-02
  1.457796e+00    1.235942e+00   1.698149e-02
  1.460006e+00    1.258941e+00   1.711160e-02
  1.462217e+00    1.284091e+00   1.725532e-02
  1.464427e+00    1.285685e+00   1.724027e-02
  1.466638e+00    1.271551e+00   1.711990e-02
  1.468848e+00    1.273569e+00   1.710809e-02
  1.471059e+00    1.279012e+00   1.711944e-02
  1.473269e+00    1.257473e+00   1.695040e-02
  1.475480e+00    1.275160e+00   1.704537e-02
  1.477690e+00    1.274778e+00   1.701892e-02
  1.479901e+00    1.288428e+00   1.708576e-02
  1.482111e+00    1.266071e+00   1.691357e-02
  1.484321e+00    1.271369e+00   1.692576e-02
  1.486532e+00    1.253372e+00   1.678333e-02
  1.488742e+00    1.262137e+00   1.681926e-02
  1.490953e+00    1.278193e+00   1.690320e-02
  1.493163e+00    1.271078e+00   1.683373e-02
  1.495374e+00    1.272124e+00   1.681909e-02
  1.497584e+00    1.259413e+00   1.671323e-02
  1.499795e+00    1.238091e+00   1.654969e-02
  1.502005e+00    1.240248e+00   1.654256e-02
  1.504216e+00    1.238148e+00   1.650772e-02
  1.506426e+00    1.262804e+00   1.665039e-02
  1.508636e+00    1.260032e+00   1.661166e-02
  1.510847e+00    1.279792e+00   1.671938e-02
  1.513057e+00    1.261443e+00   1.657395e-02
  1.515268e+00    1.256837e+00   1.651792e-02
  1.517478e+00    1.269367e+00   1.657475e-02
  1.519689e+00    1.261027e+00   1.649519e-02
  1.521899e+00    1.274263e+00   1.655823e-02
  1.524110e+00    1.270698e+00   1.651457e-02
  1.526320e+00    1.270714e+00   1.649495e-02
  1.528531e+00    1.250679e+00   1.634464e-02
  1.530741e+00    1.253348e+00   1.634290e-02
  1.532951e+00    1.241922e+00   1.624871e-02
  1.535162e+00    1.227581e+00   1.624044e-02
  1.537372e+00    1.226419e+00   1.629906e-02
  1.539583e+00    1.221195e+00   1.629817e-02
  1.541793e+00    1.237045e+00   1.641050e-02
  1.544004e+00    1.253863e+00   1.652194e-02
  1.546214e+00    1.231797e+00   1.637444e-02
  1.548425e+00    1.206885e+00   1.620825e-02
  1.550635e+00    1.212704e+00   1.625683e-02
  1.552846e+00    1.221159e+00   1.632297e-02
  1.555056e+00    1.238531e+00   1.639729e-02
  1.557266e+00    1.220865e+00   1.617053e-02
  1.559477e+00    1.225918e+00   1.614526e-02
  1.561687e+00    1.267412e+00   1.638529e-02
  1.563898e+00    1.252157e+00   1.626918e-02
  1.566108e+00    1.260148e+00   1.630493e-02
  1.568319e+00    1.253842e+00   1.624843e-02
  1.570529e+00    1.262348e+00   1.627813e-02
  1.572740e+00    1.262307e+00   1.625004e-02
  1.574950e+00    1.279390e+00   1.633296e-02
  1.577161e+00    1.251676e+00   1.612954e-02
  1.579371e+00    1.264293e+00   1.618678e-02
  1.581582e+00    1.258458e+00   1.612951e-02
  1.583792e+00    1.243794e+00   1.601724e-02
  1.586002e+00    1.241014e+00   1.598174e-02
  1.588213e+00    1.227800e+00   1.587929e-02
  1.590423e+00    1.246086e+00   1.597702e-02
  1.592634e+00    1.202906e+00   1.567649e-02
  1.594844e+00    1.226536e+00   1.580844e-02
  1.597055e+00    1.242112e+00   1.588802e-02
  1.599265e+00    1.244907e+00   1.588514e-02
  1.601476e+00    1.240764e+00   1.583839e-02
  1.603686e+00    1.237465e+00   1.579757e-02
  1.605897e+00    1.229304e+00   1.572530e-02
  1.608107e+00    1.237340e+00   1.575707e-02
  1.610317e+00    1.252351e+00   1.583293e-02
  1.612528e+00    1.237483e+00   1.571949e-02
  1.614738e+00    1.209371e+00   1.552113e-02
  1.616949e+00    1.186172e+00   1.535286e-02
  1.619159e+00    1.208679e+00   1.547922e-02
  1.621370e+00    1.208486e+00   1.545962e-02
  1.623580e+00    1.189589e+00   1.532013e-02
  1.625791e+00    1.181632e+00   1.525074e-02
  1.628001e+00    1.187184e+00   1.526839e-02
  1.630212e+00    1.173512e+00   1.516261e-02
  1.632422e+00    1.166239e+00   1.509780e-02
  1.634632e+00    1.186403e+00   1.521041e-02
  1.636843e+00    1.191417e+00   1.522490e-02
  1.639053e+00    1.164150e+00   1.503245e-02
  1.641264e+00    1.158393e+00   1.497820e-02
  1.643474e+00    1.151637e+00   1.491716e-02
  1.645685e+00    1.130776e+00   1.476499e-02
  1.647895e+00    1.128839e+00   1.473590e-02
  1.650106e+00    1.132854e+00   1.474523e-02
  1.652316e+00    1.125129e+00   1.467857e-02
  1.654527e+00    1.082415e+00   1.438102e-02
  1.656737e+00    1.105117e+00   1.451469e-02
  1.658947e+00    1.101972e+00   1.447798e-02
  1.661158e+00    1.089086e+00   1.437708e-02
  1.663368e+00    1.106313e+00   1.447444e-02
  1.665579e+00    1.097585e+00   1.440124e-02
  1.667789e+00    1.081703e+00   1.428069e-02
  1.670000e+00    1.104953e+00   1.441790e-02
  1.672210e+00    1.090412e+00   1.430699e-02
  1.674421e+00    1.096841e+00   1.433382e-02
  1.676631e+00    1.119531e+00   1.446533e-02
  1.678842e+00    1.093006e+00   1.427721e-02
  1.681052e+00    1.095629e+00   1.427893e-02
  1.683263e+00    1.099306e+00   1.428766e-02
  1.685473e+00    1.070148e+00   1.408188e-02
  1.687683e+00    1.061051e+00   1.400661e-02
  1.689894e+00    1.064482e+00   1.401360e-02
  1.692104e+00    1.041756e+00   1.384853e-02
  1.694315e+00    1.064241e+00   1.398271e-02
  1.696525e+00    1.056294e+00   1.391538e-02
  1.698736e+00    1.019386e+00   1.365560e-02
  1.700946e+00    1.047169e+00   1.382537e-02
  1.703157e+00    1.048810e+00   1.382166e-02
  1.705367e+00    1.013518e+00   1.357288e-02
  1.707578e+00    1.022991e+00   1.362177e-02
  1.709788e+00    1.014280e+00   1.354975e-02
  1.711998e+00    1.017609e+00   1.355713e-02
  1.714209e+00    1.015400e+00   1.352815e-02
  1.716419e+00    1.004028e+00   1.343812e-02
  1.718630e+00    1.006531e+00   1.344076e-02
  1.720840e+00    1.028939e+00   1.357537e-02
  1.723051e+00    1.018301e+00   1.349117e-02
  1.725261e+00    1.032580e+00   1.357068e-02
  1.727472e+00    1.034153e+00   1.356672e-02
  1.729682e+00    1.031780e+00   1.353759e-02
  1.731893e+00    1.027956e+00   1.349846e-02
  1.734103e+00    1.040154e+00   1.356431e-02
  1.736313e+00    1.027610e+00   1.346812e-02
  1.738524e+00    1.000059e+00   1.327253e-02
  1.740734e+00    9.928486e-01   1.321093e-02
  1.742945e+00    1.000017e+00   1.324506e-02
  1.745155e+00    9.769438e-01   1.307805e-02
  1.747366e+00    9.567128e-01   1.292832e-02
  1.749576e+00    9.514593e-01   1.287934e-02
  1.751787e+00    9.498115e-01   1.285507e-02
  1.753997e+00    9.599101e-01   1.290998e-02
  1.756208e+00    9.663052e-01   1.293977e-02
  1.758418e+00    9.489559e-01   1.281013e-02
  1.760628e+00    9.380919e-01   1.272346e-02
  1.762839e+00    9.512940e-01   1.279954e-02
  1.765049e+00    9.514092e-01   1.278728e-02
  1.767260e+00    9.360416e-01   1.267093e-02
  1.769470e+00    9.516289e-01   1.276304e-02
  1.771681e+00    9.357455e-01   1.264306e-02
  1.773891e+00    9.383234e-01   1.264748e-02
  1.776102e+00    9.435657e-01   1.266994e-02
  1.778312e+00    9.332018e-01   1.258748e-02
  1.780523e+00    9.516807e-01   1.269870e-02
  1.782733e+00    9.515685e-01   1.268519e-02
  1.784944e+00    9.370240e-01   1.257498e-02
  1.787154e+00    9.133404e-01   1.240265e-02
  1.789364e+00    9.080895e-01   1.235459e-02
  1.791575e+00    9.359804e-01   1.253029e-02
  1.793785e+00    9.370672e-01   1.252508e-02
  1.795996e+00    9.227519e-01   1.241651e-02
  1.798206e+00    9.323026e-01   1.246798e-02
  1.800417e+00    9.433652e-01   1.252886e-02
  1.802627e+00    9.342175e-01   1.245593e-02
  1.804838e+00    9.296348e-01   1.241309e-02
  1.807048e+00    9.305853e-01   1.240647e-02
  1.809259e+00    9.230039e-01   1.234208e-02
  1.811469e+00    9.256266e-01   1.234450e-02
  1.813679e+00    8.998910e-01   1.215670e-02
  1.815890e+00    8.929889e-01   1.209529e-02
  1.818100e+00    8.801829e-01   1.199328e-02
  1.820311e+00    8.786307e-01   1.196806e-02
  1.822521e+00    8.831225e-01   1.198382e-02
  1.824732e+00    8.719223e-01   1.189294e-02
  1.826942e+00    8.650429e-01   1.183373e-02
  1.829153e+00    8.684739e-01   1.184560e-02
  1.831363e+00    8.616067e-01   1.178680e-02
  1.833574e+00    8.576995e-01   1.174852e-02
  1.835784e+00    8.442317e-01   1.164472e-02
  1.837994e+00    8.539563e-01   1.170003e-02
  1.840205e+00    8.488014e-01   1.165366e-02
  1.842415e+00    8.549454e-01   1.168412e-02
  1.844626e+00    8.526757e-01   1.165716e-02
  1.846836e+00    8.615067e-01   1.170598e-02
  1.849047e+00    8.630484e-01   1.170486e-02
  1.851257e+00    8.705558e-01   1.174607e-02
  1.853468e+00    8.504955e-01   1.160119e-02
  1.855678e+00    8.482912e-01   1.157732e-02
  1.857889e+00    8.444754e-01   1.154284e-02
  1.860099e+00    8.535692e-01   1.159619e-02
  1.862309e+00    8.577279e-01   1.161591e-02
  1.864520e+00    8.339003e-01   1.144496e-02
  1.866730e+00    8.301327e-01   1.140984e-02
  1.868941e+00    8.291797e-01   1.139246e-02
  1.871151e+00    8.361330e-01   1.142887e-02
  1.873362e+00    8.399447e-01   1.144361e-02
  1.875572e+00    8.323467e-01   1.138090e-02
  1.877783e+00    8.486347e-01   1.148029e-02
  1.879993e+00    8.403758e-01   1.141317e-02
  1.882204e+00    8.370833e-01   1.137996e-02
  1.884414e+00    8.257602e-01   1.129176e-02
  1.886624e+00    8.295480e-01   1.130665e-02
  1.888835e+00    8.550758e-01   1.146824e-02
  1.891045e+00    8.355636e-01   1.132580e-02
  1.893256e+00    8.311362e-01   1.128470e-02
  1.895466e+00    8.413953e-01   1.134295e-02
  1.897677e+00    8.248871e-01   1.122025e-02
  1.899887e+00    8.409286e-01   1.131781e-02
  1.902098e+00    8.246689e-01   1.119706e-02
  1.904308e+00    8.363616e-01   1.126554e-02
  1.906519e+00    8.389445e-01   1.127203e-02
  1.908729e+00    8.287650e-01   1.119284e-02
  1.910940e+00    8.422461e-01   1.127225e-02
  1.913150e+00    8.742806e-01   1.147373e-02
  1.915360e+00    8.875977e-01   1.154978e-02
  1.917571e+00    8.738267e-01   1.144865e-02
  1.919781e+00    8.432860e-01   1.123594e-02
  1.921992e+00    8.535329e-01   1.129317e-02
  1.924202e+00    8.805770e-01   1.145951e-02
  1.926413e+00    8.785725e-01   1.143578e-02
  1.928623e+00    8.737948e-01   1.139374e-02
  1.930834e+00    8.421433e-01   1.117486e-02
  1.933044e+00    8.370562e-01   1.113022e-02
  1.935255e+00    8.186611e-01   1.099687e-02
  1.937465e+00    8.233569e-01   1.101785e-02
  1.939675e+00    8.106785e-01   1.092183e-02
  1.941886e+00    7.911276e-01   1.077914e-02
  1.944096e+00    7.997764e-01   1.082772e-02
  1.946307e+00    8.070300e-01   1.086634e-02
  1.948517e+00    8.175189e-01   1.092618e-02
  1.950728e+00    8.043762e-01   1.082771e-02
  1.952938e+00    8.158547e-01   1.089449e-02
  1.955149e+00    8.022565e-01   1.079305e-02
  1.957359e+00    7.975793e-01   1.075149e-02
  1.959570e+00    8.013552e-01   1.076599e-02
  1.961780e+00    7.977396e-01   1.073173e-02
  1.963990e+00    7.942953e-01   1.069841e-02
  1.966201e+00    8.058312e-01   1.076564e-02
  1.968411e+00    8.132825e-01   1.080502e-02
  1.970622e+00    8.022774e-01   1.072147e-02
  1.972832e+00    8.244888e-01   1.085866e-02
  1.975043e+00    8.140167e-01   1.077928e-02
  1.977253e+00    8.047316e-01   1.070754e-02
  1.979464e+00    8.177636e-01   1.078364e-02
  1.981674e+00    7.996598e-01   1.065326e-02
  1.983885e+00    7.921986e-01   1.059332e-02
  1.986095e+00    7.978225e-01   1.062108e-02
  1.988305e+00    7.861989e-01   1.053347e-02
  1.990516e+00    7.829211e-01   1.050154e-02
  1.992726e+00    7.907012e-01   1.054384e-02
  1.994937e+00    7.946839e-01   1.056012e-02
  1.997147e+00    8.100951e-01   1.065208e-02
  1.999358e+00    7.876299e-01   1.049341e-02
  2.001568e+00    7.838523e-01   1.045735e-02
  2.003779e+00    7.749060e-01   1.038554e-02
  2.005989e+00    7.724066e-01   1.035677e-02
  2.008200e+00    7.532173e-01   1.021590e-02
  2.010410e+00    7.706999e-01   1.032202e-02
  2.012621e+00    7.694133e-01   1.030169e-02
  2.014831e+00    7.533716e-01   1.018237e-02
  2.017041e+00    7.607785e-01   1.022196e-02
  2.019252e+00    7.710756e-01   1.028090e-02
  2.021462e+00    7.699912e-01   1.026414e-02
  2.023673e+00    7.667896e-01   1.023338e-02
  2.025883e+00    7.613487e-01   1.018750e-02
  2.028094e+00    7.509339e-01   1.010801e-02
  2.030304e+00    7.725626e-01   1.024292e-02
  2.032515e+00    7.526927e-01   1.010113e-02
  2.034725e+00    7.450786e-01   1.004054e-02
  2.036936e+00    7.363638e-01   9.972435e-03
  2.039146e+00    7.459703e-01   1.002778e-02
  2.041356e+00    7.585891e-01   1.010257e-02
  2.043567e+00    7.556925e-01   1.007397e-02
  2.045777e+00    7.531863e-01   1.004802e-02
  2.047988e+00    7.347232e-01   9.914862e-03
  2.050198e+00    7.338502e-01   9.900640e-03
  2.052409e+00    7.505772e-01   1.000519e-02
  2.054619e+00    7.495542e-01   9.991011e-03
  2.056830e+00    7.298742e-01   9.851919e-03
  2.059040e+00    7.410448e-01   9.919536e-03
  2.061251e+00    7.604263e-01   1.004113e-02
  2.063461e+00    7.377220e-01   9.882561e-03
  2.065671e+00    7.453681e-01   9.924943e-03
  2.067882e+00    7.440334e-01   9.907064e-03
  2.070092e+00    7.396986e-01   9.869037e-03
  2.072303e+00    7.371066e-01   9.842637e-03
  2.074513e+00    7.261233e-01   9.759831e-03
  2.076724e+00    7.433432e-01   9.865420e-03
  2.078934e+00    7.310545e-01   9.774614e-03
  2.081145e+00    7.257914e-01   9.730388e-03
  2.083355e+00    7.345505e-01   9.779781e-03
  2.085566e+00    7.305136e-01   9.744050e-03
  2.087776e+00    7.238132e-01   9.689842e-03
  2.089986e+00    7.292416e-01   9.717377e-03
  2.092197e+00    7.299907e-01   9.713456e-03
  2.094407e+00    7.168862e-01   9.616781e-03
  2.096618e+00    7.169020e-01   9.608087e-03
  2.098828e+00    7.330459e-01   9.706371e-03
  2.101039e+00    7.313065e-01   9.685877e-03
  2.103249e+00    7.229015e-01   9.621447e-03
  2.105460e+00    7.209232e-01   9.599293e-03
  2.107670e+00    7.323930e-01   9.666611e-03
  2.109881e+00    7.220567e-01   9.589025e-03
  2.112091e+00    7.260655e-01   9.606615e-03
  2.114301e+00    7.361877e-01   9.664490e-03
  2.116512e+00    7.109020e-01   9.488370e-03
  2.118722e+00    7.034227e-01   9.429595e-03
  2.120933e+00    7.097931e-01   9.463407e-03
  2.123143e+00    7.038384e-01   9.414809e-03
  2.125354e+00    6.896687e-01   9.311213e-03
  2.127564e+00    6.884688e-01   9.294533e-03
  2.129775e+00    6.887967e-01   9.288186e-03
  2.131985e+00    7.053751e-01   9.390295e-03
  2.134196e+00    6.996198e-01   9.343419e-03
  2.136406e+00    6.914175e-01   9.279852e-03
  2.138617e+00    7.001427e-01   9.329837e-03
  2.140827e+00    6.992865e-01   9.340078e-03
  2.143037e+00    7.039520e-01   9.416555e-03
  2.145248e+00    6.967247e-01   9.389962e-03
  2.147458e+00    7.070447e-01   9.474402e-03
  2.149669e+00    7.084967e-01   9.496032e-03
  2.151879e+00    7.024002e-01   9.464327e-03
  2.154090e+00    6.809016e-01   9.325554e-03
  2.156300e+00    6.919094e-01   9.407192e-03
  2.158511e+00    7.061024e-01   9.508518e-03
  2.160721e+00    6.924528e-01   9.420970e-03
  2.162932e+00    6.995693e-01   9.472989e-03
  2.165142e+00    6.992490e-01   9.473854e-03
  2.167352e+00    6.902828e-01   9.415832e-03
  2.169563e+00    6.804253e-01   9.350270e-03
  2.171773e+00    7.002612e-01   9.488042e-03
  2.173984e+00    6.885158e-01   9.409558e-03
  2.176194e+00    6.928813e-01   9.440530e-03
  2.178405e+00    6.850538e-01   9.387750e-03
  2.180615e+00    6.962777e-01   9.465022e-03
  2.182826e+00    6.788808e-01   9.346720e-03
  2.185036e+00    6.778188e-01   9.339434e-03
  2.187247e+00    6.816434e-01   9.365699e-03
  2.189457e+00    7.011518e-01   9.498367e-03
  2.191667e+00    6.754724e-01   9.322647e-03
  2.193878e+00    6.689641e-01   9.277055e-03
  2.196088e+00    6.716257e-01   9.294817e-03
  2.198299e+00    6.593930e-01   9.208715e-03
  2.200509e+00    6.671256e-01   9.261505e-03
  2.202720e+00    6.719297e-01   9.293638e-03
  2.204930e+00    6.837443e-01   9.373765e-03
  2.207141e+00    6.741561e-01   9.306684e-03
  2.209351e+00    6.806323e-01   9.349393e-03
  2.211562e+00    6.907611e-01   9.417081e-03
  2.213772e+00    6.751587e-01   9.254713e-03
  2.215982e+00    6.655872e-01   9.144983e-03
  2.218193e+00    6.871409e-01   9.262001e-03
  2.220403e+00    6.707997e-01   9.126712e-03
  2.222614e+00    6.680959e-01   9.087427e-03
  2.224824e+00    6.608929e-01   9.019099e-03
  2.227035e+00    6.729873e-01   9.083809e-03
  2.229245e+00    6.556082e-01   8.949001e-03
  2.231456e+00    6.614467e-01   8.973231e-03
  2.233666e+00    6.774822e-01   9.066205e-03
  2.235877e+00    6.573873e-01   8.916614e-03
  2.238087e+00    6.561984e-01   8.895189e-03
  2.240298e+00    6.665111e-01   8.951087e-03
  2.242508e+00    6.663508e-01   8.934895e-03
  2.244718e+00    6.915321e-01   9.086085e-03
  2.246929e+00    6.703687e-01   8.931547e-03
  2.249139e+00    6.735932e-01   8.940537e-03
  2.251350e+00    6.734043e-01   8.927538e-03
  2.253560e+00    6.766903e-01   8.937631e-03
  2.255771e+00    6.736308e-01   8.905925e-03
  2.257981e+00    6.782401e-01   8.925064e-03
  2.260192e+00    6.661025e-01   8.833712e-03
  2.262402e+00    6.557328e-01   8.753911e-03
  2.264613e+00    6.596333e-01   8.769082e-03
  2.266823e+00    6.700915e-01   8.827897e-03
  2.269033e+00    6.630732e-01   8.771146e-03
  2.271244e+00    6.882938e-01   8.925790e-03
  2.273454e+00    7.216645e-01   9.128908e-03
  2.275665e+00    7.343965e-01   9.198233e-03
  2.277875e+00    7.435694e-01   9.244990e-03
  2.280086e+00    6.959392e-01   8.933690e-03
  2.282296e+00    6.763597e-01   8.797584e-03
  2.284507e+00    6.528019e-01   8.632933e-03
  2.286717e+00    6.493825e-01   8.600878e-03
  2.288928e+00    6.461954e-01   8.569957e-03
  2.291138e+00    6.620806e-01   8.665193e-03
  2.293348e+00    6.547248e-01   8.607403e-03
  2.295559e+00    6.532714e-01   8.588525e-03
  2.297769e+00    6.602631e-01   8.625089e-03
  2.299980e+00    6.647301e-01   8.644803e-03
  2.302190e+00    6.648162e-01   8.636146e-03
  2.304401e+00    6.554173e-01   8.565557e-03
  2.306611e+00    6.508087e-01   8.526176e-03
  2.308822e+00    6.572281e-01   8.559719e-03
  2.311032e+00    6.335650e-01   8.397851e-03
  2.313243e+00    6.344908e-01   8.397757e-03
  2.315453e+00    6.511126e-01   8.499482e-03
  2.317663e+00    6.461105e-01   8.457643e-03
  2.319874e+00    6.523296e-01   8.489493e-03
  2.322084e+00    6.287389e-01   8.325723e-03
  2.324295e+00    6.452687e-01   8.426228e-03
  2.326505e+00    6.379607e-01   8.369381e-03
  2.328716e+00    6.393529e-01   8.369971e-03
  2.330926e+00    6.558591e-01   8.468452e-03
  2.333137e+00    6.204575e-01   8.228511e-03
  2.335347e+00    6.313670e-01   8.291699e-03
  2.337558e+00    6.598779e-01   8.468513e-03
  2.339768e+00    6.303142e-01   8.268141e-03
  2.341979e+00    6.206623e-01   8.196335e-03
  2.344189e+00    6.344208e-01   8.278307e-03
  2.346399e+00    6.344672e-01   8.270120e-03
  2.348610e+00    6.367693e-01   8.276653e-03
  2.350820e+00    6.474931e-01   8.337789e-03
  2.353031e+00    6.374968e-01   8.264889e-03
  2.355241e+00    6.288048e-01   8.200310e-03
  2.357452e+00    6.131657e-01   8.089417e-03
  2.359662e+00    6.243823e-01   8.154861e-03
  2.361873e+00    6.369373e-01   8.228196e-03
  2.364083e+00    6.213881e-01   8.119190e-03
  2.366294e+00    6.321525e-01   8.181081e-03
  2.368504e+00    6.247715e-01   8.125111e-03
  2.370714e+00    6.263922e-01   8.127582e-03
  2.372925e+00    6.282251e-01   8.131398e-03
  2.375135e+00    6.267223e-01   8.113594e-03
  2.377346e+00    6.106532e-01   8.001048e-03
  2.379556e+00    6.070818e-01   7.969806e-03
  2.381767e+00    6.137797e-01   8.005832e-03
  2.383977e+00    6.313046e-01   8.111336e-03
  2.386188e+00    5.994599e-01   7.896320e-03
  2.388398e+00    5.941435e-01   7.853428e-03
  2.390609e+00    6.030383e-01   7.904347e-03
  2.392819e+00    5.980622e-01   7.864028e-03
  2.395029e+00    5.974087e-01   7.852166e-03
  2.397240e+00    6.058594e-01   7.899709e-03
  2.399450e+00    6.030791e-01   7.873805e-03
  2.401661e+00    6.091450e-01   7.905649e-03
  2.403871e+00    6.265789e-01   8.010128e-03
  2.406082e+00    6.151434e-01   7.929241e-03
  2.408292e+00    6.138564e-01   7.913109e-03
  2.410503e+00    5.895204e-01   7.747312e-03
  2.412713e+00    6.049305e-01   7.840112e-03
  2.414924e+00    6.022662e-01   7.815374e-03
  2.417134e+00    6.078468e-01   7.843852e-03
  2.419344e+00    6.053727e-01   7.820437e-03
  2.421555e+00    6.101528e-01   7.843711e-03
  2.423765e+00    5.958701e-01   7.743979e-03
  2.425976e+00    5.938382e-01   7.722989e-03
  2.428186e+00    5.923620e-01   7.706214e-03
  2.430397e+00    5.942023e-01   7.710706e-03
  2.432607e+00    5.848817e-01   7.642779e-03
  2.434818e+00    5.938900e-01   7.693891e-03
  2.437028e+00    5.817381e-01   7.607692e-03
  2.439239e+00    5.856493e-01   7.625607e-03
  2.441449e+00    5.815184e-01   7.591561e-03
  2.443659e+00    5.768331e-01   7.553617e-03
  2.445870e+00    5.867652e-01   7.630618e-03
  2.448080e+00    5.717363e-01   7.566723e-03
  2.450291e+00    5.580516e-01   7.491946e-03
  2.452501e+00    5.702144e-01   7.584249e-03
  2.454712e+00    5.738996e-01   7.617150e-03
  2.456922e+00    5.659553e-01   7.570849e-03
  2.459133e+00    5.608913e-01   7.542296e-03
  2.461343e+00    5.588686e-01   7.533009e-03
  2.463554e+00    5.468851e-01   7.455221e-03
  2.465764e+00    5.475641e-01   7.462940e-03
  2.467975e+00    5.565226e-01   7.526020e-03
  2.470185e+00    5.620818e-01   7.565773e-03
  2.472395e+00    5.500704e-01   7.485729e-03
  2.474606e+00    5.516528e-01   7.498022e-03
  2.476816e+00    5.467627e-01   7.465474e-03
  2.479027e+00    5.568977e-01   7.535176e-03
  2.481237e+00    5.538117e-01   7.514574e-03
  2.483448e+00    5.493833e-01   7.484762e-03
  2.485658e+00    5.298519e-01   7.350368e-03
  2.487869e+00    5.437006e-01   7.445838e-03
  2.490079e+00    5.539114e-01   7.514912e-03
  2.492290e+00    5.352742e-01   7.386987e-03
  2.494500e+00    5.276086e-01   7.333161e-03
  2.496710e+00    5.329271e-01   7.369334e-03
  2.498921e+00    5.335529e-01   7.372671e-03
  2.501131e+00    5.346889e-01   7.379571e-03
  2.503342e+00    5.237538e-01   7.302477e-03
  2.505552e+00    5.125617e-01   7.222905e-03
  2.507763e+00    5.198678e-01   7.272801e-03
  2.509973e+00    5.161911e-01   7.245656e-03
  2.512184e+00    5.224013e-01   7.287510e-03
  2.514394e+00    5.208344e-01   7.267266e-03
  2.516605e+00    5.346959e-01   7.315899e-03
  2.518815e+00    5.322161e-01   7.270425e-03
  2.521025e+00    5.477375e-01   7.354287e-03
  2.523236e+00    5.463352e-01   7.326538e-03
  2.525446e+00    5.280148e-01   7.186998e-03
  2.527657e+00    5.481460e-01   7.307806e-03
  2.529867e+00    5.325503e-01   7.188822e-03
  2.532078e+00    5.279703e-01   7.142757e-03
  2.534288e+00    5.213220e-01   7.083813e-03
  2.536499e+00    5.208442e-01   7.068645e-03
  2.538709e+00    5.305014e-01   7.122830e-03
  2.540920e+00    5.146366e-01   7.004982e-03
  2.543130e+00    5.166410e-01   7.008299e-03
  2.545340e+00    5.182369e-01   7.009113e-03
  2.547551e+00    5.207281e-01   7.016021e-03
  2.549761e+00    5.128375e-01   6.953156e-03
  2.551972e+00    5.309584e-01   7.065503e-03
  2.554182e+00    5.250403e-01   7.016812e-03
  2.556393e+00    5.222708e-01   6.989167e-03
  2.558603e+00    5.375180e-01   7.081234e-03
  2.560814e+00    5.148621e-01   6.921756e-03
  2.563024e+00    5.208418e-01   6.953212e-03
  2.565235e+00    5.134426e-01   6.894206e-03
  2.567445e+00    5.200816e-01   6.929063e-03
  2.569656e+00    5.207115e-01   6.923483e-03
  2.571866e+00    5.283922e-01   6.964924e-03
  2.574076e+00    5.147631e-01   6.865250e-03
  2.576287e+00    5.217330e-01   6.903199e-03
  2.578497e+00    5.250822e-01   6.917417e-03
  2.580708e+00    5.207496e-01   6.880692e-03
  2.582918e+00    5.239030e-01   6.893655e-03
  2.585129e+00    5.152365e-01   6.828653e-03
  2.587339e+00    5.200409e-01   6.852680e-03
  2.589550e+00    5.187328e-01   6.836487e-03
  2.591760e+00    4.976885e-01   6.688722e-03
  2.593971e+00    5.124423e-01   6.779619e-03
  2.596181e+00    5.081708e-01   6.745087e-03
  2.598391e+00    5.103251e-01   6.754214e-03
  2.600602e+00    5.141372e-01   6.773425e-03
  2.602812e+00    5.070162e-01   6.718859e-03
  2.605023e+00    4.947457e-01   6.629973e-03
  2.607233e+00    5.079804e-01   6.710925e-03
  2.609444e+00    5.148262e-01   6.748719e-03
  2.611654e+00    5.107514e-01   6.714615e-03
  2.613865e+00    5.016078e-01   6.647220e-03
  2.616075e+00    5.165030e-01   6.737989e-03
  2.618286e+00    5.206110e-01   6.757621e-03
  2.620496e+00    5.094624e-01   6.678174e-03
  2.622706e+00    5.139750e-01   6.701864e-03
  2.624917e+00    4.966195e-01   6.581960e-03
  2.627127e+00    5.084007e-01   6.653790e-03
  2.629338e+00    5.012257e-01   6.600718e-03
  2.631548e+00    5.036702e-01   6.610626e-03
  2.633759e+00    4.926889e-01   6.531080e-03
  2.635969e+00    4.998328e-01   6.571588e-03
  2.638180e+00    4.940594e-01   6.526595e-03
  2.640390e+00    4.871222e-01   6.474099e-03
  2.642601e+00    4.922772e-01   6.501652e-03
  2.644811e+00    4.960186e-01   6.519277e-03
  2.647021e+00    4.971001e-01   6.519824e-03
  2.649232e+00    5.018407e-01   6.544116e-03
  2.651442e+00    5.017030e-01   6.536689e-03
  2.653653e+00    5.027778e-01   6.536875e-03
  2.655863e+00    4.926223e-01   6.463878e-03
  2.658074e+00    5.037193e-01   6.529619e-03
  2.660284e+00    4.985226e-01   6.489484e-03
  2.662495e+00    4.925369e-01   6.443704e-03
  2.664705e+00    4.973339e-01   6.468415e-03
  2.666916e+00    5.020675e-01   6.492636e-03
  2.669126e+00    5.009614e-01   6.479001e-03
  2.671337e+00    4.864247e-01   6.377771e-03
  2.673547e+00    4.835480e-01   6.352584e-03
  2.675757e+00    4.980094e-01   6.440397e-03
  2.677968e+00    5.073906e-01   6.494171e-03
  2.680178e+00    4.890813e-01   6.369576e-03
  2.682389e+00    4.732729e-01   6.259496e-03
  2.684599e+00    4.907493e-01   6.367841e-03
  2.686810e+00    5.002752e-01   6.422711e-03
  2.689020e+00    4.872188e-01   6.332068e-03
  2.691231e+00    4.930536e-01   6.363571e-03
  2.693441e+00    4.804146e-01   6.275408e-03
  2.695652e+00    4.748258e-01   6.232379e-03
  2.697862e+00    4.821665e-01   6.274072e-03
  2.700072e+00    4.890964e-01   6.312924e-03
  2.702283e+00    4.875942e-01   6.297016e-03
  2.704493e+00    4.915915e-01   6.316473e-03
  2.706704e+00    4.848501e-01   6.266632e-03
  2.708914e+00    4.781818e-01   6.217493e-03
  2.711125e+00    4.766759e-01   6.201494e-03
  2.713335e+00    4.941678e-01   6.308138e-03
  2.715546e+00    4.960016e-01   6.313309e-03
  2.717756e+00    4.910940e-01   6.276091e-03
  2.719967e+00    4.823772e-01   6.213951e-03
  2.722177e+00    4.725972e-01   6.144593e-03
  2.724387e+00    4.693311e-01   6.117318e-03
  2.726598e+00    4.773976e-01   6.163652e-03
  2.728808e+00    4.762641e-01   6.150245e-03
  2.731019e+00    4.849577e-01   6.199994e-03
  2.733229e+00    4.737201e-01   6.121994e-03
  2.735440e+00    4.655841e-01   6.063068e-03
  2.737650e+00    4.648119e-01   6.052108e-03
  2.739861e+00    4.708578e-01   6.085361e-03
  2.742071e+00    4.896404e-01   6.199764e-03
  2.744282e+00    4.821464e-01   6.145895e-03
  2.746492e+00    4.917484e-01   6.200703e-03
  2.748702e+00    4.784408e-01   6.110345e-03
  2.750913e+00    4.868002e-01   6.157659e-03
  2.753123e+00    4.864815e-01   6.149513e-03
  2.755334e+00    4.750010e-01   6.070472e-03
  2.757544e+00    4.826069e-01   6.113119e-03
  2.759755e+00    4.916559e-01   6.164216e-03
  2.761965e+00    4.888633e-01   6.140658e-03
  2.764176e+00    4.887167e-01   6.133685e-03
  2.766386e+00    4.834022e-01   6.094449e-03
  2.768597e+00    4.712367e-01   6.011446e-03
  2.770807e+00    4.901021e-01   6.124657e-03
  2.773017e+00    4.735601e-01   6.014475e-03
  2.775228e+00    4.843839e-01   6.076990e-03
  2.777438e+00    4.813455e-01   6.052101e-03
  2.779649e+00    4.796219e-01   6.035338e-03
  2.781859e+00    4.866867e-01   6.073808e-03
  2.784070e+00    4.743035e-01   5.990202e-03
  2.786280e+00    4.802763e-01   6.022011e-03
  2.788491e+00    4.813976e-01   6.023180e-03
  2.790701e+00    4.783171e-01   5.998215e-03
  2.792912e+00    4.733488e-01   5.961036e-03
  2.795122e+00    4.743520e-01   5.961627e-03
  2.797333e+00    4.664272e-01   5.906123e-03
  2.799543e+00    4.651906e-01   5.892469e-03
  2.801753e+00    4.715814e-01   5.926983e-03
  2.803964e+00    4.839767e-01   5.998657e-03
  2.806174e+00    4.796503e-01   5.965613e-03
  2.808385e+00    4.654417e-01   5.869878e-03
  2.810595e+00    4.606425e-01   5.832743e-03
  2.812806e+00    4.750620e-01   5.916742e-03
  2.815016e+00    4.613967e-01   5.826324e-03
  2.817227e+00    4.705407e-01   5.909615e-03
  2.819437e+00    4.735709e-01   5.939683e-03
  2.821648e+00    4.699852e-01   5.919447e-03
  2.823858e+00    4.699335e-01   5.924437e-03
  2.826068e+00    4.671273e-01   5.911672e-03
  2.828279e+00    4.727460e-01   5.951152e-03
  2.830489e+00    4.738048e-01   5.961157e-03
  2.832700e+00    4.791389e-01   5.997185e-03
  2.834910e+00    4.824620e-01   6.020054e-03
  2.837121e+00    4.739321e-01   5.968315e-03
  2.839331e+00    4.727967e-01   5.962388e-03
  2.841542e+00    4.563512e-01   5.858778e-03
  2.843752e+00    4.758302e-01   5.983277e-03
  2.845963e+00    4.696749e-01   5.944873e-03
  2.848173e+00    4.749973e-01   5.978534e-03
  2.850383e+00    4.723682e-01   5.962277e-03
  2.852594e+00    4.584831e-01   5.873905e-03
  2.854804e+00    4.682204e-01   5.935439e-03
  2.857015e+00    4.835996e-01   6.031702e-03
  2.859225e+00    4.710402e-01   5.952612e-03
  2.861436e+00    4.691889e-01   5.940246e-03
  2.863646e+00    4.580418e-01   5.869302e-03
  2.865857e+00    4.653856e-01   5.916476e-03
  2.868067e+00    4.605430e-01   5.885869e-03
  2.870278e+00    4.547186e-01   5.848166e-03
  2.872488e+00    4.527239e-01   5.834180e-03
  2.874698e+00    4.576022e-01   5.864483e-03
  2.876909e+00    4.615909e-01   5.888669e-03
  2.879119e+00    4.636760e-01   5.900325e-03
  2.881330e+00    4.769413e-01   5.982647e-03
  2.883540e+00    4.603544e-01   5.876317e-03
  2.885751e+00    4.551303e-01   5.841225e-03
  2.887961e+00    4.713533e-01   5.942523e-03
  2.890172e+00    4.641114e-01   5.895099e-03
  2.892382e+00    4.526194e-01   5.819860e-03
  2.894593e+00    4.596862e-01   5.863306e-03
  2.896803e+00    4.557413e-01   5.836123e-03
  2.899014e+00    4.530693e-01   5.817089e-03
  2.901224e+00    4.531841e-01   5.815858e-03
  2.903434e+00    4.458702e-01   5.766811e-03
  2.905645e+00    4.553677e-01   5.825695e-03
  2.907855e+00    4.546080e-01   5.818744e-03
  2.910066e+00    4.681987e-01   5.902979e-03
  2.912276e+00    4.587570e-01   5.841054e-03
  2.914487e+00    4.562541e-01   5.822632e-03
  2.916697e+00    4.637727e-01   5.868172e-03
  2.918908e+00    4.672580e-01   5.888170e-03
  2.921118e+00    4.633016e-01   5.860478e-03
  2.923329e+00    4.533285e-01   5.794739e-03
  2.925539e+00    4.564097e-01   5.812143e-03
  2.927749e+00    4.571213e-01   5.814342e-03
  2.929960e+00    4.493032e-01   5.761663e-03
  2.932170e+00    4.539375e-01   5.788985e-03
  2.934381e+00    4.446865e-01   5.727271e-03
  2.936591e+00    4.480758e-01   5.746497e-03
  2.938802e+00    4.625244e-01   5.835697e-03
  2.941012e+00    4.609407e-01   5.823348e-03
  2.943223e+00    4.516490e-01   5.761669e-03
  2.945433e+00    4.657488e-01   5.847127e-03
  2.947644e+00    4.653364e-01   5.840385e-03
  2.949854e+00    4.523572e-01   5.754082e-03
  2.952064e+00    4.587190e-01   5.790160e-03
  2.954275e+00    4.646302e-01   5.822901e-03
  2.956485e+00    4.571008e-01   5.771328e-03
  2.958696e+00    4.656113e-01   5.820390e-03
  2.960906e+00    4.498954e-01   5.717150e-03
  2.963117e+00    4.540034e-01   5.738715e-03
  2.965327e+00    4.484302e-01   5.699510e-03
  2.967538e+00    4.514638e-01   5.715835e-03
  2.969748e+00    4.632170e-01   5.786932e-03
  2.971959e+00    4.683053e-01   5.815436e-03
  2.974169e+00    4.568154e-01   5.741077e-03
  2.976379e+00    4.658708e-01   5.794724e-03
  2.978590e+00    4.613274e-01   5.763256e-03
  2.980800e+00    4.552239e-01   5.722192e-03
  2.983011e+00    4.564117e-01   5.726851e-03
  2.985221e+00    4.555900e-01   5.718546e-03
  2.987432e+00    4.437734e-01   5.640807e-03
  2.989642e+00    4.510570e-01   5.684292e-03
  2.991853e+00    4.612813e-01   5.745054e-03
  2.994063e+00    4.537322e-01   5.694940e-03
  2.996274e+00    4.491597e-01   5.663016e-03
  2.998484e+00    4.657805e-01   5.764090e-03
  3.000694e+00    4.592874e-01   5.720318e-03
  3.002905e+00    4.534416e-01   5.680844e-03
  3.005115e+00    4.463005e-01   5.632989e-03
  3.007326e+00    4.554996e-01   5.687563e-03
  3.009536e+00    4.719303e-01   5.785920e-03
  3.011747e+00    4.650505e-01   5.740662e-03
  3.013957e+00    4.664621e-01   5.746121e-03
  3.016168e+00    4.685964e-01   5.755944e-03
  3.018378e+00    4.554397e-01   5.671529e-03
  3.020589e+00    4.422259e-01   5.585460e-03
  3.022799e+00    4.436371e-01   5.591230e-03
  3.025010e+00    4.564261e-01   5.667984e-03
  3.027220e+00    4.636962e-01   5.709823e-03
  3.029430e+00    4.560264e-01   5.659131e-03
  3.031641e+00    4.565559e-01   5.659251e-03
  3.033851e+00    4.643644e-01   5.703895e-03
  3.036062e+00    4.542119e-01   5.638418e-03
  3.038272e+00    4.506491e-01   5.612662e-03
  3.040483e+00    4.458985e-01   5.579812e-03
  3.042693e+00    4.510061e-01   5.608425e-03
  3.044904e+00    4.434718e-01   5.557360e-03
  3.047114e+00    4.554397e-01   5.627050e-03
  3.049325e+00    4.563077e-01   5.627969e-03
  3.051535e+00    4.620078e-01   5.658573e-03
  3.053745e+00    4.468507e-01   5.560252e-03
  3.055956e+00    4.550305e-01   5.606313e-03
  3.058166e+00    4.548568e-01   5.600963e-03
  3.060377e+00    4.559869e-01   5.603113e-03
  3.062587e+00    4.502114e-01   5.562888e-03
  3.064798e+00    4.422797e-01   5.509456e-03
  3.067008e+00    4.523499e-01   5.567063e-03
  3.069219e+00    4.507749e-01   5.552867e-03
  3.071429e+00    4.319036e-01   5.431944e-03
  3.073640e+00    4.346042e-01   5.445611e-03
  3.075850e+00    4.487215e-01   5.529777e-03
  3.078060e+00    4.450225e-01   5.503842e-03
  3.080271e+00    4.479881e-01   5.518678e-03
  3.082481e+00    4.488094e-01   5.520303e-03
  3.084692e+00    4.446648e-01   5.491372e-03
  3.086902e+00    4.499564e-01   5.520703e-03
  3.089113e+00    4.592449e-01   5.573785e-03
  3.091323e+00    4.440107e-01   5.477209e-03
  3.093534e+00    4.405413e-01   5.452402e-03
  3.095744e+00    4.475487e-01   5.492233e-03
  3.097955e+00    4.520384e-01   5.516135e-03
  3.100165e+00    4.492998e-01   5.496077e-03
  3.102375e+00    4.439186e-01   5.459648e-03
  3.104586e+00    4.440186e-01   5.456786e-03
  3.106796e+00    4.467808e-01   5.470198e-03
  3.109007e+00    4.538544e-01   5.510102e-03
  3.111217e+00    4.401776e-01   5.422765e-03
  3.113428e+00    4.577690e-01   5.526595e-03
  3.115638e+00    4.463224e-01   5.453857e-03
  3.117849e+00    4.291866e-01   5.344448e-03
  3.120059e+00    4.464633e-01   5.447504e-03
  3.122270e+00    4.386299e-01   5.396257e-03
  3.124480e+00    4.473474e-01   5.445925e-03
  3.126691e+00    4.335498e-01   5.357775e-03
  3.128901e+00    4.355257e-01   5.366869e-03
  3.131111e+00    4.347431e-01   5.358254e-03
  3.133322e+00    4.297708e-01   5.324132e-03
  3.135532e+00    4.205277e-01   5.263246e-03
  3.137743e+00    4.419428e-01   5.392127e-03
  3.139953e+00    4.469975e-01   5.419176e-03
  3.142164e+00    4.470312e-01   5.431463e-03
  3.144374e+00    4.512699e-01   5.485842e-03
  3.146585e+00    4.493075e-01   5.488571e-03
  3.148795e+00    4.389572e-01   5.435727e-03
  3.151006e+00    4.471915e-01   5.495071e-03
  3.153216e+00    4.316339e-01   5.405697e-03
  3.155426e+00    4.329489e-01   5.420154e-03
  3.157637e+00    4.559865e-01   5.568122e-03
  3.159847e+00    4.352916e-01   5.445166e-03
  3.162058e+00    4.282962e-01   5.405575e-03
  3.164268e+00    4.497750e-01   5.543585e-03
  3.166479e+00    4.408150e-01   5.491739e-03
  3.168689e+00    4.493416e-01   5.548008e-03
  3.170900e+00    4.344270e-01   5.458325e-03
  3.173110e+00    4.347403e-01   5.463129e-03
  3.175321e+00    4.404808e-01   5.501583e-03
  3.177531e+00    4.397161e-01   5.499547e-03
  3.179741e+00    4.493849e-01   5.561790e-03
  3.181952e+00    4.420008e-01   5.518024e-03
  3.184162e+00    4.604590e-01   5.634311e-03
  3.186373e+00    4.464028e-01   5.549271e-03
  3.188583e+00    4.358709e-01   5.485205e-03
  3.190794e+00    4.410630e-01   5.519518e-03
  3.193004e+00    4.359140e-01   5.488479e-03
  3.195215e+00    4.381704e-01   5.504158e-03
  3.197425e+00    4.287802e-01   5.446067e-03
  3.199636e+00    4.236931e-01   5.412896e-03
  3.201846e+00    4.406048e-01   5.519260e-03
  3.204056e+00    4.368998e-01   5.496904e-03
  3.206267e+00    4.276839e-01   5.439455e-03
  3.208477e+00    4.398030e-01   5.516905e-03
  3.210688e+00    4.384043e-01   5.508999e-03
  3.212898e+00    4.354162e-01   5.490754e-03
  3.215109e+00    4.344524e-01   5.485434e-03
  3.217319e+00    4.302642e-01   5.459568e-03
  3.219530e+00    4.283459e-01   5.447767e-03
  3.221740e+00    4.250786e-01   5.427495e-03
  3.223951e+00    4.464369e-01   5.562678e-03
  3.226161e+00    4.476185e-01   5.570219e-03
  3.228372e+00    4.291893e-01   5.454883e-03
  3.230582e+00    4.305922e-01   5.463921e-03
  3.232792e+00    4.338963e-01   5.485082e-03
  3.235003e+00    4.251642e-01   5.429843e-03
  3.237213e+00    4.221969e-01   5.410973e-03
  3.239424e+00    4.267676e-01   5.440154e-03
  3.241634e+00    4.274223e-01   5.444483e-03
  3.243845e+00    4.274521e-01   5.444720e-03
  3.246055e+00    4.353670e-01   5.494635e-03
  3.248266e+00    4.353063e-01   5.494463e-03
  3.250476e+00    4.288101e-01   5.452986e-03
  3.252687e+00    4.118859e-01   5.344243e-03
  3.254897e+00    4.148007e-01   5.362974e-03
  3.257107e+00    4.287176e-01   5.451901e-03
  3.259318e+00    4.174356e-01   5.379448e-03
  3.261528e+00    4.292671e-01   5.455013e-03
  3.263739e+00    4.213690e-01   5.404048e-03
  3.265949e+00    4.175221e-01   5.379189e-03
  3.268160e+00    4.292944e-01   5.454081e-03
  3.270370e+00    4.293460e-01   5.453905e-03
  3.272581e+00    4.268571e-01   5.437784e-03
  3.274791e+00    4.375741e-01   5.505095e-03
  3.277002e+00    4.223942e-01   5.408221e-03
  3.279212e+00    4.317501e-01   5.467373e-03
  3.281422e+00    4.190295e-01   5.385681e-03
  3.283633e+00    4.267281e-01   5.434216e-03
  3.285843e+00    4.315332e-01   5.464417e-03
  3.288054e+00    4.277534e-01   5.439478e-03
  3.290264e+00    4.191699e-01   5.384332e-03
  3.292475e+00    4.028759e-01   5.277817e-03
  3.294685e+00    4.092262e-01   5.318615e-03
  3.296896e+00    4.173914e-01   5.370680e-03
  3.299106e+00    4.195101e-01   5.383724e-03
  3.301317e+00    4.228894e-01   5.404360e-03
  3.303527e+00    4.157402e-01   5.358005e-03
  3.305737e+00    4.207890e-01   5.389388e-03
  3.307948e+00    4.383740e-01   5.500183e-03
  3.310158e+00    4.335366e-01   5.468887e-03
  3.312369e+00    4.322324e-01   5.459775e-03
  3.314579e+00    4.187584e-01   5.373096e-03
  3.316790e+00    4.150760e-01   5.348703e-03
  3.319000e+00    4.172385e-01   5.361456e-03
  3.321211e+00    4.175381e-01   5.362753e-03
  3.323421e+00    4.190288e-01   5.371141e-03
  3.325632e+00    4.134460e-01   5.334354e-03
  3.327842e+00    4.275238e-01   5.423488e-03
  3.330052e+00    4.135702e-01   5.333191e-03
  3.332263e+00    4.182898e-01   5.362526e-03
  3.334473e+00    4.159585e-01   5.346655e-03
  3.336684e+00    4.157970e-01   5.344358e-03
  3.338894e+00    4.218774e-01   5.382448e-03
  3.341105e+00    4.197437e-01   5.367616e-03
  3.343315e+00    4.276731e-01   5.416924e-03
  3.345526e+00    4.202119e-01   5.368574e-03
  3.347736e+00    4.191866e-01   5.360614e-03
  3.349947e+00    4.112774e-01   5.308880e-03
  3.352157e+00    4.131049e-01   5.319479e-03
  3.354368e+00    4.225726e-01   5.378814e-03
  3.356578e+00    4.030662e-01   5.252200e-03
  3.358788e+00    4.202096e-01   5.361364e-03
  3.360999e+00    4.356024e-01   5.457436e-03
  3.363209e+00    4.257638e-01   5.394435e-03
  3.365420e+00    4.128403e-01   5.310423e-03
  3.367630e+00    4.225629e-01   5.371556e-03
  3.369841e+00    4.128773e-01   5.308239e-03
  3.372051e+00    4.053390e-01   5.257585e-03
  3.374262e+00    4.194671e-01   5.345997e-03
  3.376472e+00    4.038805e-01   5.243326e-03
  3.378683e+00    4.049442e-01   5.247738e-03
  3.380893e+00    4.104415e-01   5.280934e-03
  3.383103e+00    4.262940e-01   5.379173e-03
  3.385314e+00    4.261996e-01   5.376378e-03
  3.387524e+00    3.998012e-01   5.204490e-03
  3.389735e+00    4.038056e-01   5.227913e-03
  3.391945e+00    4.123582e-01   5.279306e-03
  3.394156e+00    4.063416e-01   5.236445e-03
  3.396366e+00    4.124453e-01   5.272244e-03
  3.398577e+00    4.049288e-01   5.220943e-03
  3.400787e+00    4.044448e-01   5.229666e-03
  3.402998e+00    4.022026e-01   5.252816e-03
  3.405208e+00    4.074020e-01   5.307389e-03
  3.407418e+00    3.920662e-01   5.222145e-03
  3.409629e+00    4.009254e-01   5.294766e-03
  3.411839e+00    3.836311e-01   5.190865e-03
  3.414050e+00    3.716134e-01   5.119536e-03
  3.416260e+00    4.048520e-01   5.353346e-03
  3.418471e+00    3.891494e-01   5.257888e-03
  3.420681e+00    3.863273e-01   5.247210e-03
  3.422892e+00    3.866885e-01   5.257608e-03
  3.425102e+00    3.997449e-01   5.353566e-03
  3.427313e+00    3.865853e-01   5.271877e-03
  3.429523e+00    3.785146e-01   5.223543e-03
  3.431733e+00    3.726098e-01   5.189184e-03
  3.433944e+00    3.692624e-01   5.172164e-03
  3.436154e+00    3.801222e-01   5.253904e-03
  3.438365e+00    3.771807e-01   5.239419e-03
  3.440575e+00    3.694179e-01   5.191070e-03
  3.442786e+00    3.745217e-01   5.232379e-03
  3.444996e+00    3.748246e-01   5.239966e-03
  3.447207e+00    3.621193e-01   5.155606e-03
  3.449417e+00    3.751538e-01   5.288583e-03
  3.451628e+00    3.600061e-01   5.209793e-03
  3.453838e+00    3.634335e-01   5.255585e-03
  3.456049e+00    3.528377e-01   5.201843e-03
  3.458259e+00    3.685567e-01   5.338436e-03
  3.460469e+00    3.646009e-01   5.329463e-03
  3.462680e+00    3.517442e-01   5.253324e-03
  3.464890e+00    3.603077e-01   5.334522e-03
  3.467101e+00    3.632993e-01   5.374016e-03
  3.469311e+00    3.663598e-01   5.413041e-03
  3.471522e+00    3.852648e-01   5.567576e-03
  3.473732e+00    3.863664e-01   5.591630e-03
  3.475943e+00    4.042622e-01   5.735790e-03
  3.478153e+00    4.111659e-01   5.800504e-03
  3.480364e+00    4.000677e-01   5.736928e-03
  3.482574e+00    4.298048e-01   5.962141e-03
  3.484784e+00    4.334155e-01   6.002423e-03
  3.486995e+00    4.517480e-01   6.143804e-03
  3.489205e+00    4.343703e-01   6.039328e-03
  3.491416e+00    4.329918e-01   6.044751e-03
  3.493626e+00    4.488185e-01   6.169048e-03
  3.495837e+00    4.639342e-01   6.287222e-03
  3.498047e+00    4.518953e-01   6.219708e-03
  3.500258e+00    4.610780e-01   6.297331e-03
  3.502468e+00    4.556837e-01   6.274825e-03
  3.504679e+00    4.666587e-01   6.364516e-03
  3.506889e+00    4.649238e-01   6.367098e-03
  3.509099e+00    4.750404e-01   6.450403e-03
  3.511310e+00    4.730998e-01   6.451650e-03
  3.513520e+00    4.781087e-01   6.500070e-03
  3.515731e+00    4.816745e-01   6.538566e-03
  3.517941e+00    4.906467e-01   6.613552e-03
  3.520152e+00    4.923048e-01   6.639028e-03
  3.522362e+00    4.785501e-01   6.559765e-03
  3.524573e+00    5.010772e-01   6.726577e-03
  3.526783e+00    4.983601e-01   6.721521e-03
  3.528994e+00    5.068326e-01   6.790537e-03
  3.531204e+00    5.144359e-01   6.853645e-03
  3.533414e+00    5.280829e-01   6.956081e-03
  3.535625e+00    5.247476e-01   6.946404e-03
  3.537835e+00    5.383608e-01   7.048111e-03
  3.540046e+00    5.365553e-01   7.045228e-03
  3.542256e+00    5.323451e-01   7.025040e-03
  3.544467e+00    5.298022e-01   7.015817e-03
  3.546677e+00    5.303203e-01   7.026811e-03
  3.548888e+00    5.136313e-01   6.922660e-03
  3.551098e+00    5.194827e-01   6.969177e-03
  3.553309e+00    5.403491e-01   7.115942e-03
  3.555519e+00    5.450941e-01   7.158523e-03
  3.557729e+00    5.365295e-01   7.113800e-03
  3.559940e+00    5.252146e-01   7.049835e-03
  3.562150e+00    5.270630e-01   7.073798e-03
  3.564361e+00    5.292410e-01   7.101664e-03
  3.566571e+00    5.304327e-01   7.123412e-03
  3.568782e+00    5.287509e-01   7.126122e-03
  3.570992e+00    5.250658e-01   7.114868e-03
  3.573203e+00    5.345213e-01   7.192747e-03
  3.575413e+00    5.476238e-01   7.294301e-03
  3.577624e+00    5.488652e-01   7.316881e-03
  3.579834e+00    5.342952e-01   7.232958e-03
  3.582045e+00    5.483982e-01   7.341970e-03
  3.584255e+00    5.453343e-01   7.335650e-03
  3.586465e+00    5.292231e-01   7.240287e-03
  3.588676e+00    5.463377e-01   7.370772e-03
  3.590886e+00    5.395717e-01   7.338742e-03
  3.593097e+00    5.257222e-01   7.258320e-03
  3.595307e+00    5.245166e-01   7.263749e-03
  3.597518e+00    5.373030e-01   7.366007e-03
  3.599728e+00    5.283664e-01   7.318502e-03
  3.601939e+00    5.068352e-01   7.181507e-03
  3.604149e+00    5.249538e-01   7.322988e-03
  3.606360e+00    5.175147e-01   7.284855e-03
  3.608570e+00    5.304146e-01   7.389148e-03
  3.610780e+00    5.411800e-01   7.474901e-03
  3.612991e+00    5.314800e-01   7.417594e-03
  3.615201e+00    5.427367e-01   7.505585e-03
  3.617412e+00    5.373036e-01   7.475246e-03
  3.619622e+00    5.428780e-01   7.519902e-03
  3.621833e+00    5.364564e-01   7.482012e-03
  3.624043e+00    5.301008e-01   7.447077e-03
  3.626254e+00    5.303234e-01   7.458214e-03
  3.628464e+00    5.352849e-01   7.504095e-03
  3.630675e+00    5.469399e-01   7.599594e-03
  3.632885e+00    5.302924e-01   7.497474e-03
  3.635095e+00    5.237961e-01   7.465640e-03
  3.637306e+00    5.470587e-01   7.644169e-03
  3.639516e+00    5.423500e-01   7.625862e-03
  3.641727e+00    5.437332e-01   7.650314e-03
  3.643937e+00    5.391216e-01   7.632398e-03
  3.646148e+00    5.520630e-01   7.738338e-03
  3.648358e+00    5.427869e-01   7.688055e-03
  3.650569e+00    5.321513e-01   7.627081e-03
  3.652779e+00    5.464922e-01   7.744135e-03
  3.654990e+00    5.402725e-01   7.714911e-03
  3.657200e+00    5.303550e-01   7.658667e-03
  3.659410e+00    5.455679e-01   7.782856e-03
  3.661621e+00    5.564740e-01   7.875751e-03
  3.663831e+00    5.530372e-01   7.866825e-03
  3.666042e+00    5.123355e-01   7.586661e-03
  3.668252e+00    5.243722e-01   7.690391e-03
  3.670463e+00    5.320157e-01   7.761492e-03
  3.672673e+00    5.325215e-01   7.780650e-03
  3.674884e+00    5.130619e-01   7.652289e-03
  3.677094e+00    5.468858e-01   7.916227e-03
  3.679305e+00    5.263641e-01   7.781832e-03
  3.681515e+00    5.144261e-01   7.708447e-03
  3.683726e+00    5.258661e-01   7.809423e-03
  3.685936e+00    5.251966e-01   7.820102e-03
  3.688146e+00    5.191301e-01   7.790437e-03
  3.690357e+00    5.095701e-01   7.734081e-03
  3.692567e+00    5.160415e-01   7.798919e-03
  3.694778e+00    5.064071e-01   7.741574e-03
  3.696988e+00    5.146728e-01   7.820269e-03
  3.699199e+00    5.259926e-01   7.922079e-03
  3.701409e+00    4.991160e-01   7.732988e-03
  3.703620e+00    4.936002e-01   7.705945e-03
  3.705830e+00    5.146459e-01   7.884760e-03
  3.708041e+00    5.215907e-01   7.954324e-03
  3.710251e+00    5.095266e-01   7.878320e-03
  3.712461e+00    5.019363e-01   7.835803e-03
  3.714672e+00    5.056510e-01   7.881216e-03
  3.716882e+00    5.169237e-01   7.985216e-03
  3.719093e+00    5.106961e-01   7.953932e-03
  3.721303e+00    5.258559e-01   8.088225e-03
  3.723514e+00    5.289439e-01   8.129348e-03
  3.725724e+00    5.130162e-01   8.023101e-03
  3.727935e+00    5.102807e-01   8.018975e-03
  3.730145e+00    5.269437e-01   8.166377e-03
  3.732356e+00    5.069845e-01   8.027625e-03
  3.734566e+00    5.103654e-01   8.071722e-03
  3.736776e+00    5.367799e-01   8.296177e-03
  3.738987e+00    5.195715e-01   8.179922e-03
  3.741197e+00    5.040010e-01   8.074275e-03
  3.743408e+00    5.035646e-01   8.088637e-03
  3.745618e+00    4.789462e-01   7.906123e-03
  3.747829e+00    4.955368e-01   8.059734e-03
  3.750039e+00    5.216425e-01   8.287805e-03
  3.752250e+00    5.189726e-01   8.285253e-03
  3.754460e+00    5.062401e-01   8.201402e-03
  3.756671e+00    5.083452e-01   8.237260e-03
  3.758881e+00    4.950922e-01   8.147548e-03
  3.761091e+00    5.216461e-01   8.382565e-03
  3.763302e+00    5.047511e-01   8.264755e-03
  3.765512e+00    4.914674e-01   8.174174e-03
  3.767723e+00    5.269915e-01   8.484175e-03
  3.769933e+00    5.022861e-01   8.302205e-03
  3.772144e+00    4.874716e-01   8.198073e-03
  3.774354e+00    4.820061e-01   8.171345e-03
  3.776565e+00    4.951603e-01   8.301717e-03
  3.778775e+00    5.036597e-01   8.392585e-03
  3.780986e+00    5.436239e-01   8.740330e-03
  3.783196e+00    5.126616e-01   8.508235e-03
  3.785407e+00    4.891806e-01   8.331222e-03
  3.787617e+00    5.019985e-01   8.460376e-03
  3.789827e+00    5.087667e-01   8.537902e-03
  3.792038e+00    4.870331e-01   8.374077e-03
  3.794248e+00    4.987002e-01   8.494887e-03
  3.796459e+00    4.752150e-01   8.313258e-03
  3.798669e+00    5.116333e-01   8.647460e-03
  3.800880e+00    5.229133e-01   8.764281e-03
  3.803090e+00    4.979438e-01   8.574225e-03
  3.805301e+00    4.882580e-01   8.512245e-03
  3.807511e+00    4.879557e-01   8.531299e-03
  3.809722e+00    4.900469e-01   8.571630e-03
  3.811932e+00    4.939577e-01   8.627837e-03
  3.814142e+00    5.043955e-01   8.741518e-03
  3.816353e+00    5.183577e-01   8.884917e-03
  3.818563e+00    5.276849e-01   8.988326e-03
  3.820774e+00    4.785616e-01   8.582431e-03
  3.822984e+00    4.972854e-01   8.772047e-03
  3.825195e+00    5.012444e-01   8.830666e-03
  3.827405e+00    5.150446e-01   8.975781e-03
  3.829616e+00    5.075682e-01   8.934665e-03
  3.831826e+00    5.087411e-01   8.969429e-03
  3.834037e+00    4.922643e-01   8.847374e-03
  3.836247e+00    4.981717e-01   8.925022e-03
  3.838457e+00    4.672352e-01   8.667718e-03
  3.840668e+00    4.979270e-01   8.973096e-03
  3.842878e+00    5.116491e-01   9.121857e-03
  3.845089e+00    4.951279e-01   8.998870e-03
  3.847299e+00    5.353161e-01   9.383817e-03
  3.849510e+00    5.227692e-01   9.299758e-03
  3.851720e+00    5.077654e-01   9.187030e-03
  3.853931e+00    5.156229e-01   9.277190e-03
  3.856141e+00    5.218902e-01   9.352992e-03
  3.858352e+00    4.899928e-01   9.081800e-03
  3.860562e+00    4.988906e-01   9.183290e-03
  3.862772e+00    4.954967e-01   9.171591e-03
  3.864983e+00    5.286105e-01   9.493449e-03
  3.867193e+00    4.897836e-01   9.157919e-03
  3.869404e+00    4.965743e-01   9.240957e-03
  3.871614e+00    5.158284e-01   9.438899e-03
  3.873825e+00    4.987871e-01   9.302131e-03
  3.876035e+00    4.784147e-01   9.130408e-03
  3.878246e+00    4.950675e-01   9.313791e-03
  3.880456e+00    4.755395e-01   9.156796e-03
  3.882667e+00    4.838022e-01   9.265037e-03
  3.884877e+00    4.957632e-01   9.408734e-03
  3.887087e+00    4.785154e-01   9.273242e-03
  3.889298e+00    4.535660e-01   9.057357e-03
  3.891508e+00    4.667467e-01   9.217761e-03
  3.893719e+00    4.864200e-01   9.440882e-03
  3.895929e+00    5.061677e-01   9.662575e-03
  3.898140e+00    4.973630e-01   9.610076e-03
  3.900350e+00    5.039307e-01   9.705884e-03
  3.902561e+00    4.925317e-01   9.627947e-03
  3.904771e+00    4.945854e-01   9.680906e-03
  3.906982e+00    5.008651e-01   9.775812e-03
  3.909192e+00    5.083898e-01   9.882972e-03
  3.911403e+00    4.974028e-01   9.810064e-03
  3.913613e+00    4.931832e-01   9.802669e-03
  3.915823e+00    4.834361e-01   9.740033e-03
  3.918034e+00    4.768966e-01   9.708664e-03
  3.920244e+00    5.019901e-01   9.997131e-03
  3.922455e+00    4.696724e-01   9.705333e-03
  3.924665e+00    4.986496e-01   1.003713e-02
  3.926876e+00    4.545488e-01   9.618718e-03
  3.929086e+00    4.944272e-01   1.006944e-02
  3.931297e+00    4.830331e-01   9.987448e-03
  3.933507e+00    4.953015e-01   1.014254e-02
  3.935718e+00    4.982191e-01   1.020155e-02
  3.937928e+00    4.793516e-01   1.003561e-02
  3.940138e+00    4.924382e-01   1.020129e-02
  3.942349e+00    4.922690e-01   1.022949e-02
  3.944559e+00    4.971603e-01   1.031058e-02
  3.946770e+00    4.773259e-01   1.013250e-02
  3.948980e+00    5.302077e-01   1.071128e-02
  3.951191e+00    4.755822e-01   1.017500e-02
  3.953401e+00    4.932180e-01   1.039342e-02
  3.955612e+00    5.242076e-01   1.074794e-02
  3.957822e+00    4.644758e-01   1.014806e-02
  3.960033e+00    4.738432e-01   1.028199e-02
  3.962243e+00    4.897529e-01   1.048617e-02
  3.964453e+00    5.262766e-01   1.090465e-02
  3.966664e+00    4.840594e-01   1.049147e-02
  3.968874e+00    4.783250e-01   1.045739e-02
  3.971085e+00    4.874386e-01   1.057840e-02
  3.973295e+00    4.817161e-01   1.053753e-02
  3.975506e+00    4.657321e-01   1.038249e-02
  3.977716e+00    4.646670e-01   1.039205e-02
  3.979927e+00    4.625144e-01   1.038957e-02
  3.982137e+00    4.804842e-01   1.061158e-02
  3.984348e+00    4.879236e-01   1.071613e-02
  3.986558e+00    4.752300e-01   1.059787e-02
  3.988768e+00    4.816127e-01   1.069176e-02
  3.990979e+00    4.800400e-01   1.069688e-02
  3.993189e+00    4.932645e-01   1.086645e-02
  3.995400e+00    5.073937e-01   1.104512e-02
  3.997610e+00    5.024318e-01   1.102130e-02
  3.999821e+00    4.609302e-01   1.059297e-02
  4.002031e+00    4.437082e-01   1.042985e-02
  4.004242e+00    4.656861e-01   1.072280e-02
  4.006452e+00    4.772098e-01   1.089355e-02
  4.008663e+00    4.780971e-01   1.094365e-02
  4.010873e+00    4.729133e-01   1.092355e-02
  4.013084e+00    4.795181e-01   1.104029e-02
  4.015294e+00    4.576012e-01   1.082484e-02
  4.017504e+00    5.046231e-01   1.141011e-02
  4.019715e+00    4.782872e-01   1.115069e-02
  4.021925e+00    4.611928e-01   1.099153e-02
  4.024136e+00    4.924535e-01   1.140203e-02
  4.026346e+00    4.963726e-01   1.149202e-02
  4.028557e+00    4.694983e-01   1.122021e-02
  4.030767e+00    4.949799e-01   1.156684e-02
  4.032978e+00    4.647812e-01   1.125382e-02
  4.035188e+00    4.714843e-01   1.138034e-02
  4.037399e+00    4.732765e-01   1.144896e-02
  4.039609e+00    4.822680e-01   1.160483e-02
  4.041819e+00    4.532863e-01   1.129812e-02
  4.044030e+00    4.724751e-01   1.158398e-02
  4.046240e+00    5.035168e-01   1.200931e-02
  4.048451e+00    4.768360e-01   1.173757e-02
  4.050661e+00    4.650415e-01   1.164182e-02
  4.052872e+00    4.628590e-01   1.166630e-02
  4.055082e+00    4.245181e-01   1.122274e-02
  4.057293e+00    4.795119e-01   1.198101e-02
  4.059503e+00    4.643201e-01   1.184355e-02
  4.061714e+00    4.674413e-01   1.193867e-02
  4.063924e+00    4.729276e-01   1.206484e-02
  4.066134e+00    4.890220e-01   1.232616e-02
  4.068345e+00    5.022689e-01   1.255221e-02
  4.070555e+00    4.967824e-01   1.254375e-02
  4.072766e+00    4.349387e-01   1.179478e-02
  4.074976e+00    4.344756e-01   1.184729e-02
  4.077187e+00    5.201916e-01   1.302769e-02
  4.079397e+00    4.785484e-01   1.255939e-02
  4.081608e+00    4.372333e-01   1.206731e-02
  4.083818e+00    4.735574e-01   1.262377e-02
  4.086029e+00    4.821806e-01   1.280556e-02
  4.088239e+00    4.244720e-01   1.207955e-02
  4.090449e+00    4.730835e-01   1.282144e-02
  4.092660e+00    4.936355e-01   1.316928e-02
  4.094870e+00    4.951327e-01   1.326243e-02
  4.097081e+00    4.854909e-01   1.320458e-02
  4.099291e+00    4.898818e-01   1.331918e-02
  4.101502e+00    4.606624e-01   1.296393e-02
  4.103712e+00    5.182978e-01   1.380229e-02
  4.105923e+00    4.924956e-01   1.350644e-02
  4.108133e+00    4.932819e-01   1.356928e-02
  4.110344e+00    4.770334e-01   1.339499e-02
  4.112554e+00    5.039550e-01   1.382229e-02
  4.114764e+00    4.811544e-01   1.356016e-02
  4.116975e+00    4.430357e-01   1.306326e-02
  4.119185e+00    4.813700e-01   1.367190e-02
  4.121396e+00    4.951017e-01   1.392295e-02
  4.123606e+00    4.695113e-01   1.361390e-02
  4.125817e+00    4.961830e-01   1.405380e-02
  4.128027e+00    4.558137e-01   1.352693e-02
  4.130238e+00    4.323136e-01   1.322997e-02
  4.132448e+00    4.789383e-01   1.398547e-02
  4.134659e+00    4.674638e-01   1.387646e-02
  4.136869e+00    5.039900e-01   1.447265e-02
  4.139080e+00    4.959071e-01   1.442080e-02
  4.141290e+00    4.992094e-01   1.453291e-02
  4.143500e+00    5.083373e-01   1.473265e-02
  4.145711e+00    4.820944e-01   1.441465e-02
  4.147921e+00    4.584212e-01   1.412032e-02
  4.150132e+00    5.365726e-01   1.534988e-02
  4.152342e+00    4.681868e-01   1.440770e-02
  4.154553e+00    4.930868e-01   1.485636e-02
  4.156763e+00    4.767629e-01   1.468040e-02
  4.158974e+00    4.843004e-01   1.487050e-02
  4.161184e+00    4.761972e-01   1.481887e-02
  4.163395e+00    4.554794e-01   1.456669e-02
  4.165605e+00    4.705092e-01   1.488215e-02
  4.167815e+00    4.786065e-01   1.508784e-02
  4.170026e+00    5.404930e-01   1.611827e-02
  4.172236e+00    4.848598e-01   1.534891e-02
  4.174447e+00    5.065569e-01   1.577378e-02
  4.176657e+00    4.661021e-01   1.521345e-02
  4.178868e+00    4.861016e-01   1.562446e-02
  4.181078e+00    5.277207e-01   1.637127e-02
  4.183289e+00    5.056849e-01   1.611757e-02
  4.185499e+00    5.208762e-01   1.645436e-02
  4.187710e+00    4.774565e-01   1.584608e-02
  4.189920e+00    5.336176e-01   1.685262e-02
  4.192130e+00    4.927316e-01   1.629362e-02
  4.194341e+00    4.767598e-01   1.612531e-02
  4.196551e+00    4.913675e-01   1.647412e-02
  4.198762e+00    4.600489e-01   1.604179e-02
  4.200972e+00    4.783572e-01   1.646363e-02
  4.203183e+00    4.368112e-01   1.583630e-02
  4.205393e+00    4.479932e-01   1.614422e-02
  4.207604e+00    5.120133e-01   1.737720e-02
  4.209814e+00    4.731275e-01   1.681882e-02
  4.212025e+00    4.724213e-01   1.692544e-02
  4.214235e+00    4.672481e-01   1.695157e-02
  4.216445e+00    4.508077e-01   1.677135e-02
  4.218656e+00    4.172795e-01   1.625635e-02
  4.220866e+00    4.730789e-01   1.743762e-02
  4.223077e+00    4.020291e-01   1.619858e-02
  4.225287e+00    4.135786e-01   1.655854e-02
  4.227498e+00    4.896395e-01   1.815838e-02
  4.229708e+00    5.073876e-01   1.863487e-02
  4.231919e+00    4.935416e-01   1.853104e-02
  4.234129e+00    4.346837e-01   1.753690e-02
  4.236340e+00    4.712054e-01   1.841462e-02
  4.238550e+00    4.566791e-01   1.828891e-02
  4.240761e+00    4.576767e-01   1.847049e-02
  4.242971e+00    4.558866e-01   1.860325e-02
  4.245181e+00    4.955263e-01   1.957721e-02
  4.247392e+00    4.646298e-01   1.913442e-02
  4.249602e+00    4.750431e-01   1.953991e-02
  4.251813e+00    4.143210e-01   1.842834e-02
  4.254023e+00    4.563377e-01   1.953452e-02
  4.256234e+00    4.958477e-01   2.058078e-02
  4.258444e+00    4.544448e-01   1.990869e-02
  4.260655e+00    5.023172e-01   2.116128e-02
  4.262865e+00    4.615942e-01   2.051535e-02
  4.265076e+00    4.494060e-01   2.047294e-02
  4.267286e+00    5.289042e-01   2.247328e-02
  4.269496e+00    4.155960e-01   2.016502e-02
  4.271707e+00    4.843404e-01   2.203702e-02
  4.273917e+00    4.313097e-01   2.106501e-02
  4.276128e+00    4.725443e-01   2.234121e-02
  4.278338e+00    4.989466e-01   2.326392e-02
  4.280549e+00    4.995446e-01   2.361132e-02
  4.282759e+00    5.234883e-01   2.451815e-02
  4.284970e+00    5.073749e-01   2.449524e-02
  4.287180e+00    4.564058e-01   2.351114e-02
  4.289391e+00    4.790926e-01   2.426815e-02
  4.291601e+00    4.849234e-01   2.461104e-02
  4.293811e+00    4.469050e-01   2.381140e-02
  4.296022e+00    4.702015e-01   2.461995e-02
  4.298232e+00    5.942392e-01   2.790942e-02
  4.300443e+00    5.073663e-01   2.600190e-02
  4.302653e+00    4.515470e-01   2.474228e-02
  4.304864e+00    5.029714e-01   2.633861e-02
  4.307074e+00    4.252617e-01   2.443729e-02
  4.309285e+00    4.600879e-01   2.564805e-02
  4.311495e+00    4.119149e-01   2.449572e-02
  4.313706e+00    3.818841e-01   2.380787e-02
  4.315916e+00    4.581698e-01   2.633328e-02
  4.318126e+00    4.526443e-01   2.643378e-02
  4.320337e+00    4.594519e-01   2.690106e-02
  4.322547e+00    4.081083e-01   2.562189e-02
  4.324758e+00    4.640839e-01   2.760715e-02
  4.326968e+00    5.599375e-01   3.066557e-02
  4.329179e+00    4.780916e-01   2.864901e-02
  4.331389e+00    4.150826e-01   2.700095e-02
  4.333600e+00    5.085636e-01   3.024460e-02
  4.335810e+00    4.089986e-01   2.744603e-02
  4.338021e+00    4.716848e-01   2.985108e-02
  4.340231e+00    5.191724e-01   3.171085e-02
  4.342442e+00    4.750906e-01   3.074159e-02
  4.344652e+00    4.107507e-01   2.897247e-02
  4.346862e+00    4.523212e-01   3.082929e-02
  4.349073e+00    4.748618e-01   3.204805e-02
  4.351283e+00    3.698486e-01   2.870489e-02
  4.353494e+00    4.554449e-01   3.234670e-02
  4.355704e+00    5.085198e-01   3.472922e-02
  4.357915e+00    4.983103e-01   3.495171e-02
  4.360125e+00    4.780594e-01   3.481738e-02
  4.362336e+00    7.168888e-01   4.341526e-02
  4.364546e+00    4.244996e-01   3.401694e-02
  4.366757e+00    5.884241e-01   4.084543e-02
  4.368967e+00    4.172537e-01   3.508211e-02
  4.371177e+00    5.233674e-01   4.012482e-02
  4.373388e+00    6.679521e-01   4.634349e-02
  4.375598e+00    4.380957e-01   3.838914e-02
  4.377809e+00    4.181011e-01   3.845102e-02
  4.380019e+00    4.297996e-01   3.996510e-02
  4.382230e+00    4.628861e-01   4.263260e-02
  4.384440e+00    4.941448e-01   4.531783e-02
  4.386651e+00    3.075414e-01   3.685468e-02
  4.388861e+00    3.599747e-01   4.120659e-02
  4.391072e+00    4.977160e-01   5.015802e-02
  4.393282e+00    5.096893e-01   5.272011e-02
  4.395492e+00    5.652481e-01   5.782578e-02
  4.397703e+00    3.395682e-01   4.686945e-02
  4.399913e+00    4.231113e-01   5.496788e-02
  4.402124e+00    3.882293e-01   5.563242e-02
  4.404334e+00    5.833896e-01   7.249749e-02
  4.406545e+00    1.517334e-01   3.972765e-02
  4.408755e+00    4.951402e-01   7.782511e-02
  4.410966e+00    3.317999e-01   7.051059e-02
  4.413176e+00    1.748847e-01   5.795407e-02
  4.415387e+00   -6.931102e-01            nan
  4.417597e+00   -2.031091e+00            nan
  4.419807e+00   -3.766224e-01            nan
