# == pyFAI calibration ==
# Distance Sample to Detector: 0.216 m
# PONI: 1.166e-01, 1.308e-01 m
# Rotations: 0.000000 0.000000 0.000000 rad
# 
# == Fit2d calibration ==
# Distance Sample-beamCenter: 216.000 mm
# Center: x=1744.293, y=1555.000 pix
# Tilt: 0.000 deg  TiltPlanRot: 0.000 deg
# 
# Detector Eiger 9M	 PixelSize= 7.500e-05, 7.500e-05 m
#    Detector has a mask: True 
#    Detector has a dark current: False 
#    detector has a flat field: False 
# 
# Wavelength: 9.8e-11 m
# Mask applied: from detector
# Dark current applied: False
# Flat field applied: False
# Polarization factor: None
# Normalization factor: 1.0
# 
# Headers of the input frame:
# {
# "_array_data.header_convention": "SLS_1.0",
# "_array_data.header_contents": "# Detector: Dectris Eiger 9M, S/N E-18-0102\r\n# Pixel_size 75e-6 m x 75e-6 m\r\n# Silicon sensor, thickness 0.000450 m\r\n# Exposure_time 0.024997 s\r\n# Exposure_period 0.025000 s\r\n# Count_cutoff 62318 counts\r\n# Wavelength 0.980106 A\r\n# Detector_distance 0.215992 m\r\n# Beam_xy (1555, 1744) pixels\r\n# Start_angle 0.000000 deg.\r\n# Angle_increment 0.000000 deg.",
# "Content-Type": "application/octet-stream;",
# "conversions": "x-CBF_BYTE_OFFSET",
# "Content-Transfer-Encoding": "BINARY",
# "X-Binary-Size": "10166636",
# "X-Binary-ID": "1",
# "X-Binary-Element-Type": "signed 32-bit integer",
# "X-Binary-Element-Byte-Order": "LITTLE_ENDIAN",
# "Content-MD5": "yQzsk3+TtGvWfxjGqWPUOg==",
# "X-Binary-Number-of-Elements": "10166590",
# "X-Binary-Size-Fastest-Dimension": "3110",
# "X-Binary-Size-Second-Dimension": "3269",
# "X-Binary-Size-Padding": "4095"
# }
# --> H:/Proxima2a_2019-04-05/RAW_DATA/C5_gel17_position5/C5_mesh_1_data.cbf/C5_mesh_1_data.cbf000089.dat
#        q_A^-1              I           sigma 
  1.105228e-03    4.011951e-01   3.427400e-01
  3.315685e-03    9.466646e-01   3.200689e-01
  5.526141e-03    9.668894e-01   2.501270e-01
  7.736597e-03    1.185455e+00   2.339713e-01
  9.947054e-03    1.504632e+00   2.323762e-01
  1.215751e-02    1.121149e+00   1.813845e-01
  1.436797e-02    1.061412e+00   1.623371e-01
  1.657842e-02    1.409364e+00   1.741229e-01
  1.878888e-02    1.742152e+00   1.818472e-01
  2.099934e-02    1.603602e+00   1.650632e-01
  2.320979e-02    1.528803e+00   1.532881e-01
  2.542025e-02    1.440061e+00   1.421674e-01
  2.763070e-02    1.497476e+00   1.390498e-01
  2.984116e-02    1.352283e+00   1.271482e-01
  3.205162e-02    1.386207e+00   1.242225e-01
  3.426207e-02    1.522424e+00   1.259049e-01
  3.647253e-02    1.589828e+00   1.246995e-01
  3.868299e-02    1.490673e+00   1.172565e-01
  4.089344e-02    1.449990e+00   1.124769e-01
  4.310390e-02    1.430681e+00   1.088166e-01
  4.531436e-02    1.475113e+00   1.077652e-01
  4.752481e-02    1.544520e+00   1.076752e-01
  4.973527e-02    1.477643e+00   1.029524e-01
  5.194572e-02    1.346337e+00   9.615675e-02
  5.415618e-02    1.338711e+00   9.390357e-02
  5.636664e-02    1.422144e+00   9.487177e-02
  5.857709e-02    1.488841e+00   9.522230e-02
  6.078755e-02    1.483430e+00   9.330199e-02
  6.299801e-02    1.413623e+00   8.946706e-02
  6.520846e-02    1.499506e+00   9.057011e-02
  6.741892e-02    1.455310e+00   8.774606e-02
  6.962938e-02    1.410951e+00   8.502026e-02
  7.183983e-02    1.373548e+00   8.258361e-02
  7.405029e-02    1.469759e+00   8.414032e-02
  7.626074e-02    1.620092e+00   8.704828e-02
  7.847120e-02    1.528418e+00   8.334799e-02
  8.068166e-02    1.594525e+00   8.395642e-02
  8.289211e-02    1.566756e+00   8.210462e-02
  8.510257e-02    1.454609e+00   7.807691e-02
  8.731303e-02    1.442783e+00   7.676536e-02
  8.952348e-02    1.480691e+00   7.680327e-02
  9.173394e-02    1.519465e+00   7.685625e-02
  9.394439e-02    1.476281e+00   7.485726e-02
  9.615485e-02    1.444793e+00   7.319690e-02
  9.836531e-02    1.551590e+00   7.499475e-02
  1.005758e-01    1.540526e+00   7.390162e-02
  1.027862e-01    1.490777e+00   7.191084e-02
  1.049967e-01    1.493088e+00   7.120372e-02
  1.072071e-01    1.565183e+00   7.214615e-02
  1.094176e-01    1.633405e+00   7.295237e-02
  1.116280e-01    1.490940e+00   6.900328e-02
  1.138385e-01    1.552756e+00   6.973085e-02
  1.160490e-01    1.617216e+00   7.048164e-02
  1.182594e-01    1.617261e+00   6.981928e-02
  1.204699e-01    1.553810e+00   6.780466e-02
  1.226803e-01    1.574151e+00   6.762661e-02
  1.248908e-01    1.531794e+00   6.611679e-02
  1.271012e-01    1.567626e+00   6.630014e-02
  1.293117e-01    1.627836e+00   6.698061e-02
  1.315222e-01    1.597797e+00   6.579820e-02
  1.337326e-01    1.617666e+00   6.565532e-02
  1.359431e-01    1.566017e+00   6.463654e-02
  1.381535e-01    1.544041e+00   6.504291e-02
  1.403640e-01    1.577785e+00   6.603370e-02
  1.425744e-01    1.617923e+00   6.697518e-02
  1.447849e-01    1.578062e+00   6.616022e-02
  1.469953e-01    1.612582e+00   6.683805e-02
  1.492058e-01    1.598022e+00   6.645831e-02
  1.514163e-01    1.633275e+00   6.707577e-02
  1.536267e-01    1.623462e+00   6.674341e-02
  1.558372e-01    1.687722e+00   6.790126e-02
  1.580476e-01    1.682104e+00   6.762369e-02
  1.602581e-01    1.624112e+00   6.627900e-02
  1.624685e-01    1.694638e+00   6.751740e-02
  1.646790e-01    1.692104e+00   6.727320e-02
  1.668895e-01    1.708292e+00   6.739900e-02
  1.690999e-01    1.749599e+00   6.800418e-02
  1.713104e-01    1.704722e+00   6.691805e-02
  1.735208e-01    1.754676e+00   6.768028e-02
  1.757313e-01    1.754370e+00   6.746230e-02
  1.779417e-01    1.806196e+00   6.822825e-02
  1.801522e-01    1.916052e+00   7.004870e-02
  1.823626e-01    1.841385e+00   6.844168e-02
  1.845731e-01    1.836146e+00   6.812285e-02
  1.867836e-01    1.882774e+00   6.874958e-02
  1.889940e-01    1.917497e+00   6.915393e-02
  1.912045e-01    2.020972e+00   7.075823e-02
  1.934149e-01    2.036089e+00   7.078468e-02
  1.956254e-01    1.956672e+00   6.916162e-02
  1.978358e-01    1.978814e+00   6.931349e-02
  2.000463e-01    1.965708e+00   6.885464e-02
  2.022568e-01    1.994042e+00   6.912149e-02
  2.044672e-01    2.003887e+00   6.905456e-02
  2.066777e-01    1.933439e+00   6.760471e-02
  2.088881e-01    1.994993e+00   6.844775e-02
  2.110986e-01    2.050814e+00   6.916075e-02
  2.133090e-01    2.097149e+00   6.971035e-02
  2.155195e-01    2.017991e+00   6.815521e-02
  2.177300e-01    2.071325e+00   6.850754e-02
  2.199404e-01    1.972059e+00   6.508445e-02
  2.221509e-01    1.966225e+00   6.392094e-02
  2.243613e-01    2.042486e+00   6.432287e-02
  2.265718e-01    1.952512e+00   6.219699e-02
  2.287822e-01    1.940619e+00   6.139350e-02
  2.309927e-01    2.169405e+00   6.432032e-02
  2.332031e-01    2.188254e+00   6.404626e-02
  2.354136e-01    2.189097e+00   6.353939e-02
  2.376241e-01    2.154179e+00   6.254140e-02
  2.398345e-01    2.164818e+00   6.223161e-02
  2.420450e-01    2.207983e+00   6.239983e-02
  2.442554e-01    2.171216e+00   6.145184e-02
  2.464659e-01    2.126470e+00   6.040699e-02
  2.486763e-01    2.126734e+00   6.001366e-02
  2.508868e-01    2.120037e+00   5.954109e-02
  2.530973e-01    2.193622e+00   6.019012e-02
  2.553077e-01    2.142985e+00   5.913050e-02
  2.575182e-01    2.068830e+00   5.775465e-02
  2.597286e-01    2.157047e+00   5.863036e-02
  2.619391e-01    2.129847e+00   5.792413e-02
  2.641495e-01    2.105216e+00   5.726948e-02
  2.663600e-01    2.030224e+00   5.593094e-02
  2.685704e-01    2.013271e+00   5.539498e-02
  2.707809e-01    2.105214e+00   5.634511e-02
  2.729914e-01    2.052558e+00   5.534606e-02
  2.752018e-01    2.026654e+00   5.470945e-02
  2.774123e-01    2.084681e+00   5.520372e-02
  2.796227e-01    2.020662e+00   5.408063e-02
  2.818332e-01    2.013027e+00   5.370909e-02
  2.840436e-01    1.973797e+00   5.292537e-02
  2.862541e-01    1.943894e+00   5.227044e-02
  2.884646e-01    1.929155e+00   5.182481e-02
  2.906750e-01    1.934109e+00   5.164522e-02
  2.928855e-01    2.040461e+00   5.280038e-02
  2.950959e-01    1.989474e+00   5.189702e-02
  2.973064e-01    1.982087e+00   5.156778e-02
  2.995168e-01    1.921911e+00   5.054896e-02
  3.017273e-01    1.975070e+00   5.101735e-02
  3.039377e-01    1.941387e+00   5.035898e-02
  3.061482e-01    1.930011e+00   4.999401e-02
  3.083587e-01    1.917030e+00   4.960993e-02
  3.105691e-01    1.888545e+00   4.902964e-02
  3.127796e-01    1.986415e+00   5.007262e-02
  3.149900e-01    1.938770e+00   4.926237e-02
  3.172005e-01    1.920567e+00   4.883007e-02
  3.194109e-01    1.892373e+00   4.827024e-02
  3.216214e-01    1.861077e+00   4.767411e-02
  3.238319e-01    1.840624e+00   4.722357e-02
  3.260423e-01    1.842515e+00   4.705963e-02
  3.282528e-01    1.840898e+00   4.685169e-02
  3.304632e-01    1.914401e+00   4.759282e-02
  3.326737e-01    1.842009e+00   4.650213e-02
  3.348841e-01    1.860760e+00   4.655699e-02
  3.370946e-01    1.814152e+00   4.579726e-02
  3.393050e-01    1.846597e+00   4.602994e-02
  3.415155e-01    1.789943e+00   4.514794e-02
  3.437260e-01    1.821647e+00   4.537720e-02
  3.459364e-01    1.840316e+00   4.544044e-02
  3.481469e-01    1.803667e+00   4.482149e-02
  3.503573e-01    1.800337e+00   4.461697e-02
  3.525678e-01    1.765179e+00   4.402173e-02
  3.547782e-01    1.836794e+00   4.474352e-02
  3.569887e-01    1.870346e+00   4.499038e-02
  3.591992e-01    1.850143e+00   4.458839e-02
  3.614096e-01    1.790618e+00   4.371316e-02
  3.636201e-01    1.837530e+00   4.412644e-02
  3.658305e-01    1.844795e+00   4.406279e-02
  3.680410e-01    1.817663e+00   4.358714e-02
  3.702514e-01    1.773378e+00   4.290812e-02
  3.724619e-01    1.780282e+00   4.284513e-02
  3.746724e-01    1.802003e+00   4.296189e-02
  3.768828e-01    1.823263e+00   4.306918e-02
  3.790933e-01    1.825955e+00   4.296052e-02
  3.813037e-01    1.790585e+00   4.240320e-02
  3.835142e-01    1.804687e+00   4.243004e-02
  3.857246e-01    1.790997e+00   4.213200e-02
  3.879351e-01    1.788577e+00   4.196725e-02
  3.901455e-01    1.786131e+00   4.180502e-02
  3.923560e-01    1.823562e+00   4.210655e-02
  3.945665e-01    1.845291e+00   4.222234e-02
  3.967769e-01    1.852612e+00   4.217352e-02
  3.989874e-01    1.876375e+00   4.231062e-02
  4.011978e-01    1.827544e+00   4.162803e-02
  4.034083e-01    1.799296e+00   4.117825e-02
  4.056187e-01    1.834188e+00   4.144752e-02
  4.078292e-01    1.821236e+00   4.117595e-02
  4.100397e-01    1.785427e+00   4.064466e-02
  4.122501e-01    1.817313e+00   4.088330e-02
  4.144606e-01    1.823877e+00   4.083563e-02
  4.166710e-01    1.841558e+00   4.091106e-02
  4.188815e-01    1.833054e+00   4.069594e-02
  4.210919e-01    1.804400e+00   4.025827e-02
  4.233024e-01    1.870456e+00   4.086796e-02
  4.255128e-01    1.876037e+00   4.081060e-02
  4.277233e-01    1.838294e+00   4.028191e-02
  4.299338e-01    1.882012e+00   4.064080e-02
  4.321442e-01    1.786287e+00   3.948048e-02
  4.343547e-01    1.759951e+00   3.907753e-02
  4.365651e-01    1.754441e+00   3.890546e-02
  4.387756e-01    1.745309e+00   3.869542e-02
  4.409860e-01    1.738351e+00   3.851122e-02
  4.431965e-01    1.755124e+00   3.858956e-02
  4.454070e-01    1.726576e+00   3.816796e-02
  4.476174e-01    1.749576e+00   3.831583e-02
  4.498279e-01    1.766739e+00   3.839857e-02
  4.520383e-01    1.741545e+00   3.801916e-02
  4.542488e-01    1.748675e+00   3.799419e-02
  4.564592e-01    1.769619e+00   3.811850e-02
  4.586697e-01    1.734405e+00   3.763718e-02
  4.608801e-01    1.737582e+00   3.757071e-02
  4.630906e-01    1.724406e+00   3.732890e-02
  4.653011e-01    1.721872e+00   3.720337e-02
  4.675115e-01    1.719012e+00   3.707455e-02
  4.697220e-01    1.746153e+00   3.726826e-02
  4.719324e-01    1.703369e+00   3.671366e-02
  4.741429e-01    1.678865e+00   3.635470e-02
  4.763533e-01    1.701432e+00   3.650439e-02
  4.785638e-01    1.727024e+00   3.668291e-02
  4.807743e-01    1.678949e+00   3.607675e-02
  4.829847e-01    1.700376e+00   3.621450e-02
  4.851952e-01    1.774285e+00   3.689959e-02
  4.874056e-01    1.693889e+00   3.596300e-02
  4.896161e-01    1.696386e+00   3.590023e-02
  4.918265e-01    1.717044e+00   3.602847e-02
  4.940370e-01    1.697439e+00   3.573376e-02
  4.962475e-01    1.694395e+00   3.561354e-02
  4.984579e-01    1.712237e+00   3.571231e-02
  5.006684e-01    1.698483e+00   3.548189e-02
  5.028788e-01    1.647148e+00   3.485689e-02
  5.050893e-01    1.706862e+00   3.539679e-02
  5.072997e-01    1.689342e+00   3.512963e-02
  5.095102e-01    1.710669e+00   3.526600e-02
  5.117206e-01    1.681590e+00   3.488184e-02
  5.139311e-01    1.651899e+00   3.449070e-02
  5.161416e-01    1.692333e+00   3.482777e-02
  5.183520e-01    1.665583e+00   3.446932e-02
  5.205625e-01    1.677630e+00   3.451269e-02
  5.227729e-01    1.697350e+00   3.463399e-02
  5.249834e-01    1.681284e+00   3.438965e-02
  5.271938e-01    1.721156e+00   3.471386e-02
  5.294043e-01    1.719413e+00   3.461622e-02
  5.316148e-01    1.739632e+00   3.473939e-02
  5.338252e-01    1.780406e+00   3.506384e-02
  5.360357e-01    1.781574e+00   3.499550e-02
  5.382461e-01    1.731002e+00   3.441725e-02
  5.404566e-01    1.762984e+00   3.465468e-02
  5.426670e-01    1.760284e+00   3.455012e-02
  5.448775e-01    1.751730e+00   3.438907e-02
  5.470879e-01    1.768147e+00   3.447279e-02
  5.492984e-01    1.792949e+00   3.463653e-02
  5.515089e-01    1.765983e+00   3.429885e-02
  5.537193e-01    1.778371e+00   3.434309e-02
  5.559298e-01    1.810322e+00   3.457423e-02
  5.581402e-01    1.827193e+00   3.465907e-02
  5.603507e-01    1.776306e+00   3.409867e-02
  5.625611e-01    1.757661e+00   3.384563e-02
  5.647716e-01    1.797843e+00   3.415597e-02
  5.669821e-01    1.815849e+00   3.425261e-02
  5.691925e-01    1.797423e+00   3.400522e-02
  5.714030e-01    1.825353e+00   3.419535e-02
  5.736134e-01    1.789271e+00   3.378369e-02
  5.758239e-01    1.756836e+00   3.340463e-02
  5.780343e-01    1.717920e+00   3.296269e-02
  5.802448e-01    1.741160e+00   3.311545e-02
  5.824552e-01    1.699578e+00   3.264899e-02
  5.846657e-01    1.679911e+00   3.239187e-02
  5.868762e-01    1.609935e+00   3.164405e-02
  5.890866e-01    1.612663e+00   3.160511e-02
  5.912971e-01    1.625108e+00   3.166115e-02
  5.935075e-01    1.644032e+00   3.177913e-02
  5.957180e-01    1.627410e+00   3.155323e-02
  5.979284e-01    1.599196e+00   3.121465e-02
  6.001389e-01    1.629009e+00   3.144011e-02
  6.023494e-01    1.617774e+00   3.126790e-02
  6.045598e-01    1.613354e+00   3.116157e-02
  6.067703e-01    1.646952e+00   3.142107e-02
  6.089807e-01    1.644789e+00   3.133729e-02
  6.111912e-01    1.661621e+00   3.143433e-02
  6.134016e-01    1.699259e+00   3.172494e-02
  6.156121e-01    1.721922e+00   3.187235e-02
  6.178226e-01    1.693375e+00   3.154445e-02
  6.200330e-01    1.743032e+00   3.194048e-02
  6.222435e-01    1.732752e+00   3.178308e-02
  6.244539e-01    1.726875e+00   3.166700e-02
  6.266644e-01    1.727949e+00   3.161507e-02
  6.288748e-01    1.682719e+00   3.113782e-02
  6.310853e-01    1.722578e+00   3.144327e-02
  6.332957e-01    1.720161e+00   3.136057e-02
  6.355062e-01    1.688186e+00   3.100735e-02
  6.377167e-01    1.722953e+00   3.126490e-02
  6.399271e-01    1.724097e+00   3.121537e-02
  6.421376e-01    1.736371e+00   3.126648e-02
  6.443480e-01    1.714721e+00   3.101185e-02
  6.465585e-01    1.748661e+00   3.125792e-02
  6.487689e-01    1.714930e+00   3.089654e-02
  6.509794e-01    1.684474e+00   3.056321e-02
  6.531899e-01    1.643073e+00   3.012851e-02
  6.554003e-01    1.645775e+00   3.009656e-02
  6.576108e-01    1.596270e+00   2.958530e-02
  6.598212e-01    1.607863e+00   2.963734e-02
  6.620317e-01    1.618485e+00   2.967996e-02
  6.642421e-01    1.649024e+00   2.990325e-02
  6.664526e-01    1.619557e+00   2.958026e-02
  6.686630e-01    1.627090e+00   2.959417e-02
  6.708735e-01    1.578813e+00   2.909834e-02
  6.730840e-01    1.607610e+00   2.930896e-02
  6.752944e-01    1.603931e+00   2.922219e-02
  6.775049e-01    1.572225e+00   2.887938e-02
  6.797153e-01    1.618606e+00   2.924919e-02
  6.819258e-01    1.569687e+00   2.875187e-02
  6.841362e-01    1.607872e+00   2.904714e-02
  6.863467e-01    1.611316e+00   2.902616e-02
  6.885572e-01    1.605058e+00   2.891783e-02
  6.907676e-01    1.589235e+00   2.872337e-02
  6.929781e-01    1.596023e+00   2.873348e-02
  6.951885e-01    1.622878e+00   2.892290e-02
  6.973990e-01    1.592707e+00   2.860214e-02
  6.996094e-01    1.576649e+00   2.840752e-02
  7.018199e-01    1.580697e+00   2.839402e-02
  7.040303e-01    1.583387e+00   2.836827e-02
  7.062408e-01    1.599877e+00   2.846564e-02
  7.084513e-01    1.596057e+00   2.838220e-02
  7.106617e-01    1.571534e+00   2.811436e-02
  7.128722e-01    1.607147e+00   2.838195e-02
  7.150826e-01    1.609363e+00   2.835256e-02
  7.172931e-01    1.590213e+00   2.813479e-02
  7.195035e-01    1.564842e+00   2.786145e-02
  7.217140e-01    1.596027e+00   2.818749e-02
  7.239245e-01    1.603827e+00   2.848511e-02
  7.261349e-01    1.619225e+00   2.873168e-02
  7.283454e-01    1.545734e+00   2.814383e-02
  7.305558e-01    1.552203e+00   2.825625e-02
  7.327663e-01    1.549351e+00   2.827244e-02
  7.349767e-01    1.586742e+00   2.862799e-02
  7.371872e-01    1.590222e+00   2.864813e-02
  7.393976e-01    1.557659e+00   2.833912e-02
  7.416081e-01    1.572337e+00   2.845616e-02
  7.438186e-01    1.588537e+00   2.845743e-02
  7.460290e-01    1.580718e+00   2.809249e-02
  7.482395e-01    1.597618e+00   2.806987e-02
  7.504499e-01    1.598399e+00   2.793944e-02
  7.526604e-01    1.589561e+00   2.774497e-02
  7.548708e-01    1.592060e+00   2.767687e-02
  7.570813e-01    1.552517e+00   2.728038e-02
  7.592918e-01    1.579741e+00   2.748329e-02
  7.615022e-01    1.598933e+00   2.761566e-02
  7.637127e-01    1.607064e+00   2.765269e-02
  7.659231e-01    1.557255e+00   2.718896e-02
  7.681336e-01    1.534695e+00   2.696010e-02
  7.703440e-01    1.573795e+00   2.727014e-02
  7.725545e-01    1.558361e+00   2.710539e-02
  7.747650e-01    1.582543e+00   2.727658e-02
  7.769754e-01    1.608329e+00   2.744465e-02
  7.791859e-01    1.607587e+00   2.738432e-02
  7.813963e-01    1.616004e+00   2.740268e-02
  7.836068e-01    1.622450e+00   2.740468e-02
  7.858172e-01    1.639999e+00   2.750096e-02
  7.880277e-01    1.604082e+00   2.714644e-02
  7.902381e-01    1.590999e+00   2.698637e-02
  7.924486e-01    1.609480e+00   2.709237e-02
  7.946591e-01    1.628335e+00   2.720189e-02
  7.968695e-01    1.639212e+00   2.724377e-02
  7.990800e-01    1.617027e+00   2.701042e-02
  8.012904e-01    1.626828e+00   2.704528e-02
  8.035009e-01    1.635462e+00   2.706871e-02
  8.057113e-01    1.693687e+00   2.749869e-02
  8.079218e-01    1.679030e+00   2.733224e-02
  8.101323e-01    1.628768e+00   2.687430e-02
  8.123427e-01    1.643702e+00   2.695119e-02
  8.145532e-01    1.683243e+00   2.722677e-02
  8.167636e-01    1.656043e+00   2.696050e-02
  8.189741e-01    1.648921e+00   2.685758e-02
  8.211845e-01    1.682190e+00   2.708171e-02
  8.233950e-01    1.663676e+00   2.688850e-02
  8.256054e-01    1.673525e+00   2.692326e-02
  8.278159e-01    1.670899e+00   2.685773e-02
  8.300264e-01    1.648433e+00   2.663335e-02
  8.322368e-01    1.671188e+00   2.677296e-02
  8.344473e-01    1.681351e+00   2.681033e-02
  8.366577e-01    1.659356e+00   2.659156e-02
  8.388682e-01    1.659903e+00   2.655341e-02
  8.410786e-01    1.654663e+00   2.646922e-02
  8.432891e-01    1.635114e+00   2.627060e-02
  8.454996e-01    1.677837e+00   2.656946e-02
  8.477100e-01    1.679232e+00   2.653833e-02
  8.499205e-01    1.723053e+00   2.684015e-02
  8.521309e-01    1.747911e+00   2.699091e-02
  8.543414e-01    1.733623e+00   2.683844e-02
  8.565518e-01    1.670722e+00   2.630604e-02
  8.587623e-01    1.638598e+00   2.601134e-02
  8.609727e-01    1.635783e+00   2.594868e-02
  8.631832e-01    1.644928e+00   2.598101e-02
  8.653937e-01    1.615201e+00   2.570559e-02
  8.676041e-01    1.621018e+00   2.571300e-02
  8.698146e-01    1.580996e+00   2.535477e-02
  8.720250e-01    1.602414e+00   2.548704e-02
  8.742355e-01    1.588577e+00   2.533813e-02
  8.764459e-01    1.572502e+00   2.517115e-02
  8.786564e-01    1.581725e+00   2.520721e-02
  8.808669e-01    1.610146e+00   2.539411e-02
  8.830773e-01    1.621502e+00   2.544515e-02
  8.852878e-01    1.591800e+00   2.517322e-02
  8.874982e-01    1.586088e+00   2.509154e-02
  8.897087e-01    1.616885e+00   2.529612e-02
  8.919191e-01    1.611869e+00   2.521895e-02
  8.941296e-01    1.603949e+00   2.511960e-02
  8.963401e-01    1.590574e+00   2.497833e-02
  8.985505e-01    1.596952e+00   2.499142e-02
  9.007610e-01    1.617566e+00   2.511526e-02
  9.029714e-01    1.593963e+00   2.489559e-02
  9.051819e-01    1.586623e+00   2.480113e-02
  9.073923e-01    1.629703e+00   2.509866e-02
  9.096028e-01    1.614900e+00   2.494936e-02
  9.118132e-01    1.577334e+00   2.462148e-02
  9.140237e-01    1.563467e+00   2.447681e-02
  9.162342e-01    1.569275e+00   2.448800e-02
  9.184446e-01    1.575452e+00   2.450066e-02
  9.206551e-01    1.646791e+00   2.501313e-02
  9.228655e-01    1.628533e+00   2.483854e-02
  9.250760e-01    1.616992e+00   2.471483e-02
  9.272864e-01    1.614856e+00   2.466415e-02
  9.294969e-01    1.591799e+00   2.445171e-02
  9.317074e-01    1.637568e+00   2.476572e-02
  9.339178e-01    1.646848e+00   2.480187e-02
  9.361283e-01    1.652464e+00   2.480752e-02
  9.383387e-01    1.606189e+00   2.442443e-02
  9.405492e-01    1.624438e+00   2.452846e-02
  9.427596e-01    1.650883e+00   2.469174e-02
  9.449701e-01    1.642127e+00   2.459270e-02
  9.471805e-01    1.678856e+00   2.483098e-02
  9.493910e-01    1.688414e+00   2.486740e-02
  9.516015e-01    1.687636e+00   2.482696e-02
  9.538119e-01    1.700285e+00   2.488567e-02
  9.560224e-01    1.739325e+00   2.513432e-02
  9.582328e-01    1.758956e+00   2.524185e-02
  9.604433e-01    1.803753e+00   2.552506e-02
  9.626537e-01    1.812268e+00   2.555085e-02
  9.648642e-01    1.823309e+00   2.559345e-02
  9.670747e-01    1.896870e+00   2.606862e-02
  9.692851e-01    1.991937e+00   2.667838e-02
  9.714956e-01    2.003714e+00   2.671943e-02
  9.737060e-01    1.910065e+00   2.605330e-02
  9.759165e-01    1.874158e+00   2.577084e-02
  9.781269e-01    1.842381e+00   2.551800e-02
  9.803374e-01    1.849260e+00   2.553024e-02
  9.825478e-01    1.811432e+00   2.523444e-02
  9.847583e-01    1.807990e+00   2.517620e-02
  9.869688e-01    1.812932e+00   2.517687e-02
  9.891792e-01    1.781102e+00   2.492169e-02
  9.913897e-01    1.772273e+00   2.482631e-02
  9.936001e-01    1.765144e+00   2.474387e-02
  9.958106e-01    1.737375e+00   2.451514e-02
  9.980210e-01    1.716337e+00   2.433460e-02
  1.000231e+00    1.697584e+00   2.433390e-02
  1.002442e+00    1.630909e+00   2.397796e-02
  1.004652e+00    1.611656e+00   2.390249e-02
  1.006863e+00    1.605942e+00   2.390959e-02
  1.009073e+00    1.596414e+00   2.387505e-02
  1.011284e+00    1.591672e+00   2.387143e-02
  1.013494e+00    1.570968e+00   2.373919e-02
  1.015705e+00    1.571343e+00   2.376444e-02
  1.017915e+00    1.597150e+00   2.397532e-02
  1.020126e+00    1.566181e+00   2.375780e-02
  1.022336e+00    1.530687e+00   2.349861e-02
  1.024547e+00    1.520040e+00   2.342785e-02
  1.026757e+00    1.532979e+00   2.353567e-02
  1.028967e+00    1.533368e+00   2.354633e-02
  1.031178e+00    1.532602e+00   2.354657e-02
  1.033388e+00    1.575779e+00   2.388110e-02
  1.035599e+00    1.523174e+00   2.348254e-02
  1.037809e+00    1.519156e+00   2.345477e-02
  1.040020e+00    1.543766e+00   2.364526e-02
  1.042230e+00    1.546904e+00   2.367125e-02
  1.044441e+00    1.530764e+00   2.354722e-02
  1.046651e+00    1.504439e+00   2.334405e-02
  1.048862e+00    1.475387e+00   2.311676e-02
  1.051072e+00    1.447482e+00   2.289479e-02
  1.053282e+00    1.456068e+00   2.296163e-02
  1.055493e+00    1.498247e+00   2.328754e-02
  1.057703e+00    1.437730e+00   2.281092e-02
  1.059914e+00    1.423862e+00   2.269644e-02
  1.062124e+00    1.458609e+00   2.296768e-02
  1.064335e+00    1.517481e+00   2.342314e-02
  1.066545e+00    1.484013e+00   2.315742e-02
  1.068756e+00    1.486086e+00   2.316983e-02
  1.070966e+00    1.495027e+00   2.323287e-02
  1.073177e+00    1.481268e+00   2.311962e-02
  1.075387e+00    1.518866e+00   2.340589e-02
  1.077597e+00    1.513947e+00   2.336060e-02
  1.079808e+00    1.490066e+00   2.304170e-02
  1.082018e+00    1.524021e+00   2.310977e-02
  1.084229e+00    1.692407e+00   2.423442e-02
  1.086439e+00    2.472954e+00   2.918062e-02
  1.088650e+00    2.798996e+00   3.094000e-02
  1.090860e+00    2.411919e+00   2.863406e-02
  1.093071e+00    1.856668e+00   2.505251e-02
  1.095281e+00    1.550736e+00   2.283628e-02
  1.097492e+00    1.480506e+00   2.225757e-02
  1.099702e+00    1.466592e+00   2.210087e-02
  1.101912e+00    1.483435e+00   2.217783e-02
  1.104123e+00    1.477272e+00   2.208278e-02
  1.106333e+00    1.487536e+00   2.211414e-02
  1.108544e+00    1.432603e+00   2.165768e-02
  1.110754e+00    1.386266e+00   2.126211e-02
  1.112965e+00    1.403691e+00   2.135506e-02
  1.115175e+00    1.420754e+00   2.144326e-02
  1.117386e+00    1.409238e+00   2.131700e-02
  1.119596e+00    1.378403e+00   2.104509e-02
  1.121807e+00    1.404382e+00   2.120372e-02
  1.124017e+00    1.407245e+00   2.118868e-02
  1.126228e+00    1.389995e+00   2.102286e-02
  1.128438e+00    1.378854e+00   2.090195e-02
  1.130648e+00    1.385004e+00   2.091439e-02
  1.132859e+00    1.376271e+00   2.081421e-02
  1.135069e+00    1.395542e+00   2.092468e-02
  1.137280e+00    1.386556e+00   2.082425e-02
  1.139490e+00    1.355253e+00   2.055516e-02
  1.141701e+00    1.385774e+00   2.075218e-02
  1.143911e+00    1.404188e+00   2.085752e-02
  1.146122e+00    1.394276e+00   2.075159e-02
  1.148332e+00    1.415825e+00   2.087906e-02
  1.150543e+00    1.387664e+00   2.063943e-02
  1.152753e+00    1.356617e+00   2.037661e-02
  1.154963e+00    1.358790e+00   2.036203e-02
  1.157174e+00    1.366491e+00   2.038957e-02
  1.159384e+00    1.365825e+00   2.035482e-02
  1.161595e+00    1.355702e+00   2.024956e-02
  1.163805e+00    1.367260e+00   2.030645e-02
  1.166016e+00    1.383891e+00   2.039997e-02
  1.168226e+00    1.389214e+00   2.040998e-02
  1.170437e+00    1.377522e+00   2.029516e-02
  1.172647e+00    1.360024e+00   2.013702e-02
  1.174858e+00    1.366617e+00   2.015765e-02
  1.177068e+00    1.381096e+00   2.023569e-02
  1.179278e+00    1.416990e+00   2.046782e-02
  1.181489e+00    1.405860e+00   2.035981e-02
  1.183699e+00    1.384918e+00   2.017978e-02
  1.185910e+00    1.360674e+00   1.997456e-02
  1.188120e+00    1.350903e+00   1.987608e-02
  1.190331e+00    1.331895e+00   1.970923e-02
  1.192541e+00    1.322516e+00   1.961263e-02
  1.194752e+00    1.356487e+00   1.983586e-02
  1.196962e+00    1.344170e+00   1.971993e-02
  1.199173e+00    1.345800e+00   1.970541e-02
  1.201383e+00    1.366329e+00   1.982783e-02
  1.203593e+00    1.383336e+00   1.992570e-02
  1.205804e+00    1.362948e+00   1.975232e-02
  1.208014e+00    1.313170e+00   1.936175e-02
  1.210225e+00    1.375942e+00   1.979354e-02
  1.212435e+00    1.376245e+00   1.977070e-02
  1.214646e+00    1.352266e+00   1.957159e-02
  1.216856e+00    1.323627e+00   1.933799e-02
  1.219067e+00    1.350037e+00   1.950550e-02
  1.221277e+00    1.343996e+00   1.943684e-02
  1.223488e+00    1.362024e+00   1.954091e-02
  1.225698e+00    1.350805e+00   1.943335e-02
  1.227909e+00    1.342942e+00   1.934662e-02
  1.230119e+00    1.332229e+00   1.923766e-02
  1.232329e+00    1.330954e+00   1.919793e-02
  1.234540e+00    1.396797e+00   1.963624e-02
  1.236750e+00    1.541987e+00   2.059916e-02
  1.238961e+00    1.789643e+00   2.216077e-02
  1.241171e+00    1.808162e+00   2.224724e-02
  1.243382e+00    1.606802e+00   2.094634e-02
  1.245592e+00    1.400036e+00   1.952767e-02
  1.247803e+00    1.343851e+00   1.910819e-02
  1.250013e+00    1.346715e+00   1.910500e-02
  1.252224e+00    1.362697e+00   1.919468e-02
  1.254434e+00    1.365952e+00   1.919373e-02
  1.256644e+00    1.329327e+00   1.891163e-02
  1.258855e+00    1.338675e+00   1.895482e-02
  1.261065e+00    1.346220e+00   1.898483e-02
  1.263276e+00    1.340979e+00   1.892498e-02
  1.265486e+00    1.370588e+00   1.910970e-02
  1.267697e+00    1.393995e+00   1.924882e-02
  1.269907e+00    1.374962e+00   1.909404e-02
  1.272118e+00    1.380024e+00   1.910634e-02
  1.274328e+00    1.365913e+00   1.898555e-02
  1.276539e+00    1.349836e+00   1.885070e-02
  1.278749e+00    1.343041e+00   1.878095e-02
  1.280959e+00    1.366000e+00   1.891814e-02
  1.283170e+00    1.362942e+00   1.887441e-02
  1.285380e+00    1.356964e+00   1.881047e-02
  1.287591e+00    1.339240e+00   1.866527e-02
  1.289801e+00    1.345432e+00   1.868719e-02
  1.292012e+00    1.342766e+00   1.865159e-02
  1.294222e+00    1.377099e+00   1.887215e-02
  1.296433e+00    1.379716e+00   1.887431e-02
  1.298643e+00    1.355760e+00   1.869323e-02
  1.300854e+00    1.342648e+00   1.858624e-02
  1.303064e+00    1.347933e+00   1.860357e-02
  1.305274e+00    1.338289e+00   1.851557e-02
  1.307485e+00    1.350378e+00   1.857745e-02
  1.309695e+00    1.374686e+00   1.872145e-02
  1.311906e+00    1.384277e+00   1.876470e-02
  1.314116e+00    1.362859e+00   1.859807e-02
  1.316327e+00    1.335376e+00   1.838802e-02
  1.318537e+00    1.348314e+00   1.845500e-02
  1.320748e+00    1.362824e+00   1.853238e-02
  1.322958e+00    1.359186e+00   1.848704e-02
  1.325169e+00    1.374605e+00   1.857040e-02
  1.327379e+00    1.359782e+00   1.844812e-02
  1.329589e+00    1.363879e+00   1.845470e-02
  1.331800e+00    1.355905e+00   1.837995e-02
  1.334010e+00    1.362089e+00   1.840106e-02
  1.336221e+00    1.345252e+00   1.826526e-02
  1.338431e+00    1.353278e+00   1.829878e-02
  1.340642e+00    1.358439e+00   1.839799e-02
  1.342852e+00    1.370279e+00   1.857942e-02
  1.345063e+00    1.352446e+00   1.850768e-02
  1.347273e+00    1.337554e+00   1.844056e-02
  1.349484e+00    1.338085e+00   1.847179e-02
  1.351694e+00    1.346373e+00   1.855157e-02
  1.353905e+00    1.360064e+00   1.866373e-02
  1.356115e+00    1.325584e+00   1.844054e-02
  1.358325e+00    1.347615e+00   1.860645e-02
  1.360536e+00    1.365257e+00   1.873954e-02
  1.362746e+00    1.323609e+00   1.846098e-02
  1.364957e+00    1.335968e+00   1.855457e-02
  1.367167e+00    1.325259e+00   1.848717e-02
  1.369378e+00    1.316862e+00   1.843446e-02
  1.371588e+00    1.316838e+00   1.843935e-02
  1.373799e+00    1.338952e+00   1.859722e-02
  1.376009e+00    1.344648e+00   1.864013e-02
  1.378220e+00    1.337620e+00   1.859390e-02
  1.380430e+00    1.300483e+00   1.833663e-02
  1.382640e+00    1.325200e+00   1.851096e-02
  1.384851e+00    1.326820e+00   1.852317e-02
  1.387061e+00    1.300749e+00   1.834056e-02
  1.389272e+00    1.303166e+00   1.835783e-02
  1.391482e+00    1.270805e+00   1.812777e-02
  1.393693e+00    1.284565e+00   1.822478e-02
  1.395903e+00    1.274918e+00   1.815473e-02
  1.398114e+00    1.280819e+00   1.819532e-02
  1.400324e+00    1.289535e+00   1.825497e-02
  1.402535e+00    1.311676e+00   1.840868e-02
  1.404745e+00    1.277750e+00   1.816671e-02
  1.406955e+00    1.260299e+00   1.803952e-02
  1.409166e+00    1.263767e+00   1.806103e-02
  1.411376e+00    1.274212e+00   1.813239e-02
  1.413587e+00    1.274525e+00   1.813081e-02
  1.415797e+00    1.254938e+00   1.798744e-02
  1.418008e+00    1.271507e+00   1.806387e-02
  1.420218e+00    1.274228e+00   1.793325e-02
  1.422429e+00    1.275931e+00   1.785968e-02
  1.424639e+00    1.293422e+00   1.791642e-02
  1.426850e+00    1.274568e+00   1.773055e-02
  1.429060e+00    1.274583e+00   1.768159e-02
  1.431270e+00    1.263569e+00   1.756081e-02
  1.433481e+00    1.264479e+00   1.752628e-02
  1.435691e+00    1.303251e+00   1.775401e-02
  1.437902e+00    1.283886e+00   1.758498e-02
  1.440112e+00    1.263771e+00   1.741141e-02
  1.442323e+00    1.249300e+00   1.727866e-02
  1.444533e+00    1.268485e+00   1.737828e-02
  1.446744e+00    1.247917e+00   1.720599e-02
  1.448954e+00    1.246579e+00   1.716681e-02
  1.451165e+00    1.254820e+00   1.719391e-02
  1.453375e+00    1.245741e+00   1.710380e-02
  1.455586e+00    1.287744e+00   1.736140e-02
  1.457796e+00    1.286903e+00   1.732805e-02
  1.460006e+00    1.268424e+00   1.717595e-02
  1.462217e+00    1.265624e+00   1.713080e-02
  1.464427e+00    1.277576e+00   1.718582e-02
  1.466638e+00    1.255758e+00   1.701325e-02
  1.468848e+00    1.276834e+00   1.712999e-02
  1.471059e+00    1.287324e+00   1.717497e-02
  1.473269e+00    1.294335e+00   1.719705e-02
  1.475480e+00    1.285241e+00   1.711262e-02
  1.477690e+00    1.300935e+00   1.719263e-02
  1.479901e+00    1.280883e+00   1.703566e-02
  1.482111e+00    1.277699e+00   1.699106e-02
  1.484321e+00    1.260794e+00   1.685521e-02
  1.486532e+00    1.289748e+00   1.702512e-02
  1.488742e+00    1.277028e+00   1.691821e-02
  1.490953e+00    1.267663e+00   1.683342e-02
  1.493163e+00    1.278759e+00   1.688451e-02
  1.495374e+00    1.273547e+00   1.682849e-02
  1.497584e+00    1.261723e+00   1.672856e-02
  1.499795e+00    1.247272e+00   1.661093e-02
  1.502005e+00    1.264581e+00   1.670407e-02
  1.504216e+00    1.265216e+00   1.668717e-02
  1.506426e+00    1.252835e+00   1.658456e-02
  1.508636e+00    1.244384e+00   1.650819e-02
  1.510847e+00    1.264146e+00   1.661685e-02
  1.513057e+00    1.275199e+00   1.666408e-02
  1.515268e+00    1.279140e+00   1.666382e-02
  1.517478e+00    1.283092e+00   1.666414e-02
  1.519689e+00    1.260417e+00   1.649119e-02
  1.521899e+00    1.255180e+00   1.643378e-02
  1.524110e+00    1.265873e+00   1.648318e-02
  1.526320e+00    1.281058e+00   1.656196e-02
  1.528531e+00    1.270817e+00   1.647569e-02
  1.530741e+00    1.260618e+00   1.639023e-02
  1.532951e+00    1.247606e+00   1.628584e-02
  1.535162e+00    1.261086e+00   1.646059e-02
  1.537372e+00    1.250437e+00   1.645789e-02
  1.539583e+00    1.245881e+00   1.646208e-02
  1.541793e+00    1.236850e+00   1.640921e-02
  1.544004e+00    1.244717e+00   1.646158e-02
  1.546214e+00    1.238579e+00   1.641943e-02
  1.548425e+00    1.247244e+00   1.647703e-02
  1.550635e+00    1.252235e+00   1.651967e-02
  1.552846e+00    1.249596e+00   1.651194e-02
  1.555056e+00    1.245767e+00   1.644512e-02
  1.557266e+00    1.226410e+00   1.620721e-02
  1.559477e+00    1.257424e+00   1.635141e-02
  1.561687e+00    1.303139e+00   1.661462e-02
  1.563898e+00    1.260504e+00   1.632333e-02
  1.566108e+00    1.247873e+00   1.622533e-02
  1.568319e+00    1.265326e+00   1.632265e-02
  1.570529e+00    1.259127e+00   1.625735e-02
  1.572740e+00    1.261642e+00   1.624578e-02
  1.574950e+00    1.256027e+00   1.618313e-02
  1.577161e+00    1.258512e+00   1.617352e-02
  1.579371e+00    1.267517e+00   1.620739e-02
  1.581582e+00    1.260720e+00   1.614400e-02
  1.583792e+00    1.246683e+00   1.603584e-02
  1.586002e+00    1.231953e+00   1.592327e-02
  1.588213e+00    1.246425e+00   1.599928e-02
  1.590423e+00    1.265405e+00   1.610038e-02
  1.592634e+00    1.233513e+00   1.587468e-02
  1.594844e+00    1.245089e+00   1.592757e-02
  1.597055e+00    1.243523e+00   1.589705e-02
  1.599265e+00    1.254257e+00   1.594469e-02
  1.601476e+00    1.237422e+00   1.581703e-02
  1.603686e+00    1.242974e+00   1.583271e-02
  1.605897e+00    1.220388e+00   1.566818e-02
  1.608107e+00    1.210210e+00   1.558337e-02
  1.610317e+00    1.238501e+00   1.574513e-02
  1.612528e+00    1.219478e+00   1.560471e-02
  1.614738e+00    1.219471e+00   1.558580e-02
  1.616949e+00    1.200949e+00   1.544821e-02
  1.619159e+00    1.209377e+00   1.548369e-02
  1.621370e+00    1.191609e+00   1.535130e-02
  1.623580e+00    1.179389e+00   1.525430e-02
  1.625791e+00    1.177864e+00   1.522641e-02
  1.628001e+00    1.187124e+00   1.526801e-02
  1.630212e+00    1.155596e+00   1.504641e-02
  1.632422e+00    1.155794e+00   1.503005e-02
  1.634632e+00    1.148486e+00   1.496539e-02
  1.636843e+00    1.161776e+00   1.503430e-02
  1.639053e+00    1.160019e+00   1.500576e-02
  1.641264e+00    1.145148e+00   1.489233e-02
  1.643474e+00    1.123469e+00   1.473361e-02
  1.645685e+00    1.123462e+00   1.471713e-02
  1.647895e+00    1.139994e+00   1.480854e-02
  1.650106e+00    1.148781e+00   1.484853e-02
  1.652316e+00    1.135023e+00   1.474296e-02
  1.654527e+00    1.119451e+00   1.462497e-02
  1.656737e+00    1.123448e+00   1.463459e-02
  1.658947e+00    1.111125e+00   1.453798e-02
  1.661158e+00    1.120696e+00   1.458424e-02
  1.663368e+00    1.134946e+00   1.466054e-02
  1.665579e+00    1.154064e+00   1.476713e-02
  1.667789e+00    1.127015e+00   1.457673e-02
  1.670000e+00    1.116513e+00   1.449313e-02
  1.672210e+00    1.109396e+00   1.443099e-02
  1.674421e+00    1.096314e+00   1.433039e-02
  1.676631e+00    1.075136e+00   1.417561e-02
  1.678842e+00    1.093704e+00   1.428177e-02
  1.681052e+00    1.090161e+00   1.424325e-02
  1.683263e+00    1.088734e+00   1.421880e-02
  1.685473e+00    1.083927e+00   1.417223e-02
  1.687683e+00    1.105998e+00   1.430021e-02
  1.689894e+00    1.090006e+00   1.418061e-02
  1.692104e+00    1.148707e+00   1.454201e-02
  1.694315e+00    1.191587e+00   1.479567e-02
  1.696525e+00    1.171111e+00   1.465216e-02
  1.698736e+00    1.100695e+00   1.418976e-02
  1.700946e+00    1.061427e+00   1.391919e-02
  1.703157e+00    1.053157e+00   1.385026e-02
  1.705367e+00    1.028412e+00   1.367224e-02
  1.707578e+00    1.039103e+00   1.372862e-02
  1.709788e+00    1.041533e+00   1.373057e-02
  1.711998e+00    1.028144e+00   1.362713e-02
  1.714209e+00    1.036750e+00   1.366962e-02
  1.716419e+00    1.023472e+00   1.356762e-02
  1.718630e+00    1.022558e+00   1.354734e-02
  1.720840e+00    1.025993e+00   1.355592e-02
  1.723051e+00    1.014807e+00   1.346801e-02
  1.725261e+00    9.950007e-01   1.332147e-02
  1.727472e+00    9.910082e-01   1.328071e-02
  1.729682e+00    1.014957e+00   1.342676e-02
  1.731893e+00    1.012643e+00   1.339755e-02
  1.734103e+00    9.850468e-01   1.320011e-02
  1.736313e+00    1.007849e+00   1.333797e-02
  1.738524e+00    1.001625e+00   1.328292e-02
  1.740734e+00    9.876168e-01   1.317608e-02
  1.742945e+00    1.010334e+00   1.331320e-02
  1.745155e+00    9.972848e-01   1.321348e-02
  1.747366e+00    9.686629e-01   1.300882e-02
  1.749576e+00    9.805016e-01   1.307441e-02
  1.751787e+00    9.875175e-01   1.310776e-02
  1.753997e+00    9.605703e-01   1.291443e-02
  1.756208e+00    9.679794e-01   1.295096e-02
  1.758418e+00    9.744020e-01   1.298076e-02
  1.760628e+00    9.479329e-01   1.279001e-02
  1.762839e+00    9.608220e-01   1.286348e-02
  1.765049e+00    9.673159e-01   1.289374e-02
  1.767260e+00    9.678015e-01   1.288411e-02
  1.769470e+00    9.640601e-01   1.284612e-02
  1.771681e+00    9.980433e-01   1.305712e-02
  1.773891e+00    9.896295e-01   1.298867e-02
  1.776102e+00    9.844872e-01   1.294175e-02
  1.778312e+00    1.014925e+00   1.312707e-02
  1.780523e+00    1.109018e+00   1.370825e-02
  1.782733e+00    1.135198e+00   1.385521e-02
  1.784944e+00    1.038819e+00   1.324046e-02
  1.787154e+00    9.709995e-01   1.278814e-02
  1.789364e+00    9.490976e-01   1.263048e-02
  1.791575e+00    9.518534e-01   1.263610e-02
  1.793785e+00    9.384313e-01   1.253419e-02
  1.795996e+00    9.406225e-01   1.253616e-02
  1.798206e+00    9.348271e-01   1.248486e-02
  1.800417e+00    9.344231e-01   1.246935e-02
  1.802627e+00    9.125208e-01   1.231043e-02
  1.804838e+00    9.201646e-01   1.234971e-02
  1.807048e+00    9.682243e-01   1.265484e-02
  1.809259e+00    9.418995e-01   1.246781e-02
  1.811469e+00    9.082431e-01   1.222802e-02
  1.813679e+00    9.041926e-01   1.218573e-02
  1.815890e+00    8.849730e-01   1.204088e-02
  1.818100e+00    8.906569e-01   1.206442e-02
  1.820311e+00    9.024541e-01   1.212923e-02
  1.822521e+00    8.751888e-01   1.192987e-02
  1.824732e+00    9.149668e-01   1.218293e-02
  1.826942e+00    9.373242e-01   1.231823e-02
  1.829153e+00    9.034529e-01   1.208180e-02
  1.831363e+00    9.027122e-01   1.206469e-02
  1.833574e+00    8.696305e-01   1.182997e-02
  1.835784e+00    8.627805e-01   1.177194e-02
  1.837994e+00    8.577561e-01   1.172605e-02
  1.840205e+00    8.721583e-01   1.181291e-02
  1.842415e+00    8.702092e-01   1.178796e-02
  1.844626e+00    8.614141e-01   1.171673e-02
  1.846836e+00    8.723528e-01   1.177944e-02
  1.849047e+00    8.687738e-01   1.174363e-02
  1.851257e+00    8.486614e-01   1.159741e-02
  1.853468e+00    8.579194e-01   1.165171e-02
  1.855678e+00    8.621612e-01   1.167159e-02
  1.857889e+00    8.682051e-01   1.170388e-02
  1.860099e+00    8.632123e-01   1.166154e-02
  1.862309e+00    8.291867e-01   1.142100e-02
  1.864520e+00    8.449850e-01   1.152077e-02
  1.866730e+00    8.539281e-01   1.157219e-02
  1.868941e+00    8.565624e-01   1.157907e-02
  1.871151e+00    8.372362e-01   1.143639e-02
  1.873362e+00    8.583077e-01   1.156803e-02
  1.875572e+00    8.365276e-01   1.140944e-02
  1.877783e+00    8.510772e-01   1.149680e-02
  1.879993e+00    8.332663e-01   1.136480e-02
  1.882204e+00    8.393433e-01   1.139530e-02
  1.884414e+00    8.385694e-01   1.137900e-02
  1.886624e+00    8.405592e-01   1.138145e-02
  1.888835e+00    8.343567e-01   1.132844e-02
  1.891045e+00    8.628274e-01   1.150908e-02
  1.893256e+00    8.306836e-01   1.128166e-02
  1.895466e+00    8.219864e-01   1.121134e-02
  1.897677e+00    8.350249e-01   1.128899e-02
  1.899887e+00    8.203432e-01   1.117843e-02
  1.902098e+00    8.504343e-01   1.137062e-02
  1.904308e+00    8.668380e-01   1.146895e-02
  1.906519e+00    8.745350e-01   1.150864e-02
  1.908729e+00    8.627542e-01   1.142006e-02
  1.910940e+00    8.324612e-01   1.120660e-02
  1.913150e+00    8.120745e-01   1.105804e-02
  1.915360e+00    8.046526e-01   1.099688e-02
  1.917571e+00    8.154748e-01   1.105977e-02
  1.919781e+00    8.197289e-01   1.107790e-02
  1.921992e+00    8.229752e-01   1.108918e-02
  1.924202e+00    8.253829e-01   1.109456e-02
  1.926413e+00    8.200702e-01   1.104850e-02
  1.928623e+00    8.093577e-01   1.096557e-02
  1.930834e+00    8.035397e-01   1.091573e-02
  1.933044e+00    8.018476e-01   1.089361e-02
  1.935255e+00    8.004584e-01   1.087391e-02
  1.937465e+00    7.986297e-01   1.085115e-02
  1.939675e+00    7.852557e-01   1.074920e-02
  1.941886e+00    7.996227e-01   1.083685e-02
  1.944096e+00    7.957730e-01   1.080059e-02
  1.946307e+00    7.794464e-01   1.067904e-02
  1.948517e+00    7.814515e-01   1.068242e-02
  1.950728e+00    8.026308e-01   1.081595e-02
  1.952938e+00    8.063871e-01   1.083109e-02
  1.955149e+00    8.235521e-01   1.093535e-02
  1.957359e+00    8.084068e-01   1.082423e-02
  1.959570e+00    7.864312e-01   1.066528e-02
  1.961780e+00    7.807680e-01   1.061695e-02
  1.963990e+00    7.882849e-01   1.065785e-02
  1.966201e+00    8.034307e-01   1.074960e-02
  1.968411e+00    7.880459e-01   1.063607e-02
  1.970622e+00    7.775868e-01   1.055520e-02
  1.972832e+00    7.918379e-01   1.064149e-02
  1.975043e+00    7.884835e-01   1.060886e-02
  1.977253e+00    7.882903e-01   1.059760e-02
  1.979464e+00    7.823650e-01   1.054767e-02
  1.981674e+00    7.744731e-01   1.048413e-02
  1.983885e+00    7.698150e-01   1.044261e-02
  1.986095e+00    7.826109e-01   1.051931e-02
  1.988305e+00    7.832029e-01   1.051339e-02
  1.990516e+00    7.735593e-01   1.043857e-02
  1.992726e+00    7.727154e-01   1.042324e-02
  1.994937e+00    7.717552e-01   1.040666e-02
  1.997147e+00    7.871949e-01   1.050044e-02
  1.999358e+00    7.936736e-01   1.053359e-02
  2.001568e+00    7.961351e-01   1.053894e-02
  2.003779e+00    8.084608e-01   1.060801e-02
  2.005989e+00    8.022581e-01   1.055500e-02
  2.008200e+00    7.838480e-01   1.042156e-02
  2.010410e+00    7.978020e-01   1.050194e-02
  2.012621e+00    7.756038e-01   1.034307e-02
  2.014831e+00    7.679680e-01   1.028053e-02
  2.017041e+00    7.712154e-01   1.029183e-02
  2.019252e+00    7.695686e-01   1.027086e-02
  2.021462e+00    7.854043e-01   1.036636e-02
  2.023673e+00    7.693643e-01   1.025056e-02
  2.025883e+00    7.504538e-01   1.011435e-02
  2.028094e+00    7.426445e-01   1.005207e-02
  2.030304e+00    7.454621e-01   1.006167e-02
  2.032515e+00    7.741400e-01   1.024400e-02
  2.034725e+00    7.659777e-01   1.018039e-02
  2.036936e+00    7.651624e-01   1.016556e-02
  2.039146e+00    7.696700e-01   1.018584e-02
  2.041356e+00    7.539555e-01   1.007168e-02
  2.043567e+00    7.386251e-01   9.959565e-03
  2.045777e+00    7.486371e-01   1.001762e-02
  2.047988e+00    7.469106e-01   9.996761e-03
  2.050198e+00    7.397774e-01   9.940533e-03
  2.052409e+00    7.402873e-01   9.936376e-03
  2.054619e+00    7.645341e-01   1.009034e-02
  2.056830e+00    7.791442e-01   1.017900e-02
  2.059040e+00    7.548594e-01   1.001160e-02
  2.061251e+00    7.647914e-01   1.006989e-02
  2.063461e+00    7.696577e-01   1.009421e-02
  2.065671e+00    7.567834e-01   1.000065e-02
  2.067882e+00    7.497138e-01   9.944828e-03
  2.070092e+00    7.543632e-01   9.966365e-03
  2.072303e+00    7.516857e-01   9.939499e-03
  2.074513e+00    7.476113e-01   9.903193e-03
  2.076724e+00    7.496337e-01   9.907071e-03
  2.078934e+00    7.546223e-01   9.930922e-03
  2.081145e+00    7.457131e-01   9.863032e-03
  2.083355e+00    7.339876e-01   9.776038e-03
  2.085566e+00    7.380942e-01   9.794474e-03
  2.087776e+00    7.437302e-01   9.822243e-03
  2.089986e+00    7.309768e-01   9.728951e-03
  2.092197e+00    7.405016e-01   9.783125e-03
  2.094407e+00    7.413517e-01   9.779499e-03
  2.096618e+00    7.409163e-01   9.767690e-03
  2.098828e+00    7.577406e-01   9.868497e-03
  2.101039e+00    7.789298e-01   9.996274e-03
  2.103249e+00    7.734800e-01   9.952350e-03
  2.105460e+00    7.425801e-01   9.742425e-03
  2.107670e+00    7.273697e-01   9.633406e-03
  2.109881e+00    7.126818e-01   9.526573e-03
  2.112091e+00    7.298232e-01   9.631438e-03
  2.114301e+00    7.225572e-01   9.574609e-03
  2.116512e+00    7.119145e-01   9.495117e-03
  2.118722e+00    7.138391e-01   9.499152e-03
  2.120933e+00    7.258571e-01   9.569887e-03
  2.123143e+00    7.493515e-01   9.714429e-03
  2.125354e+00    7.555580e-01   9.745840e-03
  2.127564e+00    7.528459e-01   9.719388e-03
  2.129775e+00    7.254401e-01   9.532071e-03
  2.131985e+00    7.086138e-01   9.411824e-03
  2.134196e+00    7.219549e-01   9.491377e-03
  2.136406e+00    7.213912e-01   9.478870e-03
  2.138617e+00    7.134151e-01   9.417861e-03
  2.140827e+00    7.008464e-01   9.350494e-03
  2.143037e+00    7.083381e-01   9.445845e-03
  2.145248e+00    7.078099e-01   9.464362e-03
  2.147458e+00    7.042209e-01   9.455476e-03
  2.149669e+00    7.129862e-01   9.526060e-03
  2.151879e+00    7.039066e-01   9.474474e-03
  2.154090e+00    6.986665e-01   9.446410e-03
  2.156300e+00    7.295127e-01   9.659439e-03
  2.158511e+00    7.012148e-01   9.475574e-03
  2.160721e+00    6.981713e-01   9.459776e-03
  2.162932e+00    7.203233e-01   9.612487e-03
  2.165142e+00    6.994772e-01   9.475403e-03
  2.167352e+00    7.040024e-01   9.508926e-03
  2.169563e+00    7.093095e-01   9.546672e-03
  2.171773e+00    6.997339e-01   9.484489e-03
  2.173984e+00    6.972796e-01   9.469231e-03
  2.176194e+00    6.925286e-01   9.438136e-03
  2.178405e+00    7.018765e-01   9.502318e-03
  2.180615e+00    6.932549e-01   9.444449e-03
  2.182826e+00    7.004611e-01   9.494101e-03
  2.185036e+00    7.072738e-01   9.540210e-03
  2.187247e+00    6.925595e-01   9.440407e-03
  2.189457e+00    6.795461e-01   9.350883e-03
  2.191667e+00    6.850170e-01   9.388275e-03
  2.193878e+00    6.810111e-01   9.360205e-03
  2.196088e+00    6.835088e-01   9.376691e-03
  2.198299e+00    6.841390e-01   9.379915e-03
  2.200509e+00    6.854154e-01   9.387597e-03
  2.202720e+00    6.717966e-01   9.292734e-03
  2.204930e+00    6.783305e-01   9.336564e-03
  2.207141e+00    6.864269e-01   9.391002e-03
  2.209351e+00    7.084889e-01   9.538798e-03
  2.211562e+00    6.857812e-01   9.383077e-03
  2.213772e+00    6.793404e-01   9.283327e-03
  2.215982e+00    6.648315e-01   9.139806e-03
  2.218193e+00    6.700089e-01   9.145809e-03
  2.220403e+00    6.817510e-01   9.200895e-03
  2.222614e+00    6.833961e-01   9.190897e-03
  2.224824e+00    6.761789e-01   9.122802e-03
  2.227035e+00    6.762447e-01   9.105776e-03
  2.229245e+00    6.674601e-01   9.029515e-03
  2.231456e+00    6.640277e-01   8.990749e-03
  2.233666e+00    6.510669e-01   8.887688e-03
  2.235877e+00    6.770187e-01   9.048754e-03
  2.238087e+00    6.753923e-01   9.024363e-03
  2.240298e+00    6.614498e-01   8.917026e-03
  2.242508e+00    6.745231e-01   8.989527e-03
  2.244718e+00    6.609843e-01   8.883140e-03
  2.246929e+00    6.846176e-01   9.025948e-03
  2.249139e+00    6.661719e-01   8.891174e-03
  2.251350e+00    6.549150e-01   8.804120e-03
  2.253560e+00    6.650532e-01   8.860434e-03
  2.255771e+00    6.753559e-01   8.917334e-03
  2.257981e+00    6.447973e-01   8.702246e-03
  2.260192e+00    6.563016e-01   8.768477e-03
  2.262402e+00    6.568027e-01   8.761035e-03
  2.264613e+00    6.598861e-01   8.770786e-03
  2.266823e+00    6.562129e-01   8.735985e-03
  2.269033e+00    6.600074e-01   8.750845e-03
  2.271244e+00    6.695321e-01   8.803326e-03
  2.273454e+00    6.626202e-01   8.747496e-03
  2.275665e+00    6.660848e-01   8.760009e-03
  2.277875e+00    6.481308e-01   8.631313e-03
  2.280086e+00    6.547556e-01   8.665302e-03
  2.282296e+00    6.453373e-01   8.593451e-03
  2.284507e+00    6.480740e-01   8.601598e-03
  2.286717e+00    6.656503e-01   8.707933e-03
  2.288928e+00    6.587920e-01   8.653108e-03
  2.291138e+00    6.471285e-01   8.566785e-03
  2.293348e+00    6.660018e-01   8.681194e-03
  2.295559e+00    6.629423e-01   8.651880e-03
  2.297769e+00    6.520184e-01   8.571085e-03
  2.299980e+00    6.347085e-01   8.447326e-03
  2.302190e+00    6.396716e-01   8.471257e-03
  2.304401e+00    6.476146e-01   8.514402e-03
  2.306611e+00    6.514004e-01   8.530061e-03
  2.308822e+00    6.422781e-01   8.461801e-03
  2.311032e+00    6.338460e-01   8.399701e-03
  2.313243e+00    6.525824e-01   8.516659e-03
  2.315453e+00    6.431524e-01   8.447353e-03
  2.317663e+00    6.569488e-01   8.528295e-03
  2.319874e+00    6.662739e-01   8.579740e-03
  2.322084e+00    6.414782e-01   8.409656e-03
  2.324295e+00    6.478822e-01   8.443280e-03
  2.326505e+00    6.503393e-01   8.450178e-03
  2.328716e+00    6.491678e-01   8.433977e-03
  2.330926e+00    6.555939e-01   8.466744e-03
  2.333137e+00    6.438128e-01   8.381940e-03
  2.335347e+00    6.471561e-01   8.394747e-03
  2.337558e+00    6.500188e-01   8.405017e-03
  2.339768e+00    6.340261e-01   8.292453e-03
  2.341979e+00    6.266620e-01   8.235849e-03
  2.344189e+00    6.331475e-01   8.269995e-03
  2.346399e+00    6.474140e-01   8.354070e-03
  2.348610e+00    6.480799e-01   8.349842e-03
  2.350820e+00    6.469865e-01   8.334536e-03
  2.353031e+00    6.425315e-01   8.297442e-03
  2.355241e+00    6.369399e-01   8.253199e-03
  2.357452e+00    6.376222e-01   8.249144e-03
  2.359662e+00    6.396677e-01   8.254094e-03
  2.361873e+00    6.221461e-01   8.132108e-03
  2.364083e+00    6.154901e-01   8.080559e-03
  2.366294e+00    6.260531e-01   8.141513e-03
  2.368504e+00    6.214025e-01   8.103182e-03
  2.370714e+00    6.248171e-01   8.117356e-03
  2.372925e+00    6.236891e-01   8.101992e-03
  2.375135e+00    6.212909e-01   8.078350e-03
  2.377346e+00    6.241616e-01   8.089050e-03
  2.379556e+00    6.283807e-01   8.108416e-03
  2.381767e+00    6.242352e-01   8.073738e-03
  2.383977e+00    6.185855e-01   8.029210e-03
  2.386188e+00    6.103897e-01   7.967972e-03
  2.388398e+00    6.213374e-01   8.031132e-03
  2.390609e+00    6.098013e-01   7.948571e-03
  2.392819e+00    6.154625e-01   7.977584e-03
  2.395029e+00    6.150461e-01   7.967249e-03
  2.397240e+00    6.059868e-01   7.900532e-03
  2.399450e+00    6.116381e-01   7.929486e-03
  2.401661e+00    6.061817e-01   7.886411e-03
  2.403871e+00    6.110427e-01   7.910190e-03
  2.406082e+00    6.121489e-01   7.909905e-03
  2.408292e+00    6.074243e-01   7.871558e-03
  2.410503e+00    6.168455e-01   7.924805e-03
  2.412713e+00    6.038867e-01   7.833370e-03
  2.414924e+00    6.035324e-01   7.823583e-03
  2.417134e+00    5.950496e-01   7.760834e-03
  2.419344e+00    6.113047e-01   7.858668e-03
  2.421555e+00    5.998058e-01   7.776903e-03
  2.423765e+00    6.080271e-01   7.822585e-03
  2.425976e+00    5.932079e-01   7.718889e-03
  2.428186e+00    5.972654e-01   7.738038e-03
  2.430397e+00    5.944524e-01   7.712330e-03
  2.432607e+00    5.959224e-01   7.714572e-03
  2.434818e+00    6.024303e-01   7.749020e-03
  2.437028e+00    5.906940e-01   7.666019e-03
  2.439239e+00    5.837516e-01   7.613256e-03
  2.441449e+00    5.863109e-01   7.622759e-03
  2.443659e+00    5.820600e-01   7.587788e-03
  2.445870e+00    5.692274e-01   7.515712e-03
  2.448080e+00    5.755730e-01   7.592056e-03
  2.450291e+00    5.753315e-01   7.607066e-03
  2.452501e+00    5.661131e-01   7.556924e-03
  2.454712e+00    5.626056e-01   7.541836e-03
  2.456922e+00    5.646418e-01   7.562050e-03
  2.459133e+00    5.644122e-01   7.565923e-03
  2.461343e+00    5.854586e-01   7.710129e-03
  2.463554e+00    5.559072e-01   7.516476e-03
  2.465764e+00    5.541552e-01   7.507713e-03
  2.467975e+00    5.687298e-01   7.608117e-03
  2.470185e+00    5.640483e-01   7.578993e-03
  2.472395e+00    5.582648e-01   7.541283e-03
  2.474606e+00    5.424607e-01   7.435307e-03
  2.476816e+00    5.572578e-01   7.536758e-03
  2.479027e+00    5.588903e-01   7.548670e-03
  2.481237e+00    5.465311e-01   7.465007e-03
  2.483448e+00    5.384972e-01   7.410242e-03
  2.485658e+00    5.401107e-01   7.421176e-03
  2.487869e+00    5.277243e-01   7.335647e-03
  2.490079e+00    5.315765e-01   7.361833e-03
  2.492290e+00    5.355092e-01   7.388591e-03
  2.494500e+00    5.334817e-01   7.373869e-03
  2.496710e+00    5.410549e-01   7.425313e-03
  2.498921e+00    5.307323e-01   7.353164e-03
  2.501131e+00    5.404004e-01   7.418877e-03
  2.503342e+00    5.289425e-01   7.338551e-03
  2.505552e+00    5.240900e-01   7.303682e-03
  2.507763e+00    5.339621e-01   7.370726e-03
  2.509973e+00    5.345725e-01   7.373539e-03
  2.512184e+00    5.306661e-01   7.344921e-03
  2.514394e+00    5.359245e-01   7.371800e-03
  2.516605e+00    5.261583e-01   7.257265e-03
  2.518815e+00    5.288701e-01   7.247548e-03
  2.521025e+00    5.144720e-01   7.127467e-03
  2.523236e+00    5.406474e-01   7.288276e-03
  2.525446e+00    5.437531e-01   7.293322e-03
  2.527657e+00    5.452094e-01   7.288208e-03
  2.529867e+00    5.372074e-01   7.220179e-03
  2.532078e+00    5.346240e-01   7.187626e-03
  2.534288e+00    5.201639e-01   7.075932e-03
  2.536499e+00    5.371039e-01   7.178135e-03
  2.538709e+00    5.487126e-01   7.244057e-03
  2.540920e+00    5.273596e-01   7.091039e-03
  2.543130e+00    5.253530e-01   7.067141e-03
  2.545340e+00    5.453225e-01   7.189950e-03
  2.547551e+00    5.287554e-01   7.069890e-03
  2.549761e+00    5.174324e-01   6.984239e-03
  2.551972e+00    5.153089e-01   6.960614e-03
  2.554182e+00    5.161734e-01   6.957298e-03
  2.556393e+00    5.262431e-01   7.015687e-03
  2.558603e+00    5.374620e-01   7.080870e-03
  2.560814e+00    5.488485e-01   7.146536e-03
  2.563024e+00    5.343785e-01   7.043011e-03
  2.565235e+00    5.203192e-01   6.940219e-03
  2.567445e+00    5.296510e-01   6.992523e-03
  2.569656e+00    5.248078e-01   6.950666e-03
  2.571866e+00    5.333015e-01   6.997196e-03
  2.574076e+00    5.264575e-01   6.942805e-03
  2.576287e+00    5.291529e-01   6.952121e-03
  2.578497e+00    5.153227e-01   6.852825e-03
  2.580708e+00    5.154746e-01   6.845754e-03
  2.582918e+00    5.158212e-01   6.840278e-03
  2.585129e+00    5.203381e-01   6.862370e-03
  2.587339e+00    5.183355e-01   6.841449e-03
  2.589550e+00    5.033758e-01   6.734511e-03
  2.591760e+00    5.156291e-01   6.808221e-03
  2.593971e+00    5.236628e-01   6.853442e-03
  2.596181e+00    5.092091e-01   6.751982e-03
  2.598391e+00    5.097176e-01   6.750184e-03
  2.600602e+00    4.984713e-01   6.669449e-03
  2.602812e+00    4.947142e-01   6.636836e-03
  2.605023e+00    4.939916e-01   6.624923e-03
  2.607233e+00    4.944959e-01   6.621259e-03
  2.609444e+00    5.030819e-01   6.671291e-03
  2.611654e+00    5.038785e-01   6.669276e-03
  2.613865e+00    5.006582e-01   6.640931e-03
  2.616075e+00    5.073749e-01   6.678181e-03
  2.618286e+00    4.940483e-01   6.582997e-03
  2.620496e+00    4.971074e-01   6.596672e-03
  2.622706e+00    5.089412e-01   6.668980e-03
  2.624917e+00    5.028809e-01   6.623311e-03
  2.627127e+00    5.127590e-01   6.682261e-03
  2.629338e+00    5.057195e-01   6.630238e-03
  2.631548e+00    5.041323e-01   6.613655e-03
  2.633759e+00    5.029307e-01   6.598615e-03
  2.635969e+00    5.088339e-01   6.630486e-03
  2.638180e+00    4.984955e-01   6.555847e-03
  2.640390e+00    5.000514e-01   6.559440e-03
  2.642601e+00    5.149218e-01   6.649501e-03
  2.644811e+00    5.012435e-01   6.553542e-03
  2.647021e+00    4.889277e-01   6.466011e-03
  2.649232e+00    4.936486e-01   6.490484e-03
  2.651442e+00    4.990086e-01   6.519103e-03
  2.653653e+00    5.037798e-01   6.543383e-03
  2.655863e+00    5.038437e-01   6.537087e-03
  2.658074e+00    4.940662e-01   6.466762e-03
  2.660284e+00    4.865273e-01   6.410939e-03
  2.662495e+00    4.919057e-01   6.439556e-03
  2.664705e+00    5.048686e-01   6.517232e-03
  2.666916e+00    5.153490e-01   6.577948e-03
  2.669126e+00    5.082217e-01   6.525777e-03
  2.671337e+00    5.033512e-01   6.487793e-03
  2.673547e+00    4.978229e-01   6.445670e-03
  2.675757e+00    5.017275e-01   6.464409e-03
  2.677968e+00    5.020109e-01   6.459639e-03
  2.680178e+00    5.055386e-01   6.475846e-03
  2.682389e+00    4.986649e-01   6.425221e-03
  2.684599e+00    4.912776e-01   6.371293e-03
  2.686810e+00    4.923022e-01   6.371303e-03
  2.689020e+00    4.884478e-01   6.340059e-03
  2.691231e+00    5.013490e-01   6.416876e-03
  2.693441e+00    4.966562e-01   6.380600e-03
  2.695652e+00    4.914889e-01   6.340791e-03
  2.697862e+00    4.841449e-01   6.286942e-03
  2.700072e+00    4.886527e-01   6.310051e-03
  2.702283e+00    4.840410e-01   6.274039e-03
  2.704493e+00    4.929057e-01   6.324898e-03
  2.706704e+00    4.951296e-01   6.332725e-03
  2.708914e+00    4.893763e-01   6.289833e-03
  2.711125e+00    4.931171e-01   6.307547e-03
  2.713335e+00    4.908238e-01   6.286766e-03
  2.715546e+00    4.910652e-01   6.281810e-03
  2.717756e+00    4.882173e-01   6.257682e-03
  2.719967e+00    4.777040e-01   6.183779e-03
  2.722177e+00    4.824874e-01   6.208543e-03
  2.724387e+00    4.867631e-01   6.229885e-03
  2.726598e+00    4.951534e-01   6.277232e-03
  2.728808e+00    4.889582e-01   6.231663e-03
  2.731019e+00    4.882745e-01   6.221165e-03
  2.733229e+00    4.744455e-01   6.126683e-03
  2.735440e+00    4.876117e-01   6.204816e-03
  2.737650e+00    4.878232e-01   6.200116e-03
  2.739861e+00    4.901039e-01   6.208490e-03
  2.742071e+00    4.870946e-01   6.183638e-03
  2.744282e+00    4.832726e-01   6.153070e-03
  2.746492e+00    4.685138e-01   6.052443e-03
  2.748702e+00    4.747702e-01   6.086846e-03
  2.750913e+00    4.811675e-01   6.121942e-03
  2.753123e+00    4.858647e-01   6.145603e-03
  2.755334e+00    4.734887e-01   6.060806e-03
  2.757544e+00    4.850439e-01   6.128527e-03
  2.759755e+00    4.893389e-01   6.149687e-03
  2.761965e+00    4.855094e-01   6.119553e-03
  2.764176e+00    4.869816e-01   6.122795e-03
  2.766386e+00    4.720633e-01   6.022543e-03
  2.768597e+00    4.720024e-01   6.016332e-03
  2.770807e+00    4.862999e-01   6.100849e-03
  2.773017e+00    4.787038e-01   6.047062e-03
  2.775228e+00    4.694040e-01   5.982291e-03
  2.777438e+00    4.693094e-01   5.975937e-03
  2.779649e+00    4.737008e-01   5.997986e-03
  2.781859e+00    4.759944e-01   6.006705e-03
  2.784070e+00    4.851797e-01   6.058477e-03
  2.786280e+00    4.856880e-01   6.055867e-03
  2.788491e+00    4.859939e-01   6.051848e-03
  2.790701e+00    4.874020e-01   6.054915e-03
  2.792912e+00    4.899952e-01   6.064948e-03
  2.795122e+00    4.755351e-01   5.969065e-03
  2.797333e+00    4.779477e-01   5.978600e-03
  2.799543e+00    4.837879e-01   6.009107e-03
  2.801753e+00    4.705615e-01   5.920586e-03
  2.803964e+00    4.793548e-01   5.969935e-03
  2.806174e+00    4.801196e-01   5.968531e-03
  2.808385e+00    4.845755e-01   5.989297e-03
  2.810595e+00    4.783518e-01   5.943820e-03
  2.812806e+00    4.826266e-01   5.963653e-03
  2.815016e+00    4.725226e-01   5.896162e-03
  2.817227e+00    4.697531e-01   5.904668e-03
  2.819437e+00    4.788426e-01   5.972650e-03
  2.821648e+00    4.830386e-01   6.001088e-03
  2.823858e+00    4.780940e-01   5.975652e-03
  2.826068e+00    4.742920e-01   5.956838e-03
  2.828279e+00    4.715663e-01   5.943718e-03
  2.830489e+00    4.826255e-01   6.016398e-03
  2.832700e+00    4.634945e-01   5.898480e-03
  2.834910e+00    4.666710e-01   5.920697e-03
  2.837121e+00    4.883793e-01   6.058593e-03
  2.839331e+00    4.811841e-01   6.015044e-03
  2.841542e+00    4.682041e-01   5.934383e-03
  2.843752e+00    4.668778e-01   5.926735e-03
  2.845963e+00    4.749935e-01   5.978414e-03
  2.848173e+00    4.856064e-01   6.044940e-03
  2.850383e+00    4.851241e-01   6.042237e-03
  2.852594e+00    4.766007e-01   5.988851e-03
  2.854804e+00    4.741847e-01   5.973125e-03
  2.857015e+00    4.716167e-01   5.956498e-03
  2.859225e+00    4.684507e-01   5.936233e-03
  2.861436e+00    4.543255e-01   5.845400e-03
  2.863646e+00    4.599753e-01   5.881661e-03
  2.865857e+00    4.678948e-01   5.932427e-03
  2.868067e+00    4.651075e-01   5.914945e-03
  2.870278e+00    4.595855e-01   5.879390e-03
  2.872488e+00    4.714106e-01   5.953349e-03
  2.874698e+00    4.725624e-01   5.959605e-03
  2.876909e+00    4.563681e-01   5.855257e-03
  2.879119e+00    4.616013e-01   5.887103e-03
  2.881330e+00    4.672853e-01   5.921785e-03
  2.883540e+00    4.694173e-01   5.933852e-03
  2.885751e+00    4.588620e-01   5.865154e-03
  2.887961e+00    4.597738e-01   5.869061e-03
  2.890172e+00    4.721783e-01   5.946116e-03
  2.892382e+00    4.597988e-01   5.865833e-03
  2.894593e+00    4.652537e-01   5.898699e-03
  2.896803e+00    4.659825e-01   5.901334e-03
  2.899014e+00    4.628993e-01   5.879854e-03
  2.901224e+00    4.763056e-01   5.962364e-03
  2.903434e+00    4.751525e-01   5.953170e-03
  2.905645e+00    4.606837e-01   5.859626e-03
  2.907855e+00    4.401075e-01   5.725195e-03
  2.910066e+00    4.550645e-01   5.819584e-03
  2.912276e+00    4.600038e-01   5.848982e-03
  2.914487e+00    4.579044e-01   5.833144e-03
  2.916697e+00    4.725390e-01   5.923391e-03
  2.918908e+00    4.450291e-01   5.746398e-03
  2.921118e+00    4.616928e-01   5.850289e-03
  2.923329e+00    4.552788e-01   5.807200e-03
  2.925539e+00    4.546891e-01   5.801169e-03
  2.927749e+00    4.568496e-01   5.812614e-03
  2.929960e+00    4.660582e-01   5.868108e-03
  2.932170e+00    4.599021e-01   5.826885e-03
  2.934381e+00    4.455326e-01   5.732735e-03
  2.936591e+00    4.466518e-01   5.737352e-03
  2.938802e+00    4.667180e-01   5.862093e-03
  2.941012e+00    4.524058e-01   5.769190e-03
  2.943223e+00    4.560196e-01   5.789468e-03
  2.945433e+00    4.646849e-01   5.840462e-03
  2.947644e+00    4.652748e-01   5.839972e-03
  2.949854e+00    4.672557e-01   5.848088e-03
  2.952064e+00    4.411736e-01   5.678365e-03
  2.954275e+00    4.557049e-01   5.766686e-03
  2.956485e+00    4.591512e-01   5.784254e-03
  2.958696e+00    4.741360e-01   5.873412e-03
  2.960906e+00    4.652729e-01   5.814048e-03
  2.963117e+00    4.643503e-01   5.803751e-03
  2.965327e+00    4.422392e-01   5.660024e-03
  2.967538e+00    4.463343e-01   5.683283e-03
  2.969748e+00    4.532826e-01   5.724532e-03
  2.971959e+00    4.481837e-01   5.689136e-03
  2.974169e+00    4.544989e-01   5.726485e-03
  2.976379e+00    4.654090e-01   5.791858e-03
  2.978590e+00    4.688570e-01   5.810092e-03
  2.980800e+00    4.581568e-01   5.740609e-03
  2.983011e+00    4.590120e-01   5.743134e-03
  2.985221e+00    4.496646e-01   5.681230e-03
  2.987432e+00    4.533943e-01   5.701625e-03
  2.989642e+00    4.605911e-01   5.744055e-03
  2.991853e+00    4.591914e-01   5.732030e-03
  2.994063e+00    4.568529e-01   5.714489e-03
  2.996274e+00    4.641991e-01   5.757028e-03
  2.998484e+00    4.656305e-01   5.763188e-03
  3.000694e+00    4.454821e-01   5.633675e-03
  3.002905e+00    4.525712e-01   5.675386e-03
  3.005115e+00    4.560272e-01   5.694038e-03
  3.007326e+00    4.537593e-01   5.676690e-03
  3.009536e+00    4.666543e-01   5.753502e-03
  3.011747e+00    4.513452e-01   5.655440e-03
  3.013957e+00    4.500508e-01   5.644123e-03
  3.016168e+00    4.643574e-01   5.729847e-03
  3.018378e+00    4.658532e-01   5.735983e-03
  3.020589e+00    4.648961e-01   5.726838e-03
  3.022799e+00    4.517504e-01   5.642141e-03
  3.025010e+00    4.694632e-01   5.748354e-03
  3.027220e+00    4.689713e-01   5.742209e-03
  3.029430e+00    4.572382e-01   5.666652e-03
  3.031641e+00    4.662930e-01   5.719284e-03
  3.033851e+00    4.555724e-01   5.649653e-03
  3.036062e+00    4.473126e-01   5.595410e-03
  3.038272e+00    4.586092e-01   5.662015e-03
  3.040483e+00    4.565127e-01   5.645839e-03
  3.042693e+00    4.544045e-01   5.629499e-03
  3.044904e+00    4.581146e-01   5.648387e-03
  3.047114e+00    4.585708e-01   5.646342e-03
  3.049325e+00    4.645168e-01   5.678382e-03
  3.051535e+00    4.486964e-01   5.576458e-03
  3.053745e+00    4.483210e-01   5.569390e-03
  3.055956e+00    4.601559e-01   5.637794e-03
  3.058166e+00    4.591849e-01   5.627550e-03
  3.060377e+00    4.507790e-01   5.571023e-03
  3.062587e+00    4.463317e-01   5.538871e-03
  3.064798e+00    4.460068e-01   5.532613e-03
  3.067008e+00    4.618869e-01   5.625445e-03
  3.069219e+00    4.657690e-01   5.644452e-03
  3.071429e+00    4.708840e-01   5.671767e-03
  3.073640e+00    4.479628e-01   5.528693e-03
  3.075850e+00    4.514154e-01   5.546345e-03
  3.078060e+00    4.594788e-01   5.592520e-03
  3.080271e+00    4.673351e-01   5.636584e-03
  3.082481e+00    4.598984e-01   5.588087e-03
  3.084692e+00    4.502274e-01   5.525612e-03
  3.086902e+00    4.642359e-01   5.607631e-03
  3.089113e+00    4.531241e-01   5.536519e-03
  3.091323e+00    4.515399e-01   5.523438e-03
  3.093534e+00    4.466899e-01   5.490335e-03
  3.095744e+00    4.419349e-01   5.457669e-03
  3.097955e+00    4.561575e-01   5.541217e-03
  3.100165e+00    4.484696e-01   5.490992e-03
  3.102375e+00    4.462377e-01   5.473896e-03
  3.104586e+00    4.532103e-01   5.512962e-03
  3.106796e+00    4.536461e-01   5.512075e-03
  3.109007e+00    4.590258e-01   5.541396e-03
  3.111217e+00    4.374524e-01   5.405967e-03
  3.113428e+00    4.585744e-01   5.531453e-03
  3.115638e+00    4.380419e-01   5.403017e-03
  3.117849e+00    4.548733e-01   5.502052e-03
  3.120059e+00    4.540797e-01   5.493781e-03
  3.122270e+00    4.437664e-01   5.427775e-03
  3.124480e+00    4.454544e-01   5.434386e-03
  3.126691e+00    4.381725e-01   5.386251e-03
  3.128901e+00    4.489657e-01   5.449040e-03
  3.131111e+00    4.505822e-01   5.454999e-03
  3.133322e+00    4.472020e-01   5.431020e-03
  3.135532e+00    4.581490e-01   5.493641e-03
  3.137743e+00    4.471796e-01   5.424005e-03
  3.139953e+00    4.321404e-01   5.328354e-03
  3.142164e+00    4.518066e-01   5.460391e-03
  3.144374e+00    4.411935e-01   5.424248e-03
  3.146585e+00    4.526173e-01   5.508743e-03
  3.148795e+00    4.504943e-01   5.506691e-03
  3.151006e+00    4.605078e-01   5.576287e-03
  3.153216e+00    4.543595e-01   5.546167e-03
  3.155426e+00    4.466376e-01   5.505198e-03
  3.157637e+00    4.342683e-01   5.433908e-03
  3.159847e+00    4.423504e-01   5.489111e-03
  3.162058e+00    4.563940e-01   5.580082e-03
  3.164268e+00    4.384041e-01   5.473075e-03
  3.166479e+00    4.391598e-01   5.481414e-03
  3.168689e+00    4.459198e-01   5.526845e-03
  3.170900e+00    4.378467e-01   5.479742e-03
  3.173110e+00    4.504826e-01   5.561176e-03
  3.175321e+00    4.417723e-01   5.509648e-03
  3.177531e+00    4.462214e-01   5.540083e-03
  3.179741e+00    4.392475e-01   5.498695e-03
  3.181952e+00    4.441375e-01   5.531349e-03
  3.184162e+00    4.456787e-01   5.543139e-03
  3.186373e+00    4.485171e-01   5.562401e-03
  3.188583e+00    4.371813e-01   5.493436e-03
  3.190794e+00    4.488470e-01   5.568028e-03
  3.193004e+00    4.315422e-01   5.460880e-03
  3.195215e+00    4.337622e-01   5.476401e-03
  3.197425e+00    4.433342e-01   5.537706e-03
  3.199636e+00    4.342209e-01   5.479746e-03
  3.201846e+00    4.383261e-01   5.504970e-03
  3.204056e+00    4.372511e-01   5.499107e-03
  3.206267e+00    4.289692e-01   5.447638e-03
  3.208477e+00    4.112071e-01   5.334544e-03
  3.210688e+00    4.272273e-01   5.438300e-03
  3.212898e+00    4.287730e-01   5.448706e-03
  3.215109e+00    4.400218e-01   5.520479e-03
  3.217319e+00    4.362008e-01   5.497112e-03
  3.219530e+00    4.295692e-01   5.455517e-03
  3.221740e+00    4.528552e-01   5.602044e-03
  3.223951e+00    4.360224e-01   5.497409e-03
  3.226161e+00    4.339432e-01   5.484470e-03
  3.228372e+00    4.246984e-01   5.426271e-03
  3.230582e+00    4.367376e-01   5.502773e-03
  3.232792e+00    4.321758e-01   5.474182e-03
  3.235003e+00    4.446256e-01   5.552725e-03
  3.237213e+00    4.181629e-01   5.385069e-03
  3.239424e+00    4.256323e-01   5.432919e-03
  3.241634e+00    4.232785e-01   5.418012e-03
  3.243845e+00    4.369616e-01   5.504966e-03
  3.246055e+00    4.400779e-01   5.524267e-03
  3.248266e+00    4.320903e-01   5.474132e-03
  3.250476e+00    4.243278e-01   5.424420e-03
  3.252687e+00    4.346567e-01   5.489963e-03
  3.254897e+00    4.354795e-01   5.495028e-03
  3.257107e+00    4.344243e-01   5.488080e-03
  3.259318e+00    4.198739e-01   5.395139e-03
  3.261528e+00    4.431685e-01   5.542632e-03
  3.263739e+00    4.426761e-01   5.538986e-03
  3.265949e+00    4.408913e-01   5.527680e-03
  3.268160e+00    4.413908e-01   5.530401e-03
  3.270370e+00    4.322622e-01   5.472392e-03
  3.272581e+00    4.300482e-01   5.458084e-03
  3.274791e+00    4.197453e-01   5.391781e-03
  3.277002e+00    4.200776e-01   5.393359e-03
  3.279212e+00    4.236771e-01   5.416028e-03
  3.281422e+00    4.292710e-01   5.451079e-03
  3.283633e+00    4.442703e-01   5.544797e-03
  3.285843e+00    4.289291e-01   5.447905e-03
  3.288054e+00    4.404834e-01   5.519821e-03
  3.290264e+00    4.367762e-01   5.496240e-03
  3.292475e+00    4.141898e-01   5.351416e-03
  3.294685e+00    4.124121e-01   5.339276e-03
  3.296896e+00    4.287755e-01   5.443428e-03
  3.299106e+00    4.306826e-01   5.454942e-03
  3.301317e+00    4.348379e-01   5.480173e-03
  3.303527e+00    4.293776e-01   5.445183e-03
  3.305737e+00    4.260953e-01   5.423280e-03
  3.307948e+00    4.326434e-01   5.464096e-03
  3.310158e+00    4.366659e-01   5.488602e-03
  3.312369e+00    4.168895e-01   5.361986e-03
  3.314579e+00    4.227711e-01   5.398774e-03
  3.316790e+00    4.180409e-01   5.367787e-03
  3.319000e+00    4.244563e-01   5.407606e-03
  3.321211e+00    4.243236e-01   5.406165e-03
  3.323421e+00    4.331780e-01   5.461067e-03
  3.325632e+00    4.160232e-01   5.350956e-03
  3.327842e+00    4.101237e-01   5.311973e-03
  3.330052e+00    4.182988e-01   5.363600e-03
  3.332263e+00    4.264038e-01   5.414279e-03
  3.334473e+00    4.278772e-01   5.422708e-03
  3.336684e+00    4.223115e-01   5.386072e-03
  3.338894e+00    4.225949e-01   5.387028e-03
  3.341105e+00    4.149732e-01   5.337026e-03
  3.343315e+00    4.301521e-01   5.432602e-03
  3.345526e+00    4.165419e-01   5.345067e-03
  3.347736e+00    4.325685e-01   5.445505e-03
  3.349947e+00    4.253443e-01   5.398900e-03
  3.352157e+00    4.063262e-01   5.275691e-03
  3.354368e+00    4.199714e-01   5.362194e-03
  3.356578e+00    4.214676e-01   5.370760e-03
  3.358788e+00    4.107310e-01   5.300579e-03
  3.360999e+00    4.284007e-01   5.412114e-03
  3.363209e+00    4.321015e-01   5.434439e-03
  3.365420e+00    4.206125e-01   5.360166e-03
  3.367630e+00    4.303668e-01   5.420929e-03
  3.369841e+00    4.364623e-01   5.457748e-03
  3.372051e+00    4.188242e-01   5.344340e-03
  3.374262e+00    4.146169e-01   5.314990e-03
  3.376472e+00    4.158463e-01   5.320425e-03
  3.378683e+00    4.198348e-01   5.343358e-03
  3.380893e+00    4.090991e-01   5.272290e-03
  3.383103e+00    4.087820e-01   5.267553e-03
  3.385314e+00    4.096127e-01   5.270697e-03
  3.387524e+00    4.238126e-01   5.358491e-03
  3.389735e+00    4.281068e-01   5.382920e-03
  3.391945e+00    4.172325e-01   5.310424e-03
  3.394156e+00    4.137110e-01   5.283728e-03
  3.396366e+00    4.289317e-01   5.376570e-03
  3.398577e+00    4.228172e-01   5.335024e-03
  3.400787e+00    4.210452e-01   5.335900e-03
  3.402998e+00    4.042122e-01   5.265944e-03
  3.405208e+00    4.176893e-01   5.373960e-03
  3.407418e+00    4.000889e-01   5.275324e-03
  3.409629e+00    3.831483e-01   5.176047e-03
  3.411839e+00    3.831762e-01   5.187779e-03
  3.414050e+00    4.016632e-01   5.322490e-03
  3.416260e+00    4.015379e-01   5.331413e-03
  3.418471e+00    3.908588e-01   5.269415e-03
  3.420681e+00    3.820283e-01   5.217958e-03
  3.422892e+00    3.843510e-01   5.241667e-03
  3.425102e+00    4.088744e-01   5.414356e-03
  3.427313e+00    3.856053e-01   5.265192e-03
  3.429523e+00    3.939473e-01   5.328943e-03
  3.431733e+00    3.954513e-01   5.345863e-03
  3.433944e+00    3.889265e-01   5.308131e-03
  3.436154e+00    3.698142e-01   5.182169e-03
  3.438365e+00    3.725519e-01   5.207178e-03
  3.440575e+00    3.785793e-01   5.255032e-03
  3.442786e+00    3.743264e-01   5.231019e-03
  3.444996e+00    3.727580e-01   5.225514e-03
  3.447207e+00    3.646397e-01   5.173500e-03
  3.449417e+00    3.714406e-01   5.262341e-03
  3.451628e+00    3.678458e-01   5.266230e-03
  3.453838e+00    3.744399e-01   5.334563e-03
  3.456049e+00    3.683378e-01   5.314875e-03
  3.458259e+00    3.626019e-01   5.295136e-03
  3.460469e+00    3.620101e-01   5.310492e-03
  3.462680e+00    3.578286e-01   5.298569e-03
  3.464890e+00    3.468370e-01   5.233854e-03
  3.467101e+00    3.700862e-01   5.423968e-03
  3.469311e+00    3.709391e-01   5.446775e-03
  3.471522e+00    3.911177e-01   5.609690e-03
  3.473732e+00    3.969121e-01   5.667452e-03
  3.475943e+00    4.028240e-01   5.725584e-03
  3.478153e+00    4.034627e-01   5.745892e-03
  3.480364e+00    4.195714e-01   5.875102e-03
  3.482574e+00    4.291332e-01   5.957508e-03
  3.484784e+00    4.250230e-01   5.944029e-03
  3.486995e+00    4.408444e-01   6.069198e-03
  3.489205e+00    4.450906e-01   6.113377e-03
  3.491416e+00    4.458447e-01   6.133828e-03
  3.493626e+00    4.438639e-01   6.134903e-03
  3.495837e+00    4.505069e-01   6.195564e-03
  3.498047e+00    4.587241e-01   6.266540e-03
  3.500258e+00    4.660277e-01   6.331033e-03
  3.502468e+00    4.689445e-01   6.365461e-03
  3.504679e+00    4.804980e-01   6.458203e-03
  3.506889e+00    4.781040e-01   6.456708e-03
  3.509099e+00    4.962738e-01   6.592979e-03
  3.511310e+00    5.026520e-01   6.650098e-03
  3.513520e+00    4.987077e-01   6.638631e-03
  3.515731e+00    5.006911e-01   6.666397e-03
  3.517941e+00    5.000637e-01   6.676712e-03
  3.520152e+00    5.112002e-01   6.765217e-03
  3.522362e+00    5.245637e-01   6.867892e-03
  3.524573e+00    5.139374e-01   6.812360e-03
  3.526783e+00    5.215698e-01   6.876259e-03
  3.528994e+00    5.217455e-01   6.889721e-03
  3.531204e+00    5.255300e-01   6.927161e-03
  3.533414e+00    5.238436e-01   6.928094e-03
  3.535625e+00    5.436926e-01   7.070710e-03
  3.537835e+00    5.364618e-01   7.035649e-03
  3.540046e+00    5.558744e-01   7.170929e-03
  3.542256e+00    5.540916e-01   7.167123e-03
  3.544467e+00    5.264475e-01   6.993558e-03
  3.546677e+00    5.612233e-01   7.228603e-03
  3.548888e+00    5.794228e-01   7.352696e-03
  3.551098e+00    5.513276e-01   7.179617e-03
  3.553309e+00    5.386436e-01   7.104731e-03
  3.555519e+00    5.280090e-01   7.045434e-03
  3.557729e+00    5.466310e-01   7.180448e-03
  3.559940e+00    5.538990e-01   7.239766e-03
  3.562150e+00    5.350612e-01   7.127301e-03
  3.564361e+00    5.322518e-01   7.121828e-03
  3.566571e+00    5.319962e-01   7.133899e-03
  3.568782e+00    5.446505e-01   7.232471e-03
  3.570992e+00    5.297218e-01   7.146336e-03
  3.573203e+00    5.356818e-01   7.200571e-03
  3.575413e+00    5.208131e-01   7.113541e-03
  3.577624e+00    5.171666e-01   7.102414e-03
  3.579834e+00    5.451507e-01   7.306052e-03
  3.582045e+00    5.447009e-01   7.317218e-03
  3.584255e+00    5.359508e-01   7.272239e-03
  3.586465e+00    5.193780e-01   7.172643e-03
  3.588676e+00    5.396987e-01   7.325834e-03
  3.590886e+00    5.329320e-01   7.293445e-03
  3.593097e+00    5.205895e-01   7.222810e-03
  3.595307e+00    5.175196e-01   7.215133e-03
  3.597518e+00    5.402055e-01   7.385857e-03
  3.599728e+00    5.285784e-01   7.319970e-03
  3.601939e+00    5.479821e-01   7.467320e-03
  3.604149e+00    5.406583e-01   7.431742e-03
  3.606360e+00    5.183483e-01   7.290701e-03
  3.608570e+00    5.427566e-01   7.474643e-03
  3.610780e+00    5.400587e-01   7.467155e-03
  3.612991e+00    5.413122e-01   7.485872e-03
  3.615201e+00    5.446059e-01   7.518534e-03
  3.617412e+00    5.474555e-01   7.545485e-03
  3.619622e+00    5.501829e-01   7.570366e-03
  3.621833e+00    5.400981e-01   7.507365e-03
  3.624043e+00    5.499581e-01   7.585233e-03
  3.626254e+00    5.405030e-01   7.529520e-03
  3.628464e+00    5.272512e-01   7.447532e-03
  3.630675e+00    5.593627e-01   7.685407e-03
  3.632885e+00    5.686135e-01   7.763613e-03
  3.635095e+00    5.582026e-01   7.706979e-03
  3.637306e+00    5.536488e-01   7.690100e-03
  3.639516e+00    5.382770e-01   7.597154e-03
  3.641727e+00    5.575296e-01   7.746744e-03
  3.643937e+00    5.528821e-01   7.729203e-03
  3.646148e+00    5.489026e-01   7.716171e-03
  3.648358e+00    5.387256e-01   7.659245e-03
  3.650569e+00    5.246597e-01   7.573185e-03
  3.652779e+00    5.509596e-01   7.775722e-03
  3.654990e+00    5.348404e-01   7.676051e-03
  3.657200e+00    5.381483e-01   7.714710e-03
  3.659410e+00    5.520919e-01   7.829275e-03
  3.661621e+00    5.506767e-01   7.834628e-03
  3.663831e+00    5.324563e-01   7.719016e-03
  3.666042e+00    5.451453e-01   7.825846e-03
  3.668252e+00    5.212110e-01   7.667163e-03
  3.670463e+00    5.484710e-01   7.880606e-03
  3.672673e+00    5.430212e-01   7.856985e-03
  3.674884e+00    5.227476e-01   7.724180e-03
  3.677094e+00    5.239703e-01   7.748653e-03
  3.679305e+00    5.198534e-01   7.733506e-03
  3.681515e+00    5.333487e-01   7.848931e-03
  3.683726e+00    5.407423e-01   7.919103e-03
  3.685936e+00    5.235982e-01   7.808210e-03
  3.688146e+00    5.221053e-01   7.812729e-03
  3.690357e+00    5.328150e-01   7.908482e-03
  3.692567e+00    5.210443e-01   7.836661e-03
  3.694778e+00    5.186290e-01   7.834435e-03
  3.696988e+00    5.195621e-01   7.857327e-03
  3.699199e+00    5.352151e-01   7.991209e-03
  3.701409e+00    5.069780e-01   7.793687e-03
  3.703620e+00    5.082268e-01   7.819261e-03
  3.705830e+00    5.072436e-01   7.827874e-03
  3.708041e+00    4.939360e-01   7.740570e-03
  3.710251e+00    5.186545e-01   7.948559e-03
  3.712461e+00    5.351472e-01   8.090866e-03
  3.714672e+00    5.239579e-01   8.022630e-03
  3.716882e+00    5.305184e-01   8.089541e-03
  3.719093e+00    5.228800e-01   8.048287e-03
  3.721303e+00    5.129006e-01   7.987961e-03
  3.723514e+00    5.167288e-01   8.034935e-03
  3.725724e+00    5.124167e-01   8.018411e-03
  3.727935e+00    5.164359e-01   8.067200e-03
  3.730145e+00    5.267100e-01   8.164553e-03
  3.732356e+00    5.183211e-01   8.116868e-03
  3.734566e+00    4.973615e-01   7.968278e-03
  3.736776e+00    5.174842e-01   8.145655e-03
  3.738987e+00    5.274720e-01   8.241891e-03
  3.741197e+00    5.084761e-01   8.110002e-03
  3.743408e+00    4.953212e-01   8.022179e-03
  3.745618e+00    5.158824e-01   8.205329e-03
  3.747829e+00    4.939924e-01   8.047177e-03
  3.750039e+00    5.144629e-01   8.230570e-03
  3.752250e+00    4.961053e-01   8.100662e-03
  3.754460e+00    4.986448e-01   8.139685e-03
  3.756671e+00    5.073765e-01   8.229357e-03
  3.758881e+00    5.227230e-01   8.371829e-03
  3.761091e+00    5.208669e-01   8.376337e-03
  3.763302e+00    4.905628e-01   8.147726e-03
  3.765512e+00    5.136595e-01   8.356690e-03
  3.767723e+00    5.017757e-01   8.278719e-03
  3.769933e+00    5.073146e-01   8.343646e-03
  3.772144e+00    4.983209e-01   8.288777e-03
  3.774354e+00    5.211885e-01   8.496981e-03
  3.776565e+00    4.999225e-01   8.341582e-03
  3.778775e+00    5.124906e-01   8.465846e-03
  3.780986e+00    5.280720e-01   8.614392e-03
  3.783196e+00    5.338873e-01   8.682575e-03
  3.785407e+00    5.091119e-01   8.499227e-03
  3.787617e+00    5.082118e-01   8.512623e-03
  3.789827e+00    4.955651e-01   8.426386e-03
  3.792038e+00    4.885696e-01   8.387282e-03
  3.794248e+00    5.009640e-01   8.514144e-03
  3.796459e+00    5.342006e-01   8.814051e-03
  3.798669e+00    5.188267e-01   8.708153e-03
  3.800880e+00    4.918369e-01   8.499838e-03
  3.803090e+00    5.073956e-01   8.655177e-03
  3.805301e+00    5.042343e-01   8.650367e-03
  3.807511e+00    5.104736e-01   8.725952e-03
  3.809722e+00    5.113383e-01   8.755838e-03
  3.811932e+00    5.147336e-01   8.807433e-03
  3.814142e+00    4.922999e-01   8.636084e-03
  3.816353e+00    5.209253e-01   8.906923e-03
  3.818563e+00    5.180217e-01   8.905604e-03
  3.820774e+00    5.107111e-01   8.866032e-03
  3.822984e+00    4.979341e-01   8.777782e-03
  3.825195e+00    5.142508e-01   8.944525e-03
  3.827405e+00    5.100683e-01   8.932276e-03
  3.829616e+00    4.965931e-01   8.837586e-03
  3.831826e+00    4.946458e-01   8.844247e-03
  3.834037e+00    4.965836e-01   8.886144e-03
  3.836247e+00    5.102175e-01   9.032249e-03
  3.838457e+00    5.159135e-01   9.108068e-03
  3.840668e+00    5.134172e-01   9.111597e-03
  3.842878e+00    5.043598e-01   9.056631e-03
  3.845089e+00    5.118427e-01   9.149614e-03
  3.847299e+00    4.754547e-01   8.843587e-03
  3.849510e+00    5.110415e-01   9.194805e-03
  3.851720e+00    5.046437e-01   9.158770e-03
  3.853931e+00    5.436563e-01   9.526028e-03
  3.856141e+00    5.058572e-01   9.208187e-03
  3.858352e+00    5.040313e-01   9.211026e-03
  3.860562e+00    4.791936e-01   9.000156e-03
  3.862772e+00    5.107549e-01   9.311712e-03
  3.864983e+00    5.211818e-01   9.426548e-03
  3.867193e+00    4.950443e-01   9.206936e-03
  3.869404e+00    5.186661e-01   9.444330e-03
  3.871614e+00    5.030448e-01   9.321172e-03
  3.873825e+00    5.229480e-01   9.524765e-03
  3.876035e+00    4.549196e-01   8.903430e-03
  3.878246e+00    5.041851e-01   9.399139e-03
  3.880456e+00    5.033292e-01   9.420522e-03
  3.882667e+00    4.873205e-01   9.298672e-03
  3.884877e+00    5.237008e-01   9.670189e-03
  3.887087e+00    4.990882e-01   9.470468e-03
  3.889298e+00    4.918067e-01   9.431441e-03
  3.891508e+00    4.999772e-01   9.540255e-03
  3.893719e+00    4.949742e-01   9.523586e-03
  3.895929e+00    5.116840e-01   9.715068e-03
  3.898140e+00    5.136509e-01   9.766144e-03
  3.900350e+00    5.299762e-01   9.953561e-03
  3.902561e+00    4.921672e-01   9.624432e-03
  3.904771e+00    4.746254e-01   9.483548e-03
  3.906982e+00    5.123023e-01   9.886706e-03
  3.909192e+00    4.825981e-01   9.629170e-03
  3.911403e+00    4.879484e-01   9.716246e-03
  3.913613e+00    5.073177e-01   9.942159e-03
  3.915823e+00    4.873160e-01   9.779029e-03
  3.918034e+00    4.849678e-01   9.790494e-03
  3.920244e+00    4.817124e-01   9.793132e-03
  3.922455e+00    5.067196e-01   1.008084e-02
  3.924665e+00    5.084838e-01   1.013557e-02
  3.926876e+00    5.109989e-01   1.019852e-02
  3.929086e+00    5.357775e-01   1.048212e-02
  3.931297e+00    5.018644e-01   1.018023e-02
  3.933507e+00    5.098974e-01   1.029092e-02
  3.935718e+00    4.949916e-01   1.016849e-02
  3.937928e+00    5.210789e-01   1.046332e-02
  3.940138e+00    4.937314e-01   1.021464e-02
  3.942349e+00    4.791776e-01   1.009259e-02
  3.944559e+00    4.858352e-01   1.019237e-02
  3.946770e+00    5.131914e-01   1.050643e-02
  3.948980e+00    5.000352e-01   1.040194e-02
  3.951191e+00    4.984531e-01   1.041676e-02
  3.953401e+00    4.911352e-01   1.037156e-02
  3.955612e+00    4.709018e-01   1.018677e-02
  3.957822e+00    4.906197e-01   1.042973e-02
  3.960033e+00    4.921324e-01   1.047849e-02
  3.962243e+00    5.037544e-01   1.063508e-02
  3.964453e+00    4.854233e-01   1.047291e-02
  3.966664e+00    4.681389e-01   1.031744e-02
  3.968874e+00    4.912390e-01   1.059756e-02
  3.971085e+00    4.665035e-01   1.034881e-02
  3.973295e+00    4.805733e-01   1.052502e-02
  3.975506e+00    4.938063e-01   1.069076e-02
  3.977716e+00    5.168064e-01   1.095957e-02
  3.979927e+00    5.016223e-01   1.081990e-02
  3.982137e+00    5.168060e-01   1.100543e-02
  3.984348e+00    5.134929e-01   1.099332e-02
  3.986558e+00    4.754280e-01   1.060009e-02
  3.988768e+00    4.598995e-01   1.044793e-02
  3.990979e+00    4.819489e-01   1.071817e-02
  3.993189e+00    4.564775e-01   1.045345e-02
  3.995400e+00    4.894713e-01   1.084825e-02
  3.997610e+00    4.756776e-01   1.072388e-02
  3.999821e+00    5.017287e-01   1.105174e-02
  4.002031e+00    4.890686e-01   1.095008e-02
  4.004242e+00    4.895186e-01   1.099358e-02
  4.006452e+00    5.060058e-01   1.121765e-02
  4.008663e+00    4.771548e-01   1.093268e-02
  4.010873e+00    4.939807e-01   1.116429e-02
  4.013084e+00    4.558640e-01   1.076452e-02
  4.015294e+00    4.968498e-01   1.127951e-02
  4.017504e+00    4.928576e-01   1.127636e-02
  4.019715e+00    5.017236e-01   1.142056e-02
  4.021925e+00    5.067150e-01   1.152124e-02
  4.024136e+00    5.309672e-01   1.183946e-02
  4.026346e+00    5.326149e-01   1.190420e-02
  4.028557e+00    4.990253e-01   1.156770e-02
  4.030767e+00    4.915915e-01   1.152719e-02
  4.032978e+00    4.617718e-01   1.121733e-02
  4.035188e+00    4.977825e-01   1.169341e-02
  4.037399e+00    4.722897e-01   1.143701e-02
  4.039609e+00    4.927328e-01   1.173017e-02
  4.041819e+00    4.663988e-01   1.146015e-02
  4.044030e+00    4.987100e-01   1.190126e-02
  4.046240e+00    5.004489e-01   1.197279e-02
  4.048451e+00    4.886175e-01   1.188159e-02
  4.050661e+00    4.789343e-01   1.181459e-02
  4.052872e+00    4.688050e-01   1.174083e-02
  4.055082e+00    4.826871e-01   1.196706e-02
  4.057293e+00    4.574026e-01   1.170165e-02
  4.059503e+00    5.001397e-01   1.229162e-02
  4.061714e+00    5.427756e-01   1.286490e-02
  4.063924e+00    4.938073e-01   1.232836e-02
  4.066134e+00    5.055342e-01   1.253253e-02
  4.068345e+00    4.734729e-01   1.218711e-02
  4.070555e+00    4.804794e-01   1.233622e-02
  4.072766e+00    4.895986e-01   1.251388e-02
  4.074976e+00    4.698515e-01   1.232022e-02
  4.077187e+00    5.087493e-01   1.288384e-02
  4.079397e+00    4.589296e-01   1.229903e-02
  4.081608e+00    4.782623e-01   1.262089e-02
  4.083818e+00    5.141410e-01   1.315358e-02
  4.086029e+00    4.848346e-01   1.284082e-02
  4.088239e+00    4.468413e-01   1.239379e-02
  4.090449e+00    4.709832e-01   1.279294e-02
  4.092660e+00    4.960575e-01   1.320139e-02
  4.094870e+00    5.117947e-01   1.348382e-02
  4.097081e+00    4.931491e-01   1.330838e-02
  4.099291e+00    4.899027e-01   1.331929e-02
  4.101502e+00    5.050606e-01   1.357441e-02
  4.103712e+00    4.844642e-01   1.334425e-02
  4.105923e+00    4.732964e-01   1.324049e-02
  4.108133e+00    4.958105e-01   1.360407e-02
  4.110344e+00    5.047877e-01   1.377922e-02
  4.112554e+00    4.713641e-01   1.336774e-02
  4.114764e+00    4.825249e-01   1.357961e-02
  4.116975e+00    4.801216e-01   1.359894e-02
  4.119185e+00    4.893084e-01   1.378426e-02
  4.121396e+00    4.925416e-01   1.388682e-02
  4.123606e+00    4.853961e-01   1.384229e-02
  4.125817e+00    4.583176e-01   1.350704e-02
  4.128027e+00    4.742467e-01   1.379752e-02
  4.130238e+00    4.601958e-01   1.365001e-02
  4.132448e+00    4.719518e-01   1.388310e-02
  4.134659e+00    4.607888e-01   1.377716e-02
  4.136869e+00    4.596633e-01   1.382142e-02
  4.139080e+00    5.036728e-01   1.453337e-02
  4.141290e+00    4.756572e-01   1.418599e-02
  4.143500e+00    4.176328e-01   1.335378e-02
  4.145711e+00    4.839071e-01   1.444142e-02
  4.147921e+00    4.783733e-01   1.442469e-02
  4.150132e+00    4.786853e-01   1.449798e-02
  4.152342e+00    5.681577e-01   1.587157e-02
  4.154553e+00    5.170842e-01   1.521358e-02
  4.156763e+00    5.241508e-01   1.539291e-02
  4.158974e+00    4.832393e-01   1.485422e-02
  4.161184e+00    4.902541e-01   1.503590e-02
  4.163395e+00    4.918349e-01   1.513689e-02
  4.165605e+00    4.558305e-01   1.464826e-02
  4.167815e+00    4.802666e-01   1.511409e-02
  4.170026e+00    4.851863e-01   1.527134e-02
  4.172236e+00    5.218229e-01   1.592303e-02
  4.174447e+00    4.993912e-01   1.566174e-02
  4.176657e+00    5.337925e-01   1.628088e-02
  4.178868e+00    4.828807e-01   1.557263e-02
  4.181078e+00    4.859537e-01   1.571002e-02
  4.183289e+00    4.799203e-01   1.570172e-02
  4.185499e+00    4.794828e-01   1.578700e-02
  4.187710e+00    4.650898e-01   1.563938e-02
  4.189920e+00    4.541960e-01   1.554816e-02
  4.192130e+00    4.480603e-01   1.553735e-02
  4.194341e+00    4.746980e-01   1.609011e-02
  4.196551e+00    4.885007e-01   1.642622e-02
  4.198762e+00    5.151244e-01   1.697482e-02
  4.200972e+00    4.721685e-01   1.635697e-02
  4.203183e+00    4.607937e-01   1.626497e-02
  4.205393e+00    5.063410e-01   1.716352e-02
  4.207604e+00    5.233583e-01   1.756857e-02
  4.209814e+00    5.159308e-01   1.756325e-02
  4.212025e+00    5.011579e-01   1.743245e-02
  4.214235e+00    4.951752e-01   1.745116e-02
  4.216445e+00    4.683838e-01   1.709506e-02
  4.218656e+00    4.652501e-01   1.716545e-02
  4.220866e+00    5.185902e-01   1.825711e-02
  4.223077e+00    5.117002e-01   1.827462e-02
  4.225287e+00    4.648801e-01   1.755575e-02
  4.227498e+00    5.205521e-01   1.872280e-02
  4.229708e+00    5.359701e-01   1.915248e-02
  4.231919e+00    5.025784e-01   1.869975e-02
  4.234129e+00    5.228883e-01   1.923417e-02
  4.236340e+00    4.850127e-01   1.868260e-02
  4.238550e+00    4.647795e-01   1.845027e-02
  4.240761e+00    5.014919e-01   1.933461e-02
  4.242971e+00    4.601973e-01   1.869080e-02
  4.245181e+00    4.367396e-01   1.837954e-02
  4.247392e+00    4.404061e-01   1.862890e-02
  4.249602e+00    4.909784e-01   1.986463e-02
  4.251813e+00    5.622938e-01   2.146835e-02
  4.254023e+00    4.237258e-01   1.882389e-02
  4.256234e+00    5.067423e-01   2.080564e-02
  4.258444e+00    4.289014e-01   1.934089e-02
  4.260655e+00    4.718209e-01   2.050885e-02
  4.262865e+00    5.640857e-01   2.267897e-02
  4.265076e+00    4.572612e-01   2.065114e-02
  4.267286e+00    5.091279e-01   2.204918e-02
  4.269496e+00    4.893377e-01   2.188033e-02
  4.271707e+00    5.149433e-01   2.272256e-02
  4.273917e+00    5.447370e-01   2.367326e-02
  4.276128e+00    4.061595e-01   2.071314e-02
  4.278338e+00    4.334008e-01   2.168162e-02
  4.280549e+00    4.038632e-01   2.123039e-02
  4.282759e+00    4.737024e-01   2.332328e-02
  4.284970e+00    4.953124e-01   2.420175e-02
  4.287180e+00    5.392309e-01   2.555517e-02
  4.289391e+00    5.122394e-01   2.509395e-02
  4.291601e+00    4.492890e-01   2.368989e-02
  4.293811e+00    4.770077e-01   2.459989e-02
  4.296022e+00    4.297218e-01   2.353675e-02
  4.298232e+00    4.498902e-01   2.428426e-02
  4.300443e+00    4.186483e-01   2.361922e-02
  4.302653e+00    4.216419e-01   2.390884e-02
  4.304864e+00    4.552244e-01   2.505746e-02
  4.307074e+00    4.815571e-01   2.600432e-02
  4.309285e+00    4.656731e-01   2.580385e-02
  4.311495e+00    4.068785e-01   2.434546e-02
  4.313706e+00    4.773965e-01   2.661841e-02
  4.315916e+00    5.299827e-01   2.832281e-02
  4.318126e+00    5.082920e-01   2.801152e-02
  4.320337e+00    4.802069e-01   2.750176e-02
  4.322547e+00    4.378437e-01   2.653927e-02
  4.324758e+00    4.499653e-01   2.718371e-02
  4.326968e+00    5.233999e-01   2.964847e-02
  4.329179e+00    4.226366e-01   2.693624e-02
  4.331389e+00    4.974863e-01   2.956024e-02
  4.333600e+00    5.004733e-01   3.000311e-02
  4.335810e+00    4.979194e-01   3.028262e-02
  4.338021e+00    5.092822e-01   3.101840e-02
  4.340231e+00    4.477320e-01   2.944840e-02
  4.342442e+00    4.913765e-01   3.126459e-02
  4.344652e+00    3.787652e-01   2.782134e-02
  4.346862e+00    3.768368e-01   2.813988e-02
  4.349073e+00    4.382559e-01   3.078751e-02
  4.351283e+00    4.513421e-01   3.170997e-02
  4.353494e+00    3.984860e-01   3.025685e-02
  4.355704e+00    4.357624e-01   3.214964e-02
  4.357915e+00    4.248877e-01   3.227286e-02
  4.360125e+00    4.823523e-01   3.497464e-02
  4.362336e+00    4.981761e-01   3.619074e-02
  4.364546e+00    5.116124e-01   3.734338e-02
  4.366757e+00    4.630378e-01   3.623396e-02
  4.368967e+00    4.143743e-01   3.496055e-02
  4.371177e+00    5.138354e-01   3.975737e-02
  4.373388e+00    4.928457e-01   3.980821e-02
  4.375598e+00    6.012072e-01   4.496974e-02
  4.377809e+00    5.643075e-01   4.467276e-02
  4.380019e+00    3.057594e-01   3.370901e-02
  4.382230e+00    2.966290e-01   3.412829e-02
  4.384440e+00    5.338396e-01   4.710144e-02
  4.386651e+00    4.328973e-01   4.372322e-02
  4.388861e+00    4.582713e-01   4.649584e-02
  4.391072e+00    5.952004e-01   5.485005e-02
  4.393282e+00    4.684099e-01   5.054163e-02
  4.395492e+00    4.356046e-01   5.076101e-02
  4.397703e+00    2.570413e-01   4.078178e-02
  4.399913e+00    4.582168e-01   5.719881e-02
  4.402124e+00    2.214242e-01   4.201797e-02
  4.404334e+00    2.908012e-01   5.118513e-02
  4.406545e+00    1.658442e-01   4.152908e-02
  4.408755e+00    4.057813e-01   7.045303e-02
  4.410966e+00    3.889737e-01   7.634018e-02
  4.413176e+00    1.099541e-01   4.596458e-02
  4.415387e+00   -5.109130e-01            nan
  4.417597e+00   -1.884830e+00            nan
  4.419807e+00   -3.766224e-01            nan
