# == pyFAI calibration ==
# Distance Sample to Detector: 0.216 m
# PONI: 1.166e-01, 1.308e-01 m
# Rotations: 0.000000 0.000000 0.000000 rad
# 
# == Fit2d calibration ==
# Distance Sample-beamCenter: 216.000 mm
# Center: x=1744.293, y=1555.000 pix
# Tilt: 0.000 deg  TiltPlanRot: 0.000 deg
# 
# Detector Eiger 9M	 PixelSize= 7.500e-05, 7.500e-05 m
#    Detector has a mask: True 
#    Detector has a dark current: False 
#    detector has a flat field: False 
# 
# Wavelength: 9.8e-11 m
# Mask applied: from detector
# Dark current applied: False
# Flat field applied: False
# Polarization factor: None
# Normalization factor: 1.0
# 
# Headers of the input frame:
# {
# "_array_data.header_convention": "SLS_1.0",
# "_array_data.header_contents": "# Detector: Dectris Eiger 9M, S/N E-18-0102\r\n# Pixel_size 75e-6 m x 75e-6 m\r\n# Silicon sensor, thickness 0.000450 m\r\n# Exposure_time 0.024997 s\r\n# Exposure_period 0.025000 s\r\n# Count_cutoff 62318 counts\r\n# Wavelength 0.980106 A\r\n# Detector_distance 0.215992 m\r\n# Beam_xy (1555, 1744) pixels\r\n# Start_angle 0.000000 deg.\r\n# Angle_increment 0.000000 deg.",
# "Content-Type": "application/octet-stream;",
# "conversions": "x-CBF_BYTE_OFFSET",
# "Content-Transfer-Encoding": "BINARY",
# "X-Binary-Size": "10166600",
# "X-Binary-ID": "1",
# "X-Binary-Element-Type": "signed 32-bit integer",
# "X-Binary-Element-Byte-Order": "LITTLE_ENDIAN",
# "Content-MD5": "hmPdA1XQ9/kGalZCnDlFTA==",
# "X-Binary-Number-of-Elements": "10166590",
# "X-Binary-Size-Fastest-Dimension": "3110",
# "X-Binary-Size-Second-Dimension": "3269",
# "X-Binary-Size-Padding": "4095"
# }
# --> H:/Proxima2a_2019-04-05/RAW_DATA/C5_gel17_position5/C5_mesh_1_data.cbf/C5_mesh_1_data.cbf000018.dat
#        q_A^-1              I           sigma 
  1.105228e-03    2.450369e+00   8.470378e-01
  3.315685e-03    2.252310e+00   4.936959e-01
  5.526141e-03    1.767614e+00   3.381940e-01
  7.736597e-03    1.543815e+00   2.670040e-01
  9.947054e-03    1.634259e+00   2.421793e-01
  1.215751e-02    1.467034e+00   2.074860e-01
  1.436797e-02    1.336323e+00   1.821510e-01
  1.657842e-02    1.465169e+00   1.775368e-01
  1.878888e-02    1.267174e+00   1.550892e-01
  2.099934e-02    1.343255e+00   1.510711e-01
  2.320979e-02    1.338045e+00   1.434063e-01
  2.542025e-02    1.481775e+00   1.442117e-01
  2.763070e-02    1.364054e+00   1.327107e-01
  2.984116e-02    1.362287e+00   1.276176e-01
  3.205162e-02    1.516702e+00   1.299381e-01
  3.426207e-02    1.402681e+00   1.208521e-01
  3.647253e-02    1.414734e+00   1.176324e-01
  3.868299e-02    1.571826e+00   1.204059e-01
  4.089344e-02    1.442497e+00   1.121859e-01
  4.310390e-02    1.439536e+00   1.091529e-01
  4.531436e-02    1.414282e+00   1.055198e-01
  4.752481e-02    1.390898e+00   1.021802e-01
  4.973527e-02    1.474036e+00   1.028267e-01
  5.194572e-02    1.447816e+00   9.971482e-02
  5.415618e-02    1.427416e+00   9.696479e-02
  5.636664e-02    1.492459e+00   9.718884e-02
  5.857709e-02    1.381934e+00   9.173989e-02
  6.078755e-02    1.397520e+00   9.055997e-02
  6.299801e-02    1.436419e+00   9.018557e-02
  6.520846e-02    1.475126e+00   8.983081e-02
  6.741892e-02    1.501402e+00   8.912474e-02
  6.962938e-02    1.563880e+00   8.950928e-02
  7.183983e-02    1.497753e+00   8.623671e-02
  7.405029e-02    1.523773e+00   8.567248e-02
  7.626074e-02    1.395571e+00   8.079164e-02
  7.847120e-02    1.481163e+00   8.204938e-02
  8.068166e-02    1.554626e+00   8.289938e-02
  8.289211e-02    1.508899e+00   8.057434e-02
  8.510257e-02    1.491789e+00   7.906843e-02
  8.731303e-02    1.399791e+00   7.561298e-02
  8.952348e-02    1.462031e+00   7.631778e-02
  9.173394e-02    1.536661e+00   7.728992e-02
  9.394439e-02    1.471287e+00   7.473054e-02
  9.615485e-02    1.559101e+00   7.603732e-02
  9.836531e-02    1.536223e+00   7.462247e-02
  1.005758e-01    1.550742e+00   7.414626e-02
  1.027862e-01    1.555299e+00   7.345051e-02
  1.049967e-01    1.490529e+00   7.114269e-02
  1.072071e-01    1.477744e+00   7.010198e-02
  1.094176e-01    1.538441e+00   7.079992e-02
  1.116280e-01    1.607080e+00   7.164048e-02
  1.138385e-01    1.597975e+00   7.073890e-02
  1.160490e-01    1.566212e+00   6.936133e-02
  1.182594e-01    1.531952e+00   6.795289e-02
  1.204699e-01    1.525293e+00   6.717957e-02
  1.226803e-01    1.603632e+00   6.825693e-02
  1.248908e-01    1.618585e+00   6.796407e-02
  1.271012e-01    1.542199e+00   6.576027e-02
  1.293117e-01    1.513054e+00   6.457596e-02
  1.315222e-01    1.613163e+00   6.611384e-02
  1.337326e-01    1.557510e+00   6.442301e-02
  1.359431e-01    1.660264e+00   6.655309e-02
  1.381535e-01    1.624745e+00   6.672110e-02
  1.403640e-01    1.627615e+00   6.706833e-02
  1.425744e-01    1.690262e+00   6.845608e-02
  1.447849e-01    1.617982e+00   6.699183e-02
  1.469953e-01    1.597783e+00   6.653064e-02
  1.492058e-01    1.639067e+00   6.730637e-02
  1.514163e-01    1.643700e+00   6.728951e-02
  1.536267e-01    1.647379e+00   6.723326e-02
  1.558372e-01    1.589658e+00   6.589908e-02
  1.580476e-01    1.651067e+00   6.699690e-02
  1.602581e-01    1.631465e+00   6.642888e-02
  1.624685e-01    1.633117e+00   6.628051e-02
  1.646790e-01    1.678958e+00   6.701134e-02
  1.668895e-01    1.739511e+00   6.801207e-02
  1.690999e-01    1.765425e+00   6.831105e-02
  1.713104e-01    1.719224e+00   6.720207e-02
  1.735208e-01    1.693387e+00   6.648777e-02
  1.757313e-01    1.799766e+00   6.832957e-02
  1.779417e-01    1.829051e+00   6.865859e-02
  1.801522e-01    1.897514e+00   6.970902e-02
  1.823626e-01    1.937521e+00   7.020556e-02
  1.845731e-01    1.872686e+00   6.879736e-02
  1.867836e-01    1.869568e+00   6.850806e-02
  1.889940e-01    1.981988e+00   7.030722e-02
  1.912045e-01    2.013710e+00   7.063100e-02
  1.934149e-01    1.993140e+00   7.003415e-02
  1.956254e-01    1.976234e+00   6.950647e-02
  1.978358e-01    2.007197e+00   6.980883e-02
  2.000463e-01    1.915318e+00   6.796639e-02
  2.022568e-01    1.899155e+00   6.745686e-02
  2.044672e-01    2.028523e+00   6.947772e-02
  2.066777e-01    1.956928e+00   6.801414e-02
  2.088881e-01    1.994073e+00   6.843197e-02
  2.110986e-01    2.001392e+00   6.832234e-02
  2.133090e-01    1.948346e+00   6.719169e-02
  2.155195e-01    1.919590e+00   6.647278e-02
  2.177300e-01    1.912852e+00   6.583470e-02
  2.199404e-01    2.024926e+00   6.595106e-02
  2.221509e-01    1.999054e+00   6.445239e-02
  2.243613e-01    1.994105e+00   6.355646e-02
  2.265718e-01    2.124748e+00   6.488227e-02
  2.287822e-01    2.165018e+00   6.484598e-02
  2.309927e-01    2.092988e+00   6.317735e-02
  2.332031e-01    2.153847e+00   6.354072e-02
  2.354136e-01    2.146724e+00   6.292146e-02
  2.376241e-01    2.180990e+00   6.292937e-02
  2.398345e-01    2.159879e+00   6.216060e-02
  2.420450e-01    2.159840e+00   6.171581e-02
  2.442554e-01    2.110948e+00   6.059295e-02
  2.464659e-01    2.059137e+00   5.944293e-02
  2.486763e-01    2.190077e+00   6.090083e-02
  2.508868e-01    2.048818e+00   5.853248e-02
  2.530973e-01    2.093344e+00   5.879826e-02
  2.553077e-01    2.149352e+00   5.921828e-02
  2.575182e-01    2.082323e+00   5.794270e-02
  2.597286e-01    2.125669e+00   5.820236e-02
  2.619391e-01    2.098249e+00   5.749286e-02
  2.641495e-01    2.118301e+00   5.744718e-02
  2.663600e-01    2.090430e+00   5.675418e-02
  2.685704e-01    2.093866e+00   5.649291e-02
  2.707809e-01    2.105223e+00   5.634524e-02
  2.729914e-01    2.120547e+00   5.625522e-02
  2.752018e-01    2.065207e+00   5.522738e-02
  2.774123e-01    2.029946e+00   5.447418e-02
  2.796227e-01    2.030069e+00   5.420637e-02
  2.818332e-01    2.016887e+00   5.376056e-02
  2.840436e-01    1.989216e+00   5.313167e-02
  2.862541e-01    2.076521e+00   5.402417e-02
  2.884646e-01    1.984937e+00   5.256872e-02
  2.906750e-01    1.957212e+00   5.195276e-02
  2.928855e-01    2.027721e+00   5.263530e-02
  2.950959e-01    1.969481e+00   5.163559e-02
  2.973064e-01    1.952416e+00   5.118035e-02
  2.995168e-01    1.972409e+00   5.120872e-02
  3.017273e-01    1.977507e+00   5.104882e-02
  3.039377e-01    1.939842e+00   5.033892e-02
  3.061482e-01    1.961796e+00   5.040400e-02
  3.083587e-01    1.915028e+00   4.958400e-02
  3.105691e-01    1.887440e+00   4.901531e-02
  3.127796e-01    1.813995e+00   4.785017e-02
  3.149900e-01    1.851182e+00   4.813672e-02
  3.172005e-01    1.876174e+00   4.826243e-02
  3.194109e-01    1.861367e+00   4.787315e-02
  3.216214e-01    1.873173e+00   4.782878e-02
  3.238319e-01    1.876876e+00   4.768636e-02
  3.260423e-01    1.889531e+00   4.765625e-02
  3.282528e-01    1.924141e+00   4.789931e-02
  3.304632e-01    1.854482e+00   4.684208e-02
  3.326737e-01    1.883992e+00   4.702910e-02
  3.348841e-01    1.867692e+00   4.664364e-02
  3.370946e-01    1.832104e+00   4.602329e-02
  3.393050e-01    1.864880e+00   4.625724e-02
  3.415155e-01    1.896869e+00   4.647689e-02
  3.437260e-01    1.889275e+00   4.621184e-02
  3.459364e-01    1.868761e+00   4.579027e-02
  3.481469e-01    1.877301e+00   4.572724e-02
  3.503573e-01    1.847978e+00   4.520345e-02
  3.525678e-01    1.799702e+00   4.445011e-02
  3.547782e-01    1.796826e+00   4.425405e-02
  3.569887e-01    1.843921e+00   4.467142e-02
  3.591992e-01    1.816033e+00   4.417545e-02
  3.614096e-01    1.858602e+00   4.453524e-02
  3.636201e-01    1.760856e+00   4.319605e-02
  3.658305e-01    1.796406e+00   4.348104e-02
  3.680410e-01    1.873844e+00   4.425561e-02
  3.702514e-01    1.876557e+00   4.413870e-02
  3.724619e-01    1.835626e+00   4.350604e-02
  3.746724e-01    1.779430e+00   4.269197e-02
  3.768828e-01    1.836073e+00   4.322021e-02
  3.790933e-01    1.794192e+00   4.258524e-02
  3.813037e-01    1.836392e+00   4.294215e-02
  3.835142e-01    1.800635e+00   4.238239e-02
  3.857246e-01    1.747871e+00   4.162165e-02
  3.879351e-01    1.774221e+00   4.179849e-02
  3.901455e-01    1.731338e+00   4.115881e-02
  3.923560e-01    1.719280e+00   4.088486e-02
  3.945665e-01    1.808801e+00   4.180279e-02
  3.967769e-01    1.826716e+00   4.187775e-02
  3.989874e-01    1.795869e+00   4.139299e-02
  4.011978e-01    1.840476e+00   4.177507e-02
  4.034083e-01    1.728311e+00   4.035781e-02
  4.056187e-01    1.750111e+00   4.048642e-02
  4.078292e-01    1.780186e+00   4.070923e-02
  4.100397e-01    1.867242e+00   4.156546e-02
  4.122501e-01    1.852682e+00   4.127923e-02
  4.144606e-01    1.822984e+00   4.082562e-02
  4.166710e-01    1.786676e+00   4.029684e-02
  4.188815e-01    1.792408e+00   4.024219e-02
  4.210919e-01    1.847516e+00   4.073641e-02
  4.233024e-01    1.836977e+00   4.050058e-02
  4.255128e-01    1.800719e+00   3.998298e-02
  4.277233e-01    1.843536e+00   4.033929e-02
  4.299338e-01    1.845423e+00   4.024382e-02
  4.321442e-01    1.787267e+00   3.949130e-02
  4.343547e-01    1.783916e+00   3.934268e-02
  4.365651e-01    1.797790e+00   3.938317e-02
  4.387756e-01    1.805135e+00   3.935303e-02
  4.409860e-01    1.747730e+00   3.861500e-02
  4.431965e-01    1.682267e+00   3.778013e-02
  4.454070e-01    1.680907e+00   3.765978e-02
  4.476174e-01    1.723428e+00   3.802845e-02
  4.498279e-01    1.719533e+00   3.788209e-02
  4.520383e-01    1.745306e+00   3.806021e-02
  4.542488e-01    1.734917e+00   3.784443e-02
  4.564592e-01    1.747210e+00   3.787638e-02
  4.586697e-01    1.722026e+00   3.750262e-02
  4.608801e-01    1.696552e+00   3.712448e-02
  4.630906e-01    1.745396e+00   3.755539e-02
  4.653011e-01    1.751580e+00   3.752294e-02
  4.675115e-01    1.739806e+00   3.729812e-02
  4.697220e-01    1.715088e+00   3.693527e-02
  4.719324e-01    1.710693e+00   3.679248e-02
  4.741429e-01    1.757863e+00   3.720018e-02
  4.763533e-01    1.798474e+00   3.753098e-02
  4.785638e-01    1.753569e+00   3.696376e-02
  4.807743e-01    1.707788e+00   3.638527e-02
  4.829847e-01    1.678527e+00   3.598110e-02
  4.851952e-01    1.732257e+00   3.645992e-02
  4.874056e-01    1.734255e+00   3.638899e-02
  4.896161e-01    1.759683e+00   3.656386e-02
  4.918265e-01    1.730648e+00   3.617092e-02
  4.940370e-01    1.670619e+00   3.545034e-02
  4.962475e-01    1.666630e+00   3.532053e-02
  4.984579e-01    1.710732e+00   3.569662e-02
  5.006684e-01    1.693345e+00   3.542816e-02
  5.028788e-01    1.696116e+00   3.537123e-02
  5.050893e-01    1.708920e+00   3.541813e-02
  5.072997e-01    1.665384e+00   3.487962e-02
  5.095102e-01    1.676480e+00   3.491181e-02
  5.117206e-01    1.676544e+00   3.482946e-02
  5.139311e-01    1.695004e+00   3.493780e-02
  5.161416e-01    1.697174e+00   3.487756e-02
  5.183520e-01    1.644163e+00   3.424695e-02
  5.205625e-01    1.700641e+00   3.474858e-02
  5.227729e-01    1.647769e+00   3.412440e-02
  5.249834e-01    1.660774e+00   3.417924e-02
  5.271938e-01    1.721870e+00   3.472106e-02
  5.294043e-01    1.744226e+00   3.486510e-02
  5.316148e-01    1.728184e+00   3.462491e-02
  5.338252e-01    1.763839e+00   3.490032e-02
  5.360357e-01    1.756536e+00   3.474870e-02
  5.382461e-01    1.765894e+00   3.476238e-02
  5.404566e-01    1.763822e+00   3.466292e-02
  5.426670e-01    1.820017e+00   3.513143e-02
  5.448775e-01    1.809581e+00   3.495232e-02
  5.470879e-01    1.767381e+00   3.446533e-02
  5.492984e-01    1.796160e+00   3.466752e-02
  5.515089e-01    1.790598e+00   3.453706e-02
  5.537193e-01    1.762647e+00   3.419093e-02
  5.559298e-01    1.801914e+00   3.449384e-02
  5.581402e-01    1.821329e+00   3.460342e-02
  5.603507e-01    1.822240e+00   3.453672e-02
  5.625611e-01    1.830519e+00   3.453999e-02
  5.647716e-01    1.820366e+00   3.436929e-02
  5.669821e-01    1.744769e+00   3.357552e-02
  5.691925e-01    1.749110e+00   3.354511e-02
  5.714030e-01    1.769942e+00   3.367232e-02
  5.736134e-01    1.740455e+00   3.331964e-02
  5.758239e-01    1.710127e+00   3.295757e-02
  5.780343e-01    1.694190e+00   3.273424e-02
  5.802448e-01    1.722171e+00   3.293437e-02
  5.824552e-01    1.699214e+00   3.264549e-02
  5.846657e-01    1.636200e+00   3.196768e-02
  5.868762e-01    1.640223e+00   3.194030e-02
  5.890866e-01    1.645522e+00   3.192549e-02
  5.912971e-01    1.630887e+00   3.171739e-02
  5.935075e-01    1.653005e+00   3.186575e-02
  5.957180e-01    1.658616e+00   3.185431e-02
  5.979284e-01    1.682257e+00   3.201501e-02
  6.001389e-01    1.671135e+00   3.184405e-02
  6.023494e-01    1.649696e+00   3.157487e-02
  6.045598e-01    1.676507e+00   3.176561e-02
  6.067703e-01    1.678425e+00   3.171988e-02
  6.089807e-01    1.647766e+00   3.136563e-02
  6.111912e-01    1.675291e+00   3.156338e-02
  6.134016e-01    1.659933e+00   3.135569e-02
  6.156121e-01    1.682828e+00   3.150844e-02
  6.178226e-01    1.687847e+00   3.149292e-02
  6.200330e-01    1.698046e+00   3.152562e-02
  6.222435e-01    1.716163e+00   3.163056e-02
  6.244539e-01    1.714547e+00   3.155378e-02
  6.266644e-01    1.652462e+00   3.091678e-02
  6.288748e-01    1.713782e+00   3.142389e-02
  6.310853e-01    1.760381e+00   3.178643e-02
  6.332957e-01    1.751986e+00   3.164932e-02
  6.355062e-01    1.736374e+00   3.144680e-02
  6.377167e-01    1.731738e+00   3.134452e-02
  6.399271e-01    1.692309e+00   3.092626e-02
  6.421376e-01    1.703079e+00   3.096529e-02
  6.443480e-01    1.687922e+00   3.076855e-02
  6.465585e-01    1.701149e+00   3.083037e-02
  6.487689e-01    1.698114e+00   3.074466e-02
  6.509794e-01    1.678898e+00   3.051258e-02
  6.531899e-01    1.660437e+00   3.028728e-02
  6.554003e-01    1.609274e+00   2.976096e-02
  6.576108e-01    1.620921e+00   2.981284e-02
  6.598212e-01    1.641126e+00   2.994234e-02
  6.620317e-01    1.643003e+00   2.990393e-02
  6.642421e-01    1.630182e+00   2.973191e-02
  6.664526e-01    1.641163e+00   2.977692e-02
  6.686630e-01    1.599523e+00   2.934239e-02
  6.708735e-01    1.598271e+00   2.927710e-02
  6.730840e-01    1.609964e+00   2.933042e-02
  6.752944e-01    1.658425e+00   2.971445e-02
  6.775049e-01    1.609686e+00   2.922143e-02
  6.797153e-01    1.591174e+00   2.900028e-02
  6.819258e-01    1.629171e+00   2.929158e-02
  6.841362e-01    1.600442e+00   2.897996e-02
  6.863467e-01    1.617179e+00   2.907890e-02
  6.885572e-01    1.625266e+00   2.909929e-02
  6.907676e-01    1.649911e+00   2.926654e-02
  6.929781e-01    1.648994e+00   2.920644e-02
  6.951885e-01    1.633049e+00   2.901339e-02
  6.973990e-01    1.598230e+00   2.865169e-02
  6.996094e-01    1.564909e+00   2.830154e-02
  7.018199e-01    1.598284e+00   2.855154e-02
  7.040303e-01    1.602239e+00   2.853665e-02
  7.062408e-01    1.586551e+00   2.834685e-02
  7.084513e-01    1.599227e+00   2.841036e-02
  7.106617e-01    1.585682e+00   2.824063e-02
  7.128722e-01    1.625000e+00   2.853916e-02
  7.150826e-01    1.596910e+00   2.824266e-02
  7.172931e-01    1.568843e+00   2.794510e-02
  7.195035e-01    1.585747e+00   2.804693e-02
  7.217140e-01    1.607085e+00   2.828498e-02
  7.239245e-01    1.541773e+00   2.792862e-02
  7.261349e-01    1.553551e+00   2.814297e-02
  7.283454e-01    1.556150e+00   2.823848e-02
  7.305558e-01    1.536445e+00   2.811246e-02
  7.327663e-01    1.541595e+00   2.820159e-02
  7.349767e-01    1.561348e+00   2.839799e-02
  7.371872e-01    1.570453e+00   2.846950e-02
  7.393976e-01    1.564495e+00   2.840124e-02
  7.416081e-01    1.561800e+00   2.836066e-02
  7.438186e-01    1.596509e+00   2.852875e-02
  7.460290e-01    1.565698e+00   2.795873e-02
  7.482395e-01    1.564032e+00   2.777324e-02
  7.504499e-01    1.588435e+00   2.785222e-02
  7.526604e-01    1.554371e+00   2.743614e-02
  7.548708e-01    1.588977e+00   2.765005e-02
  7.570813e-01    1.554991e+00   2.730211e-02
  7.592918e-01    1.573098e+00   2.742544e-02
  7.615022e-01    1.577681e+00   2.743154e-02
  7.637127e-01    1.577654e+00   2.739848e-02
  7.659231e-01    1.602779e+00   2.758351e-02
  7.681336e-01    1.566040e+00   2.723403e-02
  7.703440e-01    1.553993e+00   2.709805e-02
  7.725545e-01    1.605753e+00   2.751444e-02
  7.747650e-01    1.632001e+00   2.769955e-02
  7.769754e-01    1.559602e+00   2.702574e-02
  7.791859e-01    1.563409e+00   2.700541e-02
  7.813963e-01    1.604029e+00   2.730096e-02
  7.836068e-01    1.602120e+00   2.723246e-02
  7.858172e-01    1.573582e+00   2.693835e-02
  7.880277e-01    1.594409e+00   2.706444e-02
  7.902381e-01    1.605201e+00   2.710656e-02
  7.924486e-01    1.590644e+00   2.693338e-02
  7.946591e-01    1.613937e+00   2.708136e-02
  7.968695e-01    1.643268e+00   2.727744e-02
  7.990800e-01    1.626377e+00   2.708840e-02
  8.012904e-01    1.657250e+00   2.729698e-02
  8.035009e-01    1.625716e+00   2.698795e-02
  8.057113e-01    1.625295e+00   2.693777e-02
  8.079218e-01    1.604670e+00   2.672013e-02
  8.101323e-01    1.603370e+00   2.666395e-02
  8.123427e-01    1.619564e+00   2.675256e-02
  8.145532e-01    1.629618e+00   2.678957e-02
  8.167636e-01    1.628224e+00   2.673308e-02
  8.189741e-01    1.629146e+00   2.669607e-02
  8.211845e-01    1.651496e+00   2.683350e-02
  8.233950e-01    1.673529e+00   2.696800e-02
  8.256054e-01    1.650022e+00   2.673353e-02
  8.278159e-01    1.670100e+00   2.685131e-02
  8.300264e-01    1.649934e+00   2.664546e-02
  8.322368e-01    1.676147e+00   2.681266e-02
  8.344473e-01    1.699875e+00   2.695761e-02
  8.366577e-01    1.650843e+00   2.652327e-02
  8.388682e-01    1.644875e+00   2.643293e-02
  8.410786e-01    1.667832e+00   2.657434e-02
  8.432891e-01    1.666796e+00   2.652388e-02
  8.454996e-01    1.644722e+00   2.630598e-02
  8.477100e-01    1.611520e+00   2.599776e-02
  8.499205e-01    1.638683e+00   2.617478e-02
  8.521309e-01    1.634677e+00   2.610201e-02
  8.543414e-01    1.659213e+00   2.625614e-02
  8.565518e-01    1.638444e+00   2.605070e-02
  8.587623e-01    1.617828e+00   2.584595e-02
  8.609727e-01    1.620555e+00   2.582763e-02
  8.631832e-01    1.633272e+00   2.588878e-02
  8.653937e-01    1.639346e+00   2.589703e-02
  8.676041e-01    1.619868e+00   2.570387e-02
  8.698146e-01    1.626528e+00   2.571728e-02
  8.720250e-01    1.644223e+00   2.581739e-02
  8.742355e-01    1.624144e+00   2.562021e-02
  8.764459e-01    1.605813e+00   2.543635e-02
  8.786564e-01    1.594401e+00   2.530802e-02
  8.808669e-01    1.595286e+00   2.527666e-02
  8.830773e-01    1.608254e+00   2.534098e-02
  8.852878e-01    1.647920e+00   2.561311e-02
  8.874982e-01    1.630563e+00   2.544093e-02
  8.897087e-01    1.596826e+00   2.513871e-02
  8.919191e-01    1.587452e+00   2.502721e-02
  8.941296e-01    1.598328e+00   2.507554e-02
  8.963401e-01    1.621640e+00   2.522108e-02
  8.985505e-01    1.607128e+00   2.507092e-02
  9.007610e-01    1.623191e+00   2.515889e-02
  9.029714e-01    1.595397e+00   2.490679e-02
  9.051819e-01    1.567376e+00   2.465024e-02
  9.073923e-01    1.590939e+00   2.479836e-02
  9.096028e-01    1.620847e+00   2.499524e-02
  9.118132e-01    1.604782e+00   2.483479e-02
  9.140237e-01    1.617213e+00   2.489397e-02
  9.162342e-01    1.594737e+00   2.468588e-02
  9.184446e-01    1.592368e+00   2.463184e-02
  9.206551e-01    1.611581e+00   2.474429e-02
  9.228655e-01    1.597637e+00   2.460180e-02
  9.250760e-01    1.604440e+00   2.461873e-02
  9.272864e-01    1.609034e+00   2.461963e-02
  9.294969e-01    1.630907e+00   2.475027e-02
  9.317074e-01    1.646914e+00   2.483628e-02
  9.339178e-01    1.633216e+00   2.469902e-02
  9.361283e-01    1.648393e+00   2.477692e-02
  9.383387e-01    1.656917e+00   2.480712e-02
  9.405492e-01    1.649313e+00   2.471557e-02
  9.427596e-01    1.658129e+00   2.474586e-02
  9.449701e-01    1.688287e+00   2.493594e-02
  9.471805e-01    1.728535e+00   2.519570e-02
  9.493910e-01    1.718066e+00   2.508481e-02
  9.516015e-01    1.703741e+00   2.494514e-02
  9.538119e-01    1.742579e+00   2.519327e-02
  9.560224e-01    1.753122e+00   2.523381e-02
  9.582328e-01    1.790231e+00   2.546527e-02
  9.604433e-01    1.818703e+00   2.563063e-02
  9.626537e-01    1.817275e+00   2.558612e-02
  9.648642e-01    1.808025e+00   2.548596e-02
  9.670747e-01    1.848610e+00   2.573487e-02
  9.692851e-01    1.845478e+00   2.567891e-02
  9.714956e-01    1.802310e+00   2.534100e-02
  9.737060e-01    1.850110e+00   2.564112e-02
  9.759165e-01    1.833244e+00   2.548799e-02
  9.781269e-01    1.834068e+00   2.546037e-02
  9.803374e-01    1.860231e+00   2.560584e-02
  9.825478e-01    1.831402e+00   2.537316e-02
  9.847583e-01    1.799439e+00   2.511661e-02
  9.869688e-01    1.794321e+00   2.504729e-02
  9.891792e-01    1.768553e+00   2.483376e-02
  9.913897e-01    1.756270e+00   2.471395e-02
  9.936001e-01    1.731273e+00   2.450534e-02
  9.958106e-01    1.703494e+00   2.427490e-02
  9.980210e-01    1.719845e+00   2.435946e-02
  1.000231e+00    1.675455e+00   2.417476e-02
  1.002442e+00    1.635597e+00   2.401238e-02
  1.004652e+00    1.663200e+00   2.428170e-02
  1.006863e+00    1.653613e+00   2.426187e-02
  1.009073e+00    1.623628e+00   2.407769e-02
  1.011284e+00    1.602786e+00   2.395461e-02
  1.013494e+00    1.641157e+00   2.426371e-02
  1.015705e+00    1.648697e+00   2.434236e-02
  1.017915e+00    1.659498e+00   2.443882e-02
  1.020126e+00    1.629967e+00   2.423676e-02
  1.022336e+00    1.591497e+00   2.396083e-02
  1.024547e+00    1.606236e+00   2.408293e-02
  1.026757e+00    1.587939e+00   2.395387e-02
  1.028967e+00    1.580772e+00   2.390749e-02
  1.031178e+00    1.577187e+00   2.388665e-02
  1.033388e+00    1.572575e+00   2.385679e-02
  1.035599e+00    1.619852e+00   2.421629e-02
  1.037809e+00    1.598568e+00   2.406000e-02
  1.040020e+00    1.614265e+00   2.417916e-02
  1.042230e+00    1.577526e+00   2.390440e-02
  1.044441e+00    1.561171e+00   2.377993e-02
  1.046651e+00    1.576016e+00   2.389291e-02
  1.048862e+00    1.633456e+00   2.432355e-02
  1.051072e+00    1.758064e+00   2.523174e-02
  1.053282e+00    1.780684e+00   2.539251e-02
  1.055493e+00    1.820021e+00   2.566669e-02
  1.057703e+00    1.811798e+00   2.560701e-02
  1.059914e+00    1.713117e+00   2.489532e-02
  1.062124e+00    1.695770e+00   2.476461e-02
  1.064335e+00    1.703495e+00   2.481726e-02
  1.066545e+00    1.755122e+00   2.518399e-02
  1.068756e+00    1.811424e+00   2.558058e-02
  1.070966e+00    2.013124e+00   2.695954e-02
  1.073177e+00    2.001901e+00   2.687733e-02
  1.075387e+00    1.705252e+00   2.480053e-02
  1.077597e+00    1.562103e+00   2.372923e-02
  1.079808e+00    1.548681e+00   2.349052e-02
  1.082018e+00    1.542676e+00   2.325080e-02
  1.084229e+00    1.539986e+00   2.311750e-02
  1.086439e+00    1.518268e+00   2.286462e-02
  1.088650e+00    1.471043e+00   2.243011e-02
  1.090860e+00    1.459746e+00   2.227605e-02
  1.093071e+00    1.424964e+00   2.194745e-02
  1.095281e+00    1.434247e+00   2.196178e-02
  1.097492e+00    1.435317e+00   2.191526e-02
  1.099702e+00    1.439719e+00   2.189746e-02
  1.101912e+00    1.442535e+00   2.186996e-02
  1.104123e+00    1.431207e+00   2.173577e-02
  1.106333e+00    1.427793e+00   2.166549e-02
  1.108544e+00    1.401888e+00   2.142424e-02
  1.110754e+00    1.390898e+00   2.129761e-02
  1.112965e+00    1.419873e+00   2.147778e-02
  1.115175e+00    1.415144e+00   2.140089e-02
  1.117386e+00    1.412722e+00   2.134333e-02
  1.119596e+00    1.381276e+00   2.106700e-02
  1.121807e+00    1.403491e+00   2.119699e-02
  1.124017e+00    1.416667e+00   2.125951e-02
  1.126228e+00    1.394253e+00   2.105502e-02
  1.128438e+00    1.402502e+00   2.108043e-02
  1.130648e+00    1.407121e+00   2.108071e-02
  1.132859e+00    1.399823e+00   2.099156e-02
  1.135069e+00    1.392871e+00   2.090465e-02
  1.137280e+00    1.365951e+00   2.066894e-02
  1.139490e+00    1.368609e+00   2.065619e-02
  1.141701e+00    1.371694e+00   2.064651e-02
  1.143911e+00    1.363971e+00   2.055665e-02
  1.146122e+00    1.383473e+00   2.067105e-02
  1.148332e+00    1.390695e+00   2.069292e-02
  1.150543e+00    1.371164e+00   2.051635e-02
  1.152753e+00    1.374115e+00   2.050759e-02
  1.154963e+00    1.378680e+00   2.051053e-02
  1.157174e+00    1.373973e+00   2.044531e-02
  1.159384e+00    1.386341e+00   2.050713e-02
  1.161595e+00    1.371713e+00   2.036879e-02
  1.163805e+00    1.362071e+00   2.026787e-02
  1.166016e+00    1.376986e+00   2.034902e-02
  1.168226e+00    1.372643e+00   2.028788e-02
  1.170437e+00    1.389434e+00   2.038272e-02
  1.172647e+00    1.396190e+00   2.040301e-02
  1.174858e+00    1.378519e+00   2.024523e-02
  1.177068e+00    1.362053e+00   2.009572e-02
  1.179278e+00    1.355277e+00   2.001714e-02
  1.181489e+00    1.378451e+00   2.016037e-02
  1.183699e+00    1.359159e+00   1.999122e-02
  1.185910e+00    1.372231e+00   2.005920e-02
  1.188120e+00    1.372943e+00   2.003756e-02
  1.190331e+00    1.381451e+00   2.007253e-02
  1.192541e+00    1.377549e+00   2.001656e-02
  1.194752e+00    1.350486e+00   1.979194e-02
  1.196962e+00    1.369385e+00   1.990402e-02
  1.199173e+00    1.344648e+00   1.969698e-02
  1.201383e+00    1.351676e+00   1.972122e-02
  1.203593e+00    1.366861e+00   1.980671e-02
  1.205804e+00    1.364134e+00   1.976087e-02
  1.208014e+00    1.382496e+00   1.986628e-02
  1.210225e+00    1.345288e+00   1.957183e-02
  1.212435e+00    1.323850e+00   1.939071e-02
  1.214646e+00    1.332217e+00   1.942594e-02
  1.216856e+00    1.343579e+00   1.948320e-02
  1.219067e+00    1.336007e+00   1.940387e-02
  1.221277e+00    1.343639e+00   1.943426e-02
  1.223488e+00    1.338174e+00   1.936906e-02
  1.225698e+00    1.344642e+00   1.938898e-02
  1.227909e+00    1.303572e+00   1.906092e-02
  1.230119e+00    1.335076e+00   1.925819e-02
  1.232329e+00    1.352699e+00   1.935413e-02
  1.234540e+00    1.350790e+00   1.931019e-02
  1.236750e+00    1.338113e+00   1.918921e-02
  1.238961e+00    1.376880e+00   1.943796e-02
  1.241171e+00    1.362728e+00   1.931353e-02
  1.243382e+00    1.338825e+00   1.911996e-02
  1.245592e+00    1.354380e+00   1.920659e-02
  1.247803e+00    1.325438e+00   1.897683e-02
  1.250013e+00    1.338990e+00   1.905013e-02
  1.252224e+00    1.352855e+00   1.912525e-02
  1.254434e+00    1.346879e+00   1.905922e-02
  1.256644e+00    1.365959e+00   1.917043e-02
  1.258855e+00    1.334355e+00   1.892421e-02
  1.261065e+00    1.353145e+00   1.903359e-02
  1.263276e+00    1.344414e+00   1.894919e-02
  1.265486e+00    1.364765e+00   1.906907e-02
  1.267697e+00    1.323965e+00   1.875909e-02
  1.269907e+00    1.325702e+00   1.874889e-02
  1.272118e+00    1.348181e+00   1.888462e-02
  1.274328e+00    1.338819e+00   1.879630e-02
  1.276539e+00    1.342419e+00   1.879882e-02
  1.278749e+00    1.367915e+00   1.895407e-02
  1.280959e+00    1.356009e+00   1.884883e-02
  1.283170e+00    1.337871e+00   1.870002e-02
  1.285380e+00    1.305368e+00   1.844939e-02
  1.287591e+00    1.350064e+00   1.874053e-02
  1.289801e+00    1.349551e+00   1.871577e-02
  1.292012e+00    1.338326e+00   1.862075e-02
  1.294222e+00    1.327977e+00   1.853251e-02
  1.296433e+00    1.331325e+00   1.854035e-02
  1.298643e+00    1.352155e+00   1.866836e-02
  1.300854e+00    1.355504e+00   1.867503e-02
  1.303064e+00    1.346033e+00   1.859045e-02
  1.305274e+00    1.359741e+00   1.866337e-02
  1.307485e+00    1.351350e+00   1.858414e-02
  1.309695e+00    1.381761e+00   1.876957e-02
  1.311906e+00    1.373161e+00   1.868920e-02
  1.314116e+00    1.329153e+00   1.836665e-02
  1.316327e+00    1.334296e+00   1.838057e-02
  1.318537e+00    1.377885e+00   1.865626e-02
  1.320748e+00    1.382325e+00   1.866452e-02
  1.322958e+00    1.378752e+00   1.861963e-02
  1.325169e+00    1.365145e+00   1.850639e-02
  1.327379e+00    1.375263e+00   1.855283e-02
  1.329589e+00    1.365524e+00   1.846584e-02
  1.331800e+00    1.365075e+00   1.844197e-02
  1.334010e+00    1.359360e+00   1.838262e-02
  1.336221e+00    1.340670e+00   1.823413e-02
  1.338431e+00    1.346301e+00   1.825155e-02
  1.340642e+00    1.352761e+00   1.835950e-02
  1.342852e+00    1.361875e+00   1.852237e-02
  1.345063e+00    1.341977e+00   1.843589e-02
  1.347273e+00    1.329062e+00   1.838195e-02
  1.349484e+00    1.337601e+00   1.846844e-02
  1.351694e+00    1.359479e+00   1.864165e-02
  1.353905e+00    1.351704e+00   1.860628e-02
  1.356115e+00    1.331409e+00   1.848102e-02
  1.358325e+00    1.316788e+00   1.839241e-02
  1.360536e+00    1.330268e+00   1.849785e-02
  1.362746e+00    1.317910e+00   1.842117e-02
  1.364957e+00    1.323383e+00   1.846699e-02
  1.367167e+00    1.316751e+00   1.842772e-02
  1.369378e+00    1.302959e+00   1.833687e-02
  1.371588e+00    1.315517e+00   1.843012e-02
  1.373799e+00    1.308634e+00   1.838547e-02
  1.376009e+00    1.298523e+00   1.831764e-02
  1.378220e+00    1.298999e+00   1.832349e-02
  1.380430e+00    1.290189e+00   1.826391e-02
  1.382640e+00    1.289174e+00   1.825762e-02
  1.384851e+00    1.303092e+00   1.835678e-02
  1.387061e+00    1.292904e+00   1.828519e-02
  1.389272e+00    1.264229e+00   1.808148e-02
  1.391482e+00    1.259735e+00   1.804863e-02
  1.393693e+00    1.272905e+00   1.814187e-02
  1.395903e+00    1.277218e+00   1.817109e-02
  1.398114e+00    1.276569e+00   1.816510e-02
  1.400324e+00    1.277064e+00   1.816650e-02
  1.402535e+00    1.268583e+00   1.810376e-02
  1.404745e+00    1.264503e+00   1.807226e-02
  1.406955e+00    1.286359e+00   1.822508e-02
  1.409166e+00    1.276795e+00   1.815389e-02
  1.411376e+00    1.254164e+00   1.798919e-02
  1.413587e+00    1.269334e+00   1.809384e-02
  1.415797e+00    1.276136e+00   1.813870e-02
  1.418008e+00    1.277043e+00   1.810317e-02
  1.420218e+00    1.269003e+00   1.789644e-02
  1.422429e+00    1.268370e+00   1.780669e-02
  1.424639e+00    1.264115e+00   1.771227e-02
  1.426850e+00    1.255224e+00   1.759548e-02
  1.429060e+00    1.287633e+00   1.777187e-02
  1.431270e+00    1.273509e+00   1.762976e-02
  1.433481e+00    1.284153e+00   1.766209e-02
  1.435691e+00    1.290406e+00   1.766632e-02
  1.437902e+00    1.290284e+00   1.762871e-02
  1.440112e+00    1.296852e+00   1.763781e-02
  1.442323e+00    1.273172e+00   1.744297e-02
  1.444533e+00    1.262236e+00   1.733543e-02
  1.446744e+00    1.257108e+00   1.726922e-02
  1.448954e+00    1.256261e+00   1.723336e-02
  1.451165e+00    1.265494e+00   1.726688e-02
  1.453375e+00    1.255747e+00   1.717235e-02
  1.455586e+00    1.265138e+00   1.720835e-02
  1.457796e+00    1.257615e+00   1.712973e-02
  1.460006e+00    1.249132e+00   1.704483e-02
  1.462217e+00    1.256404e+00   1.706828e-02
  1.464427e+00    1.280262e+00   1.720385e-02
  1.466638e+00    1.300137e+00   1.731128e-02
  1.468848e+00    1.277615e+00   1.713525e-02
  1.471059e+00    1.252402e+00   1.694041e-02
  1.473269e+00    1.245686e+00   1.687077e-02
  1.475480e+00    1.260544e+00   1.694740e-02
  1.477690e+00    1.281184e+00   1.706162e-02
  1.479901e+00    1.276334e+00   1.700539e-02
  1.482111e+00    1.270409e+00   1.694251e-02
  1.484321e+00    1.264597e+00   1.688064e-02
  1.486532e+00    1.250763e+00   1.676583e-02
  1.488742e+00    1.268412e+00   1.686105e-02
  1.490953e+00    1.267405e+00   1.683171e-02
  1.493163e+00    1.301449e+00   1.703365e-02
  1.495374e+00    1.275204e+00   1.683946e-02
  1.497584e+00    1.275906e+00   1.682229e-02
  1.499795e+00    1.272505e+00   1.677812e-02
  1.502005e+00    1.266457e+00   1.671645e-02
  1.504216e+00    1.268102e+00   1.670620e-02
  1.506426e+00    1.272330e+00   1.671308e-02
  1.508636e+00    1.266986e+00   1.665743e-02
  1.510847e+00    1.250952e+00   1.652994e-02
  1.513057e+00    1.230336e+00   1.636831e-02
  1.515268e+00    1.239708e+00   1.640498e-02
  1.517478e+00    1.234367e+00   1.634464e-02
  1.519689e+00    1.246236e+00   1.639816e-02
  1.521899e+00    1.266614e+00   1.650845e-02
  1.524110e+00    1.262589e+00   1.646180e-02
  1.526320e+00    1.251967e+00   1.637283e-02
  1.528531e+00    1.250680e+00   1.634463e-02
  1.530741e+00    1.256487e+00   1.636336e-02
  1.532951e+00    1.227449e+00   1.615374e-02
  1.535162e+00    1.221154e+00   1.619788e-02
  1.537372e+00    1.243124e+00   1.640968e-02
  1.539583e+00    1.233815e+00   1.638216e-02
  1.541793e+00    1.240677e+00   1.643459e-02
  1.544004e+00    1.241044e+00   1.643726e-02
  1.546214e+00    1.247546e+00   1.647878e-02
  1.548425e+00    1.224380e+00   1.632531e-02
  1.550635e+00    1.222271e+00   1.632084e-02
  1.552846e+00    1.227526e+00   1.636546e-02
  1.555056e+00    1.211897e+00   1.622003e-02
  1.557266e+00    1.217274e+00   1.614672e-02
  1.559477e+00    1.238852e+00   1.623022e-02
  1.561687e+00    1.241554e+00   1.621729e-02
  1.563898e+00    1.259132e+00   1.631440e-02
  1.566108e+00    1.274282e+00   1.639615e-02
  1.568319e+00    1.238466e+00   1.614849e-02
  1.570529e+00    1.237616e+00   1.611788e-02
  1.572740e+00    1.253246e+00   1.619161e-02
  1.574950e+00    1.250911e+00   1.615015e-02
  1.577161e+00    1.268434e+00   1.623715e-02
  1.579371e+00    1.251034e+00   1.610169e-02
  1.581582e+00    1.247016e+00   1.605599e-02
  1.583792e+00    1.280988e+00   1.625495e-02
  1.586002e+00    1.287425e+00   1.627783e-02
  1.588213e+00    1.275125e+00   1.618244e-02
  1.590423e+00    1.258768e+00   1.605811e-02
  1.592634e+00    1.252172e+00   1.599429e-02
  1.594844e+00    1.252985e+00   1.597800e-02
  1.597055e+00    1.238839e+00   1.586708e-02
  1.599265e+00    1.227210e+00   1.577184e-02
  1.601476e+00    1.245310e+00   1.586737e-02
  1.603686e+00    1.244893e+00   1.584491e-02
  1.605897e+00    1.238293e+00   1.578271e-02
  1.608107e+00    1.225548e+00   1.568181e-02
  1.610317e+00    1.234296e+00   1.571839e-02
  1.612528e+00    1.226554e+00   1.564992e-02
  1.614738e+00    1.223748e+00   1.561311e-02
  1.616949e+00    1.192841e+00   1.539597e-02
  1.619159e+00    1.194213e+00   1.538632e-02
  1.621370e+00    1.201525e+00   1.541503e-02
  1.623580e+00    1.208563e+00   1.544182e-02
  1.625791e+00    1.180969e+00   1.524648e-02
  1.628001e+00    1.166465e+00   1.513457e-02
  1.630212e+00    1.153185e+00   1.503071e-02
  1.632422e+00    1.159503e+00   1.505415e-02
  1.634632e+00    1.152917e+00   1.499423e-02
  1.636843e+00    1.156852e+00   1.500242e-02
  1.639053e+00    1.170270e+00   1.507190e-02
  1.641264e+00    1.176877e+00   1.509725e-02
  1.643474e+00    1.133074e+00   1.479646e-02
  1.645685e+00    1.119625e+00   1.469198e-02
  1.647895e+00    1.145455e+00   1.484397e-02
  1.650106e+00    1.132009e+00   1.473974e-02
  1.652316e+00    1.112466e+00   1.459572e-02
  1.654527e+00    1.130639e+00   1.469786e-02
  1.656737e+00    1.130762e+00   1.468215e-02
  1.658947e+00    1.131573e+00   1.467114e-02
  1.661158e+00    1.113180e+00   1.453525e-02
  1.663368e+00    1.121162e+00   1.457125e-02
  1.665579e+00    1.112028e+00   1.449569e-02
  1.667789e+00    1.097675e+00   1.438572e-02
  1.670000e+00    1.127363e+00   1.456338e-02
  1.672210e+00    1.097977e+00   1.435653e-02
  1.674421e+00    1.084162e+00   1.425075e-02
  1.676631e+00    1.077018e+00   1.418801e-02
  1.678842e+00    1.089109e+00   1.425173e-02
  1.681052e+00    1.090763e+00   1.424718e-02
  1.683263e+00    1.086470e+00   1.420400e-02
  1.685473e+00    1.090167e+00   1.421298e-02
  1.687683e+00    1.074360e+00   1.409418e-02
  1.689894e+00    1.077407e+00   1.409843e-02
  1.692104e+00    1.060293e+00   1.397119e-02
  1.694315e+00    1.083341e+00   1.410764e-02
  1.696525e+00    1.059762e+00   1.393820e-02
  1.698736e+00    1.066570e+00   1.396804e-02
  1.700946e+00    1.054814e+00   1.387579e-02
  1.703157e+00    1.040824e+00   1.376891e-02
  1.705367e+00    1.034337e+00   1.371158e-02
  1.707578e+00    1.030701e+00   1.367301e-02
  1.709788e+00    1.036573e+00   1.369783e-02
  1.711998e+00    1.052246e+00   1.378594e-02
  1.714209e+00    1.043442e+00   1.371366e-02
  1.716419e+00    1.040937e+00   1.368290e-02
  1.718630e+00    1.022834e+00   1.354918e-02
  1.720840e+00    1.004046e+00   1.341014e-02
  1.723051e+00    1.023284e+00   1.352415e-02
  1.725261e+00    1.004494e+00   1.338486e-02
  1.727472e+00    1.010001e+00   1.340736e-02
  1.729682e+00    1.027323e+00   1.350832e-02
  1.731893e+00    1.024317e+00   1.347455e-02
  1.734103e+00    9.960569e-01   1.327367e-02
  1.736313e+00    9.954023e-01   1.325537e-02
  1.738524e+00    9.901290e-01   1.320647e-02
  1.740734e+00    9.806447e-01   1.312949e-02
  1.742945e+00    9.851713e-01   1.314638e-02
  1.745155e+00    9.838271e-01   1.312402e-02
  1.747366e+00    9.684534e-01   1.300740e-02
  1.749576e+00    9.584302e-01   1.292644e-02
  1.751787e+00    9.479380e-01   1.284239e-02
  1.753997e+00    9.570591e-01   1.289080e-02
  1.756208e+00    9.616745e-01   1.290872e-02
  1.758418e+00    9.688330e-01   1.294360e-02
  1.760628e+00    9.584329e-01   1.286065e-02
  1.762839e+00    9.653316e-01   1.289364e-02
  1.765049e+00    9.612691e-01   1.285337e-02
  1.767260e+00    9.629166e-01   1.285155e-02
  1.769470e+00    9.476006e-01   1.273600e-02
  1.771681e+00    9.604995e-01   1.280918e-02
  1.773891e+00    9.478614e-01   1.271160e-02
  1.776102e+00    9.473963e-01   1.269562e-02
  1.778312e+00    9.469900e-01   1.268013e-02
  1.780523e+00    9.382630e-01   1.260887e-02
  1.782733e+00    9.417467e-01   1.261956e-02
  1.784944e+00    9.453632e-01   1.263079e-02
  1.787154e+00    9.840021e-01   1.287346e-02
  1.789364e+00    9.860394e-01   1.287394e-02
  1.791575e+00    9.702414e-01   1.275758e-02
  1.793785e+00    9.553521e-01   1.264669e-02
  1.795996e+00    9.339750e-01   1.249179e-02
  1.798206e+00    9.326224e-01   1.247012e-02
  1.800417e+00    9.200750e-01   1.237325e-02
  1.802627e+00    9.335687e-01   1.245157e-02
  1.804838e+00    9.619700e-01   1.262715e-02
  1.807048e+00    9.223381e-01   1.235136e-02
  1.809259e+00    8.953798e-01   1.215602e-02
  1.811469e+00    8.842616e-01   1.206550e-02
  1.813679e+00    8.899923e-01   1.208965e-02
  1.815890e+00    8.979222e-01   1.212864e-02
  1.818100e+00    8.876214e-01   1.204386e-02
  1.820311e+00    8.737346e-01   1.193467e-02
  1.822521e+00    8.981906e-01   1.208561e-02
  1.824732e+00    9.162371e-01   1.219140e-02
  1.826942e+00    8.908418e-01   1.200891e-02
  1.829153e+00    8.868105e-01   1.196999e-02
  1.831363e+00    8.870565e-01   1.195961e-02
  1.833574e+00    8.787906e-01   1.189208e-02
  1.835784e+00    8.755187e-01   1.185855e-02
  1.837994e+00    8.720928e-01   1.182362e-02
  1.840205e+00    8.827832e-01   1.188464e-02
  1.842415e+00    8.982823e-01   1.197659e-02
  1.844626e+00    8.790278e-01   1.183592e-02
  1.846836e+00    8.934374e-01   1.192094e-02
  1.849047e+00    8.986820e-01   1.194406e-02
  1.851257e+00    8.891336e-01   1.187073e-02
  1.853468e+00    9.026494e-01   1.195159e-02
  1.855678e+00    9.127590e-01   1.200919e-02
  1.857889e+00    9.230319e-01   1.206778e-02
  1.860099e+00    9.087623e-01   1.196525e-02
  1.862309e+00    8.949746e-01   1.186544e-02
  1.864520e+00    8.995460e-01   1.188690e-02
  1.866730e+00    9.069013e-01   1.192573e-02
  1.868941e+00    9.093363e-01   1.193042e-02
  1.871151e+00    1.000958e+00   1.250466e-02
  1.873362e+00    1.122886e+00   1.323136e-02
  1.875572e+00    1.038170e+00   1.271045e-02
  1.877783e+00    9.562045e-01   1.218618e-02
  1.879993e+00    9.633628e-01   1.221983e-02
  1.882204e+00    9.206263e-01   1.193433e-02
  1.884414e+00    9.017020e-01   1.179958e-02
  1.886624e+00    8.893390e-01   1.170704e-02
  1.888835e+00    8.675367e-01   1.155151e-02
  1.891045e+00    8.573119e-01   1.147225e-02
  1.893256e+00    8.382571e-01   1.133294e-02
  1.895466e+00    8.500939e-01   1.140141e-02
  1.897677e+00    8.581464e-01   1.144422e-02
  1.899887e+00    8.554847e-01   1.141534e-02
  1.902098e+00    8.562446e-01   1.140941e-02
  1.904308e+00    8.532439e-01   1.137868e-02
  1.906519e+00    8.376400e-01   1.126327e-02
  1.908729e+00    8.400825e-01   1.126899e-02
  1.910940e+00    8.393170e-01   1.125265e-02
  1.913150e+00    8.233086e-01   1.113426e-02
  1.915360e+00    8.298736e-01   1.116789e-02
  1.917571e+00    8.158006e-01   1.106199e-02
  1.919781e+00    8.079212e-01   1.099783e-02
  1.921992e+00    8.157791e-01   1.104059e-02
  1.924202e+00    8.232321e-01   1.108011e-02
  1.926413e+00    8.107498e-01   1.098552e-02
  1.928623e+00    7.981777e-01   1.088958e-02
  1.930834e+00    8.041797e-01   1.092006e-02
  1.933044e+00    8.151050e-01   1.098331e-02
  1.935255e+00    8.050330e-01   1.090494e-02
  1.937465e+00    8.022603e-01   1.087579e-02
  1.939675e+00    7.989113e-01   1.084227e-02
  1.941886e+00    8.050305e-01   1.087342e-02
  1.944096e+00    7.930520e-01   1.078213e-02
  1.946307e+00    7.904836e-01   1.075437e-02
  1.948517e+00    8.147107e-01   1.090739e-02
  1.950728e+00    8.047739e-01   1.083039e-02
  1.952938e+00    8.031425e-01   1.080928e-02
  1.955149e+00    8.017085e-01   1.078936e-02
  1.957359e+00    7.905448e-01   1.070396e-02
  1.959570e+00    7.918498e-01   1.070195e-02
  1.961780e+00    7.925256e-01   1.069659e-02
  1.963990e+00    8.076149e-01   1.078773e-02
  1.966201e+00    8.070630e-01   1.077387e-02
  1.968411e+00    7.954089e-01   1.068563e-02
  1.970622e+00    7.993881e-01   1.070215e-02
  1.972832e+00    7.819193e-01   1.057464e-02
  1.975043e+00    7.909429e-01   1.062540e-02
  1.977253e+00    7.892134e-01   1.060379e-02
  1.979464e+00    8.117763e-01   1.074409e-02
  1.981674e+00    7.998072e-01   1.065422e-02
  1.983885e+00    7.718924e-01   1.045670e-02
  1.986095e+00    7.848460e-01   1.053432e-02
  1.988305e+00    7.914313e-01   1.056847e-02
  1.990516e+00    7.841942e-01   1.051008e-02
  1.992726e+00    7.778062e-01   1.045752e-02
  1.994937e+00    7.672512e-01   1.037624e-02
  1.997147e+00    7.634023e-01   1.034055e-02
  1.999358e+00    7.825969e-01   1.045982e-02
  2.001568e+00    7.710571e-01   1.037163e-02
  2.003779e+00    7.706013e-01   1.035666e-02
  2.005989e+00    7.654638e-01   1.031012e-02
  2.008200e+00    7.689980e-01   1.032236e-02
  2.010410e+00    7.644016e-01   1.027977e-02
  2.012621e+00    7.626825e-01   1.025653e-02
  2.014831e+00    7.648513e-01   1.025965e-02
  2.017041e+00    7.672597e-01   1.026540e-02
  2.019252e+00    7.722032e-01   1.028843e-02
  2.021462e+00    7.590039e-01   1.019065e-02
  2.023673e+00    7.687752e-01   1.024661e-02
  2.025883e+00    8.009100e-01   1.044882e-02
  2.028094e+00    7.908891e-01   1.037345e-02
  2.030304e+00    7.833257e-01   1.031404e-02
  2.032515e+00    7.782335e-01   1.027106e-02
  2.034725e+00    7.733884e-01   1.022951e-02
  2.036936e+00    7.710117e-01   1.020436e-02
  2.039146e+00    7.506793e-01   1.005939e-02
  2.041356e+00    7.575021e-01   1.009534e-02
  2.043567e+00    7.489501e-01   1.002893e-02
  2.045777e+00    7.534863e-01   1.005001e-02
  2.047988e+00    7.587872e-01   1.007591e-02
  2.050198e+00    7.633995e-01   1.009800e-02
  2.052409e+00    7.717062e-01   1.014504e-02
  2.054619e+00    7.734234e-01   1.014884e-02
  2.056830e+00    7.603748e-01   1.005566e-02
  2.059040e+00    7.493275e-01   9.974837e-03
  2.061251e+00    7.554167e-01   1.000800e-02
  2.063461e+00    7.518732e-01   9.976893e-03
  2.065671e+00    7.522144e-01   9.970420e-03
  2.067882e+00    7.410237e-01   9.887018e-03
  2.070092e+00    7.353024e-01   9.839656e-03
  2.072303e+00    7.433253e-01   9.884059e-03
  2.074513e+00    7.526972e-01   9.936823e-03
  2.076724e+00    7.390780e-01   9.837076e-03
  2.078934e+00    7.346783e-01   9.798816e-03
  2.081145e+00    7.254671e-01   9.728206e-03
  2.083355e+00    7.497973e-01   9.880758e-03
  2.085566e+00    7.592492e-01   9.933840e-03
  2.087776e+00    7.494652e-01   9.860052e-03
  2.089986e+00    7.529354e-01   9.873985e-03
  2.092197e+00    7.490305e-01   9.839314e-03
  2.094407e+00    7.473623e-01   9.819068e-03
  2.096618e+00    7.274597e-01   9.678575e-03
  2.098828e+00    7.240217e-01   9.646453e-03
  2.101039e+00    7.365465e-01   9.720511e-03
  2.103249e+00    7.411868e-01   9.742364e-03
  2.105460e+00    7.261687e-01   9.634164e-03
  2.107670e+00    7.388201e-01   9.708933e-03
  2.109881e+00    7.348889e-01   9.673845e-03
  2.112091e+00    7.414387e-01   9.707790e-03
  2.114301e+00    7.356402e-01   9.660909e-03
  2.116512e+00    7.177603e-01   9.534013e-03
  2.118722e+00    7.042683e-01   9.435270e-03
  2.120933e+00    7.042103e-01   9.426117e-03
  2.123143e+00    7.133666e-01   9.478319e-03
  2.125354e+00    7.067254e-01   9.425641e-03
  2.127564e+00    6.989359e-01   9.364928e-03
  2.129775e+00    7.092178e-01   9.424863e-03
  2.131985e+00    7.060890e-01   9.395057e-03
  2.134196e+00    6.903428e-01   9.281256e-03
  2.136406e+00    6.939182e-01   9.296622e-03
  2.138617e+00    7.043999e-01   9.358153e-03
  2.140827e+00    7.095053e-01   9.408076e-03
  2.143037e+00    7.079323e-01   9.443138e-03
  2.145248e+00    7.076852e-01   9.463539e-03
  2.147458e+00    7.017804e-01   9.439066e-03
  2.149669e+00    7.082172e-01   9.494158e-03
  2.151879e+00    7.126293e-01   9.532979e-03
  2.154090e+00    7.090560e-01   9.516397e-03
  2.156300e+00    7.057540e-01   9.500858e-03
  2.158511e+00    7.080047e-01   9.521313e-03
  2.160721e+00    7.156199e-01   9.577259e-03
  2.162932e+00    7.088208e-01   9.535446e-03
  2.165142e+00    6.800212e-01   9.342686e-03
  2.167352e+00    7.041580e-01   9.509979e-03
  2.169563e+00    6.934300e-01   9.439213e-03
  2.171773e+00    6.948341e-01   9.451214e-03
  2.173984e+00    6.830087e-01   9.371839e-03
  2.176194e+00    7.004651e-01   9.492052e-03
  2.178405e+00    7.032267e-01   9.511443e-03
  2.180615e+00    7.165210e-01   9.601628e-03
  2.182826e+00    7.048734e-01   9.523967e-03
  2.185036e+00    6.926213e-01   9.440866e-03
  2.187247e+00    6.941156e-01   9.451006e-03
  2.189457e+00    6.886150e-01   9.413071e-03
  2.191667e+00    6.769203e-01   9.332627e-03
  2.193878e+00    6.848162e-01   9.386322e-03
  2.196088e+00    6.836926e-01   9.377948e-03
  2.198299e+00    7.028475e-01   9.507285e-03
  2.200509e+00    7.039200e-01   9.513494e-03
  2.202720e+00    6.922269e-01   9.432970e-03
  2.204930e+00    6.889986e-01   9.409701e-03
  2.207141e+00    6.794453e-01   9.343129e-03
  2.209351e+00    6.827336e-01   9.363824e-03
  2.211562e+00    6.939300e-01   9.438646e-03
  2.213772e+00    6.679146e-01   9.204937e-03
  2.215982e+00    6.619386e-01   9.119890e-03
  2.218193e+00    6.773673e-01   9.195904e-03
  2.220403e+00    6.663397e-01   9.096304e-03
  2.222614e+00    6.674740e-01   9.083186e-03
  2.224824e+00    6.831874e-01   9.169968e-03
  2.227035e+00    6.887711e-01   9.189710e-03
  2.229245e+00    6.893519e-01   9.176403e-03
  2.231456e+00    6.683246e-01   9.019787e-03
  2.233666e+00    6.502690e-01   8.882249e-03
  2.235877e+00    6.745323e-01   9.032128e-03
  2.238087e+00    6.581555e-01   8.908450e-03
  2.240298e+00    6.713932e-01   8.983807e-03
  2.242508e+00    6.596517e-01   8.889877e-03
  2.244718e+00    6.755352e-01   8.980374e-03
  2.246929e+00    6.857657e-01   9.033520e-03
  2.249139e+00    6.781985e-01   8.971064e-03
  2.251350e+00    6.728354e-01   8.923760e-03
  2.253560e+00    6.649767e-01   8.859945e-03
  2.255771e+00    6.556724e-01   8.786417e-03
  2.257981e+00    6.573360e-01   8.786436e-03
  2.260192e+00    6.688514e-01   8.851924e-03
  2.262402e+00    6.582353e-01   8.770598e-03
  2.264613e+00    6.562118e-01   8.746319e-03
  2.266823e+00    6.592652e-01   8.756278e-03
  2.269033e+00    6.759679e-01   8.856025e-03
  2.271244e+00    6.687912e-01   8.798448e-03
  2.273454e+00    6.848058e-01   8.892740e-03
  2.275665e+00    6.664663e-01   8.762507e-03
  2.277875e+00    6.785331e-01   8.831424e-03
  2.280086e+00    6.705928e-01   8.769483e-03
  2.282296e+00    6.551850e-01   8.658773e-03
  2.284507e+00    6.545584e-01   8.644518e-03
  2.286717e+00    6.686561e-01   8.727585e-03
  2.288928e+00    6.626114e-01   8.678134e-03
  2.291138e+00    6.602417e-01   8.653159e-03
  2.293348e+00    6.551734e-01   8.610341e-03
  2.295559e+00    6.456425e-01   8.538252e-03
  2.297769e+00    6.375831e-01   8.475652e-03
  2.299980e+00    6.499438e-01   8.548109e-03
  2.302190e+00    6.552172e-01   8.573573e-03
  2.304401e+00    6.604766e-01   8.598543e-03
  2.306611e+00    6.610642e-01   8.593105e-03
  2.308822e+00    6.538011e-01   8.537364e-03
  2.311032e+00    6.460820e-01   8.480389e-03
  2.313243e+00    6.552594e-01   8.534101e-03
  2.315453e+00    6.637980e-01   8.581880e-03
  2.317663e+00    6.452373e-01   8.451931e-03
  2.319874e+00    6.405690e-01   8.412619e-03
  2.322084e+00    6.334711e-01   8.356991e-03
  2.324295e+00    6.473013e-01   8.439500e-03
  2.326505e+00    6.407185e-01   8.387439e-03
  2.328716e+00    6.408457e-01   8.379747e-03
  2.330926e+00    6.441815e-01   8.392720e-03
  2.333137e+00    6.373295e-01   8.339620e-03
  2.335347e+00    6.360899e-01   8.322682e-03
  2.337558e+00    6.348842e-01   8.306584e-03
  2.339768e+00    6.324360e-01   8.282032e-03
  2.341979e+00    6.342578e-01   8.285623e-03
  2.344189e+00    6.222638e-01   8.198611e-03
  2.346399e+00    6.315253e-01   8.250928e-03
  2.348610e+00    6.279064e-01   8.218861e-03
  2.350820e+00    6.310449e-01   8.231198e-03
  2.353031e+00    6.436587e-01   8.304722e-03
  2.355241e+00    6.408543e-01   8.278503e-03
  2.357452e+00    6.462930e-01   8.305057e-03
  2.359662e+00    6.485213e-01   8.311016e-03
  2.361873e+00    6.475621e-01   8.296538e-03
  2.364083e+00    6.350459e-01   8.207940e-03
  2.366294e+00    6.286330e-01   8.158273e-03
  2.368504e+00    6.360187e-01   8.197922e-03
  2.370714e+00    6.331874e-01   8.171543e-03
  2.372925e+00    6.355303e-01   8.178547e-03
  2.375135e+00    6.217867e-01   8.081574e-03
  2.377346e+00    6.220963e-01   8.075664e-03
  2.379556e+00    6.129269e-01   8.008088e-03
  2.381767e+00    6.113300e-01   7.989846e-03
  2.383977e+00    6.202480e-01   8.039982e-03
  2.386188e+00    6.269656e-01   8.075435e-03
  2.388398e+00    6.241313e-01   8.049181e-03
  2.390609e+00    6.189968e-01   8.008264e-03
  2.392819e+00    6.190485e-01   8.000809e-03
  2.395029e+00    6.257582e-01   8.036315e-03
  2.397240e+00    6.185324e-01   7.981909e-03
  2.399450e+00    6.101410e-01   7.919776e-03
  2.401661e+00    6.120309e-01   7.924352e-03
  2.403871e+00    6.106737e-01   7.907826e-03
  2.406082e+00    6.056057e-01   7.867508e-03
  2.408292e+00    6.133540e-01   7.909882e-03
  2.410503e+00    6.106814e-01   7.885116e-03
  2.412713e+00    6.107440e-01   7.877702e-03
  2.414924e+00    6.135038e-01   7.887963e-03
  2.417134e+00    5.922004e-01   7.742237e-03
  2.419344e+00    5.928903e-01   7.739398e-03
  2.421555e+00    5.993973e-01   7.774255e-03
  2.423765e+00    5.984519e-01   7.760738e-03
  2.425976e+00    6.005537e-01   7.766534e-03
  2.428186e+00    6.091371e-01   7.814561e-03
  2.430397e+00    6.044204e-01   7.776727e-03
  2.432607e+00    6.126497e-01   7.822101e-03
  2.434818e+00    6.115710e-01   7.807577e-03
  2.437028e+00    5.942253e-01   7.688906e-03
  2.439239e+00    5.938455e-01   7.678800e-03
  2.441449e+00    5.779071e-01   7.567937e-03
  2.443659e+00    5.844828e-01   7.603549e-03
  2.445870e+00    5.876986e-01   7.636680e-03
  2.448080e+00    5.942470e-01   7.714238e-03
  2.450291e+00    5.797175e-01   7.636004e-03
  2.452501e+00    5.732979e-01   7.604723e-03
  2.454712e+00    5.819872e-01   7.670643e-03
  2.456922e+00    5.699511e-01   7.597527e-03
  2.459133e+00    5.632897e-01   7.558406e-03
  2.461343e+00    5.553133e-01   7.509017e-03
  2.463554e+00    5.706163e-01   7.615232e-03
  2.465764e+00    5.810613e-01   7.687839e-03
  2.467975e+00    5.589027e-01   7.542103e-03
  2.470185e+00    5.450450e-01   7.450229e-03
  2.472395e+00    5.637133e-01   7.577980e-03
  2.474606e+00    5.640761e-01   7.581991e-03
  2.476816e+00    5.730098e-01   7.642553e-03
  2.479027e+00    5.629414e-01   7.575966e-03
  2.481237e+00    5.614770e-01   7.566390e-03
  2.483448e+00    5.557514e-01   7.528014e-03
  2.485658e+00    5.552868e-01   7.524724e-03
  2.487869e+00    5.520155e-01   7.502568e-03
  2.490079e+00    5.510904e-01   7.495748e-03
  2.492290e+00    5.519372e-01   7.501069e-03
  2.494500e+00    5.415847e-01   7.429673e-03
  2.496710e+00    5.359846e-01   7.390432e-03
  2.498921e+00    5.443245e-01   7.446727e-03
  2.501131e+00    5.380911e-01   7.403015e-03
  2.503342e+00    5.395135e-01   7.411503e-03
  2.505552e+00    5.492845e-01   7.477178e-03
  2.507763e+00    5.322036e-01   7.358595e-03
  2.509973e+00    5.274665e-01   7.324365e-03
  2.512184e+00    5.299593e-01   7.340022e-03
  2.514394e+00    5.376459e-01   7.383629e-03
  2.516605e+00    5.164974e-01   7.190345e-03
  2.518815e+00    5.238039e-01   7.212732e-03
  2.521025e+00    5.389944e-01   7.295349e-03
  2.523236e+00    5.305090e-01   7.219637e-03
  2.525446e+00    5.452313e-01   7.303212e-03
  2.527657e+00    5.524855e-01   7.336690e-03
  2.529867e+00    5.310091e-01   7.178417e-03
  2.532078e+00    5.100549e-01   7.020526e-03
  2.534288e+00    5.187227e-01   7.066115e-03
  2.536499e+00    5.276362e-01   7.114594e-03
  2.538709e+00    5.305869e-01   7.123406e-03
  2.540920e+00    5.455616e-01   7.212353e-03
  2.543130e+00    5.383867e-01   7.154285e-03
  2.545340e+00    5.364249e-01   7.131051e-03
  2.547551e+00    5.225688e-01   7.028415e-03
  2.549761e+00    5.257199e-01   7.039949e-03
  2.551972e+00    5.276452e-01   7.043417e-03
  2.554182e+00    5.231119e-01   7.003921e-03
  2.556393e+00    5.152372e-01   6.941951e-03
  2.558603e+00    5.173275e-01   6.946968e-03
  2.560814e+00    5.179507e-01   6.942468e-03
  2.563024e+00    5.162463e-01   6.922469e-03
  2.565235e+00    5.257998e-01   6.976668e-03
  2.567445e+00    5.279024e-01   6.980974e-03
  2.569656e+00    5.256190e-01   6.956046e-03
  2.571866e+00    5.119537e-01   6.855726e-03
  2.574076e+00    5.046169e-01   6.797261e-03
  2.576287e+00    5.068150e-01   6.803785e-03
  2.578497e+00    5.146814e-01   6.848569e-03
  2.580708e+00    5.028332e-01   6.761289e-03
  2.582918e+00    5.018854e-01   6.747244e-03
  2.585129e+00    5.150048e-01   6.827104e-03
  2.587339e+00    5.211791e-01   6.860181e-03
  2.589550e+00    5.148218e-01   6.810651e-03
  2.591760e+00    5.010315e-01   6.711162e-03
  2.593971e+00    5.113367e-01   6.772289e-03
  2.596181e+00    5.260603e-01   6.862797e-03
  2.598391e+00    5.234931e-01   6.840783e-03
  2.600602e+00    5.134646e-01   6.769016e-03
  2.602812e+00    5.105160e-01   6.741989e-03
  2.605023e+00    5.212762e-01   6.805417e-03
  2.607233e+00    5.161394e-01   6.764625e-03
  2.609444e+00    5.184463e-01   6.772386e-03
  2.611654e+00    5.254464e-01   6.810530e-03
  2.613865e+00    5.094889e-01   6.699242e-03
  2.616075e+00    5.020321e-01   6.642936e-03
  2.618286e+00    4.955476e-01   6.592958e-03
  2.620496e+00    5.040165e-01   6.642373e-03
  2.622706e+00    5.053604e-01   6.645467e-03
  2.624917e+00    5.101521e-01   6.671024e-03
  2.627127e+00    5.125111e-01   6.680644e-03
  2.629338e+00    5.080535e-01   6.645519e-03
  2.631548e+00    5.001197e-01   6.587287e-03
  2.633759e+00    4.811713e-01   6.454295e-03
  2.635969e+00    4.928160e-01   6.525286e-03
  2.638180e+00    5.109764e-01   6.637384e-03
  2.640390e+00    5.085388e-01   6.614889e-03
  2.642601e+00    5.024192e-01   6.568295e-03
  2.644811e+00    4.973065e-01   6.527731e-03
  2.647021e+00    5.039021e-01   6.564279e-03
  2.649232e+00    5.041763e-01   6.559324e-03
  2.651442e+00    5.028620e-01   6.544243e-03
  2.653653e+00    5.004569e-01   6.521765e-03
  2.655863e+00    5.004892e-01   6.515286e-03
  2.658074e+00    5.025225e-01   6.521860e-03
  2.660284e+00    4.974658e-01   6.482615e-03
  2.662495e+00    5.007872e-01   6.497426e-03
  2.664705e+00    5.032182e-01   6.506586e-03
  2.666916e+00    5.020177e-01   6.492302e-03
  2.669126e+00    5.084439e-01   6.527204e-03
  2.671337e+00    4.922015e-01   6.415538e-03
  2.673547e+00    5.062635e-01   6.500076e-03
  2.675757e+00    4.908724e-01   6.394099e-03
  2.677968e+00    4.862735e-01   6.357593e-03
  2.680178e+00    4.830227e-01   6.329981e-03
  2.682389e+00    4.996014e-01   6.431251e-03
  2.684599e+00    4.906108e-01   6.366965e-03
  2.686810e+00    4.865467e-01   6.333953e-03
  2.689020e+00    5.040597e-01   6.440581e-03
  2.691231e+00    4.986985e-01   6.399892e-03
  2.693441e+00    5.090323e-01   6.459597e-03
  2.695652e+00    5.023793e-01   6.410671e-03
  2.697862e+00    4.971420e-01   6.370760e-03
  2.700072e+00    4.836428e-01   6.277642e-03
  2.702283e+00    4.818394e-01   6.259746e-03
  2.704493e+00    4.713867e-01   6.185307e-03
  2.706704e+00    4.791159e-01   6.229450e-03
  2.708914e+00    4.901088e-01   6.294547e-03
  2.711125e+00    4.934983e-01   6.309981e-03
  2.713335e+00    4.895785e-01   6.278786e-03
  2.715546e+00    4.780246e-01   6.197854e-03
  2.717756e+00    4.813223e-01   6.213323e-03
  2.719967e+00    4.848446e-01   6.229816e-03
  2.722177e+00    4.891162e-01   6.251056e-03
  2.724387e+00    4.945243e-01   6.279353e-03
  2.726598e+00    4.879732e-01   6.231560e-03
  2.728808e+00    4.860482e-01   6.213089e-03
  2.731019e+00    4.864452e-01   6.209488e-03
  2.733229e+00    5.007212e-01   6.294054e-03
  2.735440e+00    4.930521e-01   6.239337e-03
  2.737650e+00    4.876622e-01   6.199106e-03
  2.739861e+00    4.911360e-01   6.215015e-03
  2.742071e+00    4.874086e-01   6.185622e-03
  2.744282e+00    4.946582e-01   6.225132e-03
  2.746492e+00    4.811272e-01   6.133376e-03
  2.748702e+00    4.849221e-01   6.151591e-03
  2.750913e+00    4.732311e-01   6.071243e-03
  2.753123e+00    4.758024e-01   6.081629e-03
  2.755334e+00    4.866027e-01   6.144147e-03
  2.757544e+00    4.828268e-01   6.114535e-03
  2.759755e+00    4.800011e-01   6.090710e-03
  2.761965e+00    4.816442e-01   6.095150e-03
  2.764176e+00    4.870635e-01   6.123300e-03
  2.766386e+00    4.902743e-01   6.137613e-03
  2.768597e+00    4.938714e-01   6.154126e-03
  2.770807e+00    4.844019e-01   6.088946e-03
  2.773017e+00    4.834325e-01   6.076840e-03
  2.775228e+00    4.801833e-01   6.050589e-03
  2.777438e+00    4.822168e-01   6.057571e-03
  2.779649e+00    4.776254e-01   6.022769e-03
  2.781859e+00    4.775338e-01   6.016419e-03
  2.784070e+00    4.859806e-01   6.063489e-03
  2.786280e+00    4.771303e-01   6.002266e-03
  2.788491e+00    4.745251e-01   5.980019e-03
  2.790701e+00    4.794472e-01   6.005305e-03
  2.792912e+00    4.718479e-01   5.951574e-03
  2.795122e+00    4.714617e-01   5.943438e-03
  2.797333e+00    4.831741e-01   6.011196e-03
  2.799543e+00    4.821605e-01   5.999002e-03
  2.801753e+00    4.744447e-01   5.944955e-03
  2.803964e+00    4.676634e-01   5.896700e-03
  2.806174e+00    4.727782e-01   5.922711e-03
  2.808385e+00    4.702625e-01   5.900191e-03
  2.810595e+00    4.748112e-01   5.921775e-03
  2.812806e+00    4.742126e-01   5.911446e-03
  2.815016e+00    4.684797e-01   5.870878e-03
  2.817227e+00    4.694172e-01   5.902557e-03
  2.819437e+00    4.775462e-01   5.964562e-03
  2.821648e+00    4.843749e-01   6.009374e-03
  2.823858e+00    4.837804e-01   6.011084e-03
  2.826068e+00    4.772178e-01   5.975186e-03
  2.828279e+00    4.695042e-01   5.930715e-03
  2.830489e+00    4.718780e-01   5.949024e-03
  2.832700e+00    4.649734e-01   5.907892e-03
  2.834910e+00    4.562913e-01   5.854489e-03
  2.837121e+00    4.686168e-01   5.934741e-03
  2.839331e+00    4.689843e-01   5.938301e-03
  2.841542e+00    4.720656e-01   5.958793e-03
  2.843752e+00    4.750870e-01   5.978612e-03
  2.845963e+00    4.613052e-01   5.891663e-03
  2.848173e+00    4.619003e-01   5.895535e-03
  2.850383e+00    4.679330e-01   5.934218e-03
  2.852594e+00    4.591602e-01   5.878241e-03
  2.854804e+00    4.620308e-01   5.896083e-03
  2.857015e+00    4.668193e-01   5.926135e-03
  2.859225e+00    4.684556e-01   5.936252e-03
  2.861436e+00    4.649324e-01   5.913228e-03
  2.863646e+00    4.672682e-01   5.928119e-03
  2.865857e+00    4.617732e-01   5.893484e-03
  2.868067e+00    4.691385e-01   5.940523e-03
  2.870278e+00    4.713681e-01   5.954269e-03
  2.872488e+00    4.675270e-01   5.928794e-03
  2.874698e+00    4.694284e-01   5.939797e-03
  2.876909e+00    4.581280e-01   5.866531e-03
  2.879119e+00    4.520216e-01   5.825710e-03
  2.881330e+00    4.535573e-01   5.834140e-03
  2.883540e+00    4.588194e-01   5.866499e-03
  2.885751e+00    4.666684e-01   5.914806e-03
  2.887961e+00    4.714171e-01   5.942932e-03
  2.890172e+00    4.728453e-01   5.950299e-03
  2.892382e+00    4.718134e-01   5.941980e-03
  2.894593e+00    4.645299e-01   5.894116e-03
  2.896803e+00    4.574746e-01   5.847215e-03
  2.899014e+00    4.614894e-01   5.870893e-03
  2.901224e+00    4.520071e-01   5.808293e-03
  2.903434e+00    4.583187e-01   5.846760e-03
  2.905645e+00    4.631341e-01   5.875173e-03
  2.907855e+00    4.556869e-01   5.825644e-03
  2.910066e+00    4.700036e-01   5.914348e-03
  2.912276e+00    4.510013e-01   5.791470e-03
  2.914487e+00    4.633370e-01   5.867638e-03
  2.916697e+00    4.721845e-01   5.921165e-03
  2.918908e+00    4.653430e-01   5.876081e-03
  2.921118e+00    4.712564e-01   5.910570e-03
  2.923329e+00    4.607210e-01   5.841809e-03
  2.925539e+00    4.692583e-01   5.893375e-03
  2.927749e+00    4.607857e-01   5.837617e-03
  2.929960e+00    4.464451e-01   5.743303e-03
  2.932170e+00    4.535066e-01   5.786223e-03
  2.934381e+00    4.563590e-01   5.801953e-03
  2.936591e+00    4.629984e-01   5.841417e-03
  2.938802e+00    4.588397e-01   5.812412e-03
  2.941012e+00    4.416191e-01   5.699982e-03
  2.943223e+00    4.652601e-01   5.847831e-03
  2.945433e+00    4.642254e-01   5.837578e-03
  2.947644e+00    4.545111e-01   5.772025e-03
  2.949854e+00    4.632373e-01   5.822884e-03
  2.952064e+00    4.579587e-01   5.785363e-03
  2.954275e+00    4.608046e-01   5.798881e-03
  2.956485e+00    4.664784e-01   5.830219e-03
  2.958696e+00    4.597047e-01   5.783348e-03
  2.960906e+00    4.589773e-01   5.774581e-03
  2.963117e+00    4.540158e-01   5.738780e-03
  2.965327e+00    4.717493e-01   5.845824e-03
  2.967538e+00    4.557352e-01   5.742822e-03
  2.969748e+00    4.569785e-01   5.747829e-03
  2.971959e+00    4.532344e-01   5.721109e-03
  2.974169e+00    4.579355e-01   5.748097e-03
  2.976379e+00    4.601828e-01   5.759250e-03
  2.978590e+00    4.593261e-01   5.750728e-03
  2.980800e+00    4.608603e-01   5.757510e-03
  2.983011e+00    4.607771e-01   5.754177e-03
  2.985221e+00    4.519562e-01   5.695684e-03
  2.987432e+00    4.526013e-01   5.696637e-03
  2.989642e+00    4.608563e-01   5.745712e-03
  2.991853e+00    4.655942e-01   5.771851e-03
  2.994063e+00    4.537346e-01   5.694959e-03
  2.996274e+00    4.556423e-01   5.703731e-03
  2.998484e+00    4.490574e-01   5.659676e-03
  3.000694e+00    4.513383e-01   5.670593e-03
  3.002905e+00    4.503121e-01   5.661212e-03
  3.005115e+00    4.503481e-01   5.658456e-03
  3.007326e+00    4.507181e-01   5.657649e-03
  3.009536e+00    4.546444e-01   5.678980e-03
  3.011747e+00    4.628409e-01   5.726981e-03
  3.013957e+00    4.567075e-01   5.685742e-03
  3.016168e+00    4.488800e-01   5.633549e-03
  3.018378e+00    4.507282e-01   5.642096e-03
  3.020589e+00    4.454473e-01   5.605777e-03
  3.022799e+00    4.480598e-01   5.619021e-03
  3.025010e+00    4.543543e-01   5.655119e-03
  3.027220e+00    4.468008e-01   5.604835e-03
  3.029430e+00    4.431519e-01   5.578673e-03
  3.031641e+00    4.528974e-01   5.636547e-03
  3.033851e+00    4.486244e-01   5.606376e-03
  3.036062e+00    4.696843e-01   5.733633e-03
  3.038272e+00    4.636407e-01   5.693001e-03
  3.040483e+00    4.564866e-01   5.645672e-03
  3.042693e+00    4.688879e-01   5.718503e-03
  3.044904e+00    4.638451e-01   5.683606e-03
  3.047114e+00    4.539766e-01   5.618007e-03
  3.049325e+00    4.505764e-01   5.592511e-03
  3.051535e+00    4.521110e-01   5.597640e-03
  3.053745e+00    4.543988e-01   5.607013e-03
  3.055956e+00    4.555266e-01   5.609360e-03
  3.058166e+00    4.503608e-01   5.573220e-03
  3.060377e+00    4.493086e-01   5.561927e-03
  3.062587e+00    4.593688e-01   5.619185e-03
  3.064798e+00    4.414097e-01   5.504035e-03
  3.067008e+00    4.518698e-01   5.564102e-03
  3.069219e+00    4.475361e-01   5.532885e-03
  3.071429e+00    4.469429e-01   5.525696e-03
  3.073640e+00    4.424781e-01   5.494739e-03
  3.075850e+00    4.493843e-01   5.533847e-03
  3.078060e+00    4.437493e-01   5.495969e-03
  3.080271e+00    4.496103e-01   5.528666e-03
  3.082481e+00    4.397292e-01   5.464164e-03
  3.084692e+00    4.473105e-01   5.507698e-03
  3.086902e+00    4.441153e-01   5.484743e-03
  3.089113e+00    4.488412e-01   5.510297e-03
  3.091323e+00    4.542596e-01   5.540045e-03
  3.093534e+00    4.582833e-01   5.561117e-03
  3.095744e+00    4.429730e-01   5.464096e-03
  3.097955e+00    4.438106e-01   5.465699e-03
  3.100165e+00    4.605114e-01   5.564214e-03
  3.102375e+00    4.603119e-01   5.559553e-03
  3.104586e+00    4.579755e-01   5.541878e-03
  3.106796e+00    4.467523e-01   5.470038e-03
  3.109007e+00    4.442224e-01   5.451313e-03
  3.111217e+00    4.504527e-01   5.485691e-03
  3.113428e+00    4.379580e-01   5.405709e-03
  3.115638e+00    4.416955e-01   5.425488e-03
  3.117849e+00    4.367036e-01   5.391060e-03
  3.120059e+00    4.427111e-01   5.424553e-03
  3.122270e+00    4.513761e-01   5.474095e-03
  3.124480e+00    4.558291e-01   5.497319e-03
  3.126691e+00    4.436699e-01   5.419934e-03
  3.128901e+00    4.566329e-01   5.495384e-03
  3.131111e+00    4.458518e-01   5.426273e-03
  3.133322e+00    4.537974e-01   5.470933e-03
  3.135532e+00    4.432038e-01   5.403295e-03
  3.137743e+00    4.456761e-01   5.414867e-03
  3.139953e+00    4.465630e-01   5.416548e-03
  3.142164e+00    4.470280e-01   5.431440e-03
  3.144374e+00    4.481346e-01   5.466737e-03
  3.146585e+00    4.553211e-01   5.525187e-03
  3.148795e+00    4.517947e-01   5.514646e-03
  3.151006e+00    4.406070e-01   5.454450e-03
  3.153216e+00    4.470307e-01   5.501270e-03
  3.155426e+00    4.366673e-01   5.443388e-03
  3.157637e+00    4.394734e-01   5.466370e-03
  3.159847e+00    4.491031e-01   5.530864e-03
  3.162058e+00    4.492875e-01   5.536465e-03
  3.164268e+00    4.380324e-01   5.470749e-03
  3.166479e+00    4.323613e-01   5.438824e-03
  3.168689e+00    4.490294e-01   5.546078e-03
  3.170900e+00    4.336540e-01   5.453458e-03
  3.173110e+00    4.401001e-01   5.496704e-03
  3.175321e+00    4.397795e-01   5.497213e-03
  3.177531e+00    4.483068e-01   5.553006e-03
  3.179741e+00    4.327693e-01   5.458013e-03
  3.181952e+00    4.294119e-01   5.438869e-03
  3.184162e+00    4.293022e-01   5.440347e-03
  3.186373e+00    4.450916e-01   5.541114e-03
  3.188583e+00    4.305917e-01   5.451887e-03
  3.190794e+00    4.412443e-01   5.520658e-03
  3.193004e+00    4.346409e-01   5.480456e-03
  3.195215e+00    4.350501e-01   5.484518e-03
  3.197425e+00    4.299988e-01   5.453784e-03
  3.199636e+00    4.443649e-01   5.543382e-03
  3.201846e+00    4.377713e-01   5.501486e-03
  3.204056e+00    4.421323e-01   5.529724e-03
  3.206267e+00    4.383059e-01   5.506597e-03
  3.208477e+00    4.347316e-01   5.485011e-03
  3.210688e+00    4.338729e-01   5.480447e-03
  3.212898e+00    4.268243e-01   5.436310e-03
  3.215109e+00    4.310383e-01   5.463833e-03
  3.217319e+00    4.324681e-01   5.473530e-03
  3.219530e+00    4.322993e-01   5.472857e-03
  3.221740e+00    4.337280e-01   5.482441e-03
  3.223951e+00    4.227785e-01   5.413278e-03
  3.226161e+00    4.344088e-01   5.487410e-03
  3.228372e+00    4.466246e-01   5.564576e-03
  3.230582e+00    4.425143e-01   5.539045e-03
  3.232792e+00    4.461638e-01   5.562088e-03
  3.235003e+00    4.253680e-01   5.431138e-03
  3.237213e+00    4.251856e-01   5.430098e-03
  3.239424e+00    4.225827e-01   5.413421e-03
  3.241634e+00    4.373649e-01   5.507422e-03
  3.243845e+00    4.321529e-01   5.474599e-03
  3.246055e+00    4.332268e-01   5.481103e-03
  3.248266e+00    4.274366e-01   5.444569e-03
  3.250476e+00    4.297801e-01   5.459154e-03
  3.252687e+00    4.349386e-01   5.491749e-03
  3.254897e+00    4.272207e-01   5.442692e-03
  3.257107e+00    4.147467e-01   5.362336e-03
  3.259318e+00    4.140919e-01   5.357844e-03
  3.261528e+00    4.136694e-01   5.354997e-03
  3.263739e+00    4.284801e-01   5.449449e-03
  3.265949e+00    4.316759e-01   5.469610e-03
  3.268160e+00    4.273251e-01   5.441564e-03
  3.270370e+00    4.320084e-01   5.470780e-03
  3.272581e+00    4.268915e-01   5.438020e-03
  3.274791e+00    4.218904e-01   5.405534e-03
  3.277002e+00    4.175634e-01   5.377193e-03
  3.279212e+00    4.135351e-01   5.350822e-03
  3.281422e+00    4.075738e-01   5.311530e-03
  3.283633e+00    4.212856e-01   5.399473e-03
  3.285843e+00    4.233044e-01   5.412038e-03
  3.288054e+00    4.394183e-01   5.513154e-03
  3.290264e+00    4.298392e-01   5.452408e-03
  3.292475e+00    4.208885e-01   5.394521e-03
  3.294685e+00    4.310801e-01   5.458787e-03
  3.296896e+00    4.175298e-01   5.371574e-03
  3.299106e+00    4.148997e-01   5.354070e-03
  3.301317e+00    4.208413e-01   5.391247e-03
  3.303527e+00    4.155771e-01   5.356955e-03
  3.305737e+00    4.221585e-01   5.398158e-03
  3.307948e+00    4.279015e-01   5.434083e-03
  3.310158e+00    4.249466e-01   5.414448e-03
  3.312369e+00    4.262762e-01   5.421995e-03
  3.314579e+00    4.397308e-01   5.505990e-03
  3.316790e+00    4.315270e-01   5.453691e-03
  3.319000e+00    4.151847e-01   5.348238e-03
  3.321211e+00    4.266574e-01   5.421006e-03
  3.323421e+00    4.245171e-01   5.406193e-03
  3.325632e+00    4.278627e-01   5.426561e-03
  3.327842e+00    4.320951e-01   5.452399e-03
  3.330052e+00    4.261861e-01   5.413931e-03
  3.332263e+00    4.281060e-01   5.425081e-03
  3.334473e+00    4.150246e-01   5.340647e-03
  3.336684e+00    4.369943e-01   5.478874e-03
  3.338894e+00    4.300349e-01   5.434270e-03
  3.341105e+00    4.065454e-01   5.282543e-03
  3.343315e+00    4.195473e-01   5.365220e-03
  3.345526e+00    4.260112e-01   5.405467e-03
  3.347736e+00    4.308490e-01   5.434690e-03
  3.349947e+00    4.217650e-01   5.376134e-03
  3.352157e+00    4.247484e-01   5.393928e-03
  3.354368e+00    4.335227e-01   5.448046e-03
  3.356578e+00    4.374871e-01   5.471854e-03
  3.358788e+00    4.362707e-01   5.462906e-03
  3.360999e+00    4.220059e-01   5.371595e-03
  3.363209e+00    4.234755e-01   5.379885e-03
  3.365420e+00    4.482326e-01   5.533373e-03
  3.367630e+00    4.163364e-01   5.331858e-03
  3.369841e+00    4.041495e-01   5.251814e-03
  3.372051e+00    4.221238e-01   5.365343e-03
  3.374262e+00    4.257562e-01   5.385919e-03
  3.376472e+00    4.201568e-01   5.347932e-03
  3.378683e+00    4.304348e-01   5.410379e-03
  3.380893e+00    4.330753e-01   5.424595e-03
  3.383103e+00    4.016959e-01   5.221704e-03
  3.385314e+00    4.179118e-01   5.323807e-03
  3.387524e+00    4.232904e-01   5.355209e-03
  3.389735e+00    4.160687e-01   5.306688e-03
  3.391945e+00    4.224195e-01   5.343327e-03
  3.394156e+00    4.071464e-01   5.241651e-03
  3.396366e+00    4.101271e-01   5.257392e-03
  3.398577e+00    4.264951e-01   5.358170e-03
  3.400787e+00    4.076248e-01   5.250188e-03
  3.402998e+00    4.001073e-01   5.239130e-03
  3.405208e+00    4.101719e-01   5.325380e-03
  3.407418e+00    4.129511e-01   5.359428e-03
  3.409629e+00    4.010498e-01   5.295599e-03
  3.411839e+00    3.922109e-01   5.248571e-03
  3.414050e+00    3.966528e-01   5.289210e-03
  3.416260e+00    3.873585e-01   5.236438e-03
  3.418471e+00    3.982363e-01   5.318896e-03
  3.420681e+00    3.971705e-01   5.320354e-03
  3.422892e+00    3.877748e-01   5.264984e-03
  3.425102e+00    3.922020e-01   5.302813e-03
  3.427313e+00    3.930087e-01   5.315500e-03
  3.429523e+00    3.768539e-01   5.212064e-03
  3.431733e+00    3.795427e-01   5.237223e-03
  3.433944e+00    3.920928e-01   5.329665e-03
  3.436154e+00    3.900069e-01   5.321792e-03
  3.438365e+00    3.800017e-01   5.258964e-03
  3.440575e+00    3.811575e-01   5.272914e-03
  3.442786e+00    3.850129e-01   5.305148e-03
  3.444996e+00    3.752480e-01   5.242965e-03
  3.447207e+00    3.570912e-01   5.119658e-03
  3.449417e+00    3.736433e-01   5.277922e-03
  3.451628e+00    3.676307e-01   5.264687e-03
  3.453838e+00    3.717911e-01   5.315667e-03
  3.456049e+00    3.678836e-01   5.311581e-03
  3.458259e+00    3.639692e-01   5.305117e-03
  3.460469e+00    3.753642e-01   5.407542e-03
  3.462680e+00    3.788466e-01   5.451948e-03
  3.464890e+00    3.727744e-01   5.426055e-03
  3.467101e+00    3.827898e-01   5.516252e-03
  3.469311e+00    3.827240e-01   5.532633e-03
  3.471522e+00    3.818004e-01   5.542494e-03
  3.473732e+00    4.055068e-01   5.728462e-03
  3.475943e+00    3.819771e-01   5.575483e-03
  3.478153e+00    4.105143e-01   5.795867e-03
  3.480364e+00    4.174380e-01   5.860162e-03
  3.482574e+00    4.108157e-01   5.828973e-03
  3.484784e+00    4.242783e-01   5.938814e-03
  3.486995e+00    4.361895e-01   6.037050e-03
  3.489205e+00    4.418010e-01   6.090773e-03
  3.491416e+00    4.502495e-01   6.164033e-03
  3.493626e+00    4.465544e-01   6.153475e-03
  3.495837e+00    4.536246e-01   6.216978e-03
  3.498047e+00    4.437347e-01   6.163291e-03
  3.500258e+00    4.642911e-01   6.319211e-03
  3.502468e+00    4.714099e-01   6.382193e-03
  3.504679e+00    4.697668e-01   6.385671e-03
  3.506889e+00    4.711268e-01   6.409427e-03
  3.509099e+00    4.701256e-01   6.416959e-03
  3.511310e+00    4.842452e-01   6.527196e-03
  3.513520e+00    5.035765e-01   6.670934e-03
  3.515731e+00    4.977261e-01   6.646637e-03
  3.517941e+00    4.951019e-01   6.643503e-03
  3.520152e+00    5.102907e-01   6.759206e-03
  3.522362e+00    5.110077e-01   6.778557e-03
  3.524573e+00    5.186749e-01   6.843694e-03
  3.526783e+00    5.331036e-01   6.951864e-03
  3.528994e+00    5.214666e-01   6.887889e-03
  3.531204e+00    5.223628e-01   6.906238e-03
  3.533414e+00    5.487143e-01   7.090662e-03
  3.535625e+00    5.390556e-01   7.040492e-03
  3.537835e+00    5.343750e-01   7.021958e-03
  3.540046e+00    5.436801e-01   7.091844e-03
  3.542256e+00    5.409658e-01   7.081694e-03
  3.544467e+00    5.460273e-01   7.122454e-03
  3.546677e+00    5.399595e-01   7.090347e-03
  3.548888e+00    5.483859e-01   7.153042e-03
  3.551098e+00    5.532888e-01   7.192380e-03
  3.553309e+00    5.300537e-01   7.047833e-03
  3.555519e+00    5.407620e-01   7.130018e-03
  3.557729e+00    5.580869e-01   7.255305e-03
  3.559940e+00    5.228615e-01   7.034028e-03
  3.562150e+00    5.367902e-01   7.138762e-03
  3.564361e+00    5.492190e-01   7.234467e-03
  3.566571e+00    5.511205e-01   7.260978e-03
  3.568782e+00    5.503748e-01   7.270386e-03
  3.570992e+00    5.499307e-01   7.281382e-03
  3.573203e+00    5.308042e-01   7.167733e-03
  3.575413e+00    5.344964e-01   7.206332e-03
  3.577624e+00    5.367441e-01   7.235637e-03
  3.579834e+00    5.333247e-01   7.226379e-03
  3.582045e+00    5.216088e-01   7.160424e-03
  3.584255e+00    5.391356e-01   7.293810e-03
  3.586465e+00    5.259847e-01   7.218111e-03
  3.588676e+00    5.354951e-01   7.297265e-03
  3.590886e+00    5.325031e-01   7.290517e-03
  3.593097e+00    5.323947e-01   7.304201e-03
  3.595307e+00    5.389955e-01   7.363342e-03
  3.597518e+00    5.536898e-01   7.477467e-03
  3.599728e+00    5.513172e-01   7.475739e-03
  3.601939e+00    5.526069e-01   7.498785e-03
  3.604149e+00    5.524173e-01   7.512120e-03
  3.606360e+00    5.361727e-01   7.415014e-03
  3.608570e+00    5.159041e-01   7.287399e-03
  3.610780e+00    5.313356e-01   7.406585e-03
  3.612991e+00    5.582417e-01   7.602024e-03
  3.615201e+00    5.637524e-01   7.649558e-03
  3.617412e+00    5.417484e-01   7.506096e-03
  3.619622e+00    5.319256e-01   7.443653e-03
  3.621833e+00    5.406376e-01   7.511132e-03
  3.624043e+00    5.299124e-01   7.445732e-03
  3.626254e+00    5.279607e-01   7.441615e-03
  3.628464e+00    5.387948e-01   7.528641e-03
  3.630675e+00    5.366892e-01   7.528029e-03
  3.632885e+00    5.474797e-01   7.617990e-03
  3.635095e+00    5.534746e-01   7.674247e-03
  3.637306e+00    5.464898e-01   7.640215e-03
  3.639516e+00    5.376824e-01   7.592972e-03
  3.641727e+00    5.549901e-01   7.729081e-03
  3.643937e+00    5.376443e-01   7.621959e-03
  3.646148e+00    5.443078e-01   7.683776e-03
  3.648358e+00    5.426202e-01   7.686897e-03
  3.650569e+00    5.486121e-01   7.744134e-03
  3.652779e+00    5.361036e-01   7.670151e-03
  3.654990e+00    5.503871e-01   7.786827e-03
  3.657200e+00    5.409302e-01   7.734654e-03
  3.659410e+00    5.279401e-01   7.656090e-03
  3.661621e+00    5.526928e-01   7.848932e-03
  3.663831e+00    5.464031e-01   7.819466e-03
  3.666042e+00    5.307980e-01   7.722171e-03
  3.668252e+00    5.088785e-01   7.575943e-03
  3.670463e+00    5.207297e-01   7.678703e-03
  3.672673e+00    5.301952e-01   7.763627e-03
  3.674884e+00    5.267090e-01   7.753384e-03
  3.677094e+00    5.438715e-01   7.894402e-03
  3.679305e+00    5.413057e-01   7.891499e-03
  3.681515e+00    5.283187e-01   7.811844e-03
  3.683726e+00    5.257313e-01   7.808414e-03
  3.685936e+00    5.228128e-01   7.802313e-03
  3.688146e+00    5.515639e-01   8.030131e-03
  3.690357e+00    5.178995e-01   7.797017e-03
  3.692567e+00    5.160255e-01   7.798838e-03
  3.694778e+00    5.191578e-01   7.838402e-03
  3.696988e+00    5.187512e-01   7.851193e-03
  3.699199e+00    5.320203e-01   7.967342e-03
  3.701409e+00    5.243849e-01   7.926326e-03
  3.703620e+00    5.356966e-01   8.027788e-03
  3.705830e+00    5.237113e-01   7.953935e-03
  3.708041e+00    5.194613e-01   7.938055e-03
  3.710251e+00    5.258991e-01   8.003883e-03
  3.712461e+00    5.351709e-01   8.091069e-03
  3.714672e+00    5.274629e-01   8.049406e-03
  3.716882e+00    5.413082e-01   8.171385e-03
  3.719093e+00    5.258674e-01   8.071247e-03
  3.721303e+00    5.103430e-01   7.968018e-03
  3.723514e+00    5.148076e-01   8.019988e-03
  3.725724e+00    5.207059e-01   8.082974e-03
  3.727935e+00    5.331572e-01   8.196788e-03
  3.730145e+00    5.286832e-01   8.179847e-03
  3.732356e+00    5.349573e-01   8.246060e-03
  3.734566e+00    5.218250e-01   8.161891e-03
  3.736776e+00    5.241612e-01   8.198073e-03
  3.738987e+00    5.009545e-01   8.032048e-03
  3.741197e+00    4.902534e-01   7.963360e-03
  3.743408e+00    5.366195e-01   8.349866e-03
  3.745618e+00    5.416535e-01   8.407799e-03
  3.747829e+00    5.312447e-01   8.345068e-03
  3.750039e+00    5.060005e-01   8.162688e-03
  3.752250e+00    4.943542e-01   8.086280e-03
  3.754460e+00    5.008186e-01   8.157391e-03
  3.756671e+00    5.233178e-01   8.357682e-03
  3.758881e+00    5.222581e-01   8.368107e-03
  3.761091e+00    5.156959e-01   8.334635e-03
  3.763302e+00    4.878681e-01   8.125344e-03
  3.765512e+00    4.964080e-01   8.215146e-03
  3.767723e+00    5.253409e-01   8.470885e-03
  3.769933e+00    5.292403e-01   8.522038e-03
  3.772144e+00    5.300556e-01   8.548628e-03
  3.774354e+00    5.099077e-01   8.404514e-03
  3.776565e+00    5.182403e-01   8.493030e-03
  3.778775e+00    4.996029e-01   8.358758e-03
  3.780986e+00    5.049351e-01   8.423572e-03
  3.783196e+00    5.050740e-01   8.444989e-03
  3.785407e+00    5.315667e-01   8.684666e-03
  3.787617e+00    4.922989e-01   8.378292e-03
  3.789827e+00    4.953637e-01   8.424677e-03
  3.792038e+00    4.974181e-01   8.462848e-03
  3.794248e+00    5.096789e-01   8.587907e-03
  3.796459e+00    5.142484e-01   8.647927e-03
  3.798669e+00    5.048586e-01   8.590058e-03
  3.800880e+00    5.209761e-01   8.748000e-03
  3.803090e+00    5.197852e-01   8.760213e-03
  3.805301e+00    5.262226e-01   8.836998e-03
  3.807511e+00    5.156227e-01   8.769868e-03
  3.809722e+00    5.065786e-01   8.714990e-03
  3.811932e+00    5.006819e-01   8.686393e-03
  3.814142e+00    4.902967e-01   8.618460e-03
  3.816353e+00    5.110943e-01   8.822454e-03
  3.818563e+00    5.111911e-01   8.846763e-03
  3.820774e+00    4.911175e-01   8.694287e-03
  3.822984e+00    4.775167e-01   8.595915e-03
  3.825195e+00    4.943024e-01   8.769352e-03
  3.827405e+00    4.890550e-01   8.746330e-03
  3.829616e+00    5.002485e-01   8.870008e-03
  3.831826e+00    4.939752e-01   8.838320e-03
  3.834037e+00    4.890526e-01   8.818428e-03
  3.836247e+00    5.032443e-01   8.970366e-03
  3.838457e+00    4.910568e-01   8.885946e-03
  3.840668e+00    4.850804e-01   8.856599e-03
  3.842878e+00    4.977423e-01   8.997007e-03
  3.845089e+00    4.833950e-01   8.891673e-03
  3.847299e+00    4.919564e-01   8.995731e-03
  3.849510e+00    4.849442e-01   8.957021e-03
  3.851720e+00    4.941766e-01   9.063239e-03
  3.853931e+00    5.023277e-01   9.156819e-03
  3.856141e+00    4.881569e-01   9.045608e-03
  3.858352e+00    5.110334e-01   9.274793e-03
  3.860562e+00    4.902393e-01   9.103253e-03
  3.862772e+00    4.970230e-01   9.185690e-03
  3.864983e+00    5.265850e-01   9.475283e-03
  3.867193e+00    4.837135e-01   9.100981e-03
  3.869404e+00    5.060426e-01   9.328655e-03
  3.871614e+00    4.917541e-01   9.215997e-03
  3.873825e+00    5.005267e-01   9.318318e-03
  3.876035e+00    5.049204e-01   9.379942e-03
  3.878246e+00    5.056062e-01   9.412429e-03
  3.880456e+00    4.965720e-01   9.357095e-03
  3.882667e+00    4.784859e-01   9.213977e-03
  3.884877e+00    4.880224e-01   9.335025e-03
  3.887087e+00    4.911895e-01   9.395149e-03
  3.889298e+00    5.125002e-01   9.627811e-03
  3.891508e+00    4.998085e-01   9.538718e-03
  3.893719e+00    4.940509e-01   9.514661e-03
  3.895929e+00    5.099972e-01   9.699051e-03
  3.898140e+00    5.111078e-01   9.741940e-03
  3.900350e+00    5.373615e-01   1.002266e-02
  3.902561e+00    5.076250e-01   9.774388e-03
  3.904771e+00    4.726817e-01   9.464177e-03
  3.906982e+00    4.927584e-01   9.696280e-03
  3.909192e+00    5.108641e-01   9.907062e-03
  3.911403e+00    4.922242e-01   9.758813e-03
  3.913613e+00    5.110548e-01   9.978682e-03
  3.915823e+00    5.120952e-01   1.002458e-02
  3.918034e+00    4.956021e-01   9.897231e-03
  3.920244e+00    4.916085e-01   9.893216e-03
  3.922455e+00    5.053822e-01   1.006754e-02
  3.924665e+00    4.973273e-01   1.002378e-02
  3.926876e+00    4.735798e-01   9.818038e-03
  3.929086e+00    5.017248e-01   1.014352e-02
  3.931297e+00    5.172249e-01   1.033479e-02
  3.933507e+00    5.031033e-01   1.022220e-02
  3.935718e+00    5.063945e-01   1.028488e-02
  3.937928e+00    4.980517e-01   1.022955e-02
  3.940138e+00    5.006782e-01   1.028627e-02
  3.942349e+00    5.040610e-01   1.035123e-02
  3.944559e+00    4.960193e-01   1.029869e-02
  3.946770e+00    4.982663e-01   1.035249e-02
  3.948980e+00    4.834587e-01   1.022824e-02
  3.951191e+00    4.605273e-01   1.001253e-02
  3.953401e+00    5.015898e-01   1.048127e-02
  3.955612e+00    4.802392e-01   1.028736e-02
  3.957822e+00    4.869047e-01   1.039007e-02
  3.960033e+00    4.843248e-01   1.039518e-02
  3.962243e+00    5.090399e-01   1.069066e-02
  3.964453e+00    5.013350e-01   1.064317e-02
  3.966664e+00    4.770003e-01   1.041462e-02
  3.968874e+00    5.011333e-01   1.070379e-02
  3.971085e+00    4.515080e-01   1.018112e-02
  3.973295e+00    4.891376e-01   1.061837e-02
  3.975506e+00    4.936022e-01   1.068850e-02
  3.977716e+00    4.899963e-01   1.067156e-02
  3.979927e+00    5.016416e-01   1.082011e-02
  3.982137e+00    4.755008e-01   1.055650e-02
  3.984348e+00    5.048173e-01   1.090001e-02
  3.986558e+00    4.983377e-01   1.085244e-02
  3.988768e+00    5.038389e-01   1.093569e-02
  3.990979e+00    4.811804e-01   1.070958e-02
  3.993189e+00    5.074941e-01   1.102213e-02
  3.995400e+00    4.769860e-01   1.070907e-02
  3.997610e+00    4.800218e-01   1.077272e-02
  3.999821e+00    4.901584e-01   1.092361e-02
  4.002031e+00    4.682388e-01   1.071428e-02
  4.004242e+00    4.740092e-01   1.081820e-02
  4.006452e+00    4.724980e-01   1.083976e-02
  4.008663e+00    4.717581e-01   1.087075e-02
  4.010873e+00    5.261903e-01   1.152235e-02
  4.013084e+00    5.124531e-01   1.141317e-02
  4.015294e+00    4.812597e-01   1.110114e-02
  4.017504e+00    5.047657e-01   1.141177e-02
  4.019715e+00    4.952159e-01   1.134628e-02
  4.021925e+00    4.863835e-01   1.128774e-02
  4.024136e+00    5.039067e-01   1.153380e-02
  4.026346e+00    4.870082e-01   1.138318e-02
  4.028557e+00    4.439593e-01   1.091071e-02
  4.030767e+00    4.836424e-01   1.143354e-02
  4.032978e+00    5.238028e-01   1.194708e-02
  4.035188e+00    4.452174e-01   1.105881e-02
  4.037399e+00    4.800928e-01   1.153108e-02
  4.039609e+00    5.049289e-01   1.187441e-02
  4.041819e+00    4.952803e-01   1.180985e-02
  4.044030e+00    4.672590e-01   1.151986e-02
  4.046240e+00    4.676337e-01   1.157354e-02
  4.048451e+00    4.793657e-01   1.176866e-02
  4.050661e+00    4.971210e-01   1.203672e-02
  4.052872e+00    4.692382e-01   1.174633e-02
  4.055082e+00    4.851997e-01   1.199813e-02
  4.057293e+00    4.896692e-01   1.210733e-02
  4.059503e+00    4.818744e-01   1.206513e-02
  4.061714e+00    5.008643e-01   1.235825e-02
  4.063924e+00    4.843912e-01   1.221022e-02
  4.066134e+00    4.870026e-01   1.230059e-02
  4.068345e+00    5.107478e-01   1.265787e-02
  4.070555e+00    4.673630e-01   1.216657e-02
  4.072766e+00    5.076892e-01   1.274313e-02
  4.074976e+00    4.878005e-01   1.255322e-02
  4.077187e+00    4.857000e-01   1.258857e-02
  4.079397e+00    4.973790e-01   1.280386e-02
  4.081608e+00    5.084729e-01   1.301342e-02
  4.083818e+00    4.820558e-01   1.273660e-02
  4.086029e+00    5.228974e-01   1.333518e-02
  4.088239e+00    4.789682e-01   1.283167e-02
  4.090449e+00    4.661677e-01   1.272731e-02
  4.092660e+00    4.787526e-01   1.296925e-02
  4.094870e+00    4.461021e-01   1.258864e-02
  4.097081e+00    4.788746e-01   1.311432e-02
  4.099291e+00    4.712914e-01   1.306399e-02
  4.101502e+00    4.977464e-01   1.347567e-02
  4.103712e+00    4.631869e-01   1.304783e-02
  4.105923e+00    4.893288e-01   1.346301e-02
  4.108133e+00    5.068726e-01   1.375493e-02
  4.110344e+00    4.801235e-01   1.343841e-02
  4.112554e+00    4.598711e-01   1.320392e-02
  4.114764e+00    4.218805e-01   1.269744e-02
  4.116975e+00    4.696026e-01   1.344916e-02
  4.119185e+00    5.218580e-01   1.423533e-02
  4.121396e+00    5.330166e-01   1.444611e-02
  4.123606e+00    5.152628e-01   1.426188e-02
  4.125817e+00    5.403702e-01   1.466617e-02
  4.128027e+00    5.019732e-01   1.419542e-02
  4.130238e+00    4.838855e-01   1.399678e-02
  4.132448e+00    5.031474e-01   1.433461e-02
  4.134659e+00    5.114618e-01   1.451487e-02
  4.136869e+00    5.095270e-01   1.455190e-02
  4.139080e+00    5.318214e-01   1.493385e-02
  4.141290e+00    5.264720e-01   1.492463e-02
  4.143500e+00    4.541841e-01   1.392596e-02
  4.145711e+00    4.487418e-01   1.390690e-02
  4.147921e+00    4.867370e-01   1.455018e-02
  4.150132e+00    4.397825e-01   1.389643e-02
  4.152342e+00    5.550787e-01   1.568778e-02
  4.154553e+00    4.455385e-01   1.412193e-02
  4.156763e+00    4.919856e-01   1.491289e-02
  4.158974e+00    4.782264e-01   1.477696e-02
  4.161184e+00    5.212186e-01   1.550350e-02
  4.163395e+00    5.206038e-01   1.557323e-02
  4.165605e+00    5.182979e-01   1.561978e-02
  4.167815e+00    5.076082e-01   1.553831e-02
  4.170026e+00    5.216286e-01   1.583449e-02
  4.172236e+00    4.995713e-01   1.558006e-02
  4.174447e+00    4.419054e-01   1.473287e-02
  4.176657e+00    4.518895e-01   1.497976e-02
  4.178868e+00    5.497012e-01   1.661493e-02
  4.181078e+00    4.880210e-01   1.574353e-02
  4.183289e+00    4.858395e-01   1.579803e-02
  4.185499e+00    5.415528e-01   1.677764e-02
  4.187710e+00    5.029908e-01   1.626443e-02
  4.189920e+00    4.453309e-01   1.539557e-02
  4.192130e+00    5.372604e-01   1.701352e-02
  4.194341e+00    5.129172e-01   1.672567e-02
  4.196551e+00    4.891441e-01   1.643696e-02
  4.198762e+00    4.568921e-01   1.598663e-02
  4.200972e+00    4.871671e-01   1.661455e-02
  4.203183e+00    4.354533e-01   1.581183e-02
  4.205393e+00    4.200138e-01   1.563180e-02
  4.207604e+00    4.944441e-01   1.707646e-02
  4.209814e+00    5.011756e-01   1.731021e-02
  4.212025e+00    5.108737e-01   1.760066e-02
  4.214235e+00    5.318172e-01   1.808518e-02
  4.216445e+00    4.891820e-01   1.747059e-02
  4.218656e+00    4.280171e-01   1.646423e-02
  4.220866e+00    5.345628e-01   1.853597e-02
  4.223077e+00    5.172656e-01   1.837423e-02
  4.225287e+00    4.697807e-01   1.764761e-02
  4.227498e+00    4.962054e-01   1.827998e-02
  4.229708e+00    5.116835e-01   1.871346e-02
  4.231919e+00    5.317076e-01   1.923409e-02
  4.234129e+00    5.594594e-01   1.989527e-02
  4.236340e+00    4.659958e-01   1.831271e-02
  4.238550e+00    4.350661e-01   1.785124e-02
  4.240761e+00    4.468181e-01   1.824980e-02
  4.242971e+00    5.013629e-01   1.950884e-02
  4.245181e+00    5.525174e-01   2.067258e-02
  4.247392e+00    5.046396e-01   1.994111e-02
  4.249602e+00    5.211674e-01   2.046647e-02
  4.251813e+00    4.524143e-01   1.925699e-02
  4.254023e+00    4.095907e-01   1.850693e-02
  4.256234e+00    5.233148e-01   2.114274e-02
  4.258444e+00    5.364627e-01   2.163124e-02
  4.260655e+00    4.565699e-01   2.017471e-02
  4.262865e+00    4.456716e-01   2.015842e-02
  4.265076e+00    4.772711e-01   2.109784e-02
  4.267286e+00    5.097941e-01   2.206374e-02
  4.269496e+00    5.319679e-01   2.281386e-02
  4.271707e+00    4.719380e-01   2.175325e-02
  4.273917e+00    4.854323e-01   2.234720e-02
  4.276128e+00    4.692787e-01   2.226422e-02
  4.278338e+00    4.828493e-01   2.288562e-02
  4.280549e+00    3.900507e-01   2.086384e-02
  4.282759e+00    5.080184e-01   2.415304e-02
  4.284970e+00    5.533915e-01   2.558170e-02
  4.287180e+00    5.018010e-01   2.465237e-02
  4.289391e+00    5.119933e-01   2.508783e-02
  4.291601e+00    4.847074e-01   2.460548e-02
  4.293811e+00    4.256368e-01   2.323784e-02
  4.296022e+00    4.714316e-01   2.465215e-02
  4.298232e+00    4.569804e-01   2.447531e-02
  4.300443e+00    4.336734e-01   2.403911e-02
  4.302653e+00    4.962721e-01   2.593835e-02
  4.304864e+00    5.545780e-01   2.765758e-02
  4.307074e+00    4.394780e-01   2.484201e-02
  4.309285e+00    4.478104e-01   2.530371e-02
  4.311495e+00    5.569921e-01   2.848424e-02
  4.313706e+00    6.308955e-01   3.060053e-02
  4.315916e+00    5.589536e-01   2.908606e-02
  4.318126e+00    5.936474e-01   3.027236e-02
  4.320337e+00    4.416727e-01   2.637624e-02
  4.322547e+00    4.225746e-01   2.607212e-02
  4.324758e+00    4.012274e-01   2.566926e-02
  4.326968e+00    5.647276e-01   3.079657e-02
  4.329179e+00    4.946920e-01   2.914187e-02
  4.331389e+00    4.354993e-01   2.765746e-02
  4.333600e+00    5.498750e-01   3.144857e-02
  4.335810e+00    4.760260e-01   2.960980e-02
  4.338021e+00    5.121423e-01   3.110534e-02
  4.340231e+00    4.069361e-01   2.807464e-02
  4.342442e+00    4.837371e-01   3.102032e-02
  4.344652e+00    4.110742e-01   2.898367e-02
  4.346862e+00    4.770611e-01   3.166122e-02
  4.349073e+00    4.523786e-01   3.128013e-02
  4.351283e+00    4.131205e-01   3.033790e-02
  4.353494e+00    4.325900e-01   3.152480e-02
  4.355704e+00    4.347181e-01   3.211071e-02
  4.357915e+00    3.778411e-01   3.043474e-02
  4.360125e+00    4.132382e-01   3.237208e-02
  4.362336e+00    4.943721e-01   3.605260e-02
  4.364546e+00    4.141759e-01   3.359996e-02
  4.366757e+00    4.428632e-01   3.543599e-02
  4.368967e+00    3.247780e-01   3.095115e-02
  4.371177e+00    4.089381e-01   3.546769e-02
  4.373388e+00    5.532358e-01   4.217546e-02
  4.375598e+00    4.936921e-01   4.075237e-02
  4.377809e+00    5.129102e-01   4.258789e-02
  4.380019e+00    4.745727e-01   4.199606e-02
  4.382230e+00    3.426505e-01   3.668078e-02
  4.384440e+00    3.290221e-01   3.697838e-02
  4.386651e+00    3.084819e-01   3.691066e-02
  4.388861e+00    2.487388e-01   3.425354e-02
  4.391072e+00    4.628298e-01   4.836768e-02
  4.393282e+00    3.142309e-01   4.139541e-02
  4.395492e+00    5.200987e-01   5.546732e-02
  4.397703e+00    2.422619e-01   3.959306e-02
  4.399913e+00    1.869602e-01   3.653449e-02
  4.402124e+00    2.550678e-01   4.509846e-02
  4.404334e+00    3.485016e-01   5.602943e-02
  4.406545e+00    2.452828e-01   5.050423e-02
  4.408755e+00    3.815830e-01   6.831742e-02
  4.410966e+00    3.550101e-01   7.294185e-02
  4.413176e+00   -2.556842e-02            nan
  4.415387e+00   -1.501200e-01            nan
  4.417597e+00   -1.869182e+00            nan
  4.419807e+00   -3.766224e-01            nan
