# == pyFAI calibration ==
# Distance Sample to Detector: 0.216 m
# PONI: 1.166e-01, 1.308e-01 m
# Rotations: 0.000000 0.000000 0.000000 rad
# 
# == Fit2d calibration ==
# Distance Sample-beamCenter: 216.000 mm
# Center: x=1744.293, y=1555.000 pix
# Tilt: 0.000 deg  TiltPlanRot: 0.000 deg
# 
# Detector Eiger 9M	 PixelSize= 7.500e-05, 7.500e-05 m
#    Detector has a mask: True 
#    Detector has a dark current: False 
#    detector has a flat field: False 
# 
# Wavelength: 9.8e-11 m
# Mask applied: from detector
# Dark current applied: False
# Flat field applied: False
# Polarization factor: None
# Normalization factor: 1.0
# 
# Headers of the input frame:
# {
# "_array_data.header_convention": "SLS_1.0",
# "_array_data.header_contents": "# Detector: Dectris Eiger 9M, S/N E-18-0102\r\n# Pixel_size 75e-6 m x 75e-6 m\r\n# Silicon sensor, thickness 0.000450 m\r\n# Exposure_time 0.024997 s\r\n# Exposure_period 0.025000 s\r\n# Count_cutoff 62318 counts\r\n# Wavelength 0.980106 A\r\n# Detector_distance 0.215992 m\r\n# Beam_xy (1555, 1744) pixels\r\n# Start_angle 0.000000 deg.\r\n# Angle_increment 0.000000 deg.",
# "Content-Type": "application/octet-stream;",
# "conversions": "x-CBF_BYTE_OFFSET",
# "Content-Transfer-Encoding": "BINARY",
# "X-Binary-Size": "10166590",
# "X-Binary-ID": "1",
# "X-Binary-Element-Type": "signed 32-bit integer",
# "X-Binary-Element-Byte-Order": "LITTLE_ENDIAN",
# "Content-MD5": "9phVZlOWXpIgAhWVX5Phsg==",
# "X-Binary-Number-of-Elements": "10166590",
# "X-Binary-Size-Fastest-Dimension": "3110",
# "X-Binary-Size-Second-Dimension": "3269",
# "X-Binary-Size-Padding": "4095"
# }
# --> H:/Proxima2a_2019-04-05/RAW_DATA/C5_gel17_position5/C5_mesh_1_data.cbf/C5_mesh_1_data.cbf000184.dat
#        q_A^-1              I           sigma 
  1.105228e-03    1.395857e+00   6.393041e-01
  3.315685e-03    1.367240e+00   3.846518e-01
  5.526141e-03    1.489543e+00   3.104550e-01
  7.736597e-03    1.413611e+00   2.554966e-01
  9.947054e-03    1.468032e+00   2.295326e-01
  1.215751e-02    1.297500e+00   1.951292e-01
  1.436797e-02    1.473462e+00   1.912693e-01
  1.657842e-02    1.648539e+00   1.883190e-01
  1.878888e-02    1.533310e+00   1.705998e-01
  2.099934e-02    1.259242e+00   1.462705e-01
  2.320979e-02    1.312513e+00   1.420315e-01
  2.542025e-02    1.371038e+00   1.387184e-01
  2.763070e-02    1.658272e+00   1.463249e-01
  2.984116e-02    1.594366e+00   1.380609e-01
  3.205162e-02    1.287706e+00   1.197277e-01
  3.426207e-02    1.383060e+00   1.200039e-01
  3.647253e-02    1.480241e+00   1.203250e-01
  3.868299e-02    1.543257e+00   1.193067e-01
  4.089344e-02    1.386808e+00   1.099990e-01
  4.310390e-02    1.445333e+00   1.093724e-01
  4.531436e-02    1.445291e+00   1.066703e-01
  4.752481e-02    1.385499e+00   1.019817e-01
  4.973527e-02    1.361784e+00   9.883389e-02
  5.194572e-02    1.504873e+00   1.016606e-01
  5.415618e-02    1.492035e+00   9.913528e-02
  5.636664e-02    1.328487e+00   9.169462e-02
  5.857709e-02    1.320556e+00   8.967943e-02
  6.078755e-02    1.426457e+00   9.149276e-02
  6.299801e-02    1.436817e+00   9.019804e-02
  6.520846e-02    1.457400e+00   8.928946e-02
  6.741892e-02    1.450042e+00   8.758710e-02
  6.962938e-02    1.496406e+00   8.755704e-02
  7.183983e-02    1.485860e+00   8.589365e-02
  7.405029e-02    1.450208e+00   8.357885e-02
  7.626074e-02    1.486286e+00   8.337609e-02
  7.847120e-02    1.443543e+00   8.100072e-02
  8.068166e-02    1.423154e+00   7.931659e-02
  8.289211e-02    1.514798e+00   8.073170e-02
  8.510257e-02    1.477852e+00   7.869821e-02
  8.731303e-02    1.442804e+00   7.676592e-02
  8.952348e-02    1.452919e+00   7.607962e-02
  9.173394e-02    1.551104e+00   7.765228e-02
  9.394439e-02    1.567748e+00   7.714139e-02
  9.615485e-02    1.472117e+00   7.388578e-02
  9.836531e-02    1.466516e+00   7.290979e-02
  1.005758e-01    1.510272e+00   7.317235e-02
  1.027862e-01    1.511801e+00   7.241613e-02
  1.049967e-01    1.425021e+00   6.956177e-02
  1.072071e-01    1.542807e+00   7.162861e-02
  1.094176e-01    1.507632e+00   7.008743e-02
  1.116280e-01    1.453723e+00   6.813660e-02
  1.138385e-01    1.527794e+00   6.916808e-02
  1.160490e-01    1.531214e+00   6.858198e-02
  1.182594e-01    1.481333e+00   6.682082e-02
  1.204699e-01    1.521107e+00   6.708733e-02
  1.226803e-01    1.459899e+00   6.512622e-02
  1.248908e-01    1.425890e+00   6.379028e-02
  1.271012e-01    1.589338e+00   6.675769e-02
  1.293117e-01    1.668316e+00   6.780830e-02
  1.315222e-01    1.652617e+00   6.691744e-02
  1.337326e-01    1.563335e+00   6.454338e-02
  1.359431e-01    1.520656e+00   6.369353e-02
  1.381535e-01    1.582661e+00   6.585131e-02
  1.403640e-01    1.557282e+00   6.560326e-02
  1.425744e-01    1.571140e+00   6.599975e-02
  1.447849e-01    1.582541e+00   6.625406e-02
  1.469953e-01    1.517142e+00   6.482998e-02
  1.492058e-01    1.473716e+00   6.382119e-02
  1.514163e-01    1.465661e+00   6.354085e-02
  1.536267e-01    1.506481e+00   6.429381e-02
  1.558372e-01    1.590580e+00   6.591817e-02
  1.580476e-01    1.645547e+00   6.688481e-02
  1.602581e-01    1.698969e+00   6.778923e-02
  1.624685e-01    1.655837e+00   6.673998e-02
  1.646790e-01    1.613520e+00   6.569248e-02
  1.668895e-01    1.691108e+00   6.705914e-02
  1.690999e-01    1.668532e+00   6.641002e-02
  1.713104e-01    1.767462e+00   6.813832e-02
  1.735208e-01    1.767674e+00   6.793052e-02
  1.757313e-01    1.766860e+00   6.770202e-02
  1.779417e-01    1.802338e+00   6.815536e-02
  1.801522e-01    1.802585e+00   6.794295e-02
  1.823626e-01    1.813731e+00   6.792577e-02
  1.845731e-01    1.811170e+00   6.765794e-02
  1.867836e-01    1.903117e+00   6.911999e-02
  1.889940e-01    1.913157e+00   6.907562e-02
  1.912045e-01    1.994102e+00   7.028628e-02
  1.934149e-01    1.964502e+00   6.952918e-02
  1.956254e-01    2.009944e+00   7.009680e-02
  1.978358e-01    1.984221e+00   6.940813e-02
  2.000463e-01    2.041524e+00   7.016991e-02
  2.022568e-01    2.023615e+00   6.963217e-02
  2.044672e-01    2.047628e+00   6.980414e-02
  2.066777e-01    2.048786e+00   6.959210e-02
  2.088881e-01    2.020406e+00   6.888235e-02
  2.110986e-01    1.953587e+00   6.750146e-02
  2.133090e-01    1.914574e+00   6.660679e-02
  2.155195e-01    1.956763e+00   6.711331e-02
  2.177300e-01    1.933802e+00   6.619424e-02
  2.199404e-01    1.963668e+00   6.494582e-02
  2.221509e-01    1.956839e+00   6.376822e-02
  2.243613e-01    2.002048e+00   6.368292e-02
  2.265718e-01    2.035540e+00   6.350563e-02
  2.287822e-01    2.083091e+00   6.360721e-02
  2.309927e-01    2.192766e+00   6.466572e-02
  2.332031e-01    2.104653e+00   6.281092e-02
  2.354136e-01    2.159163e+00   6.310344e-02
  2.376241e-01    2.269006e+00   6.418663e-02
  2.398345e-01    2.149047e+00   6.200453e-02
  2.420450e-01    2.182731e+00   6.204199e-02
  2.442554e-01    2.136779e+00   6.096254e-02
  2.464659e-01    2.130272e+00   6.046096e-02
  2.486763e-01    2.154361e+00   6.040220e-02
  2.508868e-01    2.121797e+00   5.956582e-02
  2.530973e-01    2.169748e+00   5.986166e-02
  2.553077e-01    2.161792e+00   5.938940e-02
  2.575182e-01    2.039242e+00   5.734020e-02
  2.597286e-01    1.981503e+00   5.619403e-02
  2.619391e-01    2.075899e+00   5.718581e-02
  2.641495e-01    2.100950e+00   5.721143e-02
  2.663600e-01    2.012623e+00   5.568796e-02
  2.685704e-01    1.996408e+00   5.516250e-02
  2.707809e-01    2.034737e+00   5.539394e-02
  2.729914e-01    2.011920e+00   5.479541e-02
  2.752018e-01    1.994104e+00   5.426833e-02
  2.774123e-01    1.992556e+00   5.397017e-02
  2.796227e-01    2.006373e+00   5.388907e-02
  2.818332e-01    2.033880e+00   5.398657e-02
  2.840436e-01    1.985022e+00   5.307565e-02
  2.862541e-01    2.049874e+00   5.367642e-02
  2.884646e-01    1.993870e+00   5.268686e-02
  2.906750e-01    1.985346e+00   5.232484e-02
  2.928855e-01    1.956181e+00   5.169845e-02
  2.950959e-01    1.932294e+00   5.114578e-02
  2.973064e-01    1.931706e+00   5.090819e-02
  2.995168e-01    1.877187e+00   4.995733e-02
  3.017273e-01    1.929969e+00   5.043149e-02
  3.039377e-01    1.959055e+00   5.058759e-02
  3.061482e-01    1.902596e+00   4.963765e-02
  3.083587e-01    1.896433e+00   4.934269e-02
  3.105691e-01    1.916571e+00   4.939209e-02
  3.127796e-01    1.852068e+00   4.834972e-02
  3.149900e-01    1.931515e+00   4.917010e-02
  3.172005e-01    1.890513e+00   4.844651e-02
  3.194109e-01    1.865683e+00   4.792862e-02
  3.216214e-01    1.922784e+00   4.845801e-02
  3.238319e-01    1.906322e+00   4.805898e-02
  3.260423e-01    1.866128e+00   4.736021e-02
  3.282528e-01    1.885998e+00   4.742217e-02
  3.304632e-01    1.863885e+00   4.696069e-02
  3.326737e-01    1.870892e+00   4.686531e-02
  3.348841e-01    1.865059e+00   4.661074e-02
  3.370946e-01    1.851173e+00   4.626217e-02
  3.393050e-01    1.847466e+00   4.604077e-02
  3.415155e-01    1.849261e+00   4.588994e-02
  3.437260e-01    1.838501e+00   4.558664e-02
  3.459364e-01    1.833756e+00   4.535936e-02
  3.481469e-01    1.879415e+00   4.575298e-02
  3.503573e-01    1.843254e+00   4.514564e-02
  3.525678e-01    1.746812e+00   4.379210e-02
  3.547782e-01    1.788047e+00   4.414581e-02
  3.569887e-01    1.749254e+00   4.350959e-02
  3.591992e-01    1.770902e+00   4.362309e-02
  3.614096e-01    1.783810e+00   4.362997e-02
  3.636201e-01    1.812773e+00   4.382820e-02
  3.658305e-01    1.848099e+00   4.410222e-02
  3.680410e-01    1.845035e+00   4.391410e-02
  3.702514e-01    1.770956e+00   4.287879e-02
  3.724619e-01    1.811857e+00   4.322341e-02
  3.746724e-01    1.862949e+00   4.368238e-02
  3.768828e-01    1.832448e+00   4.317753e-02
  3.790933e-01    1.832073e+00   4.303244e-02
  3.813037e-01    1.778943e+00   4.226512e-02
  3.835142e-01    1.835600e+00   4.279190e-02
  3.857246e-01    1.776128e+00   4.195675e-02
  3.879351e-01    1.798469e+00   4.208314e-02
  3.901455e-01    1.862991e+00   4.269502e-02
  3.923560e-01    1.777446e+00   4.157072e-02
  3.945665e-01    1.773579e+00   4.139379e-02
  3.967769e-01    1.790289e+00   4.145808e-02
  3.989874e-01    1.767046e+00   4.105949e-02
  4.011978e-01    1.767658e+00   4.094028e-02
  4.034083e-01    1.785546e+00   4.102061e-02
  4.056187e-01    1.814348e+00   4.122274e-02
  4.078292e-01    1.788954e+00   4.080940e-02
  4.100397e-01    1.788913e+00   4.068431e-02
  4.122501e-01    1.777606e+00   4.043422e-02
  4.144606e-01    1.786404e+00   4.041393e-02
  4.166710e-01    1.843993e+00   4.093811e-02
  4.188815e-01    1.785532e+00   4.016494e-02
  4.210919e-01    1.825303e+00   4.049078e-02
  4.233024e-01    1.790746e+00   3.998769e-02
  4.255128e-01    1.784760e+00   3.980542e-02
  4.277233e-01    1.779437e+00   3.963181e-02
  4.299338e-01    1.732348e+00   3.899140e-02
  4.321442e-01    1.745684e+00   3.902916e-02
  4.343547e-01    1.782706e+00   3.932935e-02
  4.365651e-01    1.755458e+00   3.891674e-02
  4.387756e-01    1.759915e+00   3.885699e-02
  4.409860e-01    1.789108e+00   3.906941e-02
  4.431965e-01    1.790545e+00   3.897702e-02
  4.454070e-01    1.690659e+00   3.776890e-02
  4.476174e-01    1.656511e+00   3.728285e-02
  4.498279e-01    1.727739e+00   3.797235e-02
  4.520383e-01    1.772195e+00   3.835228e-02
  4.542488e-01    1.700519e+00   3.746739e-02
  4.564592e-01    1.675473e+00   3.709067e-02
  4.586697e-01    1.685392e+00   3.710156e-02
  4.608801e-01    1.776219e+00   3.798613e-02
  4.630906e-01    1.760021e+00   3.771243e-02
  4.653011e-01    1.667081e+00   3.660668e-02
  4.675115e-01    1.691768e+00   3.677959e-02
  4.697220e-01    1.734587e+00   3.714463e-02
  4.719324e-01    1.740660e+00   3.711335e-02
  4.741429e-01    1.725953e+00   3.686100e-02
  4.763533e-01    1.707495e+00   3.656937e-02
  4.785638e-01    1.711157e+00   3.651401e-02
  4.807743e-01    1.721791e+00   3.653414e-02
  4.829847e-01    1.665806e+00   3.584449e-02
  4.851952e-01    1.671478e+00   3.581459e-02
  4.874056e-01    1.706587e+00   3.609754e-02
  4.896161e-01    1.714734e+00   3.609387e-02
  4.918265e-01    1.687308e+00   3.571514e-02
  4.940370e-01    1.694891e+00   3.570692e-02
  4.962475e-01    1.706596e+00   3.574153e-02
  4.984579e-01    1.686179e+00   3.543953e-02
  5.006684e-01    1.699407e+00   3.549152e-02
  5.028788e-01    1.709249e+00   3.550791e-02
  5.050893e-01    1.656852e+00   3.487440e-02
  5.072997e-01    1.671936e+00   3.494816e-02
  5.095102e-01    1.692679e+00   3.508008e-02
  5.117206e-01    1.691939e+00   3.498901e-02
  5.139311e-01    1.661021e+00   3.458580e-02
  5.161416e-01    1.721839e+00   3.513005e-02
  5.183520e-01    1.691267e+00   3.473407e-02
  5.205625e-01    1.679462e+00   3.453155e-02
  5.227729e-01    1.669632e+00   3.435003e-02
  5.249834e-01    1.683389e+00   3.441118e-02
  5.271938e-01    1.721484e+00   3.471716e-02
  5.294043e-01    1.766332e+00   3.508533e-02
  5.316148e-01    1.767345e+00   3.501501e-02
  5.338252e-01    1.773571e+00   3.499648e-02
  5.360357e-01    1.726270e+00   3.444804e-02
  5.382461e-01    1.771716e+00   3.481963e-02
  5.404566e-01    1.774299e+00   3.476573e-02
  5.426670e-01    1.739055e+00   3.434115e-02
  5.448775e-01    1.782091e+00   3.468580e-02
  5.470879e-01    1.769291e+00   3.448394e-02
  5.492984e-01    1.770100e+00   3.441513e-02
  5.515089e-01    1.758246e+00   3.422362e-02
  5.537193e-01    1.760629e+00   3.417136e-02
  5.559298e-01    1.787897e+00   3.435941e-02
  5.581402e-01    1.798863e+00   3.438934e-02
  5.603507e-01    1.776362e+00   3.409919e-02
  5.625611e-01    1.798009e+00   3.423189e-02
  5.647716e-01    1.819885e+00   3.436473e-02
  5.669821e-01    1.841284e+00   3.449166e-02
  5.691925e-01    1.777662e+00   3.381780e-02
  5.714030e-01    1.760652e+00   3.358383e-02
  5.736134e-01    1.750097e+00   3.341180e-02
  5.758239e-01    1.731829e+00   3.316603e-02
  5.780343e-01    1.690577e+00   3.269934e-02
  5.802448e-01    1.657783e+00   3.231283e-02
  5.824552e-01    1.666034e+00   3.232518e-02
  5.846657e-01    1.636967e+00   3.197518e-02
  5.868762e-01    1.632125e+00   3.186136e-02
  5.890866e-01    1.617445e+00   3.165196e-02
  5.912971e-01    1.617379e+00   3.158576e-02
  5.935075e-01    1.618824e+00   3.153458e-02
  5.957180e-01    1.626930e+00   3.154856e-02
  5.979284e-01    1.634831e+00   3.156051e-02
  6.001389e-01    1.642397e+00   3.156905e-02
  6.023494e-01    1.618317e+00   3.127315e-02
  6.045598e-01    1.622753e+00   3.125221e-02
  6.067703e-01    1.705080e+00   3.197073e-02
  6.089807e-01    1.740208e+00   3.223347e-02
  6.111912e-01    1.682249e+00   3.162887e-02
  6.134016e-01    1.653635e+00   3.129615e-02
  6.156121e-01    1.683331e+00   3.151315e-02
  6.178226e-01    1.705912e+00   3.166100e-02
  6.200330e-01    1.712087e+00   3.165570e-02
  6.222435e-01    1.670161e+00   3.120376e-02
  6.244539e-01    1.681231e+00   3.124570e-02
  6.266644e-01    1.672210e+00   3.110097e-02
  6.288748e-01    1.731374e+00   3.158477e-02
  6.310853e-01    1.715192e+00   3.137580e-02
  6.332957e-01    1.709846e+00   3.126638e-02
  6.355062e-01    1.742068e+00   3.149829e-02
  6.377167e-01    1.687619e+00   3.094268e-02
  6.399271e-01    1.694781e+00   3.094882e-02
  6.421376e-01    1.714886e+00   3.107244e-02
  6.443480e-01    1.721248e+00   3.107082e-02
  6.465585e-01    1.686915e+00   3.070109e-02
  6.487689e-01    1.709570e+00   3.084821e-02
  6.509794e-01    1.632587e+00   3.008880e-02
  6.531899e-01    1.650147e+00   3.019328e-02
  6.554003e-01    1.646785e+00   3.010581e-02
  6.576108e-01    1.641304e+00   2.999970e-02
  6.598212e-01    1.615029e+00   2.970333e-02
  6.620317e-01    1.599417e+00   2.950460e-02
  6.642421e-01    1.631832e+00   2.974696e-02
  6.664526e-01    1.628552e+00   2.966229e-02
  6.686630e-01    1.611904e+00   2.945574e-02
  6.708735e-01    1.605186e+00   2.934036e-02
  6.730840e-01    1.617296e+00   2.939713e-02
  6.752944e-01    1.619313e+00   2.936198e-02
  6.775049e-01    1.593948e+00   2.907821e-02
  6.797153e-01    1.591996e+00   2.900777e-02
  6.819258e-01    1.636845e+00   2.936048e-02
  6.841362e-01    1.637194e+00   2.931082e-02
  6.863467e-01    1.622082e+00   2.912296e-02
  6.885572e-01    1.624520e+00   2.909263e-02
  6.907676e-01    1.606282e+00   2.887700e-02
  6.929781e-01    1.650508e+00   2.921983e-02
  6.951885e-01    1.619807e+00   2.889552e-02
  6.973990e-01    1.622173e+00   2.886549e-02
  6.996094e-01    1.599251e+00   2.861040e-02
  7.018199e-01    1.582061e+00   2.840629e-02
  7.040303e-01    1.549369e+00   2.806187e-02
  7.062408e-01    1.582837e+00   2.831364e-02
  7.084513e-01    1.624398e+00   2.863307e-02
  7.106617e-01    1.587885e+00   2.826025e-02
  7.128722e-01    1.595614e+00   2.827994e-02
  7.150826e-01    1.587274e+00   2.815730e-02
  7.172931e-01    1.565075e+00   2.791153e-02
  7.195035e-01    1.568238e+00   2.789166e-02
  7.217140e-01    1.557033e+00   2.784104e-02
  7.239245e-01    1.533551e+00   2.785404e-02
  7.261349e-01    1.568004e+00   2.827358e-02
  7.283454e-01    1.583913e+00   2.848926e-02
  7.305558e-01    1.583081e+00   2.853593e-02
  7.327663e-01    1.549515e+00   2.827394e-02
  7.349767e-01    1.564359e+00   2.842535e-02
  7.371872e-01    1.617796e+00   2.889544e-02
  7.393976e-01    1.599479e+00   2.871703e-02
  7.416081e-01    1.558873e+00   2.833408e-02
  7.438186e-01    1.532581e+00   2.795172e-02
  7.460290e-01    1.552994e+00   2.784506e-02
  7.482395e-01    1.522272e+00   2.739996e-02
  7.504499e-01    1.535000e+00   2.737973e-02
  7.526604e-01    1.556813e+00   2.745767e-02
  7.548708e-01    1.599192e+00   2.773878e-02
  7.570813e-01    1.592952e+00   2.763335e-02
  7.592918e-01    1.576477e+00   2.745489e-02
  7.615022e-01    1.581122e+00   2.746142e-02
  7.637127e-01    1.558658e+00   2.723304e-02
  7.659231e-01    1.580031e+00   2.738705e-02
  7.681336e-01    1.621609e+00   2.771298e-02
  7.703440e-01    1.614355e+00   2.761934e-02
  7.725545e-01    1.552086e+00   2.705076e-02
  7.747650e-01    1.570951e+00   2.717651e-02
  7.769754e-01    1.566844e+00   2.708839e-02
  7.791859e-01    1.595168e+00   2.727831e-02
  7.813963e-01    1.599370e+00   2.726129e-02
  7.836068e-01    1.608053e+00   2.728281e-02
  7.858172e-01    1.620240e+00   2.733480e-02
  7.880277e-01    1.592340e+00   2.704689e-02
  7.902381e-01    1.584788e+00   2.693364e-02
  7.924486e-01    1.581119e+00   2.685261e-02
  7.946591e-01    1.612979e+00   2.707331e-02
  7.968695e-01    1.634602e+00   2.720544e-02
  7.990800e-01    1.582045e+00   2.671665e-02
  8.012904e-01    1.615942e+00   2.695464e-02
  8.035009e-01    1.635821e+00   2.707168e-02
  8.057113e-01    1.643262e+00   2.708626e-02
  8.079218e-01    1.628486e+00   2.691769e-02
  8.101323e-01    1.587388e+00   2.653073e-02
  8.123427e-01    1.642405e+00   2.694055e-02
  8.145532e-01    1.661220e+00   2.704807e-02
  8.167636e-01    1.668425e+00   2.706109e-02
  8.189741e-01    1.662406e+00   2.696721e-02
  8.211845e-01    1.636710e+00   2.671313e-02
  8.233950e-01    1.621963e+00   2.654926e-02
  8.256054e-01    1.652637e+00   2.675470e-02
  8.278159e-01    1.639083e+00   2.660081e-02
  8.300264e-01    1.615157e+00   2.636315e-02
  8.322368e-01    1.614809e+00   2.631750e-02
  8.344473e-01    1.663245e+00   2.666559e-02
  8.366577e-01    1.660725e+00   2.660251e-02
  8.388682e-01    1.649749e+00   2.647209e-02
  8.410786e-01    1.610295e+00   2.611194e-02
  8.432891e-01    1.620175e+00   2.615030e-02
  8.454996e-01    1.650694e+00   2.635368e-02
  8.477100e-01    1.633938e+00   2.617797e-02
  8.499205e-01    1.642371e+00   2.620422e-02
  8.521309e-01    1.633474e+00   2.609240e-02
  8.543414e-01    1.636182e+00   2.607328e-02
  8.565518e-01    1.620661e+00   2.590891e-02
  8.587623e-01    1.636082e+00   2.599136e-02
  8.609727e-01    1.619209e+00   2.581690e-02
  8.631832e-01    1.602113e+00   2.564064e-02
  8.653937e-01    1.616626e+00   2.571692e-02
  8.676041e-01    1.632051e+00   2.580036e-02
  8.698146e-01    1.609854e+00   2.558512e-02
  8.720250e-01    1.614771e+00   2.558512e-02
  8.742355e-01    1.592857e+00   2.537224e-02
  8.764459e-01    1.598246e+00   2.537634e-02
  8.786564e-01    1.605939e+00   2.539943e-02
  8.808669e-01    1.595717e+00   2.528008e-02
  8.830773e-01    1.607997e+00   2.533895e-02
  8.852878e-01    1.596615e+00   2.521128e-02
  8.874982e-01    1.593666e+00   2.515142e-02
  8.897087e-01    1.549369e+00   2.476235e-02
  8.919191e-01    1.565238e+00   2.485148e-02
  8.941296e-01    1.573552e+00   2.488042e-02
  8.963401e-01    1.582317e+00   2.491341e-02
  8.985505e-01    1.589234e+00   2.493095e-02
  9.007610e-01    1.580239e+00   2.482380e-02
  9.029714e-01    1.540104e+00   2.447136e-02
  9.051819e-01    1.538436e+00   2.442161e-02
  9.073923e-01    1.582241e+00   2.473047e-02
  9.096028e-01    1.594865e+00   2.479411e-02
  9.118132e-01    1.569846e+00   2.456296e-02
  9.140237e-01    1.615793e+00   2.488303e-02
  9.162342e-01    1.599373e+00   2.472173e-02
  9.184446e-01    1.583484e+00   2.456304e-02
  9.206551e-01    1.599420e+00   2.465075e-02
  9.228655e-01    1.605880e+00   2.466517e-02
  9.250760e-01    1.613421e+00   2.468755e-02
  9.272864e-01    1.621793e+00   2.471704e-02
  9.294969e-01    1.607454e+00   2.457166e-02
  9.317074e-01    1.672127e+00   2.502568e-02
  9.339178e-01    1.660815e+00   2.490682e-02
  9.361283e-01    1.639823e+00   2.471244e-02
  9.383387e-01    1.650125e+00   2.475622e-02
  9.405492e-01    1.656012e+00   2.476571e-02
  9.427596e-01    1.643910e+00   2.463954e-02
  9.449701e-01    1.642509e+00   2.459556e-02
  9.471805e-01    1.654603e+00   2.465098e-02
  9.493910e-01    1.649419e+00   2.457856e-02
  9.516015e-01    1.666932e+00   2.467419e-02
  9.538119e-01    1.708568e+00   2.494622e-02
  9.560224e-01    1.731756e+00   2.507957e-02
  9.582328e-01    1.728610e+00   2.502318e-02
  9.604433e-01    1.727327e+00   2.497847e-02
  9.626537e-01    1.743875e+00   2.506407e-02
  9.648642e-01    1.795324e+00   2.539628e-02
  9.670747e-01    1.811448e+00   2.547490e-02
  9.692851e-01    1.856861e+00   2.575796e-02
  9.714956e-01    1.844647e+00   2.563692e-02
  9.737060e-01    1.864010e+00   2.573728e-02
  9.759165e-01    1.830050e+00   2.546577e-02
  9.781269e-01    1.872903e+00   2.572848e-02
  9.803374e-01    1.972803e+00   2.636923e-02
  9.825478e-01    1.998264e+00   2.650385e-02
  9.847583e-01    1.996062e+00   2.645327e-02
  9.869688e-01    1.956862e+00   2.615718e-02
  9.891792e-01    1.925423e+00   2.591174e-02
  9.913897e-01    1.828006e+00   2.521364e-02
  9.936001e-01    1.792814e+00   2.493707e-02
  9.958106e-01    1.785522e+00   2.485248e-02
  9.980210e-01    1.744376e+00   2.453259e-02
  1.000231e+00    1.717511e+00   2.447628e-02
  1.002442e+00    1.683178e+00   2.435918e-02
  1.004652e+00    1.630469e+00   2.404160e-02
  1.006863e+00    1.631691e+00   2.410050e-02
  1.009073e+00    1.654443e+00   2.430509e-02
  1.011284e+00    1.665469e+00   2.441856e-02
  1.013494e+00    1.638868e+00   2.424678e-02
  1.015705e+00    1.614706e+00   2.409014e-02
  1.017915e+00    1.608115e+00   2.405747e-02
  1.020126e+00    1.658600e+00   2.444869e-02
  1.022336e+00    1.711027e+00   2.484431e-02
  1.024547e+00    1.782492e+00   2.536989e-02
  1.026757e+00    1.727825e+00   2.498670e-02
  1.028967e+00    1.658207e+00   2.448609e-02
  1.031178e+00    1.551779e+00   2.369349e-02
  1.033388e+00    1.496772e+00   2.327472e-02
  1.035599e+00    1.545145e+00   2.365126e-02
  1.037809e+00    1.513532e+00   2.341133e-02
  1.040020e+00    1.515901e+00   2.343090e-02
  1.042230e+00    1.511055e+00   2.339536e-02
  1.044441e+00    1.531852e+00   2.355557e-02
  1.046651e+00    1.540877e+00   2.362505e-02
  1.048862e+00    1.570623e+00   2.385115e-02
  1.051072e+00    1.577793e+00   2.390317e-02
  1.053282e+00    1.506699e+00   2.335747e-02
  1.055493e+00    1.493975e+00   2.325430e-02
  1.057703e+00    1.517416e+00   2.343452e-02
  1.059914e+00    1.499042e+00   2.328793e-02
  1.062124e+00    1.492568e+00   2.323353e-02
  1.064335e+00    1.486769e+00   2.318491e-02
  1.066545e+00    1.474907e+00   2.308625e-02
  1.068756e+00    1.459868e+00   2.296454e-02
  1.070966e+00    1.443627e+00   2.282999e-02
  1.073177e+00    1.450281e+00   2.287651e-02
  1.075387e+00    1.483645e+00   2.313292e-02
  1.077597e+00    1.467758e+00   2.300148e-02
  1.079808e+00    1.450889e+00   2.273677e-02
  1.082018e+00    1.425369e+00   2.234932e-02
  1.084229e+00    1.414150e+00   2.215288e-02
  1.086439e+00    1.400565e+00   2.196046e-02
  1.088650e+00    1.408999e+00   2.195196e-02
  1.090860e+00    1.448568e+00   2.219061e-02
  1.093071e+00    1.439748e+00   2.206099e-02
  1.095281e+00    1.441046e+00   2.201378e-02
  1.097492e+00    1.421719e+00   2.181119e-02
  1.099702e+00    1.421046e+00   2.175498e-02
  1.101912e+00    1.413726e+00   2.165049e-02
  1.104123e+00    1.398029e+00   2.148235e-02
  1.106333e+00    1.383822e+00   2.132929e-02
  1.108544e+00    1.371500e+00   2.119075e-02
  1.110754e+00    1.391195e+00   2.129987e-02
  1.112965e+00    1.387692e+00   2.123301e-02
  1.115175e+00    1.400089e+00   2.128674e-02
  1.117386e+00    1.399246e+00   2.124130e-02
  1.119596e+00    1.410714e+00   2.129030e-02
  1.121807e+00    1.393995e+00   2.112518e-02
  1.124017e+00    1.374883e+00   2.094362e-02
  1.126228e+00    1.370878e+00   2.087779e-02
  1.128438e+00    1.363001e+00   2.078145e-02
  1.130648e+00    1.406716e+00   2.107766e-02
  1.132859e+00    1.393397e+00   2.094334e-02
  1.135069e+00    1.374149e+00   2.076367e-02
  1.137280e+00    1.376243e+00   2.074667e-02
  1.139490e+00    1.343659e+00   2.046705e-02
  1.141701e+00    1.356111e+00   2.052887e-02
  1.143911e+00    1.363973e+00   2.055668e-02
  1.146122e+00    1.374338e+00   2.060270e-02
  1.148332e+00    1.361130e+00   2.047178e-02
  1.150543e+00    1.361793e+00   2.044612e-02
  1.152753e+00    1.357113e+00   2.038031e-02
  1.154963e+00    1.364301e+00   2.040329e-02
  1.157174e+00    1.358893e+00   2.033280e-02
  1.159384e+00    1.386750e+00   2.051014e-02
  1.161595e+00    1.387946e+00   2.048897e-02
  1.163805e+00    1.372068e+00   2.034212e-02
  1.166016e+00    1.344091e+00   2.010449e-02
  1.168226e+00    1.368629e+00   2.025819e-02
  1.170437e+00    1.405146e+00   2.049764e-02
  1.172647e+00    1.418291e+00   2.056385e-02
  1.174858e+00    1.396933e+00   2.038000e-02
  1.177068e+00    1.386509e+00   2.027532e-02
  1.179278e+00    1.372895e+00   2.014684e-02
  1.181489e+00    1.397390e+00   2.029837e-02
  1.183699e+00    1.393482e+00   2.024208e-02
  1.185910e+00    1.368881e+00   2.003470e-02
  1.188120e+00    1.354122e+00   1.989975e-02
  1.190331e+00    1.357193e+00   1.989551e-02
  1.192541e+00    1.367326e+00   1.994213e-02
  1.194752e+00    1.357603e+00   1.984402e-02
  1.196962e+00    1.341458e+00   1.970002e-02
  1.199173e+00    1.334600e+00   1.962326e-02
  1.201383e+00    1.337166e+00   1.961507e-02
  1.203593e+00    1.348398e+00   1.967249e-02
  1.205804e+00    1.345796e+00   1.962760e-02
  1.208014e+00    1.361762e+00   1.971674e-02
  1.210225e+00    1.351728e+00   1.961861e-02
  1.212435e+00    1.336613e+00   1.948396e-02
  1.214646e+00    1.358942e+00   1.961982e-02
  1.216856e+00    1.365320e+00   1.964020e-02
  1.219067e+00    1.352042e+00   1.951998e-02
  1.221277e+00    1.342666e+00   1.942723e-02
  1.223488e+00    1.321262e+00   1.924628e-02
  1.225698e+00    1.307644e+00   1.912036e-02
  1.227909e+00    1.312844e+00   1.912860e-02
  1.230119e+00    1.312175e+00   1.909230e-02
  1.232329e+00    1.348930e+00   1.932715e-02
  1.234540e+00    1.343234e+00   1.925609e-02
  1.236750e+00    1.325649e+00   1.909966e-02
  1.238961e+00    1.291646e+00   1.882671e-02
  1.241171e+00    1.328034e+00   1.906607e-02
  1.243382e+00    1.338534e+00   1.911790e-02
  1.245592e+00    1.326043e+00   1.900459e-02
  1.247803e+00    1.357745e+00   1.920670e-02
  1.250013e+00    1.326489e+00   1.896101e-02
  1.252224e+00    1.342176e+00   1.904961e-02
  1.254434e+00    1.333278e+00   1.896277e-02
  1.256644e+00    1.347044e+00   1.903722e-02
  1.258855e+00    1.345689e+00   1.900443e-02
  1.261065e+00    1.330076e+00   1.887064e-02
  1.263276e+00    1.351575e+00   1.899960e-02
  1.265486e+00    1.330522e+00   1.882834e-02
  1.267697e+00    1.335189e+00   1.883842e-02
  1.269907e+00    1.333661e+00   1.880509e-02
  1.272118e+00    1.364322e+00   1.899732e-02
  1.274328e+00    1.355932e+00   1.891605e-02
  1.276539e+00    1.324579e+00   1.867352e-02
  1.278749e+00    1.302122e+00   1.849263e-02
  1.280959e+00    1.344808e+00   1.877080e-02
  1.283170e+00    1.361455e+00   1.886411e-02
  1.285380e+00    1.344894e+00   1.872664e-02
  1.287591e+00    1.340885e+00   1.867671e-02
  1.289801e+00    1.346664e+00   1.869575e-02
  1.292012e+00    1.345117e+00   1.866793e-02
  1.294222e+00    1.352244e+00   1.870107e-02
  1.296433e+00    1.345685e+00   1.864009e-02
  1.298643e+00    1.338080e+00   1.857094e-02
  1.300854e+00    1.362972e+00   1.872639e-02
  1.303064e+00    1.360946e+00   1.869316e-02
  1.305274e+00    1.320068e+00   1.838910e-02
  1.307485e+00    1.323136e+00   1.838910e-02
  1.309695e+00    1.348195e+00   1.854020e-02
  1.311906e+00    1.366567e+00   1.864426e-02
  1.314116e+00    1.375049e+00   1.868105e-02
  1.316327e+00    1.351600e+00   1.849938e-02
  1.318537e+00    1.345246e+00   1.843400e-02
  1.320748e+00    1.365212e+00   1.854861e-02
  1.322958e+00    1.376786e+00   1.860635e-02
  1.325169e+00    1.367440e+00   1.852194e-02
  1.327379e+00    1.344884e+00   1.834679e-02
  1.329589e+00    1.350405e+00   1.836332e-02
  1.331800e+00    1.332667e+00   1.822177e-02
  1.334010e+00    1.361216e+00   1.839514e-02
  1.336221e+00    1.376055e+00   1.847319e-02
  1.338431e+00    1.373536e+00   1.843523e-02
  1.340642e+00    1.363980e+00   1.843548e-02
  1.342852e+00    1.364175e+00   1.853800e-02
  1.345063e+00    1.357249e+00   1.854051e-02
  1.347273e+00    1.334913e+00   1.842236e-02
  1.349484e+00    1.344441e+00   1.851560e-02
  1.351694e+00    1.318188e+00   1.835638e-02
  1.353905e+00    1.327982e+00   1.844228e-02
  1.356115e+00    1.343806e+00   1.856686e-02
  1.358325e+00    1.326092e+00   1.845727e-02
  1.360536e+00    1.332905e+00   1.851618e-02
  1.362746e+00    1.314395e+00   1.839660e-02
  1.364957e+00    1.330598e+00   1.851725e-02
  1.367167e+00    1.332085e+00   1.853471e-02
  1.369378e+00    1.339879e+00   1.859484e-02
  1.371588e+00    1.324149e+00   1.849051e-02
  1.373799e+00    1.277157e+00   1.816301e-02
  1.376009e+00    1.273902e+00   1.814314e-02
  1.378220e+00    1.300912e+00   1.833698e-02
  1.380430e+00    1.290543e+00   1.826642e-02
  1.382640e+00    1.284639e+00   1.822547e-02
  1.384851e+00    1.305189e+00   1.837155e-02
  1.387061e+00    1.304420e+00   1.836642e-02
  1.389272e+00    1.314644e+00   1.843849e-02
  1.391482e+00    1.284595e+00   1.822587e-02
  1.393693e+00    1.270662e+00   1.812587e-02
  1.395903e+00    1.284655e+00   1.822393e-02
  1.398114e+00    1.251610e+00   1.798665e-02
  1.400324e+00    1.277317e+00   1.816828e-02
  1.402535e+00    1.288632e+00   1.824626e-02
  1.404745e+00    1.290062e+00   1.825401e-02
  1.406955e+00    1.300274e+00   1.832338e-02
  1.409166e+00    1.281213e+00   1.818529e-02
  1.411376e+00    1.240014e+00   1.788743e-02
  1.413587e+00    1.227108e+00   1.779033e-02
  1.415797e+00    1.263516e+00   1.804879e-02
  1.418008e+00    1.268752e+00   1.804432e-02
  1.420218e+00    1.270698e+00   1.790837e-02
  1.422429e+00    1.251085e+00   1.768495e-02
  1.424639e+00    1.268159e+00   1.774058e-02
  1.426850e+00    1.251770e+00   1.757126e-02
  1.429060e+00    1.275442e+00   1.768754e-02
  1.431270e+00    1.263881e+00   1.756299e-02
  1.433481e+00    1.247211e+00   1.740622e-02
  1.435691e+00    1.225092e+00   1.721340e-02
  1.437902e+00    1.246670e+00   1.732822e-02
  1.440112e+00    1.238336e+00   1.723531e-02
  1.442323e+00    1.246368e+00   1.725836e-02
  1.444533e+00    1.248418e+00   1.724028e-02
  1.446744e+00    1.280982e+00   1.743241e-02
  1.448954e+00    1.276204e+00   1.736962e-02
  1.451165e+00    1.252497e+00   1.717798e-02
  1.453375e+00    1.243360e+00   1.708745e-02
  1.455586e+00    1.239567e+00   1.703355e-02
  1.457796e+00    1.262597e+00   1.716361e-02
  1.460006e+00    1.280758e+00   1.725926e-02
  1.462217e+00    1.252956e+00   1.704487e-02
  1.464427e+00    1.235198e+00   1.689837e-02
  1.466638e+00    1.249297e+00   1.696942e-02
  1.468848e+00    1.275976e+00   1.712424e-02
  1.471059e+00    1.298151e+00   1.724704e-02
  1.473269e+00    1.273299e+00   1.705674e-02
  1.475480e+00    1.267579e+00   1.699463e-02
  1.477690e+00    1.258571e+00   1.691038e-02
  1.479901e+00    1.278743e+00   1.702143e-02
  1.482111e+00    1.255404e+00   1.684217e-02
  1.484321e+00    1.252058e+00   1.679673e-02
  1.486532e+00    1.252271e+00   1.677594e-02
  1.488742e+00    1.256205e+00   1.677971e-02
  1.490953e+00    1.249580e+00   1.671293e-02
  1.493163e+00    1.274056e+00   1.685344e-02
  1.495374e+00    1.256868e+00   1.671794e-02
  1.497584e+00    1.261983e+00   1.673025e-02
  1.499795e+00    1.267893e+00   1.674768e-02
  1.502005e+00    1.268483e+00   1.672982e-02
  1.504216e+00    1.258685e+00   1.664405e-02
  1.506426e+00    1.241932e+00   1.651224e-02
  1.508636e+00    1.244921e+00   1.651173e-02
  1.510847e+00    1.256315e+00   1.656533e-02
  1.513057e+00    1.224782e+00   1.633134e-02
  1.515268e+00    1.242354e+00   1.642246e-02
  1.517478e+00    1.245654e+00   1.641921e-02
  1.519689e+00    1.248338e+00   1.641198e-02
  1.521899e+00    1.237301e+00   1.631632e-02
  1.524110e+00    1.252849e+00   1.639817e-02
  1.526320e+00    1.256997e+00   1.640568e-02
  1.528531e+00    1.255303e+00   1.637481e-02
  1.530741e+00    1.245910e+00   1.629435e-02
  1.532951e+00    1.215358e+00   1.607399e-02
  1.535162e+00    1.217200e+00   1.617164e-02
  1.537372e+00    1.216408e+00   1.623240e-02
  1.539583e+00    1.189586e+00   1.608586e-02
  1.541793e+00    1.205872e+00   1.620241e-02
  1.544004e+00    1.227890e+00   1.634992e-02
  1.546214e+00    1.212161e+00   1.624339e-02
  1.548425e+00    1.245278e+00   1.646403e-02
  1.550635e+00    1.247756e+00   1.649012e-02
  1.552846e+00    1.228672e+00   1.637310e-02
  1.555056e+00    1.219669e+00   1.627196e-02
  1.557266e+00    1.234597e+00   1.626120e-02
  1.559477e+00    1.224845e+00   1.613822e-02
  1.561687e+00    1.229538e+00   1.613862e-02
  1.563898e+00    1.240662e+00   1.619431e-02
  1.566108e+00    1.251257e+00   1.624733e-02
  1.568319e+00    1.257111e+00   1.626958e-02
  1.570529e+00    1.262695e+00   1.628037e-02
  1.572740e+00    1.250289e+00   1.617251e-02
  1.574950e+00    1.242290e+00   1.609440e-02
  1.577161e+00    1.235305e+00   1.602371e-02
  1.579371e+00    1.234102e+00   1.599234e-02
  1.581582e+00    1.234870e+00   1.597763e-02
  1.583792e+00    1.244748e+00   1.602337e-02
  1.586002e+00    1.228635e+00   1.590183e-02
  1.588213e+00    1.211727e+00   1.577500e-02
  1.590423e+00    1.226810e+00   1.585296e-02
  1.592634e+00    1.232335e+00   1.586708e-02
  1.594844e+00    1.241993e+00   1.590776e-02
  1.597055e+00    1.216053e+00   1.572048e-02
  1.599265e+00    1.234134e+00   1.581625e-02
  1.601476e+00    1.247756e+00   1.588295e-02
  1.603686e+00    1.243009e+00   1.583292e-02
  1.605897e+00    1.228487e+00   1.572009e-02
  1.608107e+00    1.250930e+00   1.584336e-02
  1.610317e+00    1.238978e+00   1.574819e-02
  1.612528e+00    1.193432e+00   1.543717e-02
  1.614738e+00    1.206206e+00   1.550079e-02
  1.616949e+00    1.198171e+00   1.543033e-02
  1.619159e+00    1.216299e+00   1.552794e-02
  1.621370e+00    1.225810e+00   1.557004e-02
  1.623580e+00    1.197282e+00   1.536959e-02
  1.625791e+00    1.183239e+00   1.526111e-02
  1.628001e+00    1.174358e+00   1.518568e-02
  1.630212e+00    1.182104e+00   1.521801e-02
  1.632422e+00    1.177421e+00   1.517002e-02
  1.634632e+00    1.159112e+00   1.503446e-02
  1.636843e+00    1.143469e+00   1.491539e-02
  1.639053e+00    1.121528e+00   1.475469e-02
  1.641264e+00    1.140871e+00   1.486449e-02
  1.643474e+00    1.156290e+00   1.494727e-02
  1.645685e+00    1.155238e+00   1.492382e-02
  1.647895e+00    1.170219e+00   1.500357e-02
  1.650106e+00    1.151311e+00   1.486489e-02
  1.652316e+00    1.113208e+00   1.460059e-02
  1.654527e+00    1.108260e+00   1.455169e-02
  1.656737e+00    1.124588e+00   1.464200e-02
  1.658947e+00    1.135151e+00   1.469431e-02
  1.661158e+00    1.131838e+00   1.465655e-02
  1.663368e+00    1.124980e+00   1.459606e-02
  1.665579e+00    1.089903e+00   1.435075e-02
  1.667789e+00    1.091782e+00   1.434707e-02
  1.670000e+00    1.069634e+00   1.418561e-02
  1.672210e+00    1.082594e+00   1.425559e-02
  1.674421e+00    1.071548e+00   1.416761e-02
  1.676631e+00    1.069436e+00   1.413797e-02
  1.678842e+00    1.089922e+00   1.425705e-02
  1.681052e+00    1.092361e+00   1.425761e-02
  1.683263e+00    1.071858e+00   1.410817e-02
  1.685473e+00    1.057148e+00   1.399607e-02
  1.687683e+00    1.078296e+00   1.411997e-02
  1.689894e+00    1.086280e+00   1.415635e-02
  1.692104e+00    1.097088e+00   1.421155e-02
  1.694315e+00    1.044580e+00   1.385298e-02
  1.696525e+00    1.028884e+00   1.373363e-02
  1.698736e+00    1.044183e+00   1.382068e-02
  1.700946e+00    1.040782e+00   1.378317e-02
  1.703157e+00    1.032073e+00   1.371091e-02
  1.705367e+00    1.045972e+00   1.378847e-02
  1.707578e+00    1.040887e+00   1.374040e-02
  1.709788e+00    1.044782e+00   1.375197e-02
  1.711998e+00    1.049974e+00   1.377104e-02
  1.714209e+00    1.016193e+00   1.353342e-02
  1.716419e+00    1.008703e+00   1.346938e-02
  1.718630e+00    9.839324e-01   1.328902e-02
  1.720840e+00    9.990534e-01   1.337675e-02
  1.723051e+00    1.001358e+00   1.337846e-02
  1.725261e+00    1.003938e+00   1.338115e-02
  1.727472e+00    1.008049e+00   1.339441e-02
  1.729682e+00    9.758053e-01   1.316527e-02
  1.731893e+00    9.801964e-01   1.318115e-02
  1.734103e+00    9.930214e-01   1.325342e-02
  1.736313e+00    9.881984e-01   1.320733e-02
  1.738524e+00    9.575916e-01   1.298766e-02
  1.740734e+00    9.692163e-01   1.305275e-02
  1.742945e+00    9.835464e-01   1.313553e-02
  1.745155e+00    9.634189e-01   1.298719e-02
  1.747366e+00    9.502839e-01   1.288481e-02
  1.749576e+00    9.627249e-01   1.295536e-02
  1.751787e+00    9.628096e-01   1.294273e-02
  1.753997e+00    9.659936e-01   1.295083e-02
  1.756208e+00    9.612491e-01   1.290588e-02
  1.758418e+00    9.566373e-01   1.286187e-02
  1.760628e+00    9.442440e-01   1.276512e-02
  1.762839e+00    9.314447e-01   1.266531e-02
  1.765049e+00    9.259508e-01   1.261504e-02
  1.767260e+00    9.170422e-01   1.254168e-02
  1.769470e+00    9.242282e-01   1.257796e-02
  1.771681e+00    9.179971e-01   1.252257e-02
  1.773891e+00    9.176259e-01   1.250723e-02
  1.776102e+00    9.075917e-01   1.242604e-02
  1.778312e+00    9.194232e-01   1.249422e-02
  1.780523e+00    9.084800e-01   1.240714e-02
  1.782733e+00    9.131597e-01   1.242654e-02
  1.784944e+00    9.041623e-01   1.235251e-02
  1.787154e+00    9.121109e-01   1.239428e-02
  1.789364e+00    9.026191e-01   1.231734e-02
  1.791575e+00    9.125951e-01   1.237276e-02
  1.793785e+00    9.214938e-01   1.242056e-02
  1.795996e+00    9.140899e-01   1.235807e-02
  1.798206e+00    9.295610e-01   1.244964e-02
  1.800417e+00    9.066789e-01   1.228285e-02
  1.802627e+00    8.885245e-01   1.214749e-02
  1.804838e+00    8.858025e-01   1.211693e-02
  1.807048e+00    8.801490e-01   1.206557e-02
  1.809259e+00    8.860754e-01   1.209267e-02
  1.811469e+00    8.921077e-01   1.211892e-02
  1.813679e+00    9.169608e-01   1.227145e-02
  1.815890e+00    9.276548e-01   1.232783e-02
  1.818100e+00    8.925877e-01   1.207751e-02
  1.820311e+00    8.990210e-01   1.210612e-02
  1.822521e+00    8.933308e-01   1.205289e-02
  1.824732e+00    8.839465e-01   1.197465e-02
  1.826942e+00    8.912798e-01   1.201185e-02
  1.829153e+00    8.985650e-01   1.204907e-02
  1.831363e+00    8.951747e-01   1.201420e-02
  1.833574e+00    8.976067e-01   1.201873e-02
  1.835784e+00    9.152272e-01   1.212446e-02
  1.837994e+00    8.935747e-01   1.196840e-02
  1.840205e+00    8.553252e-01   1.169836e-02
  1.842415e+00    8.706341e-01   1.179083e-02
  1.844626e+00    8.814168e-01   1.185200e-02
  1.846836e+00    8.738174e-01   1.178934e-02
  1.849047e+00    8.668969e-01   1.173093e-02
  1.851257e+00    8.537232e-01   1.163195e-02
  1.853468e+00    8.724546e-01   1.175000e-02
  1.855678e+00    8.690370e-01   1.171804e-02
  1.857889e+00    8.574812e-01   1.163140e-02
  1.860099e+00    8.387062e-01   1.149479e-02
  1.862309e+00    8.637438e-01   1.165656e-02
  1.864520e+00    8.620425e-01   1.163648e-02
  1.866730e+00    8.536816e-01   1.157052e-02
  1.868941e+00    8.599677e-01   1.160206e-02
  1.871151e+00    8.672501e-01   1.163958e-02
  1.873362e+00    8.529767e-01   1.153206e-02
  1.875572e+00    8.389771e-01   1.142613e-02
  1.877783e+00    8.336826e-01   1.137873e-02
  1.879993e+00    8.224424e-01   1.129073e-02
  1.882204e+00    8.192236e-01   1.125789e-02
  1.884414e+00    8.459774e-01   1.142915e-02
  1.886624e+00    8.395635e-01   1.137471e-02
  1.888835e+00    8.311367e-01   1.130657e-02
  1.891045e+00    8.317505e-01   1.129991e-02
  1.893256e+00    8.180444e-01   1.119549e-02
  1.895466e+00    8.078369e-01   1.111443e-02
  1.897677e+00    8.216110e-01   1.119795e-02
  1.899887e+00    8.286693e-01   1.123500e-02
  1.902098e+00    8.445939e-01   1.133152e-02
  1.904308e+00    8.427817e-01   1.130870e-02
  1.906519e+00    8.278083e-01   1.119697e-02
  1.908729e+00    8.326415e-01   1.121897e-02
  1.910940e+00    8.434781e-01   1.128051e-02
  1.913150e+00    8.393445e-01   1.124216e-02
  1.915360e+00    8.388706e-01   1.122828e-02
  1.917571e+00    8.233855e-01   1.111329e-02
  1.919781e+00    8.276105e-01   1.113103e-02
  1.921992e+00    8.170624e-01   1.104927e-02
  1.924202e+00    8.206449e-01   1.106269e-02
  1.926413e+00    8.112227e-01   1.098873e-02
  1.928623e+00    8.057463e-01   1.094108e-02
  1.930834e+00    8.138647e-01   1.098564e-02
  1.933044e+00    8.009196e-01   1.088732e-02
  1.935255e+00    7.864729e-01   1.077850e-02
  1.937465e+00    7.926750e-01   1.081063e-02
  1.939675e+00    7.947053e-01   1.081367e-02
  1.941886e+00    7.968478e-01   1.081805e-02
  1.944096e+00    8.034720e-01   1.085269e-02
  1.946307e+00    8.127748e-01   1.090496e-02
  1.948517e+00    7.905420e-01   1.074439e-02
  1.950728e+00    7.874833e-01   1.071341e-02
  1.952938e+00    7.910265e-01   1.072743e-02
  1.955149e+00    8.004583e-01   1.078095e-02
  1.957359e+00    7.681322e-01   1.055115e-02
  1.959570e+00    7.730018e-01   1.057380e-02
  1.961780e+00    7.801083e-01   1.061248e-02
  1.963990e+00    7.716640e-01   1.054490e-02
  1.966201e+00    7.670555e-01   1.050345e-02
  1.968411e+00    7.949028e-01   1.068221e-02
  1.970622e+00    7.964616e-01   1.068255e-02
  1.972832e+00    8.031465e-01   1.071721e-02
  1.975043e+00    7.929865e-01   1.063913e-02
  1.977253e+00    7.763094e-01   1.051675e-02
  1.979464e+00    7.770331e-01   1.051166e-02
  1.981674e+00    7.773237e-01   1.050341e-02
  1.983885e+00    7.757040e-01   1.048247e-02
  1.986095e+00    7.734510e-01   1.045759e-02
  1.988305e+00    7.748968e-01   1.045747e-02
  1.990516e+00    7.987649e-01   1.060727e-02
  1.992726e+00    7.613773e-01   1.034649e-02
  1.994937e+00    7.677929e-01   1.037991e-02
  1.997147e+00    7.660639e-01   1.035856e-02
  1.999358e+00    7.570629e-01   1.028777e-02
  2.001568e+00    7.694262e-01   1.036066e-02
  2.003779e+00    7.711341e-01   1.036024e-02
  2.005989e+00    7.660127e-01   1.031380e-02
  2.008200e+00    7.666873e-01   1.030686e-02
  2.010410e+00    7.458122e-01   1.015400e-02
  2.012621e+00    7.492806e-01   1.016601e-02
  2.014831e+00    7.575233e-01   1.021039e-02
  2.017041e+00    7.537667e-01   1.017474e-02
  2.019252e+00    7.680212e-01   1.026052e-02
  2.021462e+00    7.712735e-01   1.027269e-02
  2.023673e+00    7.582324e-01   1.017612e-02
  2.025883e+00    7.417853e-01   1.005577e-02
  2.028094e+00    7.378596e-01   1.001963e-02
  2.030304e+00    7.386087e-01   1.001532e-02
  2.032515e+00    7.394742e-01   1.001203e-02
  2.034725e+00    7.315661e-01   9.949065e-03
  2.036936e+00    7.649081e-01   1.016387e-02
  2.039146e+00    7.588206e-01   1.011380e-02
  2.041356e+00    7.444804e-01   1.000820e-02
  2.043567e+00    7.534859e-01   1.005924e-02
  2.045777e+00    7.689676e-01   1.015273e-02
  2.047988e+00    7.585821e-01   1.007456e-02
  2.050198e+00    7.480145e-01   9.995733e-03
  2.052409e+00    7.587659e-01   1.005962e-02
  2.054619e+00    7.681705e-01   1.011432e-02
  2.056830e+00    7.696763e-01   1.011697e-02
  2.059040e+00    7.545422e-01   1.000948e-02
  2.061251e+00    7.479668e-01   9.958540e-03
  2.063461e+00    7.450153e-01   9.931280e-03
  2.065671e+00    7.448394e-01   9.921420e-03
  2.067882e+00    7.279807e-01   9.799625e-03
  2.070092e+00    7.248530e-01   9.769495e-03
  2.072303e+00    7.125624e-01   9.677367e-03
  2.074513e+00    7.299757e-01   9.785693e-03
  2.076724e+00    7.206765e-01   9.713837e-03
  2.078934e+00    7.367763e-01   9.812793e-03
  2.081145e+00    7.429335e-01   9.844612e-03
  2.083355e+00    7.455527e-01   9.852769e-03
  2.085566e+00    7.332336e-01   9.762161e-03
  2.087776e+00    7.258410e-01   9.703416e-03
  2.089986e+00    7.281757e-01   9.710271e-03
  2.092197e+00    7.277052e-01   9.698251e-03
  2.094407e+00    7.200639e-01   9.638062e-03
  2.096618e+00    7.176248e-01   9.612937e-03
  2.098828e+00    7.134825e-01   9.575965e-03
  2.101039e+00    7.336290e-01   9.701250e-03
  2.103249e+00    7.296361e-01   9.666153e-03
  2.105460e+00    7.108273e-01   9.531858e-03
  2.107670e+00    7.107943e-01   9.523009e-03
  2.109881e+00    7.009769e-01   9.448010e-03
  2.112091e+00    7.138104e-01   9.525196e-03
  2.114301e+00    7.141379e-01   9.518661e-03
  2.116512e+00    7.052630e-01   9.450652e-03
  2.118722e+00    7.048141e-01   9.438917e-03
  2.120933e+00    7.107135e-01   9.469541e-03
  2.123143e+00    7.028615e-01   9.408275e-03
  2.125354e+00    7.038168e-01   9.406229e-03
  2.127564e+00    6.991758e-01   9.366534e-03
  2.129775e+00    7.029347e-01   9.383024e-03
  2.131985e+00    7.054154e-01   9.390573e-03
  2.134196e+00    7.085106e-01   9.402578e-03
  2.136406e+00    6.988207e-01   9.329424e-03
  2.138617e+00    6.983220e-01   9.317683e-03
  2.140827e+00    7.043246e-01   9.373668e-03
  2.143037e+00    7.071939e-01   9.438213e-03
  2.145248e+00    6.997976e-01   9.410642e-03
  2.147458e+00    7.008593e-01   9.432881e-03
  2.149669e+00    6.951731e-01   9.406313e-03
  2.151879e+00    6.975183e-01   9.431379e-03
  2.154090e+00    6.935937e-01   9.412054e-03
  2.156300e+00    7.037165e-01   9.487134e-03
  2.158511e+00    6.793988e-01   9.326993e-03
  2.160721e+00    6.890633e-01   9.397872e-03
  2.162932e+00    6.956760e-01   9.446600e-03
  2.165142e+00    6.919237e-01   9.424096e-03
  2.167352e+00    7.075294e-01   9.532714e-03
  2.169563e+00    6.982665e-01   9.472080e-03
  2.171773e+00    6.972256e-01   9.467461e-03
  2.173984e+00    6.955169e-01   9.457264e-03
  2.176194e+00    6.861539e-01   9.394599e-03
  2.178405e+00    6.801419e-01   9.354030e-03
  2.180615e+00    6.786029e-01   9.344129e-03
  2.182826e+00    6.822959e-01   9.370173e-03
  2.185036e+00    6.854395e-01   9.391801e-03
  2.187247e+00    6.701810e-01   9.286634e-03
  2.189457e+00    6.791034e-01   9.347831e-03
  2.191667e+00    6.831667e-01   9.375571e-03
  2.193878e+00    6.969266e-01   9.468962e-03
  2.196088e+00    6.788911e-01   9.344963e-03
  2.198299e+00    6.916403e-01   9.431189e-03
  2.200509e+00    6.790642e-01   9.344015e-03
  2.202720e+00    6.817784e-01   9.361503e-03
  2.204930e+00    7.002146e-01   9.485974e-03
  2.207141e+00    6.882056e-01   9.403184e-03
  2.209351e+00    6.887572e-01   9.405029e-03
  2.211562e+00    6.780421e-01   9.329990e-03
  2.213772e+00    6.663004e-01   9.193785e-03
  2.215982e+00    6.928669e-01   9.330503e-03
  2.218193e+00    6.925794e-01   9.298599e-03
  2.220403e+00    6.658068e-01   9.092680e-03
  2.222614e+00    6.720297e-01   9.114129e-03
  2.224824e+00    6.592129e-01   9.007656e-03
  2.227035e+00    6.505958e-01   8.931405e-03
  2.229245e+00    6.639956e-01   9.006040e-03
  2.231456e+00    6.614957e-01   8.973601e-03
  2.233666e+00    6.659322e-01   8.988564e-03
  2.235877e+00    6.697641e-01   9.000164e-03
  2.238087e+00    6.502798e-01   8.854990e-03
  2.240298e+00    6.555536e-01   8.877203e-03
  2.242508e+00    6.494972e-01   8.821186e-03
  2.244718e+00    6.414058e-01   8.750585e-03
  2.246929e+00    6.610096e-01   8.868966e-03
  2.249139e+00    6.604010e-01   8.852563e-03
  2.251350e+00    6.657050e-01   8.876351e-03
  2.253560e+00    6.628628e-01   8.845842e-03
  2.255771e+00    6.644316e-01   8.844913e-03
  2.257981e+00    6.691836e-01   8.865259e-03
  2.260192e+00    6.873124e-01   8.973250e-03
  2.262402e+00    6.879900e-01   8.966618e-03
  2.264613e+00    6.948974e-01   9.000463e-03
  2.266823e+00    6.695070e-01   8.824031e-03
  2.269033e+00    6.856317e-01   8.919100e-03
  2.271244e+00    6.783599e-01   8.861178e-03
  2.273454e+00    6.829297e-01   8.880538e-03
  2.275665e+00    6.863407e-01   8.892210e-03
  2.277875e+00    6.850391e-01   8.873659e-03
  2.280086e+00    6.652903e-01   8.734748e-03
  2.282296e+00    6.578042e-01   8.676065e-03
  2.284507e+00    6.533379e-01   8.636463e-03
  2.286717e+00    6.518245e-01   8.617028e-03
  2.288928e+00    6.426277e-01   8.546290e-03
  2.291138e+00    6.267487e-01   8.430810e-03
  2.293348e+00    6.463263e-01   8.552006e-03
  2.295559e+00    6.494691e-01   8.563502e-03
  2.297769e+00    6.454548e-01   8.527827e-03
  2.299980e+00    6.461000e-01   8.522795e-03
  2.302190e+00    6.531056e-01   8.559743e-03
  2.304401e+00    6.498631e-01   8.529180e-03
  2.306611e+00    6.402088e-01   8.456475e-03
  2.308822e+00    6.394307e-01   8.443010e-03
  2.311032e+00    6.411669e-01   8.448071e-03
  2.313243e+00    6.372332e-01   8.415909e-03
  2.315453e+00    6.278272e-01   8.346097e-03
  2.317663e+00    6.425671e-01   8.434439e-03
  2.319874e+00    6.313364e-01   8.351752e-03
  2.322084e+00    6.407344e-01   8.404776e-03
  2.324295e+00    6.444530e-01   8.420906e-03
  2.326505e+00    6.433220e-01   8.404471e-03
  2.328716e+00    6.359615e-01   8.347743e-03
  2.330926e+00    6.283560e-01   8.289005e-03
  2.333137e+00    6.279030e-01   8.277711e-03
  2.335347e+00    6.334170e-01   8.305166e-03
  2.337558e+00    6.383197e-01   8.329037e-03
  2.339768e+00    6.380835e-01   8.318922e-03
  2.341979e+00    6.457364e-01   8.360273e-03
  2.344189e+00    6.224132e-01   8.199585e-03
  2.346399e+00    6.360704e-01   8.280576e-03
  2.348610e+00    6.187693e-01   8.158827e-03
  2.350820e+00    6.457285e-01   8.326421e-03
  2.353031e+00    6.382764e-01   8.269927e-03
  2.355241e+00    6.424090e-01   8.288550e-03
  2.357452e+00    6.381457e-01   8.252542e-03
  2.359662e+00    6.176375e-01   8.110715e-03
  2.361873e+00    6.282288e-01   8.171739e-03
  2.364083e+00    6.305099e-01   8.178572e-03
  2.366294e+00    6.283856e-01   8.156674e-03
  2.368504e+00    6.038041e-01   7.987618e-03
  2.370714e+00    6.156182e-01   8.057365e-03
  2.372925e+00    6.281328e-01   8.130809e-03
  2.375135e+00    6.276242e-01   8.119415e-03
  2.377346e+00    6.265298e-01   8.104395e-03
  2.379556e+00    6.244624e-01   8.083094e-03
  2.381767e+00    6.114637e-01   7.990713e-03
  2.383977e+00    6.284903e-01   8.093232e-03
  2.386188e+00    6.200174e-01   8.030579e-03
  2.388398e+00    6.191834e-01   8.017196e-03
  2.390609e+00    6.207113e-01   8.019340e-03
  2.392819e+00    6.311491e-01   8.078616e-03
  2.395029e+00    6.280605e-01   8.051101e-03
  2.397240e+00    6.281960e-01   8.044008e-03
  2.399450e+00    6.177863e-01   7.969243e-03
  2.401661e+00    6.078029e-01   7.896950e-03
  2.403871e+00    5.982789e-01   7.827144e-03
  2.406082e+00    6.073604e-01   7.878909e-03
  2.408292e+00    6.116849e-01   7.899096e-03
  2.410503e+00    6.215082e-01   7.954712e-03
  2.412713e+00    6.159285e-01   7.911074e-03
  2.414924e+00    6.014511e-01   7.810106e-03
  2.417134e+00    5.836012e-01   7.685805e-03
  2.419344e+00    6.060515e-01   7.824820e-03
  2.421555e+00    5.986801e-01   7.769622e-03
  2.423765e+00    5.849967e-01   7.672994e-03
  2.425976e+00    5.980423e-01   7.750268e-03
  2.428186e+00    5.930800e-01   7.710894e-03
  2.430397e+00    5.907784e-01   7.688450e-03
  2.432607e+00    5.967230e-01   7.719765e-03
  2.434818e+00    5.842729e-01   7.631329e-03
  2.437028e+00    5.947252e-01   7.692152e-03
  2.439239e+00    5.801885e-01   7.589973e-03
  2.441449e+00    5.903554e-01   7.649011e-03
  2.443659e+00    5.675824e-01   7.492834e-03
  2.445870e+00    5.696769e-01   7.518669e-03
  2.448080e+00    5.712789e-01   7.563692e-03
  2.450291e+00    5.714382e-01   7.581263e-03
  2.452501e+00    5.872539e-01   7.696737e-03
  2.454712e+00    5.625316e-01   7.541357e-03
  2.456922e+00    5.573534e-01   7.513088e-03
  2.459133e+00    5.473601e-01   7.450761e-03
  2.461343e+00    5.459520e-01   7.445449e-03
  2.463554e+00    5.531412e-01   7.497730e-03
  2.465764e+00    5.591469e-01   7.541467e-03
  2.467975e+00    5.527135e-01   7.500217e-03
  2.470185e+00    5.608160e-01   7.557256e-03
  2.472395e+00    5.507918e-01   7.490624e-03
  2.474606e+00    5.591957e-01   7.549121e-03
  2.476816e+00    5.595299e-01   7.552136e-03
  2.479027e+00    5.321615e-01   7.365939e-03
  2.481237e+00    5.353203e-01   7.388041e-03
  2.483448e+00    5.416206e-01   7.431700e-03
  2.485658e+00    5.316756e-01   7.363003e-03
  2.487869e+00    5.502440e-01   7.490503e-03
  2.490079e+00    5.451133e-01   7.455000e-03
  2.492290e+00    5.398993e-01   7.418825e-03
  2.494500e+00    5.268441e-01   7.327851e-03
  2.496710e+00    5.396328e-01   7.415545e-03
  2.498921e+00    5.387410e-01   7.408442e-03
  2.501131e+00    5.269981e-01   7.326300e-03
  2.503342e+00    5.321751e-01   7.360939e-03
  2.505552e+00    5.263197e-01   7.319207e-03
  2.507763e+00    5.217240e-01   7.285767e-03
  2.509973e+00    5.305814e-01   7.345969e-03
  2.512184e+00    5.252708e-01   7.307493e-03
  2.514394e+00    5.183945e-01   7.250233e-03
  2.516605e+00    5.144605e-01   7.176136e-03
  2.518815e+00    5.059674e-01   7.088881e-03
  2.521025e+00    5.291610e-01   7.228483e-03
  2.523236e+00    5.144387e-01   7.109461e-03
  2.525446e+00    5.111036e-01   7.070960e-03
  2.527657e+00    5.206650e-01   7.122260e-03
  2.529867e+00    5.095033e-01   7.031550e-03
  2.532078e+00    5.169039e-01   7.067494e-03
  2.534288e+00    5.156341e-01   7.045053e-03
  2.536499e+00    5.174271e-01   7.045440e-03
  2.538709e+00    5.059639e-01   6.956150e-03
  2.540920e+00    5.240570e-01   7.068783e-03
  2.543130e+00    5.309296e-01   7.104562e-03
  2.545340e+00    5.167246e-01   6.998885e-03
  2.547551e+00    5.173081e-01   6.992942e-03
  2.549761e+00    5.150683e-01   6.968254e-03
  2.551972e+00    5.153296e-01   6.960758e-03
  2.554182e+00    5.171041e-01   6.963562e-03
  2.556393e+00    5.224704e-01   6.990504e-03
  2.558603e+00    5.231183e-01   6.985746e-03
  2.560814e+00    5.095184e-01   6.885730e-03
  2.563024e+00    5.079569e-01   6.866673e-03
  2.565235e+00    5.246703e-01   6.969174e-03
  2.567445e+00    5.079083e-01   6.847494e-03
  2.569656e+00    4.987763e-01   6.776107e-03
  2.571866e+00    4.919778e-01   6.720634e-03
  2.574076e+00    5.018486e-01   6.778581e-03
  2.576287e+00    5.127111e-01   6.843255e-03
  2.578497e+00    5.267778e-01   6.928561e-03
  2.580708e+00    5.128382e-01   6.828240e-03
  2.582918e+00    5.012477e-01   6.742953e-03
  2.585129e+00    5.026540e-01   6.744763e-03
  2.587339e+00    5.035848e-01   6.743381e-03
  2.589550e+00    5.127373e-01   6.796849e-03
  2.591760e+00    5.032123e-01   6.725755e-03
  2.593971e+00    5.120676e-01   6.777130e-03
  2.596181e+00    5.169279e-01   6.802972e-03
  2.598391e+00    5.043975e-01   6.714863e-03
  2.600602e+00    4.990972e-01   6.673631e-03
  2.602812e+00    4.975920e-01   6.656110e-03
  2.605023e+00    5.053591e-01   6.700710e-03
  2.607233e+00    5.061435e-01   6.698788e-03
  2.609444e+00    5.038062e-01   6.676089e-03
  2.611654e+00    5.168998e-01   6.754909e-03
  2.613865e+00    5.146929e-01   6.733368e-03
  2.616075e+00    5.057593e-01   6.667548e-03
  2.618286e+00    4.965942e-01   6.599918e-03
  2.620496e+00    5.034085e-01   6.638365e-03
  2.622706e+00    5.040728e-01   6.636997e-03
  2.624917e+00    5.056817e-01   6.641730e-03
  2.627127e+00    5.127657e-01   6.682293e-03
  2.629338e+00    5.090610e-01   6.652111e-03
  2.631548e+00    5.017238e-01   6.597839e-03
  2.633759e+00    5.039669e-01   6.605413e-03
  2.635969e+00    4.890096e-01   6.500051e-03
  2.638180e+00    4.875094e-01   6.483180e-03
  2.640390e+00    4.992454e-01   6.554168e-03
  2.642601e+00    4.980848e-01   6.539899e-03
  2.644811e+00    4.917073e-01   6.490876e-03
  2.647021e+00    5.016864e-01   6.549831e-03
  2.649232e+00    4.982341e-01   6.520560e-03
  2.651442e+00    4.934953e-01   6.483008e-03
  2.653653e+00    4.963225e-01   6.494766e-03
  2.655863e+00    4.978815e-01   6.498282e-03
  2.658074e+00    5.097759e-01   6.568761e-03
  2.660284e+00    5.136006e-01   6.586900e-03
  2.662495e+00    4.955093e-01   6.463106e-03
  2.664705e+00    5.034472e-01   6.508064e-03
  2.666916e+00    4.929873e-01   6.433660e-03
  2.669126e+00    4.917021e-01   6.418834e-03
  2.671337e+00    4.855832e-01   6.372251e-03
  2.673547e+00    4.982978e-01   6.448745e-03
  2.675757e+00    4.873315e-01   6.370987e-03
  2.677968e+00    5.034001e-01   6.468581e-03
  2.680178e+00    4.875713e-01   6.359721e-03
  2.682389e+00    4.928136e-01   6.387412e-03
  2.684599e+00    5.019794e-01   6.440295e-03
  2.686810e+00    5.051558e-01   6.453960e-03
  2.689020e+00    4.869349e-01   6.330234e-03
  2.691231e+00    4.863671e-01   6.320280e-03
  2.693441e+00    4.811994e-01   6.280521e-03
  2.695652e+00    4.874556e-01   6.314706e-03
  2.697862e+00    4.958292e-01   6.362361e-03
  2.700072e+00    4.771139e-01   6.235114e-03
  2.702283e+00    4.789261e-01   6.240786e-03
  2.704493e+00    4.915383e-01   6.316128e-03
  2.706704e+00    4.816976e-01   6.246229e-03
  2.708914e+00    4.802552e-01   6.230952e-03
  2.711125e+00    4.731529e-01   6.178554e-03
  2.713335e+00    4.743255e-01   6.180190e-03
  2.715546e+00    4.808476e-01   6.216112e-03
  2.717756e+00    4.962823e-01   6.309151e-03
  2.719967e+00    4.827293e-01   6.216215e-03
  2.722177e+00    4.860933e-01   6.231715e-03
  2.724387e+00    4.835640e-01   6.209377e-03
  2.726598e+00    4.865021e-01   6.222148e-03
  2.728808e+00    4.816155e-01   6.184705e-03
  2.731019e+00    4.738125e-01   6.128330e-03
  2.733229e+00    4.806896e-01   6.166876e-03
  2.735440e+00    4.710179e-01   6.098330e-03
  2.737650e+00    4.750754e-01   6.118564e-03
  2.739861e+00    4.778783e-01   6.130570e-03
  2.742071e+00    4.768796e-01   6.118446e-03
  2.744282e+00    4.703946e-01   6.070542e-03
  2.746492e+00    4.697139e-01   6.060187e-03
  2.748702e+00    4.715815e-01   6.066382e-03
  2.750913e+00    4.894042e-01   6.174105e-03
  2.753123e+00    4.763334e-01   6.085030e-03
  2.755334e+00    4.706843e-01   6.042836e-03
  2.757544e+00    4.669961e-01   6.013432e-03
  2.759755e+00    4.800951e-01   6.091305e-03
  2.761965e+00    4.826558e-01   6.101551e-03
  2.764176e+00    4.813315e-01   6.087171e-03
  2.766386e+00    4.678366e-01   5.995525e-03
  2.768597e+00    4.648557e-01   5.970603e-03
  2.770807e+00    4.804658e-01   6.064147e-03
  2.773017e+00    4.652459e-01   5.961450e-03
  2.775228e+00    4.766056e-01   6.027999e-03
  2.777438e+00    4.727632e-01   5.997906e-03
  2.779649e+00    4.634950e-01   5.933008e-03
  2.781859e+00    4.700450e-01   5.969053e-03
  2.784070e+00    4.845355e-01   6.054467e-03
  2.786280e+00    4.723332e-01   5.972014e-03
  2.788491e+00    4.677651e-01   5.937278e-03
  2.790701e+00    4.685416e-01   5.936612e-03
  2.792912e+00    4.546156e-01   5.841882e-03
  2.795122e+00    4.579495e-01   5.857650e-03
  2.797333e+00    4.735556e-01   5.951068e-03
  2.799543e+00    4.671546e-01   5.904909e-03
  2.801753e+00    4.726671e-01   5.933803e-03
  2.803964e+00    4.723455e-01   5.926142e-03
  2.806174e+00    4.618367e-01   5.853796e-03
  2.808385e+00    4.601464e-01   5.836364e-03
  2.810595e+00    4.697070e-01   5.889856e-03
  2.812806e+00    4.888554e-01   6.002016e-03
  2.815016e+00    4.714638e-01   5.889553e-03
  2.817227e+00    4.708822e-01   5.911758e-03
  2.819437e+00    4.668912e-01   5.897660e-03
  2.821648e+00    4.577233e-01   5.841713e-03
  2.823858e+00    4.659333e-01   5.899150e-03
  2.826068e+00    4.664716e-01   5.907523e-03
  2.828279e+00    4.684320e-01   5.923939e-03
  2.830489e+00    4.602807e-01   5.875473e-03
  2.832700e+00    4.546121e-01   5.841692e-03
  2.834910e+00    4.634263e-01   5.900067e-03
  2.837121e+00    4.816193e-01   6.016518e-03
  2.839331e+00    4.621656e-01   5.894985e-03
  2.841542e+00    4.640619e-01   5.908054e-03
  2.843752e+00    4.642872e-01   5.910272e-03
  2.845963e+00    4.807326e-01   6.014434e-03
  2.848173e+00    4.732751e-01   5.967695e-03
  2.850383e+00    4.740618e-01   5.972944e-03
  2.852594e+00    4.759345e-01   5.984661e-03
  2.854804e+00    4.586380e-01   5.874398e-03
  2.857015e+00    4.636027e-01   5.905676e-03
  2.859225e+00    4.632912e-01   5.903441e-03
  2.861436e+00    4.710226e-01   5.951833e-03
  2.863646e+00    4.760783e-01   5.983740e-03
  2.865857e+00    4.628893e-01   5.900612e-03
  2.868067e+00    4.515598e-01   5.828172e-03
  2.870278e+00    4.640690e-01   5.907967e-03
  2.872488e+00    4.839344e-01   6.031930e-03
  2.874698e+00    4.684395e-01   5.933551e-03
  2.876909e+00    4.657575e-01   5.915172e-03
  2.879119e+00    4.572071e-01   5.859035e-03
  2.881330e+00    4.584273e-01   5.865372e-03
  2.883540e+00    4.589868e-01   5.867579e-03
  2.885751e+00    4.703952e-01   5.938367e-03
  2.887961e+00    4.716849e-01   5.944632e-03
  2.890172e+00    4.531092e-01   5.824800e-03
  2.892382e+00    4.566770e-01   5.845888e-03
  2.894593e+00    4.595927e-01   5.862707e-03
  2.896803e+00    4.567491e-01   5.842570e-03
  2.899014e+00    4.635209e-01   5.883804e-03
  2.901224e+00    4.513502e-01   5.804081e-03
  2.903434e+00    4.496784e-01   5.791388e-03
  2.905645e+00    4.612118e-01   5.862952e-03
  2.907855e+00    4.489219e-01   5.782255e-03
  2.910066e+00    4.512933e-01   5.795431e-03
  2.912276e+00    4.630978e-01   5.868612e-03
  2.914487e+00    4.517264e-01   5.793672e-03
  2.916697e+00    4.525783e-01   5.796927e-03
  2.918908e+00    4.595602e-01   5.839454e-03
  2.921118e+00    4.556350e-01   5.811793e-03
  2.923329e+00    4.498022e-01   5.772155e-03
  2.925539e+00    4.732328e-01   5.918275e-03
  2.927749e+00    4.641146e-01   5.858662e-03
  2.929960e+00    4.561451e-01   5.805363e-03
  2.932170e+00    4.504693e-01   5.766823e-03
  2.934381e+00    4.560813e-01   5.800193e-03
  2.936591e+00    4.554369e-01   5.793508e-03
  2.938802e+00    4.651950e-01   5.852523e-03
  2.941012e+00    4.542181e-01   5.780715e-03
  2.943223e+00    4.568173e-01   5.794551e-03
  2.945433e+00    4.580547e-01   5.798633e-03
  2.947644e+00    4.591672e-01   5.801531e-03
  2.949854e+00    4.506950e-01   5.743506e-03
  2.952064e+00    4.421867e-01   5.684878e-03
  2.954275e+00    4.357226e-01   5.638849e-03
  2.956485e+00    4.459825e-01   5.700705e-03
  2.958696e+00    4.465087e-01   5.699728e-03
  2.960906e+00    4.569772e-01   5.761981e-03
  2.963117e+00    4.469101e-01   5.693706e-03
  2.965327e+00    4.425923e-01   5.662288e-03
  2.967538e+00    4.515330e-01   5.716276e-03
  2.969748e+00    4.505777e-01   5.707436e-03
  2.971959e+00    4.488883e-01   5.693602e-03
  2.974169e+00    4.457927e-01   5.671377e-03
  2.976379e+00    4.507381e-01   5.699848e-03
  2.978590e+00    4.579914e-01   5.742363e-03
  2.980800e+00    4.556415e-01   5.724822e-03
  2.983011e+00    4.543573e-01   5.713955e-03
  2.985221e+00    4.482133e-01   5.672049e-03
  2.987432e+00    4.370981e-01   5.598224e-03
  2.989642e+00    4.471410e-01   5.659571e-03
  2.991853e+00    4.471287e-01   5.656227e-03
  2.994063e+00    4.544553e-01   5.699478e-03
  2.996274e+00    4.351619e-01   5.574084e-03
  2.998484e+00    4.473197e-01   5.648705e-03
  3.000694e+00    4.464823e-01   5.640007e-03
  3.002905e+00    4.329056e-01   5.550719e-03
  3.005115e+00    4.488872e-01   5.649270e-03
  3.007326e+00    4.478990e-01   5.639938e-03
  3.009536e+00    4.379485e-01   5.573728e-03
  3.011747e+00    4.343350e-01   5.547833e-03
  3.013957e+00    4.439366e-01   5.605650e-03
  3.016168e+00    4.526941e-01   5.657444e-03
  3.018378e+00    4.438979e-01   5.599190e-03
  3.020589e+00    4.461075e-01   5.609917e-03
  3.022799e+00    4.338442e-01   5.529188e-03
  3.025010e+00    4.519904e-01   5.640372e-03
  3.027220e+00    4.506238e-01   5.628748e-03
  3.029430e+00    4.526682e-01   5.638268e-03
  3.031641e+00    4.345027e-01   5.520895e-03
  3.033851e+00    4.456331e-01   5.587652e-03
  3.036062e+00    4.450943e-01   5.581543e-03
  3.038272e+00    4.354825e-01   5.517401e-03
  3.040483e+00    4.594417e-01   5.663911e-03
  3.042693e+00    4.493492e-01   5.598106e-03
  3.044904e+00    4.429644e-01   5.554204e-03
  3.047114e+00    4.438087e-01   5.554723e-03
  3.049325e+00    4.540998e-01   5.614339e-03
  3.051535e+00    4.513587e-01   5.592983e-03
  3.053745e+00    4.475194e-01   5.564403e-03
  3.055956e+00    4.507859e-01   5.580107e-03
  3.058166e+00    4.440023e-01   5.533730e-03
  3.060377e+00    4.345568e-01   5.469867e-03
  3.062587e+00    4.377905e-01   5.485605e-03
  3.064798e+00    4.340477e-01   5.457946e-03
  3.067008e+00    4.359702e-01   5.465335e-03
  3.069219e+00    4.551931e-01   5.579994e-03
  3.071429e+00    4.528052e-01   5.561830e-03
  3.073640e+00    4.405099e-01   5.482499e-03
  3.075850e+00    4.489348e-01   5.531088e-03
  3.078060e+00    4.533191e-01   5.554910e-03
  3.080271e+00    4.478417e-01   5.517784e-03
  3.082481e+00    4.509659e-01   5.533536e-03
  3.084692e+00    4.480709e-01   5.512374e-03
  3.086902e+00    4.397701e-01   5.457871e-03
  3.089113e+00    4.377970e-01   5.442060e-03
  3.091323e+00    4.577473e-01   5.561279e-03
  3.093534e+00    4.476604e-01   5.496292e-03
  3.095744e+00    4.410124e-01   5.451974e-03
  3.097955e+00    4.387806e-01   5.434656e-03
  3.100165e+00    4.383577e-01   5.428730e-03
  3.102375e+00    4.420515e-01   5.448159e-03
  3.104586e+00    4.388521e-01   5.424927e-03
  3.106796e+00    4.518238e-01   5.501004e-03
  3.109007e+00    4.441537e-01   5.450889e-03
  3.111217e+00    4.518838e-01   5.494393e-03
  3.113428e+00    4.473383e-01   5.463282e-03
  3.115638e+00    4.332715e-01   5.373527e-03
  3.117849e+00    4.334128e-01   5.370696e-03
  3.120059e+00    4.411560e-01   5.415021e-03
  3.122270e+00    4.417896e-01   5.415663e-03
  3.124480e+00    4.348589e-01   5.369381e-03
  3.126691e+00    4.387934e-01   5.390060e-03
  3.128901e+00    4.534321e-01   5.476089e-03
  3.131111e+00    4.504929e-01   5.454440e-03
  3.133322e+00    4.567977e-01   5.488975e-03
  3.135532e+00    4.532652e-01   5.464305e-03
  3.137743e+00    4.323978e-01   5.333588e-03
  3.139953e+00    4.400865e-01   5.377127e-03
  3.142164e+00    4.399001e-01   5.387963e-03
  3.144374e+00    4.298364e-01   5.353982e-03
  3.146585e+00    4.401461e-01   5.432325e-03
  3.148795e+00    4.393027e-01   5.437864e-03
  3.151006e+00    4.350873e-01   5.420195e-03
  3.153216e+00    4.232894e-01   5.353172e-03
  3.155426e+00    4.373521e-01   5.447672e-03
  3.157637e+00    4.332385e-01   5.427451e-03
  3.159847e+00    4.265135e-01   5.389971e-03
  3.162058e+00    4.396919e-01   5.477028e-03
  3.164268e+00    4.281214e-01   5.408499e-03
  3.166479e+00    4.351362e-01   5.456238e-03
  3.168689e+00    4.368675e-01   5.470476e-03
  3.170900e+00    4.319430e-01   5.442673e-03
  3.173110e+00    4.434097e-01   5.517339e-03
  3.175321e+00    4.258080e-01   5.409190e-03
  3.177531e+00    4.216545e-01   5.385416e-03
  3.179741e+00    4.358655e-01   5.477490e-03
  3.181952e+00    4.287791e-01   5.434865e-03
  3.184162e+00    4.298772e-01   5.443999e-03
  3.186373e+00    4.354869e-01   5.480984e-03
  3.188583e+00    4.280753e-01   5.435945e-03
  3.190794e+00    4.242171e-01   5.413091e-03
  3.193004e+00    4.373453e-01   5.497469e-03
  3.195215e+00    4.247434e-01   5.419178e-03
  3.197425e+00    4.201978e-01   5.391281e-03
  3.199636e+00    4.155956e-01   5.360927e-03
  3.201846e+00    4.215219e-01   5.398416e-03
  3.204056e+00    4.298038e-01   5.452067e-03
  3.206267e+00    4.323972e-01   5.469354e-03
  3.208477e+00    4.248088e-01   5.422056e-03
  3.210688e+00    4.355214e-01   5.490846e-03
  3.212898e+00    4.232991e-01   5.413826e-03
  3.215109e+00    4.212606e-01   5.401507e-03
  3.217319e+00    4.311364e-01   5.465084e-03
  3.219530e+00    4.325789e-01   5.474614e-03
  3.221740e+00    4.475016e-01   5.568824e-03
  3.223951e+00    4.204187e-01   5.398162e-03
  3.226161e+00    4.197870e-01   5.394272e-03
  3.228372e+00    4.221626e-01   5.410025e-03
  3.230582e+00    4.387858e-01   5.515661e-03
  3.232792e+00    4.208829e-01   5.402208e-03
  3.235003e+00    4.305765e-01   5.464283e-03
  3.237213e+00    4.242596e-01   5.424178e-03
  3.239424e+00    4.247523e-01   5.427312e-03
  3.241634e+00    4.259835e-01   5.435302e-03
  3.243845e+00    4.418407e-01   5.535599e-03
  3.246055e+00    4.255451e-01   5.432310e-03
  3.248266e+00    4.246238e-01   5.426616e-03
  3.250476e+00    4.314597e-01   5.469806e-03
  3.252687e+00    4.287124e-01   5.452306e-03
  3.254897e+00    4.228520e-01   5.414786e-03
  3.257107e+00    4.208204e-01   5.401441e-03
  3.259318e+00    4.271302e-01   5.441565e-03
  3.261528e+00    4.079676e-01   5.317964e-03
  3.263739e+00    4.299557e-01   5.458816e-03
  3.265949e+00    4.255036e-01   5.430368e-03
  3.268160e+00    4.107464e-01   5.334973e-03
  3.270370e+00    4.124239e-01   5.345321e-03
  3.272581e+00    4.270378e-01   5.438958e-03
  3.274791e+00    4.167371e-01   5.372413e-03
  3.277002e+00    4.243659e-01   5.420814e-03
  3.279212e+00    4.180648e-01   5.380041e-03
  3.281422e+00    4.293912e-01   5.451852e-03
  3.283633e+00    4.208529e-01   5.396689e-03
  3.285843e+00    4.299843e-01   5.454593e-03
  3.288054e+00    4.274522e-01   5.437563e-03
  3.290264e+00    4.201510e-01   5.390616e-03
  3.292475e+00    4.229100e-01   5.407451e-03
  3.294685e+00    4.273517e-01   5.435132e-03
  3.296896e+00    4.228531e-01   5.405700e-03
  3.299106e+00    4.193760e-01   5.382878e-03
  3.301317e+00    4.238322e-01   5.410362e-03
  3.303527e+00    4.182499e-01   5.374169e-03
  3.305737e+00    4.142002e-01   5.347043e-03
  3.307948e+00    4.278011e-01   5.433429e-03
  3.310158e+00    4.357922e-01   5.483106e-03
  3.312369e+00    4.329571e-01   5.464334e-03
  3.314579e+00    4.357753e-01   5.481172e-03
  3.316790e+00    4.301085e-01   5.444712e-03
  3.319000e+00    4.134680e-01   5.337164e-03
  3.321211e+00    4.238850e-01   5.403376e-03
  3.323421e+00    4.326013e-01   5.457413e-03
  3.325632e+00    4.254849e-01   5.411482e-03
  3.327842e+00    4.131699e-01   5.331665e-03
  3.330052e+00    4.327278e-01   5.455299e-03
  3.332263e+00    4.403983e-01   5.502424e-03
  3.334473e+00    4.270959e-01   5.417760e-03
  3.336684e+00    4.218959e-01   5.383410e-03
  3.338894e+00    4.294893e-01   5.430787e-03
  3.341105e+00    4.189199e-01   5.362353e-03
  3.343315e+00    4.298247e-01   5.430524e-03
  3.345526e+00    4.328130e-01   5.448481e-03
  3.347736e+00    4.190919e-01   5.360006e-03
  3.349947e+00    4.195555e-01   5.362024e-03
  3.352157e+00    4.230606e-01   5.383210e-03
  3.354368e+00    4.386169e-01   5.479968e-03
  3.356578e+00    4.246134e-01   5.390759e-03
  3.358788e+00    4.109845e-01   5.302222e-03
  3.360999e+00    4.053651e-01   5.264622e-03
  3.363209e+00    3.952951e-01   5.197822e-03
  3.365420e+00    4.164527e-01   5.333583e-03
  3.367630e+00    4.150345e-01   5.323506e-03
  3.369841e+00    4.140447e-01   5.315729e-03
  3.372051e+00    4.078809e-01   5.274051e-03
  3.374262e+00    4.003626e-01   5.222843e-03
  3.376472e+00    4.050986e-01   5.251196e-03
  3.378683e+00    4.163826e-01   5.321356e-03
  3.380893e+00    4.020432e-01   5.226620e-03
  3.383103e+00    4.070933e-01   5.256664e-03
  3.385314e+00    3.989138e-01   5.201407e-03
  3.387524e+00    4.208740e-01   5.339876e-03
  3.389735e+00    4.086799e-01   5.259389e-03
  3.391945e+00    4.028875e-01   5.218310e-03
  3.394156e+00    4.153309e-01   5.294070e-03
  3.396366e+00    3.954183e-01   5.162288e-03
  3.398577e+00    3.910847e-01   5.130915e-03
  3.400787e+00    4.030739e-01   5.220762e-03
  3.402998e+00    4.026421e-01   5.255707e-03
  3.405208e+00    3.824202e-01   5.142100e-03
  3.407418e+00    3.950851e-01   5.242191e-03
  3.409629e+00    3.863255e-01   5.197485e-03
  3.411839e+00    3.824814e-01   5.183056e-03
  3.414050e+00    3.968068e-01   5.290242e-03
  3.416260e+00    3.888667e-01   5.246606e-03
  3.418471e+00    3.935299e-01   5.287395e-03
  3.420681e+00    3.861443e-01   5.245953e-03
  3.422892e+00    3.863337e-01   5.255211e-03
  3.425102e+00    3.865584e-01   5.264511e-03
  3.427313e+00    3.924710e-01   5.311853e-03
  3.429523e+00    3.873430e-01   5.284096e-03
  3.431733e+00    3.904569e-01   5.312006e-03
  3.433944e+00    3.804762e-01   5.250123e-03
  3.436154e+00    3.865399e-01   5.298067e-03
  3.438365e+00    3.718442e-01   5.202234e-03
  3.440575e+00    3.790085e-01   5.258019e-03
  3.442786e+00    3.723534e-01   5.217196e-03
  3.444996e+00    3.716412e-01   5.217686e-03
  3.447207e+00    3.660825e-01   5.183752e-03
  3.449417e+00    3.653911e-01   5.219299e-03
  3.451628e+00    3.643517e-01   5.241154e-03
  3.453838e+00    3.692239e-01   5.297264e-03
  3.456049e+00    3.719177e-01   5.340655e-03
  3.458259e+00    3.561832e-01   5.248063e-03
  3.460469e+00    3.667030e-01   5.344780e-03
  3.462680e+00    3.751539e-01   5.425329e-03
  3.464890e+00    3.615543e-01   5.343757e-03
  3.467101e+00    3.555415e-01   5.316307e-03
  3.469311e+00    3.741385e-01   5.470214e-03
  3.471522e+00    3.959487e-01   5.644231e-03
  3.473732e+00    3.954315e-01   5.656863e-03
  3.475943e+00    3.975360e-01   5.687893e-03
  3.478153e+00    4.111650e-01   5.800480e-03
  3.480364e+00    4.050166e-01   5.772301e-03
  3.482574e+00    4.218663e-01   5.906839e-03
  3.484784e+00    4.165766e-01   5.884685e-03
  3.486995e+00    4.135295e-01   5.878156e-03
  3.489205e+00    4.347177e-01   6.041745e-03
  3.491416e+00    4.384839e-01   6.082928e-03
  3.493626e+00    4.393028e-01   6.103327e-03
  3.495837e+00    4.470259e-01   6.171588e-03
  3.498047e+00    4.466361e-01   6.183409e-03
  3.500258e+00    4.730817e-01   6.378746e-03
  3.502468e+00    4.761110e-01   6.413944e-03
  3.504679e+00    4.679560e-01   6.373355e-03
  3.506889e+00    4.691506e-01   6.395974e-03
  3.509099e+00    4.851140e-01   6.518442e-03
  3.511310e+00    4.710167e-01   6.437436e-03
  3.513520e+00    4.764326e-01   6.488670e-03
  3.515731e+00    4.751337e-01   6.494018e-03
  3.517941e+00    4.833591e-01   6.564262e-03
  3.520152e+00    4.871658e-01   6.604246e-03
  3.522362e+00    5.070498e-01   6.752274e-03
  3.524573e+00    5.205508e-01   6.856046e-03
  3.526783e+00    5.210031e-01   6.872535e-03
  3.528994e+00    5.105786e-01   6.815590e-03
  3.531204e+00    5.317954e-01   6.968313e-03
  3.533414e+00    5.381273e-01   7.021931e-03
  3.535625e+00    5.214831e-01   6.924785e-03
  3.537835e+00    5.242561e-01   6.955147e-03
  3.540046e+00    5.469750e-01   7.113322e-03
  3.542256e+00    5.261520e-01   6.984047e-03
  3.544467e+00    5.519535e-01   7.160980e-03
  3.546677e+00    5.510703e-01   7.162941e-03
  3.548888e+00    5.449443e-01   7.130584e-03
  3.551098e+00    5.428501e-01   7.124166e-03
  3.553309e+00    5.421525e-01   7.127849e-03
  3.555519e+00    5.206226e-01   6.995997e-03
  3.557729e+00    5.419029e-01   7.149304e-03
  3.559940e+00    5.354708e-01   7.118332e-03
  3.562150e+00    5.305140e-01   7.096923e-03
  3.564361e+00    5.488567e-01   7.232072e-03
  3.566571e+00    5.418124e-01   7.199418e-03
  3.568782e+00    5.316506e-01   7.145639e-03
  3.570992e+00    5.410551e-01   7.222376e-03
  3.573203e+00    5.496116e-01   7.293584e-03
  3.575413e+00    5.553580e-01   7.345639e-03
  3.577624e+00    5.548003e-01   7.356325e-03
  3.579834e+00    5.484197e-01   7.327952e-03
  3.582045e+00    5.425578e-01   7.302791e-03
  3.584255e+00    5.304979e-01   7.235153e-03
  3.586465e+00    5.126706e-01   7.126196e-03
  3.588676e+00    5.181941e-01   7.178388e-03
  3.590886e+00    5.367175e-01   7.319298e-03
  3.593097e+00    5.478420e-01   7.409404e-03
  3.595307e+00    5.497640e-01   7.436541e-03
  3.597518e+00    5.551283e-01   7.487180e-03
  3.599728e+00    5.394390e-01   7.394794e-03
  3.601939e+00    5.472629e-01   7.462416e-03
  3.604149e+00    5.311141e-01   7.365870e-03
  3.606360e+00    5.237915e-01   7.328886e-03
  3.608570e+00    5.125915e-01   7.263945e-03
  3.610780e+00    5.255557e-01   7.366230e-03
  3.612991e+00    5.227636e-01   7.356503e-03
  3.615201e+00    5.420726e-01   7.501004e-03
  3.617412e+00    5.466366e-01   7.539868e-03
  3.619622e+00    5.522333e-01   7.584425e-03
  3.621833e+00    5.279240e-01   7.422324e-03
  3.624043e+00    5.215583e-01   7.386747e-03
  3.626254e+00    5.491741e-01   7.589651e-03
  3.628464e+00    5.528345e-01   7.626100e-03
  3.630675e+00    5.416746e-01   7.562945e-03
  3.632885e+00    5.320785e-01   7.510052e-03
  3.635095e+00    5.369144e-01   7.558579e-03
  3.637306e+00    5.325757e-01   7.542309e-03
  3.639516e+00    5.366359e-01   7.585585e-03
  3.641727e+00    5.370481e-01   7.603133e-03
  3.643937e+00    5.245429e-01   7.528487e-03
  3.646148e+00    5.473070e-01   7.704932e-03
  3.648358e+00    5.467041e-01   7.715766e-03
  3.650569e+00    5.259191e-01   7.582266e-03
  3.652779e+00    5.479224e-01   7.754266e-03
  3.654990e+00    5.392384e-01   7.707540e-03
  3.657200e+00    5.285183e-01   7.645398e-03
  3.659410e+00    5.437531e-01   7.769892e-03
  3.661621e+00    5.411831e-01   7.766806e-03
  3.663831e+00    5.271305e-01   7.680312e-03
  3.666042e+00    5.408851e-01   7.795185e-03
  3.668252e+00    5.242670e-01   7.689635e-03
  3.670463e+00    5.471384e-01   7.871023e-03
  3.672673e+00    5.158846e-01   7.658160e-03
  3.674884e+00    5.183746e-01   7.691781e-03
  3.677094e+00    5.170990e-01   7.697670e-03
  3.679305e+00    5.246093e-01   7.768821e-03
  3.681515e+00    5.341893e-01   7.855105e-03
  3.683726e+00    5.143093e-01   7.723148e-03
  3.685936e+00    5.303624e-01   7.858458e-03
  3.688146e+00    5.213414e-01   7.807034e-03
  3.690357e+00    5.220986e-01   7.828555e-03
  3.692567e+00    5.078014e-01   7.736423e-03
  3.694778e+00    5.521278e-01   8.083455e-03
  3.696988e+00    5.393527e-01   8.005586e-03
  3.699199e+00    5.521474e-01   8.116646e-03
  3.701409e+00    5.488958e-01   8.109451e-03
  3.703620e+00    5.275570e-01   7.966600e-03
  3.705830e+00    5.270489e-01   7.979216e-03
  3.708041e+00    5.111005e-01   7.873961e-03
  3.710251e+00    5.180615e-01   7.943977e-03
  3.712461e+00    5.278826e-01   8.035776e-03
  3.714672e+00    5.280237e-01   8.053686e-03
  3.716882e+00    5.264767e-01   8.058693e-03
  3.719093e+00    5.046068e-01   7.906403e-03
  3.721303e+00    5.069722e-01   7.941640e-03
  3.723514e+00    5.036767e-01   7.932818e-03
  3.725724e+00    4.904734e-01   7.844849e-03
  3.727935e+00    5.127636e-01   8.038471e-03
  3.730145e+00    5.033677e-01   7.981570e-03
  3.732356e+00    5.059336e-01   8.019288e-03
  3.734566e+00    5.139248e-01   8.099847e-03
  3.736776e+00    5.171268e-01   8.142868e-03
  3.738987e+00    5.216076e-01   8.195925e-03
  3.741197e+00    5.079026e-01   8.105444e-03
  3.743408e+00    5.105407e-01   8.144496e-03
  3.745618e+00    5.059811e-01   8.126230e-03
  3.747829e+00    4.946425e-01   8.052408e-03
  3.750039e+00    5.071027e-01   8.171536e-03
  3.752250e+00    5.038825e-01   8.163872e-03
  3.754460e+00    4.849426e-01   8.027094e-03
  3.756671e+00    5.042611e-01   8.204063e-03
  3.758881e+00    5.077926e-01   8.251400e-03
  3.761091e+00    5.063794e-01   8.258998e-03
  3.763302e+00    4.898288e-01   8.141660e-03
  3.765512e+00    5.070119e-01   8.302432e-03
  3.767723e+00    5.091048e-01   8.338957e-03
  3.769933e+00    5.134175e-01   8.393695e-03
  3.772144e+00    4.781082e-01   8.118949e-03
  3.774354e+00    5.062884e-01   8.374625e-03
  3.776565e+00    5.081028e-01   8.409530e-03
  3.778775e+00    5.078930e-01   8.427816e-03
  3.780986e+00    5.076243e-01   8.445976e-03
  3.783196e+00    5.039651e-01   8.435733e-03
  3.785407e+00    5.047857e-01   8.463063e-03
  3.787617e+00    5.008542e-01   8.450766e-03
  3.789827e+00    4.923448e-01   8.398952e-03
  3.792038e+00    5.053731e-01   8.530284e-03
  3.794248e+00    5.010075e-01   8.514518e-03
  3.796459e+00    4.872682e-01   8.418034e-03
  3.798669e+00    4.925650e-01   8.484812e-03
  3.800880e+00    5.216760e-01   8.753836e-03
  3.803090e+00    5.053653e-01   8.637906e-03
  3.805301e+00    4.729832e-01   8.378051e-03
  3.807511e+00    5.025052e-01   8.657545e-03
  3.809722e+00    5.182044e-01   8.814456e-03
  3.811932e+00    4.776902e-01   8.484578e-03
  3.814142e+00    5.025210e-01   8.725235e-03
  3.816353e+00    5.101481e-01   8.814331e-03
  3.818563e+00    4.943001e-01   8.699312e-03
  3.820774e+00    5.058233e-01   8.823497e-03
  3.822984e+00    5.014836e-01   8.809010e-03
  3.825195e+00    5.222481e-01   9.013805e-03
  3.827405e+00    5.011155e-01   8.853557e-03
  3.829616e+00    4.963524e-01   8.835421e-03
  3.831826e+00    4.852062e-01   8.759489e-03
  3.834037e+00    5.125099e-01   9.027455e-03
  3.836247e+00    5.062506e-01   8.997122e-03
  3.838457e+00    4.604916e-01   8.604991e-03
  3.840668e+00    4.872231e-01   8.876099e-03
  3.842878e+00    5.042125e-01   9.055330e-03
  3.845089e+00    4.753257e-01   8.817147e-03
  3.847299e+00    4.803070e-01   8.888591e-03
  3.849510e+00    4.875109e-01   8.980669e-03
  3.851720e+00    4.787868e-01   8.921009e-03
  3.853931e+00    4.929813e-01   9.071244e-03
  3.856141e+00    4.863024e-01   9.028452e-03
  3.858352e+00    4.857516e-01   9.042377e-03
  3.860562e+00    4.704385e-01   8.917606e-03
  3.862772e+00    4.840302e-01   9.064822e-03
  3.864983e+00    5.037439e-01   9.267496e-03
  3.867193e+00    4.874188e-01   9.135743e-03
  3.869404e+00    4.996778e-01   9.269825e-03
  3.871614e+00    4.922034e-01   9.220226e-03
  3.873825e+00    4.923773e-01   9.242107e-03
  3.876035e+00    4.908953e-01   9.248799e-03
  3.878246e+00    4.912645e-01   9.277913e-03
  3.880456e+00    4.911461e-01   9.305844e-03
  3.882667e+00    4.709622e-01   9.141251e-03
  3.884877e+00    5.089824e-01   9.533353e-03
  3.887087e+00    4.832607e-01   9.319036e-03
  3.889298e+00    4.939948e-01   9.452406e-03
  3.891508e+00    5.042627e-01   9.581072e-03
  3.893719e+00    4.844536e-01   9.421819e-03
  3.895929e+00    5.032878e-01   9.635021e-03
  3.898140e+00    5.064397e-01   9.697428e-03
  3.900350e+00    4.861062e-01   9.532611e-03
  3.902561e+00    4.882569e-01   9.586100e-03
  3.904771e+00    4.960587e-01   9.695360e-03
  3.906982e+00    4.902087e-01   9.671191e-03
  3.909192e+00    4.936664e-01   9.738912e-03
  3.911403e+00    4.928965e-01   9.765437e-03
  3.913613e+00    5.030683e-01   9.900425e-03
  3.915823e+00    4.781084e-01   9.686224e-03
  3.918034e+00    4.668524e-01   9.605885e-03
  3.920244e+00    4.812067e-01   9.787953e-03
  3.922455e+00    4.918210e-01   9.931550e-03
  3.924665e+00    4.965694e-01   1.001607e-02
  3.926876e+00    4.894814e-01   9.981564e-03
  3.929086e+00    5.066735e-01   1.019339e-02
  3.931297e+00    4.850648e-01   1.000844e-02
  3.933507e+00    4.605008e-01   9.779823e-03
  3.935718e+00    4.808882e-01   1.002245e-02
  3.937928e+00    4.860669e-01   1.010573e-02
  3.940138e+00    4.516418e-01   9.769609e-03
  3.942349e+00    4.722584e-01   1.001934e-02
  3.944559e+00    4.850363e-01   1.018401e-02
  3.946770e+00    4.747174e-01   1.010500e-02
  3.948980e+00    4.411915e-01   9.770700e-03
  3.951191e+00    4.930469e-01   1.036012e-02
  3.953401e+00    5.077505e-01   1.054550e-02
  3.955612e+00    4.823641e-01   1.031000e-02
  3.957822e+00    4.848706e-01   1.036851e-02
  3.960033e+00    4.575068e-01   1.010316e-02
  3.962243e+00    4.567277e-01   1.012649e-02
  3.964453e+00    4.691671e-01   1.029598e-02
  3.966664e+00    4.680143e-01   1.031612e-02
  3.968874e+00    4.953126e-01   1.064140e-02
  3.971085e+00    4.902032e-01   1.060836e-02
  3.973295e+00    5.046770e-01   1.078577e-02
  3.975506e+00    4.961565e-01   1.071621e-02
  3.977716e+00    4.949114e-01   1.072491e-02
  3.979927e+00    5.052343e-01   1.085876e-02
  3.982137e+00    4.690958e-01   1.048517e-02
  3.984348e+00    4.749703e-01   1.057295e-02
  3.986558e+00    4.815628e-01   1.066820e-02
  3.988768e+00    4.686471e-01   1.054687e-02
  3.990979e+00    4.918316e-01   1.082742e-02
  3.993189e+00    5.262055e-01   1.122348e-02
  3.995400e+00    5.013118e-01   1.097872e-02
  3.997610e+00    5.021387e-01   1.101813e-02
  3.999821e+00    4.871546e-01   1.089009e-02
  4.002031e+00    4.737830e-01   1.077753e-02
  4.004242e+00    4.976846e-01   1.108503e-02
  4.006452e+00    4.892413e-01   1.103018e-02
  4.008663e+00    4.975915e-01   1.116444e-02
  4.010873e+00    5.072618e-01   1.131324e-02
  4.013084e+00    5.016542e-01   1.129231e-02
  4.015294e+00    5.080101e-01   1.140544e-02
  4.017504e+00    5.081074e-01   1.144948e-02
  4.019715e+00    5.088369e-01   1.150134e-02
  4.021925e+00    4.902044e-01   1.133197e-02
  4.024136e+00    4.712369e-01   1.115365e-02
  4.026346e+00    4.863704e-01   1.137561e-02
  4.028557e+00    4.612477e-01   1.112126e-02
  4.030767e+00    4.689124e-01   1.125812e-02
  4.032978e+00    4.637176e-01   1.124101e-02
  4.035188e+00    4.331556e-01   1.090793e-02
  4.037399e+00    4.789249e-01   1.151697e-02
  4.039609e+00    4.973416e-01   1.178491e-02
  4.041819e+00    4.703198e-01   1.150829e-02
  4.044030e+00    4.943914e-01   1.184966e-02
  4.046240e+00    4.404155e-01   1.123178e-02
  4.048451e+00    4.356655e-01   1.121922e-02
  4.050661e+00    4.960965e-01   1.202436e-02
  4.052872e+00    4.956342e-01   1.207219e-02
  4.055082e+00    4.893490e-01   1.204931e-02
  4.057293e+00    4.733874e-01   1.190437e-02
  4.059503e+00    4.457846e-01   1.160455e-02
  4.061714e+00    4.810988e-01   1.211191e-02
  4.063924e+00    5.247471e-01   1.270869e-02
  4.066134e+00    4.752472e-01   1.215136e-02
  4.068345e+00    4.580934e-01   1.198757e-02
  4.070555e+00    4.834691e-01   1.237437e-02
  4.072766e+00    4.641606e-01   1.218463e-02
  4.074976e+00    4.643961e-01   1.224836e-02
  4.077187e+00    4.740039e-01   1.243603e-02
  4.079397e+00    4.970202e-01   1.279937e-02
  4.081608e+00    4.919645e-01   1.280027e-02
  4.083818e+00    4.745088e-01   1.263670e-02
  4.086029e+00    4.665210e-01   1.259589e-02
  4.088239e+00    4.343661e-01   1.221936e-02
  4.090449e+00    4.746845e-01   1.284322e-02
  4.092660e+00    4.904363e-01   1.312643e-02
  4.094870e+00    4.613426e-01   1.280200e-02
  4.097081e+00    4.621711e-01   1.288347e-02
  4.099291e+00    4.965360e-01   1.340927e-02
  4.101502e+00    4.776650e-01   1.320103e-02
  4.103712e+00    4.928610e-01   1.345944e-02
  4.105923e+00    4.701896e-01   1.319694e-02
  4.108133e+00    4.902094e-01   1.352711e-02
  4.110344e+00    4.654047e-01   1.323077e-02
  4.112554e+00    4.978319e-01   1.373790e-02
  4.114764e+00    4.921220e-01   1.371380e-02
  4.116975e+00    5.177494e-01   1.412197e-02
  4.119185e+00    4.843609e-01   1.371447e-02
  4.121396e+00    4.648962e-01   1.349145e-02
  4.123606e+00    4.690286e-01   1.360695e-02
  4.125817e+00    4.643637e-01   1.359568e-02
  4.128027e+00    5.305501e-01   1.459362e-02
  4.130238e+00    4.913395e-01   1.410444e-02
  4.132448e+00    4.589732e-01   1.369081e-02
  4.134659e+00    4.913668e-01   1.422688e-02
  4.136869e+00    4.671431e-01   1.393355e-02
  4.139080e+00    4.439711e-01   1.364474e-02
  4.141290e+00    5.370113e-01   1.507297e-02
  4.143500e+00    5.083128e-01   1.473259e-02
  4.145711e+00    4.107419e-01   1.330508e-02
  4.147921e+00    4.660369e-01   1.423728e-02
  4.150132e+00    4.677185e-01   1.433118e-02
  4.152342e+00    4.576881e-01   1.424518e-02
  4.154553e+00    5.266625e-01   1.535374e-02
  4.156763e+00    5.249014e-01   1.540386e-02
  4.158974e+00    4.888800e-01   1.494070e-02
  4.161184e+00    4.436257e-01   1.430299e-02
  4.163395e+00    5.040839e-01   1.532422e-02
  4.165605e+00    5.127428e-01   1.553571e-02
  4.167815e+00    4.975265e-01   1.538329e-02
  4.170026e+00    5.124844e-01   1.569524e-02
  4.172236e+00    4.938129e-01   1.548973e-02
  4.174447e+00    5.001754e-01   1.567414e-02
  4.176657e+00    4.567354e-01   1.505988e-02
  4.178868e+00    4.711545e-01   1.538237e-02
  4.181078e+00    4.850680e-01   1.569562e-02
  4.183289e+00    4.639525e-01   1.543834e-02
  4.185499e+00    4.314564e-01   1.497541e-02
  4.187710e+00    4.845816e-01   1.596384e-02
  4.189920e+00    4.389760e-01   1.528540e-02
  4.192130e+00    4.781010e-01   1.604950e-02
  4.194341e+00    4.521309e-01   1.570340e-02
  4.196551e+00    4.758563e-01   1.621194e-02
  4.198762e+00    5.069376e-01   1.683948e-02
  4.200972e+00    4.713935e-01   1.634352e-02
  4.203183e+00    4.449986e-01   1.598378e-02
  4.205393e+00    4.846081e-01   1.679113e-02
  4.207604e+00    4.915074e-01   1.702569e-02
  4.209814e+00    5.077568e-01   1.742350e-02
  4.212025e+00    4.683515e-01   1.685250e-02
  4.214235e+00    4.650196e-01   1.691109e-02
  4.216445e+00    4.798402e-01   1.730277e-02
  4.218656e+00    4.924624e-01   1.766055e-02
  4.220866e+00    4.666286e-01   1.731798e-02
  4.223077e+00    4.799645e-01   1.769939e-02
  4.225287e+00    4.579543e-01   1.742423e-02
  4.227498e+00    4.734210e-01   1.785518e-02
  4.229708e+00    4.713797e-01   1.796152e-02
  4.231919e+00    4.990570e-01   1.863410e-02
  4.234129e+00    4.738203e-01   1.830938e-02
  4.236340e+00    5.543901e-01   1.997400e-02
  4.238550e+00    5.379851e-01   1.985045e-02
  4.240761e+00    5.205001e-01   1.969732e-02
  4.242971e+00    5.293764e-01   2.004656e-02
  4.245181e+00    4.566014e-01   1.879323e-02
  4.247392e+00    4.361601e-01   1.853849e-02
  4.249602e+00    4.617237e-01   1.926399e-02
  4.251813e+00    4.402948e-01   1.899735e-02
  4.254023e+00    4.268110e-01   1.889196e-02
  4.256234e+00    4.746251e-01   2.013529e-02
  4.258444e+00    3.976557e-01   1.862356e-02
  4.260655e+00    5.093392e-01   2.130834e-02
  4.262865e+00    4.963984e-01   2.127495e-02
  4.265076e+00    4.680485e-01   2.089322e-02
  4.267286e+00    4.616081e-01   2.099535e-02
  4.269496e+00    4.182808e-01   2.022955e-02
  4.271707e+00    4.146105e-01   2.038923e-02
  4.273917e+00    4.629016e-01   2.182238e-02
  4.276128e+00    5.185639e-01   2.340399e-02
  4.278338e+00    4.952689e-01   2.317801e-02
  4.280549e+00    5.502118e-01   2.478013e-02
  4.282759e+00    4.403349e-01   2.248630e-02
  4.284970e+00    5.257463e-01   2.493467e-02
  4.287180e+00    5.681878e-01   2.623218e-02
  4.289391e+00    5.034477e-01   2.487792e-02
  4.291601e+00    5.165309e-01   2.540042e-02
  4.293811e+00    5.610517e-01   2.667949e-02
  4.296022e+00    4.823698e-01   2.493670e-02
  4.298232e+00    4.577061e-01   2.449449e-02
  4.300443e+00    4.356898e-01   2.409518e-02
  4.302653e+00    3.929046e-01   2.307902e-02
  4.304864e+00    5.607408e-01   2.781060e-02
  4.307074e+00    4.430604e-01   2.494317e-02
  4.309285e+00    4.014446e-01   2.395806e-02
  4.311495e+00    4.625310e-01   2.595737e-02
  4.313706e+00    4.489937e-01   2.581458e-02
  4.315916e+00    3.371216e-01   2.258927e-02
  4.318126e+00    4.295340e-01   2.574867e-02
  4.320337e+00    5.289214e-01   2.886332e-02
  4.322547e+00    4.945254e-01   2.820504e-02
  4.324758e+00    4.142003e-01   2.608114e-02
  4.326968e+00    4.458292e-01   2.736356e-02
  4.329179e+00    4.080087e-01   2.646520e-02
  4.331389e+00    4.299906e-01   2.748203e-02
  4.333600e+00    4.473811e-01   2.836758e-02
  4.335810e+00    5.674565e-01   3.232714e-02
  4.338021e+00    5.597749e-01   3.251941e-02
  4.340231e+00    5.242616e-01   3.186651e-02
  4.342442e+00    4.758685e-01   3.076722e-02
  4.344652e+00    3.826376e-01   2.796362e-02
  4.346862e+00    4.768001e-01   3.165239e-02
  4.349073e+00    5.126756e-01   3.329963e-02
  4.351283e+00    3.831135e-01   2.921553e-02
  4.353494e+00    4.460649e-01   3.201097e-02
  4.355704e+00    4.666502e-01   3.327012e-02
  4.357915e+00    4.679430e-01   3.386984e-02
  4.360125e+00    4.817668e-01   3.495215e-02
  4.362336e+00    5.808238e-01   3.907825e-02
  4.364546e+00    4.538455e-01   3.517347e-02
  4.366757e+00    3.449965e-01   3.127537e-02
  4.368967e+00    3.977168e-01   3.425033e-02
  4.371177e+00    5.430092e-01   4.087020e-02
  4.373388e+00    5.536762e-01   4.219376e-02
  4.375598e+00    4.883426e-01   4.053198e-02
  4.377809e+00    2.381055e-01   2.901573e-02
  4.380019e+00    2.922512e-01   3.295674e-02
  4.382230e+00    3.189238e-01   3.538750e-02
  4.384440e+00    2.727972e-01   3.366946e-02
  4.386651e+00    4.556417e-01   4.485684e-02
  4.388861e+00    3.501085e-01   4.063978e-02
  4.391072e+00    4.957767e-01   5.006091e-02
  4.393282e+00    2.885419e-01   3.966661e-02
  4.395492e+00    3.309333e-01   4.424493e-02
  4.397703e+00    3.587654e-01   4.817626e-02
  4.399913e+00    5.562849e-01   6.302156e-02
  4.402124e+00    3.941090e-01   5.605785e-02
  4.404334e+00    5.530760e-01   7.058556e-02
  4.406545e+00    4.178430e-01   6.592271e-02
  4.408755e+00    6.260805e-01   8.751132e-02
  4.410966e+00    4.239968e-01   7.970852e-02
  4.413176e+00    1.481841e-01   5.334714e-02
  4.415387e+00   -5.877935e-01            nan
  4.417597e+00   -1.505326e+00            nan
  4.419807e+00   -1.939845e-01            nan
