# == pyFAI calibration ==
# Distance Sample to Detector: 0.216 m
# PONI: 1.166e-01, 1.308e-01 m
# Rotations: 0.000000 0.000000 0.000000 rad
# 
# == Fit2d calibration ==
# Distance Sample-beamCenter: 216.000 mm
# Center: x=1744.293, y=1555.000 pix
# Tilt: 0.000 deg  TiltPlanRot: 0.000 deg
# 
# Detector Eiger 9M	 PixelSize= 7.500e-05, 7.500e-05 m
#    Detector has a mask: True 
#    Detector has a dark current: False 
#    detector has a flat field: False 
# 
# Wavelength: 9.8e-11 m
# Mask applied: from detector
# Dark current applied: False
# Flat field applied: False
# Polarization factor: None
# Normalization factor: 1.0
# 
# Headers of the input frame:
# {
# "_array_data.header_convention": "SLS_1.0",
# "_array_data.header_contents": "# Detector: Dectris Eiger 9M, S/N E-18-0102\r\n# Pixel_size 75e-6 m x 75e-6 m\r\n# Silicon sensor, thickness 0.000450 m\r\n# Exposure_time 0.024997 s\r\n# Exposure_period 0.025000 s\r\n# Count_cutoff 62318 counts\r\n# Wavelength 0.980106 A\r\n# Detector_distance 0.215992 m\r\n# Beam_xy (1555, 1744) pixels\r\n# Start_angle 0.000000 deg.\r\n# Angle_increment 0.000000 deg.",
# "Content-Type": "application/octet-stream;",
# "conversions": "x-CBF_BYTE_OFFSET",
# "Content-Transfer-Encoding": "BINARY",
# "X-Binary-Size": "10166638",
# "X-Binary-ID": "1",
# "X-Binary-Element-Type": "signed 32-bit integer",
# "X-Binary-Element-Byte-Order": "LITTLE_ENDIAN",
# "Content-MD5": "VSI0Nvdghovv9newhbPqZQ==",
# "X-Binary-Number-of-Elements": "10166590",
# "X-Binary-Size-Fastest-Dimension": "3110",
# "X-Binary-Size-Second-Dimension": "3269",
# "X-Binary-Size-Padding": "4095"
# }
# --> H:/Proxima2a_2019-04-05/RAW_DATA/C5_gel17_position5/C5_mesh_1_data.cbf/C5_mesh_1_data.cbf000154.dat
#        q_A^-1              I           sigma 
  1.105228e-03    5.343030e-01   3.955312e-01
  3.315685e-03    1.887869e+00   4.519926e-01
  5.526141e-03    1.669592e+00   3.286831e-01
  7.736597e-03    1.545311e+00   2.671334e-01
  9.947054e-03    1.654466e+00   2.436719e-01
  1.215751e-02    1.638813e+00   2.192973e-01
  1.436797e-02    1.516432e+00   1.940382e-01
  1.657842e-02    1.571650e+00   1.838748e-01
  1.878888e-02    1.492147e+00   1.682943e-01
  2.099934e-02    1.538082e+00   1.616560e-01
  2.320979e-02    1.580639e+00   1.558652e-01
  2.542025e-02    1.480193e+00   1.441348e-01
  2.763070e-02    1.398854e+00   1.343929e-01
  2.984116e-02    1.505145e+00   1.341423e-01
  3.205162e-02    1.381091e+00   1.239930e-01
  3.426207e-02    1.521331e+00   1.258597e-01
  3.647253e-02    1.332794e+00   1.141751e-01
  3.868299e-02    1.276925e+00   1.085246e-01
  4.089344e-02    1.547155e+00   1.161843e-01
  4.310390e-02    1.461580e+00   1.099854e-01
  4.531436e-02    1.365412e+00   1.036806e-01
  4.752481e-02    1.396035e+00   1.023687e-01
  4.973527e-02    1.339253e+00   9.801288e-02
  5.194572e-02    1.301094e+00   9.452731e-02
  5.415618e-02    1.461403e+00   9.811234e-02
  5.636664e-02    1.449763e+00   9.578856e-02
  5.857709e-02    1.455653e+00   9.415501e-02
  6.078755e-02    1.445280e+00   9.209441e-02
  6.299801e-02    1.480755e+00   9.156681e-02
  6.520846e-02    1.521897e+00   9.124381e-02
  6.741892e-02    1.405906e+00   8.624382e-02
  6.962938e-02    1.481739e+00   8.712688e-02
  7.183983e-02    1.519591e+00   8.686312e-02
  7.405029e-02    1.542443e+00   8.619575e-02
  7.626074e-02    1.469629e+00   8.290758e-02
  7.847120e-02    1.541526e+00   8.370461e-02
  8.068166e-02    1.565517e+00   8.318925e-02
  8.289211e-02    1.536775e+00   8.131521e-02
  8.510257e-02    1.546533e+00   8.050613e-02
  8.731303e-02    1.551203e+00   7.959744e-02
  8.952348e-02    1.542866e+00   7.839920e-02
  9.173394e-02    1.653268e+00   8.016883e-02
  9.394439e-02    1.553465e+00   7.678919e-02
  9.615485e-02    1.506642e+00   7.474716e-02
  9.836531e-02    1.481916e+00   7.329161e-02
  1.005758e-01    1.492769e+00   7.274710e-02
  1.027862e-01    1.562695e+00   7.362492e-02
  1.049967e-01    1.641657e+00   7.466226e-02
  1.072071e-01    1.576123e+00   7.239790e-02
  1.094176e-01    1.503474e+00   6.999069e-02
  1.116280e-01    1.614190e+00   7.179876e-02
  1.138385e-01    1.616267e+00   7.114263e-02
  1.160490e-01    1.520565e+00   6.834309e-02
  1.182594e-01    1.539943e+00   6.812988e-02
  1.204699e-01    1.487621e+00   6.634478e-02
  1.226803e-01    1.543787e+00   6.697120e-02
  1.248908e-01    1.574360e+00   6.702913e-02
  1.271012e-01    1.574904e+00   6.645387e-02
  1.293117e-01    1.675694e+00   6.795808e-02
  1.315222e-01    1.568083e+00   6.518352e-02
  1.337326e-01    1.596230e+00   6.521887e-02
  1.359431e-01    1.604030e+00   6.541632e-02
  1.381535e-01    1.546854e+00   6.510212e-02
  1.403640e-01    1.571177e+00   6.589527e-02
  1.425744e-01    1.611159e+00   6.683503e-02
  1.447849e-01    1.624619e+00   6.712909e-02
  1.469953e-01    1.622094e+00   6.703487e-02
  1.492058e-01    1.658432e+00   6.770281e-02
  1.514163e-01    1.625481e+00   6.691556e-02
  1.536267e-01    1.636064e+00   6.700196e-02
  1.558372e-01    1.575031e+00   6.559522e-02
  1.580476e-01    1.642279e+00   6.681836e-02
  1.602581e-01    1.670301e+00   6.721487e-02
  1.624685e-01    1.692288e+00   6.747059e-02
  1.646790e-01    1.730608e+00   6.803428e-02
  1.668895e-01    1.703263e+00   6.729972e-02
  1.690999e-01    1.743118e+00   6.787810e-02
  1.713104e-01    1.747414e+00   6.775078e-02
  1.735208e-01    1.801048e+00   6.856877e-02
  1.757313e-01    1.825545e+00   6.881718e-02
  1.779417e-01    1.923386e+00   7.040688e-02
  1.801522e-01    1.926988e+00   7.024833e-02
  1.823626e-01    1.948983e+00   7.041292e-02
  1.845731e-01    1.972685e+00   7.061029e-02
  1.867836e-01    1.919109e+00   6.940983e-02
  1.889940e-01    1.884221e+00   6.855126e-02
  1.912045e-01    1.980832e+00   7.005202e-02
  1.934149e-01    2.036387e+00   7.078987e-02
  1.956254e-01    1.988402e+00   6.972013e-02
  1.978358e-01    2.032012e+00   7.023902e-02
  2.000463e-01    2.007526e+00   6.958319e-02
  2.022568e-01    2.059323e+00   7.024381e-02
  2.044672e-01    2.065324e+00   7.010511e-02
  2.066777e-01    2.159793e+00   7.145257e-02
  2.088881e-01    2.006925e+00   6.865215e-02
  2.110986e-01    2.052198e+00   6.918409e-02
  2.133090e-01    2.098893e+00   6.973934e-02
  2.155195e-01    2.042241e+00   6.856350e-02
  2.177300e-01    1.948190e+00   6.644006e-02
  2.199404e-01    1.955186e+00   6.480540e-02
  2.221509e-01    2.037515e+00   6.506942e-02
  2.243613e-01    2.026587e+00   6.407204e-02
  2.265718e-01    2.057435e+00   6.384624e-02
  2.287822e-01    2.129661e+00   6.431432e-02
  2.309927e-01    2.178681e+00   6.445767e-02
  2.332031e-01    2.215142e+00   6.443854e-02
  2.354136e-01    2.201062e+00   6.371281e-02
  2.376241e-01    2.152765e+00   6.252085e-02
  2.398345e-01    2.156472e+00   6.211156e-02
  2.420450e-01    2.200295e+00   6.229109e-02
  2.442554e-01    2.196445e+00   6.180783e-02
  2.464659e-01    2.135337e+00   6.053282e-02
  2.486763e-01    2.087368e+00   5.945562e-02
  2.508868e-01    2.187066e+00   6.047502e-02
  2.530973e-01    2.202111e+00   6.030647e-02
  2.553077e-01    2.212508e+00   6.008199e-02
  2.575182e-01    2.130844e+00   5.861390e-02
  2.597286e-01    2.138315e+00   5.837523e-02
  2.619391e-01    2.120361e+00   5.779500e-02
  2.641495e-01    2.116954e+00   5.742893e-02
  2.663600e-01    2.069320e+00   5.646688e-02
  2.685704e-01    2.095078e+00   5.650927e-02
  2.707809e-01    2.040815e+00   5.547662e-02
  2.729914e-01    2.094422e+00   5.590761e-02
  2.752018e-01    1.989419e+00   5.420456e-02
  2.774123e-01    2.029607e+00   5.446961e-02
  2.796227e-01    2.102446e+00   5.516421e-02
  2.818332e-01    1.994391e+00   5.345992e-02
  2.840436e-01    1.932589e+00   5.236997e-02
  2.862541e-01    1.905811e+00   5.175591e-02
  2.884646e-01    1.924178e+00   5.175787e-02
  2.906750e-01    1.987034e+00   5.234709e-02
  2.928855e-01    1.990808e+00   5.215399e-02
  2.950959e-01    1.998267e+00   5.201158e-02
  2.973064e-01    1.979933e+00   5.153974e-02
  2.995168e-01    1.988666e+00   5.141934e-02
  3.017273e-01    1.991413e+00   5.122799e-02
  3.039377e-01    1.927042e+00   5.017256e-02
  3.061482e-01    2.066429e+00   5.173068e-02
  3.083587e-01    1.998736e+00   5.065612e-02
  3.105691e-01    1.928575e+00   4.954654e-02
  3.127796e-01    1.947855e+00   4.958425e-02
  3.149900e-01    1.980411e+00   4.978856e-02
  3.172005e-01    1.952403e+00   4.923314e-02
  3.194109e-01    1.898249e+00   4.834511e-02
  3.216214e-01    1.913571e+00   4.834179e-02
  3.238319e-01    1.882628e+00   4.775938e-02
  3.260423e-01    1.887426e+00   4.762971e-02
  3.282528e-01    1.871593e+00   4.724070e-02
  3.304632e-01    1.932534e+00   4.781767e-02
  3.326737e-01    1.937741e+00   4.769523e-02
  3.348841e-01    1.912311e+00   4.719750e-02
  3.370946e-01    1.920737e+00   4.712339e-02
  3.393050e-01    1.939144e+00   4.716930e-02
  3.415155e-01    1.933136e+00   4.691908e-02
  3.437260e-01    1.874410e+00   4.602970e-02
  3.459364e-01    1.890956e+00   4.606137e-02
  3.481469e-01    1.826290e+00   4.510172e-02
  3.503573e-01    1.808920e+00   4.472318e-02
  3.525678e-01    1.806647e+00   4.453580e-02
  3.547782e-01    1.816195e+00   4.449192e-02
  3.569887e-01    1.833607e+00   4.454631e-02
  3.591992e-01    1.778425e+00   4.371564e-02
  3.614096e-01    1.864685e+00   4.460806e-02
  3.636201e-01    1.830952e+00   4.404742e-02
  3.658305e-01    1.883662e+00   4.452452e-02
  3.680410e-01    1.879584e+00   4.432334e-02
  3.702514e-01    1.878663e+00   4.416347e-02
  3.724619e-01    1.843648e+00   4.360097e-02
  3.746724e-01    1.808594e+00   4.304042e-02
  3.768828e-01    1.785697e+00   4.262316e-02
  3.790933e-01    1.852869e+00   4.327597e-02
  3.813037e-01    1.862640e+00   4.324796e-02
  3.835142e-01    1.798337e+00   4.235534e-02
  3.857246e-01    1.791924e+00   4.214290e-02
  3.879351e-01    1.805843e+00   4.216932e-02
  3.901455e-01    1.864336e+00   4.271042e-02
  3.923560e-01    1.844123e+00   4.234328e-02
  3.945665e-01    1.838171e+00   4.214082e-02
  3.967769e-01    1.761604e+00   4.112462e-02
  3.989874e-01    1.784886e+00   4.126623e-02
  4.011978e-01    1.822839e+00   4.157440e-02
  4.034083e-01    1.871354e+00   4.199471e-02
  4.056187e-01    1.827164e+00   4.136809e-02
  4.078292e-01    1.844474e+00   4.143780e-02
  4.100397e-01    1.878952e+00   4.169560e-02
  4.122501e-01    1.842685e+00   4.116772e-02
  4.144606e-01    1.806835e+00   4.064438e-02
  4.166710e-01    1.835955e+00   4.084879e-02
  4.188815e-01    1.798798e+00   4.031387e-02
  4.210919e-01    1.805667e+00   4.027241e-02
  4.233024e-01    1.814908e+00   4.025655e-02
  4.255128e-01    1.839589e+00   4.041222e-02
  4.277233e-01    1.798102e+00   3.983912e-02
  4.299338e-01    1.841639e+00   4.020251e-02
  4.321442e-01    1.849812e+00   4.017635e-02
  4.343547e-01    1.786429e+00   3.937041e-02
  4.365651e-01    1.793594e+00   3.933717e-02
  4.387756e-01    1.823242e+00   3.954992e-02
  4.409860e-01    1.818990e+00   3.939434e-02
  4.431965e-01    1.747882e+00   3.850988e-02
  4.454070e-01    1.771920e+00   3.866589e-02
  4.476174e-01    1.812675e+00   3.900065e-02
  4.498279e-01    1.811907e+00   3.888632e-02
  4.520383e-01    1.757078e+00   3.818835e-02
  4.542488e-01    1.750725e+00   3.801645e-02
  4.564592e-01    1.817831e+00   3.863426e-02
  4.586697e-01    1.813725e+00   3.848819e-02
  4.608801e-01    1.778104e+00   3.800629e-02
  4.630906e-01    1.791920e+00   3.805263e-02
  4.653011e-01    1.797575e+00   3.801241e-02
  4.675115e-01    1.765163e+00   3.756894e-02
  4.697220e-01    1.743069e+00   3.723535e-02
  4.719324e-01    1.727875e+00   3.697680e-02
  4.741429e-01    1.745758e+00   3.707189e-02
  4.763533e-01    1.714913e+00   3.664874e-02
  4.785638e-01    1.711141e+00   3.651382e-02
  4.807743e-01    1.745691e+00   3.678682e-02
  4.829847e-01    1.730704e+00   3.653605e-02
  4.851952e-01    1.755071e+00   3.669923e-02
  4.874056e-01    1.752433e+00   3.657920e-02
  4.896161e-01    1.733120e+00   3.628686e-02
  4.918265e-01    1.698539e+00   3.583381e-02
  4.940370e-01    1.740997e+00   3.618934e-02
  4.962475e-01    1.696476e+00   3.563540e-02
  4.984579e-01    1.728315e+00   3.587959e-02
  5.006684e-01    1.722568e+00   3.573257e-02
  5.028788e-01    1.702259e+00   3.543522e-02
  5.050893e-01    1.681362e+00   3.513140e-02
  5.072997e-01    1.700902e+00   3.524959e-02
  5.095102e-01    1.734511e+00   3.551091e-02
  5.117206e-01    1.712834e+00   3.520441e-02
  5.139311e-01    1.699471e+00   3.498381e-02
  5.161416e-01    1.730620e+00   3.521953e-02
  5.183520e-01    1.757741e+00   3.541007e-02
  5.205625e-01    1.721285e+00   3.495887e-02
  5.227729e-01    1.703948e+00   3.470123e-02
  5.249834e-01    1.739395e+00   3.497893e-02
  5.271938e-01    1.702231e+00   3.452249e-02
  5.294043e-01    1.728683e+00   3.470940e-02
  5.316148e-01    1.788844e+00   3.522734e-02
  5.338252e-01    1.814082e+00   3.539389e-02
  5.360357e-01    1.824791e+00   3.541740e-02
  5.382461e-01    1.769605e+00   3.479891e-02
  5.404566e-01    1.766900e+00   3.469315e-02
  5.426670e-01    1.785019e+00   3.479201e-02
  5.448775e-01    1.825318e+00   3.510396e-02
  5.470879e-01    1.831758e+00   3.508742e-02
  5.492984e-01    1.816176e+00   3.486015e-02
  5.515089e-01    1.805979e+00   3.468508e-02
  5.537193e-01    1.789557e+00   3.445094e-02
  5.559298e-01    1.787905e+00   3.435949e-02
  5.581402e-01    1.799394e+00   3.439440e-02
  5.603507e-01    1.792768e+00   3.425632e-02
  5.625611e-01    1.796833e+00   3.422070e-02
  5.647716e-01    1.775854e+00   3.394647e-02
  5.669821e-01    1.829306e+00   3.437928e-02
  5.691925e-01    1.836266e+00   3.437070e-02
  5.714030e-01    1.813717e+00   3.408618e-02
  5.736134e-01    1.787751e+00   3.376933e-02
  5.758239e-01    1.764645e+00   3.347879e-02
  5.780343e-01    1.744784e+00   3.321943e-02
  5.802448e-01    1.753197e+00   3.322972e-02
  5.824552e-01    1.686430e+00   3.252245e-02
  5.846657e-01    1.682026e+00   3.241226e-02
  5.868762e-01    1.653443e+00   3.206876e-02
  5.890866e-01    1.673494e+00   3.219570e-02
  5.912971e-01    1.695590e+00   3.234043e-02
  5.935075e-01    1.675028e+00   3.207735e-02
  5.957180e-01    1.630333e+00   3.158154e-02
  5.979284e-01    1.651773e+00   3.172363e-02
  6.001389e-01    1.658585e+00   3.172424e-02
  6.023494e-01    1.687459e+00   3.193421e-02
  6.045598e-01    1.679404e+00   3.179305e-02
  6.067703e-01    1.664456e+00   3.158760e-02
  6.089807e-01    1.669539e+00   3.157217e-02
  6.111912e-01    1.716089e+00   3.194539e-02
  6.134016e-01    1.725103e+00   3.196530e-02
  6.156121e-01    1.713689e+00   3.179604e-02
  6.178226e-01    1.746093e+00   3.203171e-02
  6.200330e-01    1.713189e+00   3.166588e-02
  6.222435e-01    1.739713e+00   3.184684e-02
  6.244539e-01    1.754811e+00   3.192213e-02
  6.266644e-01    1.723721e+00   3.157635e-02
  6.288748e-01    1.725410e+00   3.153034e-02
  6.310853e-01    1.752532e+00   3.171549e-02
  6.332957e-01    1.779417e+00   3.189612e-02
  6.355062e-01    1.753933e+00   3.160539e-02
  6.377167e-01    1.765900e+00   3.165215e-02
  6.399271e-01    1.773979e+00   3.166372e-02
  6.421376e-01    1.740586e+00   3.130440e-02
  6.443480e-01    1.777973e+00   3.157864e-02
  6.465585e-01    1.737892e+00   3.116154e-02
  6.487689e-01    1.716349e+00   3.090931e-02
  6.509794e-01    1.734882e+00   3.101712e-02
  6.531899e-01    1.721899e+00   3.084275e-02
  6.554003e-01    1.657987e+00   3.020803e-02
  6.576108e-01    1.649822e+00   3.007744e-02
  6.598212e-01    1.672129e+00   3.022384e-02
  6.620317e-01    1.667078e+00   3.012221e-02
  6.642421e-01    1.613162e+00   2.957631e-02
  6.664526e-01    1.615060e+00   2.953915e-02
  6.686630e-01    1.664118e+00   2.992901e-02
  6.708735e-01    1.643398e+00   2.968754e-02
  6.730840e-01    1.634802e+00   2.955581e-02
  6.752944e-01    1.629924e+00   2.945802e-02
  6.775049e-01    1.616982e+00   2.928756e-02
  6.797153e-01    1.615344e+00   2.921972e-02
  6.819258e-01    1.639930e+00   2.938814e-02
  6.841362e-01    1.669743e+00   2.960074e-02
  6.863467e-01    1.632009e+00   2.921196e-02
  6.885572e-01    1.632252e+00   2.916177e-02
  6.907676e-01    1.628703e+00   2.907785e-02
  6.929781e-01    1.641740e+00   2.914211e-02
  6.951885e-01    1.617090e+00   2.887128e-02
  6.973990e-01    1.564206e+00   2.834507e-02
  6.996094e-01    1.591947e+00   2.854498e-02
  7.018199e-01    1.637303e+00   2.889797e-02
  7.040303e-01    1.618697e+00   2.868282e-02
  7.062408e-01    1.649911e+00   2.890733e-02
  7.084513e-01    1.633953e+00   2.871717e-02
  7.106617e-01    1.612351e+00   2.847712e-02
  7.128722e-01    1.630165e+00   2.858447e-02
  7.150826e-01    1.605358e+00   2.831726e-02
  7.172931e-01    1.594574e+00   2.817333e-02
  7.195035e-01    1.612753e+00   2.828477e-02
  7.217140e-01    1.600914e+00   2.823061e-02
  7.239245e-01    1.584235e+00   2.831060e-02
  7.261349e-01    1.589746e+00   2.846891e-02
  7.283454e-01    1.630941e+00   2.890910e-02
  7.305558e-01    1.631061e+00   2.896513e-02
  7.327663e-01    1.580351e+00   2.855390e-02
  7.349767e-01    1.577252e+00   2.854224e-02
  7.371872e-01    1.553517e+00   2.831559e-02
  7.393976e-01    1.555291e+00   2.831755e-02
  7.416081e-01    1.579501e+00   2.852092e-02
  7.438186e-01    1.587287e+00   2.844622e-02
  7.460290e-01    1.600514e+00   2.826787e-02
  7.482395e-01    1.590756e+00   2.800951e-02
  7.504499e-01    1.606312e+00   2.800850e-02
  7.526604e-01    1.562671e+00   2.750930e-02
  7.548708e-01    1.564078e+00   2.743256e-02
  7.570813e-01    1.600127e+00   2.769550e-02
  7.592918e-01    1.585766e+00   2.753565e-02
  7.615022e-01    1.615449e+00   2.775792e-02
  7.637127e-01    1.595219e+00   2.755059e-02
  7.659231e-01    1.631968e+00   2.783353e-02
  7.681336e-01    1.630560e+00   2.778938e-02
  7.703440e-01    1.589966e+00   2.740991e-02
  7.725545e-01    1.605861e+00   2.751537e-02
  7.747650e-01    1.647243e+00   2.782859e-02
  7.769754e-01    1.619085e+00   2.753629e-02
  7.791859e-01    1.561414e+00   2.698818e-02
  7.813963e-01    1.568585e+00   2.699764e-02
  7.836068e-01    1.598038e+00   2.719772e-02
  7.858172e-01    1.581393e+00   2.700513e-02
  7.880277e-01    1.715311e+00   2.807177e-02
  7.902381e-01    1.998209e+00   3.024329e-02
  7.924486e-01    2.051927e+00   3.059047e-02
  7.946591e-01    1.741619e+00   2.813227e-02
  7.968695e-01    1.672195e+00   2.751648e-02
  7.990800e-01    1.657260e+00   2.734437e-02
  8.012904e-01    1.663643e+00   2.734960e-02
  8.035009e-01    1.624212e+00   2.697546e-02
  8.057113e-01    1.625547e+00   2.693985e-02
  8.079218e-01    1.641955e+00   2.702878e-02
  8.101323e-01    1.636472e+00   2.693776e-02
  8.123427e-01    1.672915e+00   2.718964e-02
  8.145532e-01    1.665517e+00   2.708304e-02
  8.167636e-01    1.641736e+00   2.684378e-02
  8.189741e-01    1.673094e+00   2.705374e-02
  8.211845e-01    1.688901e+00   2.713569e-02
  8.233950e-01    1.678396e+00   2.700719e-02
  8.256054e-01    1.650849e+00   2.674023e-02
  8.278159e-01    1.667508e+00   2.683046e-02
  8.300264e-01    1.686420e+00   2.693845e-02
  8.322368e-01    1.675852e+00   2.681033e-02
  8.344473e-01    1.675951e+00   2.676723e-02
  8.366577e-01    1.684597e+00   2.679304e-02
  8.388682e-01    1.686473e+00   2.676508e-02
  8.410786e-01    1.707570e+00   2.688907e-02
  8.432891e-01    1.673018e+00   2.657335e-02
  8.454996e-01    1.671782e+00   2.652149e-02
  8.477100e-01    1.682889e+00   2.656720e-02
  8.499205e-01    1.669509e+00   2.641985e-02
  8.521309e-01    1.683001e+00   2.648499e-02
  8.543414e-01    1.670241e+00   2.634326e-02
  8.565518e-01    1.649957e+00   2.614206e-02
  8.587623e-01    1.617625e+00   2.584432e-02
  8.609727e-01    1.651234e+00   2.607096e-02
  8.631832e-01    1.595631e+00   2.558874e-02
  8.653937e-01    1.590245e+00   2.550623e-02
  8.676041e-01    1.576183e+00   2.535491e-02
  8.698146e-01    1.596257e+00   2.547684e-02
  8.720250e-01    1.634672e+00   2.574231e-02
  8.742355e-01    1.614801e+00   2.554641e-02
  8.764459e-01    1.600687e+00   2.539573e-02
  8.786564e-01    1.616787e+00   2.548507e-02
  8.808669e-01    1.587279e+00   2.521315e-02
  8.830773e-01    1.616686e+00   2.540733e-02
  8.852878e-01    1.596827e+00   2.521295e-02
  8.874982e-01    1.589654e+00   2.511974e-02
  8.897087e-01    1.597511e+00   2.514410e-02
  8.919191e-01    1.623885e+00   2.531277e-02
  8.941296e-01    1.613450e+00   2.519389e-02
  8.963401e-01    1.625764e+00   2.525311e-02
  8.985505e-01    1.619990e+00   2.517105e-02
  9.007610e-01    1.615524e+00   2.509940e-02
  9.029714e-01    1.609294e+00   2.501503e-02
  9.051819e-01    1.602087e+00   2.492169e-02
  9.073923e-01    1.624512e+00   2.505866e-02
  9.096028e-01    1.613590e+00   2.493922e-02
  9.118132e-01    1.622802e+00   2.497382e-02
  9.140237e-01    1.615876e+00   2.488369e-02
  9.162342e-01    1.567517e+00   2.447430e-02
  9.184446e-01    1.587285e+00   2.459249e-02
  9.206551e-01    1.627567e+00   2.486672e-02
  9.228655e-01    1.601116e+00   2.462858e-02
  9.250760e-01    1.606349e+00   2.463338e-02
  9.272864e-01    1.639205e+00   2.484937e-02
  9.294969e-01    1.661073e+00   2.497812e-02
  9.317074e-01    1.666497e+00   2.498352e-02
  9.339178e-01    1.658056e+00   2.488614e-02
  9.361283e-01    1.640826e+00   2.472000e-02
  9.383387e-01    1.657974e+00   2.481502e-02
  9.405492e-01    1.705230e+00   2.513104e-02
  9.427596e-01    1.680908e+00   2.491526e-02
  9.449701e-01    1.688488e+00   2.493744e-02
  9.471805e-01    1.689832e+00   2.491204e-02
  9.493910e-01    1.687846e+00   2.486321e-02
  9.516015e-01    1.719341e+00   2.505909e-02
  9.538119e-01    1.729205e+00   2.509641e-02
  9.560224e-01    1.738299e+00   2.512692e-02
  9.582328e-01    1.770926e+00   2.532758e-02
  9.604433e-01    1.787056e+00   2.540667e-02
  9.626537e-01    1.765933e+00   2.522209e-02
  9.648642e-01    1.791550e+00   2.536957e-02
  9.670747e-01    1.814118e+00   2.549367e-02
  9.692851e-01    1.853234e+00   2.573279e-02
  9.714956e-01    1.878726e+00   2.587265e-02
  9.737060e-01    1.877024e+00   2.582695e-02
  9.759165e-01    1.857839e+00   2.565840e-02
  9.781269e-01    1.866604e+00   2.568519e-02
  9.803374e-01    1.893875e+00   2.583638e-02
  9.825478e-01    1.857617e+00   2.555411e-02
  9.847583e-01    1.841241e+00   2.540667e-02
  9.869688e-01    1.823901e+00   2.525291e-02
  9.891792e-01    1.796289e+00   2.502772e-02
  9.913897e-01    1.765479e+00   2.477868e-02
  9.936001e-01    1.743618e+00   2.459254e-02
  9.958106e-01    1.770553e+00   2.474808e-02
  9.980210e-01    1.732313e+00   2.444762e-02
  1.000231e+00    1.712057e+00   2.443738e-02
  1.002442e+00    1.705950e+00   2.452340e-02
  1.004652e+00    1.633839e+00   2.406643e-02
  1.006863e+00    1.646897e+00   2.421255e-02
  1.009073e+00    1.629386e+00   2.412033e-02
  1.011284e+00    1.651651e+00   2.431704e-02
  1.013494e+00    1.647383e+00   2.430970e-02
  1.015705e+00    1.589205e+00   2.389915e-02
  1.017915e+00    1.587214e+00   2.390063e-02
  1.020126e+00    1.564332e+00   2.374377e-02
  1.022336e+00    1.551333e+00   2.365655e-02
  1.024547e+00    1.553928e+00   2.368756e-02
  1.026757e+00    1.547352e+00   2.364575e-02
  1.028967e+00    1.541674e+00   2.361001e-02
  1.031178e+00    1.529907e+00   2.352588e-02
  1.033388e+00    1.545939e+00   2.365390e-02
  1.035599e+00    1.544265e+00   2.364455e-02
  1.037809e+00    1.508023e+00   2.336868e-02
  1.040020e+00    1.536975e+00   2.359321e-02
  1.042230e+00    1.504951e+00   2.334806e-02
  1.044441e+00    1.518791e+00   2.345493e-02
  1.046651e+00    1.540086e+00   2.361901e-02
  1.048862e+00    1.481447e+00   2.316418e-02
  1.051072e+00    1.511601e+00   2.339637e-02
  1.053282e+00    1.503852e+00   2.333538e-02
  1.055493e+00    1.496036e+00   2.327036e-02
  1.057703e+00    1.486218e+00   2.319235e-02
  1.059914e+00    1.516503e+00   2.342315e-02
  1.062124e+00    1.520419e+00   2.344929e-02
  1.064335e+00    1.517024e+00   2.341963e-02
  1.066545e+00    1.482361e+00   2.314452e-02
  1.068756e+00    1.520971e+00   2.344019e-02
  1.070966e+00    1.513311e+00   2.337449e-02
  1.073177e+00    1.514464e+00   2.337726e-02
  1.075387e+00    1.487067e+00   2.315957e-02
  1.077597e+00    1.558957e+00   2.370528e-02
  1.079808e+00    1.557162e+00   2.355479e-02
  1.082018e+00    1.476620e+00   2.274757e-02
  1.084229e+00    1.483582e+00   2.269018e-02
  1.086439e+00    1.501163e+00   2.273545e-02
  1.088650e+00    1.509384e+00   2.272052e-02
  1.090860e+00    1.483568e+00   2.245710e-02
  1.093071e+00    1.444972e+00   2.210098e-02
  1.095281e+00    1.467929e+00   2.221815e-02
  1.097492e+00    1.473119e+00   2.220198e-02
  1.099702e+00    1.473424e+00   2.215230e-02
  1.101912e+00    1.435926e+00   2.181980e-02
  1.104123e+00    1.435759e+00   2.177032e-02
  1.106333e+00    1.432907e+00   2.170426e-02
  1.108544e+00    1.434663e+00   2.167321e-02
  1.110754e+00    1.452766e+00   2.176612e-02
  1.112965e+00    1.420443e+00   2.148211e-02
  1.115175e+00    1.407260e+00   2.134119e-02
  1.117386e+00    1.418833e+00   2.138944e-02
  1.119596e+00    1.412297e+00   2.130225e-02
  1.121807e+00    1.430031e+00   2.139648e-02
  1.124017e+00    1.407216e+00   2.118848e-02
  1.126228e+00    1.395484e+00   2.106431e-02
  1.128438e+00    1.424610e+00   2.124592e-02
  1.130648e+00    1.424207e+00   2.120831e-02
  1.132859e+00    1.392570e+00   2.093712e-02
  1.135069e+00    1.358704e+00   2.064667e-02
  1.137280e+00    1.355403e+00   2.058897e-02
  1.139490e+00    1.384748e+00   2.077761e-02
  1.141701e+00    1.394138e+00   2.081473e-02
  1.143911e+00    1.376163e+00   2.064833e-02
  1.146122e+00    1.357392e+00   2.047528e-02
  1.148332e+00    1.380441e+00   2.061647e-02
  1.150543e+00    1.398516e+00   2.071997e-02
  1.152753e+00    1.405180e+00   2.073810e-02
  1.154963e+00    1.387339e+00   2.057485e-02
  1.157174e+00    1.372770e+00   2.043637e-02
  1.159384e+00    1.358688e+00   2.030157e-02
  1.161595e+00    1.355662e+00   2.024927e-02
  1.163805e+00    1.352290e+00   2.019498e-02
  1.166016e+00    1.362624e+00   2.024262e-02
  1.168226e+00    1.359089e+00   2.018747e-02
  1.170437e+00    1.387758e+00   2.037042e-02
  1.172647e+00    1.382677e+00   2.030403e-02
  1.174858e+00    1.373682e+00   2.020968e-02
  1.177068e+00    1.360187e+00   2.008195e-02
  1.179278e+00    1.358779e+00   2.004300e-02
  1.181489e+00    1.362051e+00   2.004009e-02
  1.183699e+00    1.338466e+00   1.983845e-02
  1.185910e+00    1.359599e+00   1.996665e-02
  1.188120e+00    1.384543e+00   2.012203e-02
  1.190331e+00    1.374660e+00   2.002312e-02
  1.192541e+00    1.360264e+00   1.989059e-02
  1.194752e+00    1.352060e+00   1.980345e-02
  1.196962e+00    1.366465e+00   1.988280e-02
  1.199173e+00    1.350165e+00   1.973735e-02
  1.201383e+00    1.349859e+00   1.970796e-02
  1.203593e+00    1.339512e+00   1.960756e-02
  1.205804e+00    1.332009e+00   1.952682e-02
  1.208014e+00    1.395919e+00   1.996244e-02
  1.210225e+00    1.545887e+00   2.098028e-02
  1.212435e+00    1.798356e+00   2.260011e-02
  1.214646e+00    1.785999e+00   2.249245e-02
  1.216856e+00    1.521613e+00   2.073396e-02
  1.219067e+00    1.397181e+00   1.984317e-02
  1.221277e+00    1.368470e+00   1.961300e-02
  1.223488e+00    1.408284e+00   1.986997e-02
  1.225698e+00    1.413296e+00   1.987777e-02
  1.227909e+00    1.427502e+00   1.994642e-02
  1.230119e+00    1.398778e+00   1.971230e-02
  1.232329e+00    1.373515e+00   1.950248e-02
  1.234540e+00    1.395826e+00   1.962943e-02
  1.236750e+00    1.398183e+00   1.961521e-02
  1.238961e+00    1.398729e+00   1.959160e-02
  1.241171e+00    1.378098e+00   1.942212e-02
  1.243382e+00    1.397274e+00   1.953287e-02
  1.245592e+00    1.388921e+00   1.944996e-02
  1.247803e+00    1.382898e+00   1.938379e-02
  1.250013e+00    1.456973e+00   1.987167e-02
  1.252224e+00    1.567545e+00   2.058690e-02
  1.254434e+00    1.566400e+00   2.055385e-02
  1.256644e+00    1.494769e+00   2.005397e-02
  1.258855e+00    1.456172e+00   1.976918e-02
  1.261065e+00    1.433498e+00   1.959059e-02
  1.263276e+00    1.403947e+00   1.936421e-02
  1.265486e+00    1.417642e+00   1.943497e-02
  1.267697e+00    1.408117e+00   1.934609e-02
  1.269907e+00    1.368049e+00   1.904598e-02
  1.272118e+00    1.399592e+00   1.924132e-02
  1.274328e+00    1.410973e+00   1.929616e-02
  1.276539e+00    1.385412e+00   1.909748e-02
  1.278749e+00    1.492246e+00   1.979666e-02
  1.280959e+00    1.685147e+00   2.101217e-02
  1.283170e+00    1.692911e+00   2.103550e-02
  1.285380e+00    1.548461e+00   2.009399e-02
  1.287591e+00    1.465051e+00   1.952234e-02
  1.289801e+00    1.424862e+00   1.923090e-02
  1.292012e+00    1.385149e+00   1.894368e-02
  1.294222e+00    1.387213e+00   1.894133e-02
  1.296433e+00    1.387418e+00   1.892691e-02
  1.298643e+00    1.417134e+00   1.911165e-02
  1.300854e+00    1.390512e+00   1.891465e-02
  1.303064e+00    1.375628e+00   1.879373e-02
  1.305274e+00    1.378979e+00   1.879492e-02
  1.307485e+00    1.388844e+00   1.884020e-02
  1.309695e+00    1.357365e+00   1.860316e-02
  1.311906e+00    1.352917e+00   1.855091e-02
  1.314116e+00    1.361130e+00   1.858626e-02
  1.316327e+00    1.351977e+00   1.850196e-02
  1.318537e+00    1.356822e+00   1.851313e-02
  1.320748e+00    1.366883e+00   1.855996e-02
  1.322958e+00    1.386722e+00   1.867337e-02
  1.325169e+00    1.374774e+00   1.857154e-02
  1.327379e+00    1.361696e+00   1.846109e-02
  1.329589e+00    1.387974e+00   1.861700e-02
  1.331800e+00    1.410028e+00   1.874318e-02
  1.334010e+00    1.382954e+00   1.854148e-02
  1.336221e+00    1.368521e+00   1.842254e-02
  1.338431e+00    1.368885e+00   1.840400e-02
  1.340642e+00    1.380607e+00   1.854750e-02
  1.342852e+00    1.383274e+00   1.866733e-02
  1.345063e+00    1.355511e+00   1.852863e-02
  1.347273e+00    1.358894e+00   1.858710e-02
  1.349484e+00    1.361911e+00   1.863551e-02
  1.351694e+00    1.364516e+00   1.867615e-02
  1.353905e+00    1.332660e+00   1.847475e-02
  1.356115e+00    1.341779e+00   1.855284e-02
  1.358325e+00    1.344848e+00   1.858734e-02
  1.360536e+00    1.350166e+00   1.863568e-02
  1.362746e+00    1.356439e+00   1.868852e-02
  1.364957e+00    1.342865e+00   1.860242e-02
  1.367167e+00    1.332967e+00   1.854086e-02
  1.369378e+00    1.338310e+00   1.858394e-02
  1.371588e+00    1.357399e+00   1.872120e-02
  1.373799e+00    1.338800e+00   1.859616e-02
  1.376009e+00    1.325997e+00   1.851041e-02
  1.378220e+00    1.313842e+00   1.842789e-02
  1.380430e+00    1.306026e+00   1.837566e-02
  1.382640e+00    1.336966e+00   1.859296e-02
  1.384851e+00    1.316946e+00   1.845412e-02
  1.387061e+00    1.306846e+00   1.838350e-02
  1.389272e+00    1.304774e+00   1.836914e-02
  1.391482e+00    1.291669e+00   1.827598e-02
  1.393693e+00    1.290546e+00   1.826715e-02
  1.395903e+00    1.307877e+00   1.838788e-02
  1.398114e+00    1.298864e+00   1.832305e-02
  1.400324e+00    1.288157e+00   1.824523e-02
  1.402535e+00    1.269771e+00   1.811223e-02
  1.404745e+00    1.282888e+00   1.820318e-02
  1.406955e+00    1.281853e+00   1.819313e-02
  1.409166e+00    1.284360e+00   1.820759e-02
  1.411376e+00    1.293317e+00   1.826782e-02
  1.413587e+00    1.290787e+00   1.824611e-02
  1.415797e+00    1.260633e+00   1.802820e-02
  1.418008e+00    1.258491e+00   1.797119e-02
  1.420218e+00    1.278061e+00   1.796018e-02
  1.422429e+00    1.270555e+00   1.782203e-02
  1.424639e+00    1.288128e+00   1.787971e-02
  1.426850e+00    1.264016e+00   1.765700e-02
  1.429060e+00    1.286014e+00   1.776069e-02
  1.431270e+00    1.277526e+00   1.765754e-02
  1.433481e+00    1.297196e+00   1.775156e-02
  1.435691e+00    1.308933e+00   1.779268e-02
  1.437902e+00    1.326821e+00   1.787656e-02
  1.440112e+00    1.311738e+00   1.773877e-02
  1.442323e+00    1.309101e+00   1.768737e-02
  1.444533e+00    1.282041e+00   1.747091e-02
  1.446744e+00    1.306419e+00   1.760464e-02
  1.448954e+00    1.301771e+00   1.754274e-02
  1.451165e+00    1.291308e+00   1.744209e-02
  1.453375e+00    1.308135e+00   1.752689e-02
  1.455586e+00    1.303759e+00   1.746904e-02
  1.457796e+00    1.283130e+00   1.730262e-02
  1.460006e+00    1.306967e+00   1.743494e-02
  1.462217e+00    1.303728e+00   1.738678e-02
  1.464427e+00    1.276829e+00   1.718078e-02
  1.466638e+00    1.286307e+00   1.721893e-02
  1.468848e+00    1.290328e+00   1.722030e-02
  1.471059e+00    1.280129e+00   1.712690e-02
  1.473269e+00    1.272852e+00   1.705374e-02
  1.475480e+00    1.260731e+00   1.694866e-02
  1.477690e+00    1.275195e+00   1.702169e-02
  1.479901e+00    1.305566e+00   1.719902e-02
  1.482111e+00    1.296518e+00   1.711574e-02
  1.484321e+00    1.263548e+00   1.687361e-02
  1.486532e+00    1.262740e+00   1.684593e-02
  1.488742e+00    1.239843e+00   1.667007e-02
  1.490953e+00    1.269755e+00   1.684730e-02
  1.493163e+00    1.279547e+00   1.688973e-02
  1.495374e+00    1.262705e+00   1.675672e-02
  1.497584e+00    1.272082e+00   1.679706e-02
  1.499795e+00    1.265973e+00   1.673501e-02
  1.502005e+00    1.263979e+00   1.670009e-02
  1.504216e+00    1.241740e+00   1.653162e-02
  1.506426e+00    1.277106e+00   1.674442e-02
  1.508636e+00    1.293205e+00   1.682890e-02
  1.510847e+00    1.290249e+00   1.678755e-02
  1.513057e+00    1.262711e+00   1.658228e-02
  1.515268e+00    1.273496e+00   1.662702e-02
  1.517478e+00    1.297029e+00   1.675438e-02
  1.519689e+00    1.288981e+00   1.667701e-02
  1.521899e+00    1.296035e+00   1.669908e-02
  1.524110e+00    1.296863e+00   1.668375e-02
  1.526320e+00    1.259612e+00   1.642273e-02
  1.528531e+00    1.261258e+00   1.641361e-02
  1.530741e+00    1.275148e+00   1.648441e-02
  1.532951e+00    1.274420e+00   1.645992e-02
  1.535162e+00    1.268500e+00   1.650890e-02
  1.537372e+00    1.281128e+00   1.665863e-02
  1.539583e+00    1.253611e+00   1.651307e-02
  1.541793e+00    1.256393e+00   1.653834e-02
  1.544004e+00    1.258255e+00   1.655085e-02
  1.546214e+00    1.249908e+00   1.649436e-02
  1.548425e+00    1.237105e+00   1.640993e-02
  1.550635e+00    1.257705e+00   1.655570e-02
  1.552846e+00    1.252597e+00   1.653176e-02
  1.555056e+00    1.247303e+00   1.645525e-02
  1.557266e+00    1.243346e+00   1.631872e-02
  1.559477e+00    1.245625e+00   1.627453e-02
  1.561687e+00    1.225128e+00   1.610965e-02
  1.563898e+00    1.240224e+00   1.619145e-02
  1.566108e+00    1.273587e+00   1.639165e-02
  1.568319e+00    1.284672e+00   1.644697e-02
  1.570529e+00    1.285941e+00   1.642954e-02
  1.572740e+00    1.263267e+00   1.625622e-02
  1.574950e+00    1.253330e+00   1.616576e-02
  1.577161e+00    1.244849e+00   1.608548e-02
  1.579371e+00    1.271195e+00   1.623090e-02
  1.581582e+00    1.272070e+00   1.621650e-02
  1.583792e+00    1.262455e+00   1.613695e-02
  1.586002e+00    1.256175e+00   1.607905e-02
  1.588213e+00    1.256510e+00   1.606388e-02
  1.590423e+00    1.269756e+00   1.612803e-02
  1.592634e+00    1.267116e+00   1.608946e-02
  1.594844e+00    1.247392e+00   1.594230e-02
  1.597055e+00    1.248956e+00   1.593174e-02
  1.599265e+00    1.238479e+00   1.584408e-02
  1.601476e+00    1.254298e+00   1.592451e-02
  1.603686e+00    1.270869e+00   1.600937e-02
  1.605897e+00    1.285381e+00   1.607999e-02
  1.608107e+00    1.242564e+00   1.579030e-02
  1.610317e+00    1.267994e+00   1.593151e-02
  1.612528e+00    1.261437e+00   1.587089e-02
  1.614738e+00    1.269524e+00   1.590244e-02
  1.616949e+00    1.252537e+00   1.577652e-02
  1.619159e+00    1.249438e+00   1.573805e-02
  1.621370e+00    1.251330e+00   1.573128e-02
  1.623580e+00    1.226064e+00   1.555323e-02
  1.625791e+00    1.219702e+00   1.549446e-02
  1.628001e+00    1.225388e+00   1.551212e-02
  1.630212e+00    1.203535e+00   1.535534e-02
  1.632422e+00    1.183443e+00   1.520877e-02
  1.634632e+00    1.163996e+00   1.506610e-02
  1.636843e+00    1.174304e+00   1.511514e-02
  1.639053e+00    1.213690e+00   1.534893e-02
  1.641264e+00    1.235549e+00   1.546901e-02
  1.643474e+00    1.177894e+00   1.508627e-02
  1.645685e+00    1.154088e+00   1.491641e-02
  1.647895e+00    1.126247e+00   1.471898e-02
  1.650106e+00    1.163380e+00   1.494257e-02
  1.652316e+00    1.156569e+00   1.488224e-02
  1.654527e+00    1.142885e+00   1.477726e-02
  1.656737e+00    1.124033e+00   1.463840e-02
  1.658947e+00    1.136613e+00   1.470377e-02
  1.661158e+00    1.131781e+00   1.465618e-02
  1.663368e+00    1.233404e+00   1.528318e-02
  1.665579e+00    1.423420e+00   1.640009e-02
  1.667789e+00    1.374415e+00   1.609739e-02
  1.670000e+00    1.229462e+00   1.520860e-02
  1.672210e+00    1.177401e+00   1.486671e-02
  1.674421e+00    1.147655e+00   1.466211e-02
  1.676631e+00    1.129559e+00   1.452996e-02
  1.678842e+00    1.112800e+00   1.440591e-02
  1.681052e+00    1.111093e+00   1.437934e-02
  1.683263e+00    1.117172e+00   1.440330e-02
  1.685473e+00    1.167362e+00   1.470756e-02
  1.687683e+00    1.186693e+00   1.481270e-02
  1.689894e+00    1.172280e+00   1.470606e-02
  1.692104e+00    1.153926e+00   1.457504e-02
  1.694315e+00    1.121790e+00   1.435581e-02
  1.696525e+00    1.104731e+00   1.423085e-02
  1.698736e+00    1.110184e+00   1.425078e-02
  1.700946e+00    1.096079e+00   1.414459e-02
  1.703157e+00    1.080996e+00   1.403211e-02
  1.705367e+00    1.083222e+00   1.403185e-02
  1.707578e+00    1.083422e+00   1.401834e-02
  1.709788e+00    1.084298e+00   1.400962e-02
  1.711998e+00    1.104262e+00   1.412256e-02
  1.714209e+00    1.236625e+00   1.492926e-02
  1.716419e+00    1.275152e+00   1.514422e-02
  1.718630e+00    1.070799e+00   1.386322e-02
  1.720840e+00    1.055716e+00   1.375088e-02
  1.723051e+00    1.020098e+00   1.350307e-02
  1.725261e+00    1.022398e+00   1.350361e-02
  1.727472e+00    1.010216e+00   1.340880e-02
  1.729682e+00    1.022652e+00   1.347758e-02
  1.731893e+00    1.000950e+00   1.331997e-02
  1.734103e+00    9.955698e-01   1.327043e-02
  1.736313e+00    9.971377e-01   1.326691e-02
  1.738524e+00    9.948348e-01   1.323782e-02
  1.740734e+00    9.998345e-01   1.325732e-02
  1.742945e+00    9.946114e-01   1.320922e-02
  1.745155e+00    9.871109e-01   1.314589e-02
  1.747366e+00    9.887260e-01   1.314285e-02
  1.749576e+00    9.792575e-01   1.306613e-02
  1.751787e+00    9.869975e-01   1.310430e-02
  1.753997e+00    9.633707e-01   1.293324e-02
  1.756208e+00    9.492341e-01   1.282496e-02
  1.758418e+00    9.435332e-01   1.277348e-02
  1.760628e+00    9.472381e-01   1.278532e-02
  1.762839e+00    9.525119e-01   1.280774e-02
  1.765049e+00    9.429782e-01   1.273049e-02
  1.767260e+00    9.632722e-01   1.285392e-02
  1.769470e+00    9.572642e-01   1.280077e-02
  1.771681e+00    9.420712e-01   1.268572e-02
  1.773891e+00    9.416072e-01   1.266959e-02
  1.776102e+00    9.436710e-01   1.267063e-02
  1.778312e+00    9.400616e-01   1.263367e-02
  1.780523e+00    9.449475e-01   1.265368e-02
  1.782733e+00    9.791804e-01   1.286792e-02
  1.784944e+00    9.497480e-01   1.266008e-02
  1.787154e+00    9.428959e-01   1.260172e-02
  1.789364e+00    9.510820e-01   1.264367e-02
  1.791575e+00    9.514921e-01   1.263371e-02
  1.793785e+00    9.104593e-01   1.234598e-02
  1.795996e+00    9.153746e-01   1.236675e-02
  1.798206e+00    9.348671e-01   1.248513e-02
  1.800417e+00    9.229316e-01   1.239245e-02
  1.802627e+00    9.235150e-01   1.238437e-02
  1.804838e+00    9.021520e-01   1.222824e-02
  1.807048e+00    9.051933e-01   1.223601e-02
  1.809259e+00    8.972210e-01   1.216851e-02
  1.811469e+00    9.014575e-01   1.218224e-02
  1.813679e+00    8.943136e-01   1.211898e-02
  1.815890e+00    8.965041e-01   1.211906e-02
  1.818100e+00    8.936743e-01   1.208485e-02
  1.820311e+00    8.890507e-01   1.203882e-02
  1.822521e+00    8.762731e-01   1.193726e-02
  1.824732e+00    8.828117e-01   1.196695e-02
  1.826942e+00    8.747180e-01   1.189973e-02
  1.829153e+00    8.841521e-01   1.195205e-02
  1.831363e+00    8.857103e-01   1.195052e-02
  1.833574e+00    8.763327e-01   1.187545e-02
  1.835784e+00    8.762679e-01   1.186361e-02
  1.837994e+00    8.743341e-01   1.183881e-02
  1.840205e+00    8.956374e-01   1.197086e-02
  1.842415e+00    8.843897e-01   1.188362e-02
  1.844626e+00    8.717865e-01   1.178707e-02
  1.846836e+00    8.694213e-01   1.175964e-02
  1.849047e+00    8.564956e-01   1.166034e-02
  1.851257e+00    8.580053e-01   1.166108e-02
  1.853468e+00    8.577797e-01   1.165076e-02
  1.855678e+00    8.786208e-01   1.178247e-02
  1.857889e+00    8.630288e-01   1.166895e-02
  1.860099e+00    8.716968e-01   1.171869e-02
  1.862309e+00    8.551360e-01   1.159835e-02
  1.864520e+00    8.580990e-01   1.160983e-02
  1.866730e+00    8.560100e-01   1.158630e-02
  1.868941e+00    8.465318e-01   1.151108e-02
  1.871151e+00    8.223519e-01   1.133429e-02
  1.873362e+00    8.554249e-01   1.154857e-02
  1.875572e+00    8.469278e-01   1.148016e-02
  1.877783e+00    8.461866e-01   1.146373e-02
  1.879993e+00    8.258508e-01   1.131411e-02
  1.882204e+00    8.469824e-01   1.144703e-02
  1.884414e+00    8.373084e-01   1.137045e-02
  1.886624e+00    8.458099e-01   1.141694e-02
  1.888835e+00    8.404019e-01   1.136941e-02
  1.891045e+00    8.420109e-01   1.136941e-02
  1.893256e+00    8.332579e-01   1.129909e-02
  1.895466e+00    8.206509e-01   1.120224e-02
  1.897677e+00    8.219506e-01   1.120027e-02
  1.899887e+00    8.311456e-01   1.125177e-02
  1.902098e+00    8.405129e-01   1.130412e-02
  1.904308e+00    8.398743e-01   1.128916e-02
  1.906519e+00    8.469576e-01   1.132574e-02
  1.908729e+00    8.189038e-01   1.112605e-02
  1.910940e+00    8.058839e-01   1.102626e-02
  1.913150e+00    8.005924e-01   1.097957e-02
  1.915360e+00    8.165509e-01   1.107788e-02
  1.917571e+00    8.228992e-01   1.111001e-02
  1.919781e+00    8.177141e-01   1.106428e-02
  1.921992e+00    8.097224e-01   1.099953e-02
  1.924202e+00    8.232901e-01   1.108049e-02
  1.926413e+00    8.234345e-01   1.107114e-02
  1.928623e+00    8.065597e-01   1.094660e-02
  1.930834e+00    8.202161e-01   1.102841e-02
  1.933044e+00    8.462986e-01   1.119148e-02
  1.935255e+00    8.829648e-01   1.142056e-02
  1.937465e+00    8.590718e-01   1.125431e-02
  1.939675e+00    8.170981e-01   1.096500e-02
  1.941886e+00    7.955630e-01   1.080931e-02
  1.944096e+00    7.968167e-01   1.080767e-02
  1.946307e+00    7.985601e-01   1.080917e-02
  1.948517e+00    8.120059e-01   1.088927e-02
  1.950728e+00    8.163001e-01   1.090766e-02
  1.952938e+00    8.143185e-01   1.088423e-02
  1.955149e+00    8.094653e-01   1.084143e-02
  1.957359e+00    8.066188e-01   1.081225e-02
  1.959570e+00    8.162235e-01   1.086538e-02
  1.961780e+00    8.149807e-01   1.084710e-02
  1.963990e+00    7.795317e-01   1.059852e-02
  1.966201e+00    7.872494e-01   1.064079e-02
  1.968411e+00    7.964541e-01   1.069265e-02
  1.970622e+00    7.849107e-01   1.060479e-02
  1.972832e+00    7.983032e-01   1.068484e-02
  1.975043e+00    8.332825e-01   1.090607e-02
  1.977253e+00    8.296674e-01   1.087219e-02
  1.979464e+00    8.168597e-01   1.077767e-02
  1.981674e+00    8.231539e-01   1.080861e-02
  1.983885e+00    8.086788e-01   1.070296e-02
  1.986095e+00    8.034201e-01   1.065826e-02
  1.988305e+00    8.016546e-01   1.063651e-02
  1.990516e+00    8.000472e-01   1.061578e-02
  1.992726e+00    7.945104e-01   1.056921e-02
  1.994937e+00    7.982166e-01   1.058356e-02
  1.997147e+00    7.952845e-01   1.055427e-02
  1.999358e+00    7.918917e-01   1.052175e-02
  2.001568e+00    8.197051e-01   1.069381e-02
  2.003779e+00    8.285432e-01   1.073896e-02
  2.005989e+00    8.313538e-01   1.074470e-02
  2.008200e+00    7.990604e-01   1.052221e-02
  2.010410e+00    7.895156e-01   1.044726e-02
  2.012621e+00    7.969830e-01   1.048463e-02
  2.014831e+00    7.991402e-01   1.048711e-02
  2.017041e+00    7.803011e-01   1.035229e-02
  2.019252e+00    7.617829e-01   1.021878e-02
  2.021462e+00    7.727097e-01   1.028223e-02
  2.023673e+00    7.821988e-01   1.033569e-02
  2.025883e+00    7.885320e-01   1.036776e-02
  2.028094e+00    8.038538e-01   1.045811e-02
  2.030304e+00    7.824229e-01   1.030810e-02
  2.032515e+00    7.906638e-01   1.035276e-02
  2.034725e+00    7.686926e-01   1.019841e-02
  2.036936e+00    7.906971e-01   1.033380e-02
  2.039146e+00    7.749214e-01   1.022052e-02
  2.041356e+00    7.814093e-01   1.025341e-02
  2.043567e+00    7.827998e-01   1.025306e-02
  2.045777e+00    7.741292e-01   1.018676e-02
  2.047988e+00    7.737464e-01   1.017474e-02
  2.050198e+00    7.774136e-01   1.019028e-02
  2.052409e+00    7.690587e-01   1.012762e-02
  2.054619e+00    7.525190e-01   1.001076e-02
  2.056830e+00    7.435640e-01   9.943873e-03
  2.059040e+00    7.548564e-01   1.001154e-02
  2.061251e+00    7.578977e-01   1.002444e-02
  2.063461e+00    7.539648e-01   9.990743e-03
  2.065671e+00    7.513939e-01   9.964991e-03
  2.067882e+00    7.507725e-01   9.951839e-03
  2.070092e+00    7.512559e-01   9.945812e-03
  2.072303e+00    7.834691e-01   1.014744e-02
  2.074513e+00    8.032807e-01   1.026527e-02
  2.076724e+00    8.046374e-01   1.026411e-02
  2.078934e+00    7.721046e-01   1.004532e-02
  2.081145e+00    7.435059e-01   9.848421e-03
  2.083355e+00    7.535036e-01   9.905145e-03
  2.085566e+00    7.823863e-01   1.008405e-02
  2.087776e+00    7.981525e-01   1.017528e-02
  2.089986e+00    8.077211e-01   1.022691e-02
  2.092197e+00    7.862544e-01   1.008084e-02
  2.094407e+00    7.826101e-01   1.004795e-02
  2.096618e+00    7.629310e-01   9.911741e-03
  2.098828e+00    7.450234e-01   9.785363e-03
  2.101039e+00    7.285081e-01   9.667333e-03
  2.103249e+00    7.185541e-01   9.592466e-03
  2.105460e+00    7.255245e-01   9.629888e-03
  2.107670e+00    7.403932e-01   9.719252e-03
  2.109881e+00    7.396103e-01   9.704884e-03
  2.112091e+00    7.250798e-01   9.600095e-03
  2.114301e+00    7.257724e-01   9.595886e-03
  2.116512e+00    7.125681e-01   9.499478e-03
  2.118722e+00    7.029876e-01   9.426672e-03
  2.120933e+00    7.201243e-01   9.532030e-03
  2.123143e+00    7.058330e-01   9.428148e-03
  2.125354e+00    7.191204e-01   9.507922e-03
  2.127564e+00    7.263556e-01   9.546861e-03
  2.129775e+00    7.135562e-01   9.453651e-03
  2.131985e+00    7.156657e-01   9.458554e-03
  2.134196e+00    7.136484e-01   9.436610e-03
  2.136406e+00    7.268984e-01   9.514987e-03
  2.138617e+00    7.176720e-01   9.445908e-03
  2.140827e+00    7.161416e-01   9.451977e-03
  2.143037e+00    7.101047e-01   9.457625e-03
  2.145248e+00    7.046062e-01   9.442917e-03
  2.147458e+00    7.135507e-01   9.517903e-03
  2.149669e+00    7.048253e-01   9.471396e-03
  2.151879e+00    7.115679e-01   9.525871e-03
  2.154090e+00    7.137868e-01   9.548103e-03
  2.156300e+00    7.043826e-01   9.491618e-03
  2.158511e+00    7.026733e-01   9.485400e-03
  2.160721e+00    7.050785e-01   9.506461e-03
  2.162932e+00    6.972221e-01   9.457107e-03
  2.165142e+00    7.084915e-01   9.536235e-03
  2.167352e+00    7.126431e-01   9.567123e-03
  2.169563e+00    6.917558e-01   9.427811e-03
  2.171773e+00    7.097219e-01   9.551909e-03
  2.173984e+00    7.216103e-01   9.633036e-03
  2.176194e+00    7.039867e-01   9.515906e-03
  2.178405e+00    6.955106e-01   9.459124e-03
  2.180615e+00    6.924106e-01   9.438694e-03
  2.182826e+00    6.946332e-01   9.454529e-03
  2.185036e+00    6.965519e-01   9.467616e-03
  2.187247e+00    6.888894e-01   9.415359e-03
  2.189457e+00    7.043949e-01   9.520297e-03
  2.191667e+00    7.113633e-01   9.567101e-03
  2.193878e+00    7.053735e-01   9.526194e-03
  2.196088e+00    6.782799e-01   9.340738e-03
  2.198299e+00    6.935943e-01   9.444509e-03
  2.200509e+00    7.114928e-01   9.564504e-03
  2.202720e+00    7.150494e-01   9.587216e-03
  2.204930e+00    7.048231e-01   9.517158e-03
  2.207141e+00    6.905909e-01   9.419447e-03
  2.209351e+00    6.755415e-01   9.314375e-03
  2.211562e+00    6.887403e-01   9.403283e-03
  2.213772e+00    6.892774e-01   9.350965e-03
  2.215982e+00    6.907420e-01   9.316205e-03
  2.218193e+00    6.848943e-01   9.246863e-03
  2.220403e+00    6.912519e-01   9.264774e-03
  2.222614e+00    7.008746e-01   9.307686e-03
  2.224824e+00    7.097316e-01   9.346408e-03
  2.227035e+00    6.826937e-01   9.149101e-03
  2.229245e+00    6.773372e-01   9.096078e-03
  2.231456e+00    6.799946e-01   9.098181e-03
  2.233666e+00    6.893106e-01   9.145006e-03
  2.235877e+00    6.913560e-01   9.144070e-03
  2.238087e+00    6.867405e-01   9.099860e-03
  2.240298e+00    6.763265e-01   9.016746e-03
  2.242508e+00    6.971626e-01   9.139148e-03
  2.244718e+00    6.621357e-01   8.890882e-03
  2.246929e+00    6.557171e-01   8.833390e-03
  2.249139e+00    6.626300e-01   8.867481e-03
  2.251350e+00    6.803230e-01   8.973266e-03
  2.253560e+00    6.848076e-01   8.991096e-03
  2.255771e+00    6.740699e-01   8.908821e-03
  2.257981e+00    6.721357e-01   8.884808e-03
  2.260192e+00    6.815298e-01   8.935422e-03
  2.262402e+00    6.717632e-01   8.860261e-03
  2.264613e+00    6.627499e-01   8.789788e-03
  2.266823e+00    6.699597e-01   8.827022e-03
  2.269033e+00    6.624666e-01   8.767135e-03
  2.271244e+00    6.601523e-01   8.741443e-03
  2.273454e+00    6.556945e-01   8.701677e-03
  2.275665e+00    6.585853e-01   8.710532e-03
  2.277875e+00    6.841492e-01   8.867892e-03
  2.280086e+00    6.683623e-01   8.754876e-03
  2.282296e+00    6.801846e-01   8.822422e-03
  2.284507e+00    6.674796e-01   8.729438e-03
  2.286717e+00    6.836494e-01   8.824884e-03
  2.288928e+00    6.789825e-01   8.784692e-03
  2.291138e+00    6.622931e-01   8.666584e-03
  2.293348e+00    6.671734e-01   8.688839e-03
  2.295559e+00    6.564084e-01   8.609139e-03
  2.297769e+00    6.704659e-01   8.691470e-03
  2.299980e+00    6.618499e-01   8.626040e-03
  2.302190e+00    6.591570e-01   8.599334e-03
  2.304401e+00    6.517025e-01   8.541221e-03
  2.306611e+00    6.649626e-01   8.618406e-03
  2.308822e+00    6.582441e-01   8.566331e-03
  2.311032e+00    6.438488e-01   8.465717e-03
  2.313243e+00    6.532081e-01   8.520738e-03
  2.315453e+00    6.545283e-01   8.521741e-03
  2.317663e+00    6.493646e-01   8.478921e-03
  2.319874e+00    6.507007e-01   8.478886e-03
  2.322084e+00    6.481407e-01   8.453204e-03
  2.324295e+00    6.565825e-01   8.499774e-03
  2.326505e+00    6.567621e-01   8.491810e-03
  2.328716e+00    6.429236e-01   8.393322e-03
  2.330926e+00    6.364569e-01   8.342248e-03
  2.333137e+00    6.451883e-01   8.390878e-03
  2.335347e+00    6.500031e-01   8.413198e-03
  2.337558e+00    6.583059e-01   8.458429e-03
  2.339768e+00    6.428464e-01   8.349916e-03
  2.341979e+00    6.440480e-01   8.349323e-03
  2.344189e+00    6.474080e-01   8.362607e-03
  2.346399e+00    6.617687e-01   8.446190e-03
  2.348610e+00    6.495467e-01   8.359278e-03
  2.350820e+00    6.465651e-01   8.331829e-03
  2.353031e+00    6.416580e-01   8.291795e-03
  2.355241e+00    6.413070e-01   8.281443e-03
  2.357452e+00    6.309989e-01   8.206187e-03
  2.359662e+00    6.368793e-01   8.236083e-03
  2.361873e+00    6.463523e-01   8.288783e-03
  2.364083e+00    6.349623e-01   8.207392e-03
  2.366294e+00    6.355141e-01   8.202805e-03
  2.368504e+00    6.235651e-01   8.117272e-03
  2.370714e+00    6.200813e-01   8.086533e-03
  2.372925e+00    6.260599e-01   8.117375e-03
  2.375135e+00    6.314189e-01   8.143930e-03
  2.377346e+00    6.232768e-01   8.083323e-03
  2.379556e+00    6.192956e-01   8.049577e-03
  2.381767e+00    6.156521e-01   8.018048e-03
  2.383977e+00    6.090957e-01   7.967388e-03
  2.386188e+00    6.140415e-01   7.991758e-03
  2.388398e+00    6.153198e-01   7.992157e-03
  2.390609e+00    6.115048e-01   7.959654e-03
  2.392819e+00    6.134140e-01   7.964311e-03
  2.395029e+00    6.124934e-01   7.950688e-03
  2.397240e+00    6.119167e-01   7.939092e-03
  2.399450e+00    6.118069e-01   7.930587e-03
  2.401661e+00    6.215344e-01   7.985643e-03
  2.403871e+00    6.052725e-01   7.872772e-03
  2.406082e+00    6.069524e-01   7.876259e-03
  2.408292e+00    5.940249e-01   7.784246e-03
  2.410503e+00    5.998779e-01   7.815052e-03
  2.412713e+00    6.200022e-01   7.937187e-03
  2.414924e+00    6.068154e-01   7.844841e-03
  2.417134e+00    5.996429e-01   7.790744e-03
  2.419344e+00    5.775492e-01   7.638608e-03
  2.421555e+00    5.956258e-01   7.749761e-03
  2.423765e+00    6.038802e-01   7.795843e-03
  2.425976e+00    5.950876e-01   7.731122e-03
  2.428186e+00    5.846542e-01   7.655906e-03
  2.430397e+00    5.988854e-01   7.741038e-03
  2.432607e+00    6.021767e-01   7.754952e-03
  2.434818e+00    5.996857e-01   7.731342e-03
  2.437028e+00    6.021143e-01   7.739769e-03
  2.439239e+00    5.998188e-01   7.717320e-03
  2.441449e+00    5.943394e-01   7.674774e-03
  2.443659e+00    5.798398e-01   7.573315e-03
  2.445870e+00    5.745913e-01   7.551023e-03
  2.448080e+00    5.676693e-01   7.539769e-03
  2.450291e+00    5.662898e-01   7.547040e-03
  2.452501e+00    5.813241e-01   7.657774e-03
  2.454712e+00    5.717354e-01   7.602780e-03
  2.456922e+00    5.826436e-01   7.681647e-03
  2.459133e+00    5.737184e-01   7.628068e-03
  2.461343e+00    5.575675e-01   7.524224e-03
  2.463554e+00    5.583237e-01   7.532795e-03
  2.465764e+00    5.495783e-01   7.476653e-03
  2.467975e+00    5.377529e-01   7.398022e-03
  2.470185e+00    5.449991e-01   7.449924e-03
  2.472395e+00    5.393109e-01   7.412140e-03
  2.474606e+00    5.437482e-01   7.444120e-03
  2.476816e+00    5.479677e-01   7.473681e-03
  2.479027e+00    5.595645e-01   7.553204e-03
  2.481237e+00    5.453799e-01   7.457148e-03
  2.483448e+00    5.550819e-01   7.523474e-03
  2.485658e+00    5.567445e-01   7.534593e-03
  2.487869e+00    5.533694e-01   7.511761e-03
  2.490079e+00    5.525553e-01   7.505707e-03
  2.492290e+00    5.445797e-01   7.450914e-03
  2.494500e+00    5.416291e-01   7.429956e-03
  2.496710e+00    5.388986e-01   7.410511e-03
  2.498921e+00    5.322142e-01   7.363419e-03
  2.501131e+00    5.314609e-01   7.357262e-03
  2.503342e+00    5.292172e-01   7.340455e-03
  2.505552e+00    5.441144e-01   7.441876e-03
  2.507763e+00    5.552646e-01   7.516334e-03
  2.509973e+00    5.463502e-01   7.454333e-03
  2.512184e+00    5.308848e-01   7.346436e-03
  2.514394e+00    5.321190e-01   7.345580e-03
  2.516605e+00    5.351943e-01   7.319302e-03
  2.518815e+00    5.471897e-01   7.372001e-03
  2.521025e+00    5.445539e-01   7.332880e-03
  2.523236e+00    5.410256e-01   7.290850e-03
  2.525446e+00    5.386157e-01   7.258775e-03
  2.527657e+00    5.474792e-01   7.303359e-03
  2.529867e+00    5.437949e-01   7.264324e-03
  2.532078e+00    5.232824e-01   7.110972e-03
  2.534288e+00    5.480818e-01   7.263336e-03
  2.536499e+00    5.417472e-01   7.209098e-03
  2.538709e+00    5.463635e-01   7.228543e-03
  2.540920e+00    5.318148e-01   7.120925e-03
  2.543130e+00    5.177392e-01   7.015761e-03
  2.545340e+00    5.121861e-01   6.968068e-03
  2.547551e+00    5.269862e-01   7.058046e-03
  2.549761e+00    5.190731e-01   6.995310e-03
  2.551972e+00    5.319099e-01   7.071833e-03
  2.554182e+00    5.176768e-01   6.967430e-03
  2.556393e+00    5.216236e-01   6.984838e-03
  2.558603e+00    5.209916e-01   6.971536e-03
  2.560814e+00    5.158439e-01   6.928334e-03
  2.563024e+00    5.295600e-01   7.011160e-03
  2.565235e+00    5.277556e-01   6.989643e-03
  2.567445e+00    5.254990e-01   6.965058e-03
  2.569656e+00    5.242597e-01   6.947051e-03
  2.571866e+00    5.068719e-01   6.821607e-03
  2.574076e+00    5.264842e-01   6.942961e-03
  2.576287e+00    5.297908e-01   6.956314e-03
  2.578497e+00    5.081077e-01   6.804698e-03
  2.580708e+00    5.014367e-01   6.751876e-03
  2.582918e+00    5.256768e-01   6.905308e-03
  2.585129e+00    5.290072e-01   6.919309e-03
  2.587339e+00    5.129053e-01   6.805519e-03
  2.589550e+00    5.152444e-01   6.813434e-03
  2.591760e+00    5.157577e-01   6.809077e-03
  2.593971e+00    5.161141e-01   6.803863e-03
  2.596181e+00    5.191041e-01   6.817270e-03
  2.598391e+00    5.202414e-01   6.819512e-03
  2.600602e+00    5.087027e-01   6.737541e-03
  2.602812e+00    5.146365e-01   6.769136e-03
  2.605023e+00    5.199692e-01   6.796900e-03
  2.607233e+00    4.998459e-01   6.656978e-03
  2.609444e+00    5.181748e-01   6.770627e-03
  2.611654e+00    5.114236e-01   6.719030e-03
  2.613865e+00    5.079601e-01   6.689180e-03
  2.616075e+00    5.078518e-01   6.681324e-03
  2.618286e+00    5.168731e-01   6.733325e-03
  2.620496e+00    5.033718e-01   6.638127e-03
  2.622706e+00    5.095245e-01   6.672788e-03
  2.624917e+00    5.046803e-01   6.635155e-03
  2.627127e+00    5.051116e-01   6.632244e-03
  2.629338e+00    4.827489e-01   6.477921e-03
  2.631548e+00    5.028872e-01   6.605459e-03
  2.633759e+00    4.950064e-01   6.546440e-03
  2.635969e+00    4.956862e-01   6.544265e-03
  2.638180e+00    5.145006e-01   6.660227e-03
  2.640390e+00    5.085403e-01   6.614902e-03
  2.642601e+00    5.167140e-01   6.661069e-03
  2.644811e+00    5.078870e-01   6.596821e-03
  2.647021e+00    5.030301e-01   6.558593e-03
  2.649232e+00    5.069122e-01   6.577095e-03
  2.651442e+00    4.965664e-01   6.503151e-03
  2.653653e+00    5.055599e-01   6.554937e-03
  2.655863e+00    5.007564e-01   6.517015e-03
  2.658074e+00    5.070667e-01   6.551282e-03
  2.660284e+00    5.071082e-01   6.545130e-03
  2.662495e+00    4.996666e-01   6.490168e-03
  2.664705e+00    4.944375e-01   6.449567e-03
  2.666916e+00    5.196021e-01   6.605023e-03
  2.669126e+00    5.168753e-01   6.581097e-03
  2.671337e+00    5.094113e-01   6.526734e-03
  2.673547e+00    4.878551e-01   6.380824e-03
  2.675757e+00    4.870090e-01   6.368873e-03
  2.677968e+00    4.997456e-01   6.445059e-03
  2.680178e+00    4.969035e-01   6.420290e-03
  2.682389e+00    5.059978e-01   6.472290e-03
  2.684599e+00    5.084269e-01   6.481526e-03
  2.686810e+00    5.086459e-01   6.476216e-03
  2.689020e+00    4.874685e-01   6.333703e-03
  2.691231e+00    4.839105e-01   6.304292e-03
  2.693441e+00    4.895338e-01   6.334677e-03
  2.695652e+00    4.882693e-01   6.319988e-03
  2.697862e+00    5.036679e-01   6.412433e-03
  2.700072e+00    4.967029e-01   6.361831e-03
  2.702283e+00    5.017688e-01   6.387891e-03
  2.704493e+00    4.927583e-01   6.323963e-03
  2.706704e+00    5.010930e-01   6.370729e-03
  2.708914e+00    4.877216e-01   6.279210e-03
  2.711125e+00    4.917874e-01   6.299031e-03
  2.713335e+00    5.039597e-01   6.370332e-03
  2.715546e+00    4.848921e-01   6.242218e-03
  2.717756e+00    4.685538e-01   6.130366e-03
  2.719967e+00    4.700892e-01   6.134290e-03
  2.722177e+00    4.872364e-01   6.239018e-03
  2.724387e+00    4.965791e-01   6.292387e-03
  2.726598e+00    4.945769e-01   6.273578e-03
  2.728808e+00    4.828372e-01   6.192533e-03
  2.731019e+00    4.901054e-01   6.232815e-03
  2.733229e+00    4.935085e-01   6.248561e-03
  2.735440e+00    4.737872e-01   6.116231e-03
  2.737650e+00    4.828745e-01   6.168585e-03
  2.739861e+00    4.821326e-01   6.157801e-03
  2.742071e+00    4.765097e-01   6.116064e-03
  2.744282e+00    4.840544e-01   6.158042e-03
  2.746492e+00    4.928729e-01   6.207785e-03
  2.748702e+00    4.834997e-01   6.142560e-03
  2.750913e+00    4.837907e-01   6.138623e-03
  2.753123e+00    4.685404e-01   6.035031e-03
  2.755334e+00    4.865116e-01   6.143572e-03
  2.757544e+00    4.927524e-01   6.177051e-03
  2.759755e+00    4.922961e-01   6.168242e-03
  2.761965e+00    4.862863e-01   6.124441e-03
  2.764176e+00    4.875951e-01   6.126660e-03
  2.766386e+00    4.793648e-01   6.068937e-03
  2.768597e+00    4.669962e-01   5.984339e-03
  2.770807e+00    4.724645e-01   6.013444e-03
  2.773017e+00    4.812152e-01   6.062882e-03
  2.775228e+00    4.824126e-01   6.064627e-03
  2.777438e+00    4.847203e-01   6.073262e-03
  2.779649e+00    4.840217e-01   6.062974e-03
  2.781859e+00    4.697252e-01   5.967022e-03
  2.784070e+00    4.848960e-01   6.056732e-03
  2.786280e+00    4.762669e-01   5.996810e-03
  2.788491e+00    4.857879e-01   6.050578e-03
  2.790701e+00    4.819197e-01   6.020765e-03
  2.792912e+00    4.750118e-01   5.971512e-03
  2.795122e+00    4.638368e-01   5.895174e-03
  2.797333e+00    4.790221e-01   5.985315e-03
  2.799543e+00    4.747105e-01   5.952475e-03
  2.801753e+00    4.689995e-01   5.910741e-03
  2.803964e+00    4.741428e-01   5.937404e-03
  2.806174e+00    4.681507e-01   5.893660e-03
  2.808385e+00    4.862305e-01   5.999512e-03
  2.810595e+00    4.728968e-01   5.909837e-03
  2.812806e+00    4.795657e-01   5.944707e-03
  2.815016e+00    4.804897e-01   5.945660e-03
  2.817227e+00    4.795842e-01   5.966126e-03
  2.819437e+00    4.772479e-01   5.962718e-03
  2.821648e+00    4.689650e-01   5.913015e-03
  2.823858e+00    4.710008e-01   5.931152e-03
  2.826068e+00    4.817278e-01   6.003338e-03
  2.828279e+00    4.784886e-01   5.987200e-03
  2.830489e+00    4.693947e-01   5.933361e-03
  2.832700e+00    4.709900e-01   5.945968e-03
  2.834910e+00    4.786482e-01   5.996201e-03
  2.837121e+00    4.880539e-01   6.056580e-03
  2.839331e+00    4.651166e-01   5.913772e-03
  2.841542e+00    4.685403e-01   5.936495e-03
  2.843752e+00    4.713018e-01   5.954754e-03
  2.845963e+00    4.737308e-01   5.970475e-03
  2.848173e+00    4.790301e-01   6.003856e-03
  2.850383e+00    4.772487e-01   5.993005e-03
  2.852594e+00    4.668258e-01   5.927106e-03
  2.854804e+00    4.661364e-01   5.922226e-03
  2.857015e+00    4.676073e-01   5.931124e-03
  2.859225e+00    4.681888e-01   5.934564e-03
  2.861436e+00    4.634357e-01   5.903714e-03
  2.863646e+00    4.655255e-01   5.917047e-03
  2.865857e+00    4.578077e-01   5.868129e-03
  2.868067e+00    4.607687e-01   5.887294e-03
  2.870278e+00    4.689365e-01   5.938888e-03
  2.872488e+00    4.835035e-01   6.029229e-03
  2.874698e+00    4.847735e-01   6.036104e-03
  2.876909e+00    4.855352e-01   6.039463e-03
  2.879119e+00    4.710188e-01   5.946876e-03
  2.881330e+00    4.748318e-01   5.969394e-03
  2.883540e+00    4.666201e-01   5.916160e-03
  2.885751e+00    4.803999e-01   6.001196e-03
  2.887961e+00    4.835159e-01   6.018715e-03
  2.890172e+00    4.691687e-01   5.927130e-03
  2.892382e+00    4.692134e-01   5.925574e-03
  2.894593e+00    4.672880e-01   5.911594e-03
  2.896803e+00    4.642104e-01   5.890092e-03
  2.899014e+00    4.692425e-01   5.920016e-03
  2.901224e+00    4.592724e-01   5.854779e-03
  2.903434e+00    4.592428e-01   5.852661e-03
  2.905645e+00    4.732915e-01   5.939239e-03
  2.907855e+00    4.836378e-01   6.001656e-03
  2.910066e+00    4.682142e-01   5.903082e-03
  2.912276e+00    4.704905e-01   5.915276e-03
  2.914487e+00    4.566037e-01   5.824865e-03
  2.916697e+00    4.691881e-01   5.902342e-03
  2.918908e+00    4.605344e-01   5.845655e-03
  2.921118e+00    4.638670e-01   5.864033e-03
  2.923329e+00    4.580414e-01   5.824806e-03
  2.925539e+00    4.706697e-01   5.902211e-03
  2.927749e+00    4.726197e-01   5.912094e-03
  2.929960e+00    4.662005e-01   5.869004e-03
  2.932170e+00    4.745167e-01   5.918742e-03
  2.934381e+00    4.734051e-01   5.909328e-03
  2.936591e+00    4.598602e-01   5.821586e-03
  2.938802e+00    4.655666e-01   5.854848e-03
  2.941012e+00    4.636005e-01   5.840131e-03
  2.943223e+00    4.575882e-01   5.799430e-03
  2.945433e+00    4.532992e-01   5.768463e-03
  2.947644e+00    4.541815e-01   5.769941e-03
  2.949854e+00    4.535671e-01   5.761771e-03
  2.952064e+00    4.802287e-01   5.924351e-03
  2.954275e+00    4.609900e-01   5.800065e-03
  2.956485e+00    4.520926e-01   5.739621e-03
  2.958696e+00    4.675773e-01   5.832645e-03
  2.960906e+00    4.668342e-01   5.823794e-03
  2.963117e+00    4.730032e-01   5.857554e-03
  2.965327e+00    4.622928e-01   5.786941e-03
  2.967538e+00    4.646810e-01   5.798916e-03
  2.969748e+00    4.581527e-01   5.755201e-03
  2.971959e+00    4.645306e-01   5.791963e-03
  2.974169e+00    4.567257e-01   5.740506e-03
  2.976379e+00    4.513689e-01   5.703824e-03
  2.978590e+00    4.552200e-01   5.724967e-03
  2.980800e+00    4.764240e-01   5.853919e-03
  2.983011e+00    4.680313e-01   5.799294e-03
  2.985221e+00    4.666638e-01   5.787622e-03
  2.987432e+00    4.674298e-01   5.789203e-03
  2.989642e+00    4.609577e-01   5.746354e-03
  2.991853e+00    4.520820e-01   5.687475e-03
  2.994063e+00    4.641460e-01   5.759925e-03
  2.996274e+00    4.576013e-01   5.715975e-03
  2.998484e+00    4.670200e-01   5.771773e-03
  3.000694e+00    4.661113e-01   5.762633e-03
  3.002905e+00    4.674926e-01   5.768194e-03
  3.005115e+00    4.682002e-01   5.769534e-03
  3.007326e+00    4.607171e-01   5.720055e-03
  3.009536e+00    4.702286e-01   5.775489e-03
  3.011747e+00    4.677626e-01   5.757356e-03
  3.013957e+00    4.615561e-01   5.715838e-03
  3.016168e+00    4.568077e-01   5.683082e-03
  3.018378e+00    4.660841e-01   5.737402e-03
  3.020589e+00    4.593996e-01   5.692881e-03
  3.022799e+00    4.617808e-01   5.704426e-03
  3.025010e+00    4.530187e-01   5.646791e-03
  3.027220e+00    4.629809e-01   5.705409e-03
  3.029430e+00    4.665284e-01   5.723920e-03
  3.031641e+00    4.664488e-01   5.720242e-03
  3.033851e+00    4.715567e-01   5.747893e-03
  3.036062e+00    4.599034e-01   5.673631e-03
  3.038272e+00    4.574915e-01   5.655117e-03
  3.040483e+00    4.652797e-01   5.699777e-03
  3.042693e+00    4.667437e-01   5.705430e-03
  3.044904e+00    4.650429e-01   5.690938e-03
  3.047114e+00    4.604934e-01   5.658166e-03
  3.049325e+00    4.657602e-01   5.685986e-03
  3.051535e+00    4.481679e-01   5.573166e-03
  3.053745e+00    4.588611e-01   5.634487e-03
  3.055956e+00    4.477000e-01   5.560964e-03
  3.058166e+00    4.545435e-01   5.599029e-03
  3.060377e+00    4.657111e-01   5.662537e-03
  3.062587e+00    4.609261e-01   5.628710e-03
  3.064798e+00    4.438657e-01   5.519310e-03
  3.067008e+00    4.455051e-01   5.524802e-03
  3.069219e+00    4.452779e-01   5.518879e-03
  3.071429e+00    4.529266e-01   5.562581e-03
  3.073640e+00    4.495933e-01   5.538723e-03
  3.075850e+00    4.393966e-01   5.472029e-03
  3.078060e+00    4.491078e-01   5.529033e-03
  3.080271e+00    4.567318e-01   5.572284e-03
  3.082481e+00    4.632749e-01   5.608540e-03
  3.084692e+00    4.563040e-01   5.562800e-03
  3.086902e+00    4.406787e-01   5.463491e-03
  3.089113e+00    4.544901e-01   5.544845e-03
  3.091323e+00    4.510838e-01   5.520668e-03
  3.093534e+00    4.459150e-01   5.485550e-03
  3.095744e+00    4.467644e-01   5.487418e-03
  3.097955e+00    4.479437e-01   5.491104e-03
  3.100165e+00    4.550060e-01   5.530853e-03
  3.102375e+00    4.580196e-01   5.545694e-03
  3.104586e+00    4.442998e-01   5.458496e-03
  3.106796e+00    4.468236e-01   5.470477e-03
  3.109007e+00    4.535495e-01   5.508233e-03
  3.111217e+00    4.460428e-01   5.458786e-03
  3.113428e+00    4.541650e-01   5.504810e-03
  3.115638e+00    4.532457e-01   5.495965e-03
  3.117849e+00    4.482332e-01   5.461768e-03
  3.120059e+00    4.398999e-01   5.407310e-03
  3.122270e+00    4.379299e-01   5.391955e-03
  3.124480e+00    4.455026e-01   5.434679e-03
  3.126691e+00    4.536650e-01   5.480641e-03
  3.128901e+00    4.597406e-01   5.514049e-03
  3.131111e+00    4.655694e-01   5.544960e-03
  3.133322e+00    4.589561e-01   5.501946e-03
  3.135532e+00    4.544827e-01   5.471616e-03
  3.137743e+00    4.572702e-01   5.484833e-03
  3.139953e+00    4.515633e-01   5.446794e-03
  3.142164e+00    4.545332e-01   5.476852e-03
  3.144374e+00    4.451917e-01   5.448765e-03
  3.146585e+00    4.437673e-01   5.454631e-03
  3.148795e+00    4.539313e-01   5.527663e-03
  3.151006e+00    4.430260e-01   5.469414e-03
  3.153216e+00    4.440292e-01   5.482762e-03
  3.155426e+00    4.413401e-01   5.472433e-03
  3.157637e+00    4.343368e-01   5.434346e-03
  3.159847e+00    4.399183e-01   5.473999e-03
  3.162058e+00    4.420531e-01   5.491726e-03
  3.164268e+00    4.364707e-01   5.460987e-03
  3.166479e+00    4.234666e-01   5.382588e-03
  3.168689e+00    4.324844e-01   5.442954e-03
  3.170900e+00    4.399777e-01   5.493051e-03
  3.173110e+00    4.551811e-01   5.590094e-03
  3.175321e+00    4.481022e-01   5.548984e-03
  3.177531e+00    4.515399e-01   5.572996e-03
  3.179741e+00    4.468812e-01   5.546286e-03
  3.181952e+00    4.407863e-01   5.510435e-03
  3.184162e+00    4.280878e-01   5.432667e-03
  3.186373e+00    4.451824e-01   5.541657e-03
  3.188583e+00    4.379378e-01   5.498200e-03
  3.190794e+00    4.409753e-01   5.518982e-03
  3.193004e+00    4.337575e-01   5.474869e-03
  3.195215e+00    4.414464e-01   5.524695e-03
  3.197425e+00    4.239376e-01   5.415238e-03
  3.199636e+00    4.123743e-01   5.340110e-03
  3.201846e+00    4.309955e-01   5.458729e-03
  3.204056e+00    4.349995e-01   5.484932e-03
  3.206267e+00    4.413717e-01   5.525817e-03
  3.208477e+00    4.429188e-01   5.536418e-03
  3.210688e+00    4.344884e-01   5.484330e-03
  3.212898e+00    4.320485e-01   5.469487e-03
  3.215109e+00    4.310013e-01   5.463597e-03
  3.217319e+00    4.382098e-01   5.509749e-03
  3.219530e+00    4.217813e-01   5.405868e-03
  3.221740e+00    4.332502e-01   5.479414e-03
  3.223951e+00    4.475982e-01   5.569908e-03
  3.226161e+00    4.301732e-01   5.460591e-03
  3.228372e+00    4.433845e-01   5.544360e-03
  3.230582e+00    4.386812e-01   5.515004e-03
  3.232792e+00    4.288865e-01   5.453325e-03
  3.235003e+00    4.397820e-01   5.522384e-03
  3.237213e+00    4.359766e-01   5.498559e-03
  3.239424e+00    4.428954e-01   5.542004e-03
  3.241634e+00    4.305932e-01   5.464657e-03
  3.243845e+00    4.194899e-01   5.393775e-03
  3.246055e+00    4.292088e-01   5.455630e-03
  3.248266e+00    4.269840e-01   5.441673e-03
  3.250476e+00    4.399775e-01   5.523556e-03
  3.252687e+00    4.203227e-01   5.398684e-03
  3.254897e+00    4.276399e-01   5.445346e-03
  3.257107e+00    4.347599e-01   5.490182e-03
  3.259318e+00    4.232842e-01   5.417007e-03
  3.261528e+00    4.183039e-01   5.384910e-03
  3.263739e+00    4.194188e-01   5.391521e-03
  3.265949e+00    4.272169e-01   5.441277e-03
  3.268160e+00    4.254433e-01   5.429574e-03
  3.270370e+00    4.281135e-01   5.446074e-03
  3.272581e+00    4.273996e-01   5.441233e-03
  3.274791e+00    4.246225e-01   5.423020e-03
  3.277002e+00    4.236747e-01   5.416384e-03
  3.279212e+00    4.328107e-01   5.474098e-03
  3.281422e+00    4.438392e-01   5.542815e-03
  3.283633e+00    4.337076e-01   5.478495e-03
  3.285843e+00    4.435782e-01   5.540144e-03
  3.288054e+00    4.118918e-01   5.337690e-03
  3.290264e+00    4.158812e-01   5.363155e-03
  3.292475e+00    4.114832e-01   5.333892e-03
  3.294685e+00    4.193695e-01   5.384136e-03
  3.296896e+00    4.181596e-01   5.375612e-03
  3.299106e+00    4.216201e-01   5.397256e-03
  3.301317e+00    4.268189e-01   5.429398e-03
  3.303527e+00    4.274154e-01   5.432731e-03
  3.305737e+00    4.144846e-01   5.348883e-03
  3.307948e+00    4.208619e-01   5.389194e-03
  3.310158e+00    4.309466e-01   5.452524e-03
  3.312369e+00    4.322673e-01   5.459993e-03
  3.314579e+00    4.105501e-01   5.320172e-03
  3.316790e+00    4.339543e-01   5.468963e-03
  3.319000e+00    4.344748e-01   5.471087e-03
  3.321211e+00    4.225645e-01   5.394945e-03
  3.323421e+00    4.341157e-01   5.466963e-03
  3.325632e+00    4.443889e-01   5.530373e-03
  3.327842e+00    4.219348e-01   5.387922e-03
  3.330052e+00    4.266286e-01   5.416737e-03
  3.332263e+00    4.300815e-01   5.437584e-03
  3.334473e+00    4.236256e-01   5.395709e-03
  3.336684e+00    4.212678e-01   5.379398e-03
  3.338894e+00    4.131306e-01   5.326361e-03
  3.341105e+00    4.342356e-01   5.459489e-03
  3.343315e+00    4.324204e-01   5.446909e-03
  3.345526e+00    4.315327e-01   5.440412e-03
  3.347736e+00    4.241119e-01   5.392015e-03
  3.349947e+00    4.350243e-01   5.459980e-03
  3.352157e+00    4.292203e-01   5.422259e-03
  3.354368e+00    4.320861e-01   5.439013e-03
  3.356578e+00    4.204035e-01   5.363967e-03
  3.358788e+00    4.225712e-01   5.376446e-03
  3.360999e+00    4.114417e-01   5.303920e-03
  3.363209e+00    4.280875e-01   5.409130e-03
  3.365420e+00    4.208405e-01   5.361633e-03
  3.367630e+00    4.045323e-01   5.255717e-03
  3.369841e+00    4.189609e-01   5.347175e-03
  3.372051e+00    4.192529e-01   5.347071e-03
  3.374262e+00    4.216997e-01   5.360194e-03
  3.376472e+00    4.229877e-01   5.365924e-03
  3.378683e+00    4.183776e-01   5.334077e-03
  3.380893e+00    4.108409e-01   5.283497e-03
  3.383103e+00    4.243303e-01   5.366783e-03
  3.385314e+00    4.332515e-01   5.420658e-03
  3.387524e+00    4.112665e-01   5.278593e-03
  3.389735e+00    4.152220e-01   5.301295e-03
  3.391945e+00    4.206610e-01   5.332189e-03
  3.394156e+00    4.310664e-01   5.393411e-03
  3.396366e+00    4.492163e-01   5.502231e-03
  3.398577e+00    4.297849e-01   5.378829e-03
  3.400787e+00    3.996432e-01   5.198529e-03
  3.402998e+00    3.989365e-01   5.231447e-03
  3.405208e+00    3.966011e-01   5.236562e-03
  3.407418e+00    3.974113e-01   5.257613e-03
  3.409629e+00    4.109561e-01   5.360590e-03
  3.411839e+00    4.009658e-01   5.306844e-03
  3.414050e+00    4.054370e-01   5.347448e-03
  3.416260e+00    4.064048e-01   5.363639e-03
  3.418471e+00    3.777210e-01   5.180093e-03
  3.420681e+00    3.832965e-01   5.226574e-03
  3.422892e+00    3.924310e-01   5.296520e-03
  3.425102e+00    3.905647e-01   5.291727e-03
  3.427313e+00    3.927383e-01   5.313657e-03
  3.429523e+00    3.882699e-01   5.290426e-03
  3.431733e+00    3.874186e-01   5.291290e-03
  3.433944e+00    3.790943e-01   5.240592e-03
  3.436154e+00    3.683550e-01   5.171943e-03
  3.438365e+00    3.776625e-01   5.242749e-03
  3.440575e+00    3.920539e-01   5.347736e-03
  3.442786e+00    3.945282e-01   5.370320e-03
  3.444996e+00    3.886963e-01   5.336063e-03
  3.447207e+00    3.783887e-01   5.270144e-03
  3.449417e+00    3.766412e-01   5.299054e-03
  3.451628e+00    3.657224e-01   5.251010e-03
  3.453838e+00    3.716600e-01   5.314723e-03
  3.456049e+00    3.805378e-01   5.402154e-03
  3.458259e+00    3.726516e-01   5.368032e-03
  3.460469e+00    3.741074e-01   5.398479e-03
  3.462680e+00    3.743860e-01   5.419764e-03
  3.464890e+00    3.713164e-01   5.415421e-03
  3.467101e+00    3.737928e-01   5.451059e-03
  3.469311e+00    3.838675e-01   5.540887e-03
  3.471522e+00    4.005524e-01   5.676946e-03
  3.473732e+00    4.007159e-01   5.694537e-03
  3.475943e+00    4.047715e-01   5.739423e-03
  3.478153e+00    4.120823e-01   5.806938e-03
  3.480364e+00    4.255525e-01   5.916840e-03
  3.482574e+00    4.134713e-01   5.847780e-03
  3.484784e+00    4.192201e-01   5.903320e-03
  3.486995e+00    4.066243e-01   5.828863e-03
  3.489205e+00    4.403735e-01   6.080905e-03
  3.491416e+00    4.561320e-01   6.204153e-03
  3.493626e+00    4.402520e-01   6.109915e-03
  3.495837e+00    4.639891e-01   6.287575e-03
  3.498047e+00    4.683874e-01   6.332209e-03
  3.500258e+00    4.628343e-01   6.309323e-03
  3.502468e+00    4.547874e-01   6.268627e-03
  3.504679e+00    4.856049e-01   6.492428e-03
  3.506889e+00    4.553435e-01   6.301183e-03
  3.509099e+00    4.682100e-01   6.403849e-03
  3.511310e+00    4.816327e-01   6.509575e-03
  3.513520e+00    4.894728e-01   6.576849e-03
  3.515731e+00    5.063569e-01   6.703998e-03
  3.517941e+00    5.171979e-01   6.790166e-03
  3.520152e+00    4.990080e-01   6.684051e-03
  3.522362e+00    5.102357e-01   6.773438e-03
  3.524573e+00    5.224911e-01   6.868820e-03
  3.526783e+00    5.211275e-01   6.873346e-03
  3.528994e+00    5.223229e-01   6.893529e-03
  3.531204e+00    5.313064e-01   6.965112e-03
  3.533414e+00    5.431553e-01   7.054667e-03
  3.535625e+00    5.259670e-01   6.954483e-03
  3.537835e+00    5.429969e-01   7.078364e-03
  3.540046e+00    5.499658e-01   7.132737e-03
  3.542256e+00    5.432177e-01   7.096434e-03
  3.544467e+00    5.332065e-01   7.038320e-03
  3.546677e+00    5.431401e-01   7.111204e-03
  3.548888e+00    5.423172e-01   7.113365e-03
  3.551098e+00    5.397139e-01   7.103580e-03
  3.553309e+00    5.461664e-01   7.154163e-03
  3.555519e+00    5.309362e-01   7.064947e-03
  3.557729e+00    5.513257e-01   7.211220e-03
  3.559940e+00    5.352693e-01   7.116973e-03
  3.562150e+00    5.523172e-01   7.241298e-03
  3.564361e+00    5.444886e-01   7.203234e-03
  3.566571e+00    5.480340e-01   7.240617e-03
  3.568782e+00    5.560374e-01   7.307707e-03
  3.570992e+00    5.476222e-01   7.266069e-03
  3.573203e+00    5.502617e-01   7.297918e-03
  3.575413e+00    5.443959e-01   7.272772e-03
  3.577624e+00    5.384914e-01   7.247394e-03
  3.579834e+00    5.367185e-01   7.249327e-03
  3.582045e+00    5.352197e-01   7.253249e-03
  3.584255e+00    5.453043e-01   7.335427e-03
  3.586465e+00    5.424863e-01   7.330458e-03
  3.588676e+00    5.356688e-01   7.298442e-03
  3.590886e+00    5.510942e-01   7.416669e-03
  3.593097e+00    5.622519e-01   7.506253e-03
  3.595307e+00    5.461045e-01   7.411742e-03
  3.597518e+00    5.495014e-01   7.449140e-03
  3.599728e+00    5.425699e-01   7.416189e-03
  3.601939e+00    5.664443e-01   7.592102e-03
  3.604149e+00    5.618175e-01   7.575727e-03
  3.606360e+00    5.666557e-01   7.622901e-03
  3.608570e+00    5.410118e-01   7.462608e-03
  3.610780e+00    5.555758e-01   7.573687e-03
  3.612991e+00    5.531682e-01   7.567422e-03
  3.615201e+00    5.432217e-01   7.508944e-03
  3.617412e+00    5.636103e-01   7.656005e-03
  3.619622e+00    5.730033e-01   7.725778e-03
  3.621833e+00    5.359806e-01   7.478712e-03
  3.624043e+00    5.510712e-01   7.592877e-03
  3.626254e+00    5.721666e-01   7.746927e-03
  3.628464e+00    5.440429e-01   7.565222e-03
  3.630675e+00    5.300765e-01   7.481525e-03
  3.632885e+00    5.383046e-01   7.553884e-03
  3.635095e+00    5.477200e-01   7.634240e-03
  3.637306e+00    5.435710e-01   7.619768e-03
  3.639516e+00    5.468165e-01   7.657224e-03
  3.641727e+00    5.360287e-01   7.595878e-03
  3.643937e+00    5.336834e-01   7.593834e-03
  3.646148e+00    5.559596e-01   7.765581e-03
  3.648358e+00    5.571888e-01   7.789384e-03
  3.650569e+00    5.531039e-01   7.775766e-03
  3.652779e+00    5.374541e-01   7.679852e-03
  3.654990e+00    5.258698e-01   7.611392e-03
  3.657200e+00    5.455888e-01   7.767847e-03
  3.659410e+00    5.553572e-01   7.852429e-03
  3.661621e+00    5.513472e-01   7.839347e-03
  3.663831e+00    5.235863e-01   7.654504e-03
  3.666042e+00    5.291752e-01   7.710333e-03
  3.668252e+00    5.173578e-01   7.638773e-03
  3.670463e+00    5.547574e-01   7.925650e-03
  3.672673e+00    5.357925e-01   7.804495e-03
  3.674884e+00    5.255199e-01   7.744648e-03
  3.677094e+00    5.463606e-01   7.912462e-03
  3.679305e+00    5.282460e-01   7.795713e-03
  3.681515e+00    5.123922e-01   7.693179e-03
  3.683726e+00    5.489625e-01   7.979044e-03
  3.685936e+00    5.420962e-01   7.944962e-03
  3.688146e+00    5.173585e-01   7.777123e-03
  3.690357e+00    5.261976e-01   7.859235e-03
  3.692567e+00    5.230163e-01   7.851450e-03
  3.694778e+00    5.422165e-01   8.010618e-03
  3.696988e+00    5.115763e-01   7.796714e-03
  3.699199e+00    5.238575e-01   7.905966e-03
  3.701409e+00    5.221326e-01   7.909299e-03
  3.703620e+00    5.220844e-01   7.925162e-03
  3.705830e+00    5.440479e-01   8.106831e-03
  3.708041e+00    5.249744e-01   7.980129e-03
  3.710251e+00    5.215897e-01   7.971026e-03
  3.712461e+00    5.287738e-01   8.042521e-03
  3.714672e+00    5.365781e-01   8.118686e-03
  3.716882e+00    5.191391e-01   8.002306e-03
  3.719093e+00    5.392399e-01   8.173219e-03
  3.721303e+00    5.241615e-01   8.075173e-03
  3.723514e+00    5.094689e-01   7.978311e-03
  3.725724e+00    5.138139e-01   8.029296e-03
  3.727935e+00    5.079256e-01   8.000521e-03
  3.730145e+00    5.077692e-01   8.016353e-03
  3.732356e+00    5.216103e-01   8.142579e-03
  3.734566e+00    5.149247e-01   8.107740e-03
  3.736776e+00    5.221661e-01   8.182444e-03
  3.738987e+00    5.351732e-01   8.301796e-03
  3.741197e+00    5.322851e-01   8.297755e-03
  3.743408e+00    5.061343e-01   8.109245e-03
  3.745618e+00    5.240161e-01   8.269776e-03
  3.747829e+00    5.252290e-01   8.297662e-03
  3.750039e+00    5.338488e-01   8.384248e-03
  3.752250e+00    5.385197e-01   8.439817e-03
  3.754460e+00    5.092508e-01   8.225794e-03
  3.756671e+00    5.345005e-01   8.446454e-03
  3.758881e+00    5.311421e-01   8.439013e-03
  3.761091e+00    5.044550e-01   8.243316e-03
  3.763302e+00    4.987290e-01   8.215258e-03
  3.765512e+00    5.135344e-01   8.355677e-03
  3.767723e+00    5.218648e-01   8.442818e-03
  3.769933e+00    5.342271e-01   8.562072e-03
  3.772144e+00    5.241557e-01   8.500945e-03
  3.774354e+00    5.067870e-01   8.378798e-03
  3.776565e+00    4.992242e-01   8.335691e-03
  3.778775e+00    5.092039e-01   8.438710e-03
  3.780986e+00    5.127205e-01   8.488254e-03
  3.783196e+00    5.178018e-01   8.550753e-03
  3.785407e+00    5.038823e-01   8.455486e-03
  3.787617e+00    4.890508e-01   8.350587e-03
  3.789827e+00    5.149297e-01   8.589409e-03
  3.792038e+00    5.025869e-01   8.506780e-03
  3.794248e+00    4.865670e-01   8.390915e-03
  3.796459e+00    5.147274e-01   8.651933e-03
  3.798669e+00    5.009131e-01   8.556469e-03
  3.800880e+00    4.762971e-01   8.364473e-03
  3.803090e+00    4.950177e-01   8.548927e-03
  3.805301e+00    5.183605e-01   8.770706e-03
  3.807511e+00    5.234039e-01   8.835825e-03
  3.809722e+00    4.952868e-01   8.617274e-03
  3.811932e+00    5.105522e-01   8.771610e-03
  3.814142e+00    5.011744e-01   8.713534e-03
  3.816353e+00    5.166870e-01   8.870634e-03
  3.818563e+00    5.089155e-01   8.826993e-03
  3.820774e+00    5.015333e-01   8.786000e-03
  3.822984e+00    5.071724e-01   8.858810e-03
  3.825195e+00    5.042545e-01   8.857187e-03
  3.827405e+00    5.131376e-01   8.959110e-03
  3.829616e+00    4.898787e-01   8.777605e-03
  3.831826e+00    5.202102e-01   9.069917e-03
  3.834037e+00    5.193259e-01   9.087327e-03
  3.836247e+00    4.872709e-01   8.826883e-03
  3.838457e+00    4.851069e-01   8.831929e-03
  3.840668e+00    4.977458e-01   8.971473e-03
  3.842878e+00    4.783853e-01   8.820347e-03
  3.845089e+00    5.001833e-01   9.044732e-03
  3.847299e+00    4.917435e-01   8.993836e-03
  3.849510e+00    4.739273e-01   8.854682e-03
  3.851720e+00    4.918143e-01   9.041525e-03
  3.853931e+00    5.207298e-01   9.323021e-03
  3.856141e+00    5.011604e-01   9.165348e-03
  3.858352e+00    5.197272e-01   9.353281e-03
  3.860562e+00    4.970033e-01   9.165927e-03
  3.862772e+00    5.073640e-01   9.280766e-03
  3.864983e+00    5.144501e-01   9.365468e-03
  3.867193e+00    5.009925e-01   9.262065e-03
  3.869404e+00    4.964005e-01   9.239415e-03
  3.871614e+00    5.019189e-01   9.310698e-03
  3.873825e+00    5.239563e-01   9.533927e-03
  3.876035e+00    5.049864e-01   9.380573e-03
  3.878246e+00    5.234302e-01   9.576858e-03
  3.880456e+00    5.095564e-01   9.478644e-03
  3.882667e+00    5.301684e-01   9.698840e-03
  3.884877e+00    5.198286e-01   9.634411e-03
  3.887087e+00    5.151110e-01   9.621198e-03
  3.889298e+00    5.113128e-01   9.616742e-03
  3.891508e+00    5.089701e-01   9.625619e-03
  3.893719e+00    5.153518e-01   9.717661e-03
  3.895929e+00    5.108000e-01   9.706637e-03
  3.898140e+00    5.279040e-01   9.900733e-03
  3.900350e+00    4.953531e-01   9.622981e-03
  3.902561e+00    4.950064e-01   9.652103e-03
  3.904771e+00    4.864951e-01   9.601441e-03
  3.906982e+00    4.974764e-01   9.742663e-03
  3.909192e+00    4.928222e-01   9.730511e-03
  3.911403e+00    4.971017e-01   9.806991e-03
  3.913613e+00    5.170599e-01   1.003718e-02
  3.915823e+00    4.900975e-01   9.806892e-03
  3.918034e+00    4.943646e-01   9.884933e-03
  3.920244e+00    5.069555e-01   1.004638e-02
  3.922455e+00    5.205234e-01   1.021723e-02
  3.924665e+00    5.141640e-01   1.019206e-02
  3.926876e+00    4.921961e-01   1.000920e-02
  3.929086e+00    4.917374e-01   1.004201e-02
  3.931297e+00    4.910792e-01   1.007028e-02
  3.933507e+00    5.068378e-01   1.026001e-02
  3.935718e+00    4.988888e-01   1.020844e-02
  3.937928e+00    4.881964e-01   1.012777e-02
  3.940138e+00    5.139275e-01   1.042141e-02
  3.942349e+00    5.082746e-01   1.039449e-02
  3.944559e+00    4.955481e-01   1.029380e-02
  3.946770e+00    4.952185e-01   1.032079e-02
  3.948980e+00    5.068007e-01   1.047216e-02
  3.951191e+00    4.932785e-01   1.036248e-02
  3.953401e+00    4.887067e-01   1.034591e-02
  3.955612e+00    4.811412e-01   1.029688e-02
  3.957822e+00    5.041460e-01   1.057246e-02
  3.960033e+00    4.866988e-01   1.042068e-02
  3.962243e+00    4.872796e-01   1.045959e-02
  3.964453e+00    5.192113e-01   1.083125e-02
  3.966664e+00    4.865689e-01   1.051863e-02
  3.968874e+00    5.001693e-01   1.069340e-02
  3.971085e+00    4.972822e-01   1.068475e-02
  3.973295e+00    4.936209e-01   1.066695e-02
  3.975506e+00    4.872804e-01   1.061987e-02
  3.977716e+00    5.243128e-01   1.103887e-02
  3.979927e+00    4.840371e-01   1.062861e-02
  3.982137e+00    4.855314e-01   1.066724e-02
  3.984348e+00    4.811200e-01   1.064112e-02
  3.986558e+00    4.965060e-01   1.083254e-02
  3.988768e+00    4.753661e-01   1.062213e-02
  3.990979e+00    4.892608e-01   1.079914e-02
  3.993189e+00    5.125355e-01   1.107672e-02
  3.995400e+00    4.716036e-01   1.064848e-02
  3.997610e+00    5.084853e-01   1.108744e-02
  3.999821e+00    5.168428e-01   1.121701e-02
  4.002031e+00    5.123191e-01   1.120732e-02
  4.004242e+00    4.817702e-01   1.090631e-02
  4.006452e+00    5.034872e-01   1.118964e-02
  4.008663e+00    4.824867e-01   1.099367e-02
  4.010873e+00    5.380392e-01   1.165135e-02
  4.013084e+00    5.146863e-01   1.143811e-02
  4.015294e+00    4.711949e-01   1.098444e-02
  4.017504e+00    4.882310e-01   1.122323e-02
  4.019715e+00    4.682070e-01   1.103265e-02
  4.021925e+00    4.857568e-01   1.128043e-02
  4.024136e+00    4.613056e-01   1.103555e-02
  4.026346e+00    4.962153e-01   1.149011e-02
  4.028557e+00    4.770695e-01   1.131033e-02
  4.030767e+00    4.988213e-01   1.161165e-02
  4.032978e+00    4.748917e-01   1.137558e-02
  4.035188e+00    4.974069e-01   1.168896e-02
  4.037399e+00    4.901456e-01   1.165123e-02
  4.039609e+00    4.592009e-01   1.132396e-02
  4.041819e+00    4.676430e-01   1.147549e-02
  4.044030e+00    4.962157e-01   1.187150e-02
  4.046240e+00    4.937734e-01   1.189261e-02
  4.048451e+00    5.081986e-01   1.211728e-02
  4.050661e+00    4.910416e-01   1.196306e-02
  4.052872e+00    4.945557e-01   1.205899e-02
  4.055082e+00    4.741774e-01   1.186101e-02
  4.057293e+00    4.704883e-01   1.186780e-02
  4.059503e+00    5.160121e-01   1.248524e-02
  4.061714e+00    5.187839e-01   1.257740e-02
  4.063924e+00    4.790726e-01   1.214307e-02
  4.066134e+00    4.387193e-01   1.167502e-02
  4.068345e+00    4.858883e-01   1.234575e-02
  4.070555e+00    4.906581e-01   1.246612e-02
  4.072766e+00    5.317784e-01   1.304200e-02
  4.074976e+00    4.350993e-01   1.185578e-02
  4.077187e+00    4.927537e-01   1.267959e-02
  4.079397e+00    4.705715e-01   1.245411e-02
  4.081608e+00    4.950134e-01   1.284000e-02
  4.083818e+00    4.885755e-01   1.282248e-02
  4.086029e+00    4.886679e-01   1.289127e-02
  4.088239e+00    4.453403e-01   1.237298e-02
  4.090449e+00    4.819124e-01   1.294065e-02
  4.092660e+00    4.721165e-01   1.287888e-02
  4.094870e+00    4.841692e-01   1.311473e-02
  4.097081e+00    5.163788e-01   1.361824e-02
  4.099291e+00    5.103821e-01   1.359496e-02
  4.101502e+00    5.007837e-01   1.351676e-02
  4.103712e+00    4.796577e-01   1.327787e-02
  4.105923e+00    4.727883e-01   1.323352e-02
  4.108133e+00    4.585750e-01   1.308323e-02
  4.110344e+00    4.212753e-01   1.258792e-02
  4.112554e+00    4.760138e-01   1.343352e-02
  4.114764e+00    5.117596e-01   1.398488e-02
  4.116975e+00    4.340246e-01   1.292966e-02
  4.119185e+00    4.887001e-01   1.377563e-02
  4.121396e+00    4.667411e-01   1.351836e-02
  4.123606e+00    4.623835e-01   1.351009e-02
  4.125817e+00    4.870186e-01   1.392344e-02
  4.128027e+00    5.076810e-01   1.427568e-02
  4.130238e+00    4.749352e-01   1.386698e-02
  4.132448e+00    4.764227e-01   1.394866e-02
  4.134659e+00    4.824573e-01   1.409731e-02
  4.136869e+00    4.724759e-01   1.401296e-02
  4.139080e+00    4.389921e-01   1.356801e-02
  4.141290e+00    4.588967e-01   1.393384e-02
  4.143500e+00    4.588278e-01   1.399670e-02
  4.145711e+00    4.800044e-01   1.438327e-02
  4.147921e+00    4.894721e-01   1.459088e-02
  4.150132e+00    5.061010e-01   1.490764e-02
  4.152342e+00    4.881820e-01   1.471228e-02
  4.154553e+00    4.572222e-01   1.430574e-02
  4.156763e+00    4.742841e-01   1.464230e-02
  4.158974e+00    4.834390e-01   1.485710e-02
  4.161184e+00    5.242823e-01   1.554887e-02
  4.163395e+00    5.015951e-01   1.528654e-02
  4.165605e+00    4.707497e-01   1.488601e-02
  4.167815e+00    4.764874e-01   1.505459e-02
  4.170026e+00    4.896540e-01   1.534125e-02
  4.172236e+00    5.401726e-01   1.620072e-02
  4.174447e+00    5.306113e-01   1.614413e-02
  4.176657e+00    4.889642e-01   1.558203e-02
  4.178868e+00    5.704314e-01   1.692544e-02
  4.181078e+00    5.747753e-01   1.708570e-02
  4.183289e+00    4.982411e-01   1.599854e-02
  4.185499e+00    5.237419e-01   1.649945e-02
  4.187710e+00    4.614962e-01   1.557902e-02
  4.189920e+00    4.629714e-01   1.569762e-02
  4.192130e+00    4.814751e-01   1.610607e-02
  4.194341e+00    4.768179e-01   1.612627e-02
  4.196551e+00    5.151416e-01   1.686796e-02
  4.198762e+00    5.197646e-01   1.705129e-02
  4.200972e+00    4.449979e-01   1.587936e-02
  4.203183e+00    4.449359e-01   1.598281e-02
  4.205393e+00    4.665957e-01   1.647610e-02
  4.207604e+00    4.651491e-01   1.656269e-02
  4.209814e+00    5.192784e-01   1.762013e-02
  4.212025e+00    4.789744e-01   1.704220e-02
  4.214235e+00    5.159526e-01   1.781342e-02
  4.216445e+00    5.786676e-01   1.900101e-02
  4.218656e+00    5.002236e-01   1.779947e-02
  4.220866e+00    4.669707e-01   1.732450e-02
  4.223077e+00    4.638659e-01   1.739990e-02
  4.225287e+00    4.210953e-01   1.670830e-02
  4.227498e+00    5.116707e-01   1.856249e-02
  4.229708e+00    4.693158e-01   1.792212e-02
  4.231919e+00    4.895657e-01   1.845606e-02
  4.234129e+00    4.786360e-01   1.840207e-02
  4.236340e+00    4.889615e-01   1.875821e-02
  4.238550e+00    5.578399e-01   2.021361e-02
  4.240761e+00    5.111389e-01   1.951953e-02
  4.242971e+00    5.131272e-01   1.973657e-02
  4.245181e+00    4.796989e-01   1.926217e-02
  4.247392e+00    5.102220e-01   2.005098e-02
  4.249602e+00    5.613362e-01   2.124073e-02
  4.251813e+00    5.335919e-01   2.091318e-02
  4.254023e+00    4.960371e-01   2.036675e-02
  4.256234e+00    5.011703e-01   2.069061e-02
  4.258444e+00    4.925204e-01   2.072626e-02
  4.260655e+00    4.293382e-01   1.956397e-02
  4.262865e+00    4.739327e-01   2.078762e-02
  4.265076e+00    4.353225e-01   2.014978e-02
  4.267286e+00    5.084606e-01   2.203449e-02
  4.269496e+00    5.034411e-01   2.219400e-02
  4.271707e+00    4.028383e-01   2.009777e-02
  4.273917e+00    4.701509e-01   2.199226e-02
  4.276128e+00    4.963394e-01   2.289748e-02
  4.278338e+00    4.593168e-01   2.232081e-02
  4.280549e+00    4.564457e-01   2.257038e-02
  4.282759e+00    4.474258e-01   2.266647e-02
  4.284970e+00    4.943635e-01   2.417886e-02
  4.287180e+00    5.299980e-01   2.533570e-02
  4.289391e+00    4.976028e-01   2.473310e-02
  4.291601e+00    3.991419e-01   2.232852e-02
  4.293811e+00    4.174079e-01   2.301184e-02
  4.296022e+00    3.913018e-01   2.245952e-02
  4.298232e+00    4.357703e-01   2.390004e-02
  4.300443e+00    3.800435e-01   2.250407e-02
  4.302653e+00    5.043612e-01   2.614821e-02
  4.304864e+00    4.456971e-01   2.479489e-02
  4.307074e+00    5.017931e-01   2.654395e-02
  4.309285e+00    5.289363e-01   2.750098e-02
  4.311495e+00    5.013940e-01   2.702571e-02
  4.313706e+00    4.452251e-01   2.570575e-02
  4.315916e+00    5.014282e-01   2.754922e-02
  4.318126e+00    4.264234e-01   2.565667e-02
  4.320337e+00    4.411950e-01   2.636106e-02
  4.322547e+00    5.038955e-01   2.847063e-02
  4.324758e+00    4.646369e-01   2.762402e-02
  4.326968e+00    4.573559e-01   2.771443e-02
  4.329179e+00    4.928159e-01   2.908645e-02
  4.331389e+00    4.771554e-01   2.895013e-02
  4.333600e+00    4.510356e-01   2.848258e-02
  4.335810e+00    4.066274e-01   2.736652e-02
  4.338021e+00    4.279940e-01   2.843459e-02
  4.340231e+00    4.387611e-01   2.915195e-02
  4.342442e+00    5.094761e-01   3.183486e-02
  4.344652e+00    3.438385e-01   2.650857e-02
  4.346862e+00    2.505496e-01   2.294549e-02
  4.349073e+00    3.915757e-01   2.909942e-02
  4.351283e+00    4.466728e-01   3.154726e-02
  4.353494e+00    4.592240e-01   3.248025e-02
  4.355704e+00    4.975857e-01   3.435428e-02
  4.357915e+00    4.692260e-01   3.391625e-02
  4.360125e+00    4.638883e-01   3.429839e-02
  4.362336e+00    4.905694e-01   3.591374e-02
  4.364546e+00    3.783781e-01   3.211606e-02
  4.366757e+00    4.331483e-01   3.504449e-02
  4.368967e+00    3.801616e-01   3.348686e-02
  4.371177e+00    4.152974e-01   3.574274e-02
  4.373388e+00    4.227908e-01   3.687087e-02
  4.375598e+00    3.418721e-01   3.391313e-02
  4.377809e+00    3.467641e-01   3.501695e-02
  4.380019e+00    4.313987e-01   4.003860e-02
  4.382230e+00    3.814681e-01   3.870422e-02
  4.384440e+00    4.437698e-01   4.294347e-02
  4.386651e+00    5.609341e-01   4.977056e-02
  4.388861e+00    3.190776e-01   3.879737e-02
  4.391072e+00    5.079982e-01   5.067277e-02
  4.393282e+00    3.571059e-01   4.413120e-02
  4.395492e+00    3.661309e-01   4.653870e-02
  4.397703e+00    3.337170e-01   4.646291e-02
  4.399913e+00    4.778125e-01   5.841125e-02
  4.402124e+00    1.543146e-01   3.507280e-02
  4.404334e+00    4.222576e-01   6.168098e-02
  4.406545e+00    3.258426e-01   5.821109e-02
  4.408755e+00    3.343814e-01   6.395575e-02
  4.410966e+00    3.649223e-01   7.394068e-02
  4.413176e+00    2.346397e-01   6.712276e-02
  4.415387e+00   -4.789272e-01            nan
  4.417597e+00   -1.862366e+00            nan
  4.419807e+00    4.633816e-01   2.445061e-01
