# == pyFAI calibration ==
# Distance Sample to Detector: 0.216 m
# PONI: 1.166e-01, 1.308e-01 m
# Rotations: 0.000000 0.000000 0.000000 rad
# 
# == Fit2d calibration ==
# Distance Sample-beamCenter: 216.000 mm
# Center: x=1744.293, y=1555.000 pix
# Tilt: 0.000 deg  TiltPlanRot: 0.000 deg
# 
# Detector Eiger 9M	 PixelSize= 7.500e-05, 7.500e-05 m
#    Detector has a mask: True 
#    Detector has a dark current: False 
#    detector has a flat field: False 
# 
# Wavelength: 9.8e-11 m
# Mask applied: from detector
# Dark current applied: False
# Flat field applied: False
# Polarization factor: None
# Normalization factor: 1.0
# 
# Headers of the input frame:
# {
# "_array_data.header_convention": "SLS_1.0",
# "_array_data.header_contents": "# Detector: Dectris Eiger 9M, S/N E-18-0102\r\n# Pixel_size 75e-6 m x 75e-6 m\r\n# Silicon sensor, thickness 0.000450 m\r\n# Exposure_time 0.024997 s\r\n# Exposure_period 0.025000 s\r\n# Count_cutoff 62318 counts\r\n# Wavelength 0.980106 A\r\n# Detector_distance 0.215992 m\r\n# Beam_xy (1555, 1744) pixels\r\n# Start_angle 0.000000 deg.\r\n# Angle_increment 0.000000 deg.",
# "Content-Type": "application/octet-stream;",
# "conversions": "x-CBF_BYTE_OFFSET",
# "Content-Transfer-Encoding": "BINARY",
# "X-Binary-Size": "10166600",
# "X-Binary-ID": "1",
# "X-Binary-Element-Type": "signed 32-bit integer",
# "X-Binary-Element-Byte-Order": "LITTLE_ENDIAN",
# "Content-MD5": "3FjRaypCUgQeZmZz+gBwEg==",
# "X-Binary-Number-of-Elements": "10166590",
# "X-Binary-Size-Fastest-Dimension": "3110",
# "X-Binary-Size-Second-Dimension": "3269",
# "X-Binary-Size-Padding": "4095"
# }
# --> H:/Proxima2a_2019-04-05/RAW_DATA/C5_gel17_position5/C5_mesh_1_data.cbf/C5_mesh_1_data.cbf000054.dat
#        q_A^-1              I           sigma 
  1.105228e-03    6.626050e-01   4.404680e-01
  3.315685e-03    1.304119e+00   3.756679e-01
  5.526141e-03    1.296336e+00   2.896216e-01
  7.736597e-03    1.428819e+00   2.568673e-01
  9.947054e-03    1.291076e+00   2.152546e-01
  1.215751e-02    1.390030e+00   2.019671e-01
  1.436797e-02    1.507880e+00   1.934903e-01
  1.657842e-02    1.531416e+00   1.815060e-01
  1.878888e-02    1.468035e+00   1.669290e-01
  2.099934e-02    1.164787e+00   1.406777e-01
  2.320979e-02    1.379553e+00   1.456136e-01
  2.542025e-02    1.334509e+00   1.368580e-01
  2.763070e-02    1.447215e+00   1.366963e-01
  2.984116e-02    1.422824e+00   1.304224e-01
  3.205162e-02    1.361206e+00   1.230972e-01
  3.426207e-02    1.356765e+00   1.188576e-01
  3.647253e-02    1.315660e+00   1.134388e-01
  3.868299e-02    1.269595e+00   1.082127e-01
  4.089344e-02    1.331726e+00   1.077924e-01
  4.310390e-02    1.315171e+00   1.043314e-01
  4.531436e-02    1.433712e+00   1.062421e-01
  4.752481e-02    1.427056e+00   1.034998e-01
  4.973527e-02    1.515173e+00   1.042517e-01
  5.194572e-02    1.475070e+00   1.006490e-01
  5.415618e-02    1.357552e+00   9.456208e-02
  5.636664e-02    1.429923e+00   9.513088e-02
  5.857709e-02    1.420645e+00   9.301594e-02
  6.078755e-02    1.396178e+00   9.051647e-02
  6.299801e-02    1.461572e+00   9.097176e-02
  6.520846e-02    1.394007e+00   8.732592e-02
  6.741892e-02    1.391491e+00   8.580054e-02
  6.962938e-02    1.450852e+00   8.621401e-02
  7.183983e-02    1.433948e+00   8.437986e-02
  7.405029e-02    1.396842e+00   8.202664e-02
  7.626074e-02    1.433265e+00   8.187544e-02
  7.847120e-02    1.457462e+00   8.139031e-02
  8.068166e-02    1.475922e+00   8.077369e-02
  8.289211e-02    1.448469e+00   7.894440e-02
  8.510257e-02    1.471028e+00   7.851631e-02
  8.731303e-02    1.419944e+00   7.615536e-02
  8.952348e-02    1.431260e+00   7.551042e-02
  9.173394e-02    1.398055e+00   7.372183e-02
  9.394439e-02    1.389867e+00   7.263331e-02
  9.615485e-02    1.441942e+00   7.312461e-02
  9.836531e-02    1.516229e+00   7.413524e-02
  1.005758e-01    1.547486e+00   7.406838e-02
  1.027862e-01    1.498006e+00   7.208496e-02
  1.049967e-01    1.472386e+00   7.070836e-02
  1.072071e-01    1.397991e+00   6.818408e-02
  1.094176e-01    1.476390e+00   6.935742e-02
  1.116280e-01    1.563514e+00   7.066275e-02
  1.138385e-01    1.530369e+00   6.922635e-02
  1.160490e-01    1.479015e+00   6.740286e-02
  1.182594e-01    1.522858e+00   6.775089e-02
  1.204699e-01    1.522717e+00   6.712282e-02
  1.226803e-01    1.578209e+00   6.771372e-02
  1.248908e-01    1.587665e+00   6.731179e-02
  1.271012e-01    1.592534e+00   6.682478e-02
  1.293117e-01    1.661427e+00   6.766817e-02
  1.315222e-01    1.544199e+00   6.468520e-02
  1.337326e-01    1.514987e+00   6.353748e-02
  1.359431e-01    1.515859e+00   6.359299e-02
  1.381535e-01    1.478865e+00   6.365532e-02
  1.403640e-01    1.502548e+00   6.444005e-02
  1.425744e-01    1.492456e+00   6.432587e-02
  1.447849e-01    1.531676e+00   6.518061e-02
  1.469953e-01    1.472487e+00   6.386878e-02
  1.492058e-01    1.507141e+00   6.454086e-02
  1.514163e-01    1.498627e+00   6.425144e-02
  1.536267e-01    1.575915e+00   6.575876e-02
  1.558372e-01    1.561185e+00   6.530623e-02
  1.580476e-01    1.596880e+00   6.588832e-02
  1.602581e-01    1.629848e+00   6.639593e-02
  1.624685e-01    1.656974e+00   6.676289e-02
  1.646790e-01    1.658965e+00   6.661118e-02
  1.668895e-01    1.694974e+00   6.713575e-02
  1.690999e-01    1.717398e+00   6.737548e-02
  1.713104e-01    1.713513e+00   6.709035e-02
  1.735208e-01    1.763459e+00   6.784948e-02
  1.757313e-01    1.785490e+00   6.805800e-02
  1.779417e-01    1.885132e+00   6.970321e-02
  1.801522e-01    1.775427e+00   6.742919e-02
  1.823626e-01    1.784240e+00   6.737129e-02
  1.845731e-01    1.810855e+00   6.765206e-02
  1.867836e-01    1.890809e+00   6.889613e-02
  1.889940e-01    1.883550e+00   6.853908e-02
  1.912045e-01    1.943073e+00   6.938113e-02
  1.934149e-01    2.007402e+00   7.028425e-02
  1.956254e-01    1.979650e+00   6.956655e-02
  1.978358e-01    1.945155e+00   6.872147e-02
  2.000463e-01    1.975822e+00   6.903155e-02
  2.022568e-01    1.975529e+00   6.879986e-02
  2.044672e-01    1.969390e+00   6.845758e-02
  2.066777e-01    1.912436e+00   6.723653e-02
  2.088881e-01    1.890656e+00   6.663384e-02
  2.110986e-01    1.938444e+00   6.723930e-02
  2.133090e-01    2.026759e+00   6.853045e-02
  2.155195e-01    1.900236e+00   6.613684e-02
  2.177300e-01    1.893792e+00   6.550587e-02
  2.199404e-01    2.017514e+00   6.583024e-02
  2.221509e-01    1.911150e+00   6.301938e-02
  2.243613e-01    1.964558e+00   6.308384e-02
  2.265718e-01    2.045817e+00   6.366573e-02
  2.287822e-01    2.111908e+00   6.404570e-02
  2.309927e-01    2.039919e+00   6.237126e-02
  2.332031e-01    2.089359e+00   6.258226e-02
  2.354136e-01    2.214238e+00   6.390322e-02
  2.376241e-01    2.227220e+00   6.359284e-02
  2.398345e-01    2.184978e+00   6.252072e-02
  2.420450e-01    2.170357e+00   6.186588e-02
  2.442554e-01    2.165978e+00   6.137766e-02
  2.464659e-01    2.120939e+00   6.032839e-02
  2.486763e-01    2.123734e+00   5.997131e-02
  2.508868e-01    2.079174e+00   5.896449e-02
  2.530973e-01    2.041305e+00   5.806281e-02
  2.553077e-01    2.090182e+00   5.839745e-02
  2.575182e-01    2.015079e+00   5.699947e-02
  2.597286e-01    2.082114e+00   5.760298e-02
  2.619391e-01    2.107827e+00   5.762393e-02
  2.641495e-01    2.025521e+00   5.617503e-02
  2.663600e-01    2.041674e+00   5.608841e-02
  2.685704e-01    2.066241e+00   5.611901e-02
  2.707809e-01    2.088232e+00   5.611737e-02
  2.729914e-01    2.033672e+00   5.509086e-02
  2.752018e-01    2.044234e+00   5.494621e-02
  2.774123e-01    2.042264e+00   5.463923e-02
  2.796227e-01    1.926575e+00   5.280656e-02
  2.818332e-01    1.910125e+00   5.231833e-02
  2.840436e-01    1.955267e+00   5.267635e-02
  2.862541e-01    1.982841e+00   5.279149e-02
  2.884646e-01    1.988786e+00   5.261965e-02
  2.906750e-01    1.980233e+00   5.225744e-02
  2.928855e-01    1.925073e+00   5.128571e-02
  2.950959e-01    1.941791e+00   5.127133e-02
  2.973064e-01    1.894114e+00   5.041040e-02
  2.995168e-01    1.959249e+00   5.103761e-02
  3.017273e-01    1.973480e+00   5.099683e-02
  3.039377e-01    1.888682e+00   4.967067e-02
  3.061482e-01    1.946874e+00   5.021194e-02
  3.083587e-01    1.826118e+00   4.841931e-02
  3.105691e-01    1.898863e+00   4.916338e-02
  3.127796e-01    1.868311e+00   4.856127e-02
  3.149900e-01    1.824555e+00   4.778929e-02
  3.172005e-01    1.827112e+00   4.762721e-02
  3.194109e-01    1.877513e+00   4.808034e-02
  3.216214e-01    1.865312e+00   4.772832e-02
  3.238319e-01    1.921294e+00   4.824731e-02
  3.260423e-01    1.883712e+00   4.758285e-02
  3.282528e-01    1.831210e+00   4.672826e-02
  3.304632e-01    1.806416e+00   4.623108e-02
  3.326737e-01    1.806620e+00   4.605326e-02
  3.348841e-01    1.850822e+00   4.643251e-02
  3.370946e-01    1.797791e+00   4.559027e-02
  3.393050e-01    1.776824e+00   4.515196e-02
  3.415155e-01    1.790902e+00   4.516004e-02
  3.437260e-01    1.829722e+00   4.547766e-02
  3.459364e-01    1.868306e+00   4.578469e-02
  3.481469e-01    1.794604e+00   4.470874e-02
  3.503573e-01    1.753764e+00   4.403609e-02
  3.525678e-01    1.757710e+00   4.392849e-02
  3.547782e-01    1.772787e+00   4.395703e-02
  3.569887e-01    1.782354e+00   4.391932e-02
  3.591992e-01    1.821609e+00   4.424321e-02
  3.614096e-01    1.837168e+00   4.427772e-02
  3.636201e-01    1.737467e+00   4.290818e-02
  3.658305e-01    1.802871e+00   4.355924e-02
  3.680410e-01    1.802707e+00   4.340743e-02
  3.702514e-01    1.815503e+00   4.341475e-02
  3.724619e-01    1.765089e+00   4.266193e-02
  3.746724e-01    1.766805e+00   4.254024e-02
  3.768828e-01    1.808212e+00   4.289103e-02
  3.790933e-01    1.826285e+00   4.296440e-02
  3.813037e-01    1.775141e+00   4.221996e-02
  3.835142e-01    1.718316e+00   4.140225e-02
  3.857246e-01    1.725419e+00   4.135347e-02
  3.879351e-01    1.738754e+00   4.137859e-02
  3.901455e-01    1.793384e+00   4.188982e-02
  3.923560e-01    1.739142e+00   4.112035e-02
  3.945665e-01    1.744386e+00   4.105172e-02
  3.967769e-01    1.714704e+00   4.057349e-02
  3.989874e-01    1.746823e+00   4.082384e-02
  4.011978e-01    1.852481e+00   4.191105e-02
  4.034083e-01    1.836988e+00   4.160733e-02
  4.056187e-01    1.785944e+00   4.089880e-02
  4.078292e-01    1.834872e+00   4.132979e-02
  4.100397e-01    1.814023e+00   4.096886e-02
  4.122501e-01    1.794364e+00   4.062434e-02
  4.144606e-01    1.796911e+00   4.053262e-02
  4.166710e-01    1.765090e+00   4.005268e-02
  4.188815e-01    1.761309e+00   3.989157e-02
  4.210919e-01    1.761272e+00   3.977423e-02
  4.233024e-01    1.801913e+00   4.011217e-02
  4.255128e-01    1.807343e+00   4.005646e-02
  4.277233e-01    1.784490e+00   3.968802e-02
  4.299338e-01    1.799172e+00   3.973631e-02
  4.321442e-01    1.773437e+00   3.933822e-02
  4.343547e-01    1.710446e+00   3.852402e-02
  4.365651e-01    1.724302e+00   3.856984e-02
  4.387756e-01    1.717309e+00   3.838378e-02
  4.409860e-01    1.707139e+00   3.816390e-02
  4.431965e-01    1.748576e+00   3.851752e-02
  4.454070e-01    1.755196e+00   3.848300e-02
  4.476174e-01    1.747587e+00   3.829406e-02
  4.498279e-01    1.679640e+00   3.744008e-02
  4.520383e-01    1.719858e+00   3.778169e-02
  4.542488e-01    1.726303e+00   3.775037e-02
  4.564592e-01    1.692448e+00   3.727810e-02
  4.586697e-01    1.662641e+00   3.685029e-02
  4.608801e-01    1.678564e+00   3.692716e-02
  4.630906e-01    1.659689e+00   3.662173e-02
  4.653011e-01    1.670912e+00   3.664869e-02
  4.675115e-01    1.691049e+00   3.677178e-02
  4.697220e-01    1.678522e+00   3.653941e-02
  4.719324e-01    1.697521e+00   3.665056e-02
  4.741429e-01    1.726806e+00   3.687010e-02
  4.763533e-01    1.688476e+00   3.636516e-02
  4.785638e-01    1.679640e+00   3.617618e-02
  4.807743e-01    1.722298e+00   3.653951e-02
  4.829847e-01    1.768187e+00   3.692957e-02
  4.851952e-01    1.702353e+00   3.614389e-02
  4.874056e-01    1.679988e+00   3.581512e-02
  4.896161e-01    1.710910e+00   3.605359e-02
  4.918265e-01    1.699279e+00   3.584161e-02
  4.940370e-01    1.673760e+00   3.548365e-02
  4.962475e-01    1.649430e+00   3.513781e-02
  4.984579e-01    1.647416e+00   3.502981e-02
  5.006684e-01    1.657155e+00   3.504753e-02
  5.028788e-01    1.714835e+00   3.556588e-02
  5.050893e-01    1.660140e+00   3.490900e-02
  5.072997e-01    1.653633e+00   3.475634e-02
  5.095102e-01    1.682235e+00   3.497169e-02
  5.117206e-01    1.675820e+00   3.482194e-02
  5.139311e-01    1.646897e+00   3.443844e-02
  5.161416e-01    1.644912e+00   3.433636e-02
  5.183520e-01    1.600343e+00   3.378750e-02
  5.205625e-01    1.612651e+00   3.383771e-02
  5.227729e-01    1.661395e+00   3.426518e-02
  5.249834e-01    1.673442e+00   3.430937e-02
  5.271938e-01    1.716882e+00   3.467071e-02
  5.294043e-01    1.771194e+00   3.513360e-02
  5.316148e-01    1.744690e+00   3.478986e-02
  5.338252e-01    1.742297e+00   3.468654e-02
  5.360357e-01    1.715854e+00   3.434397e-02
  5.382461e-01    1.669953e+00   3.380488e-02
  5.404566e-01    1.703125e+00   3.406128e-02
  5.426670e-01    1.728586e+00   3.423762e-02
  5.448775e-01    1.760986e+00   3.447980e-02
  5.470879e-01    1.739964e+00   3.419695e-02
  5.492984e-01    1.758760e+00   3.430471e-02
  5.515089e-01    1.771438e+00   3.435176e-02
  5.537193e-01    1.770373e+00   3.426580e-02
  5.559298e-01    1.758993e+00   3.408055e-02
  5.581402e-01    1.799043e+00   3.439105e-02
  5.603507e-01    1.791111e+00   3.424048e-02
  5.625611e-01    1.757523e+00   3.384430e-02
  5.647716e-01    1.749270e+00   3.369143e-02
  5.669821e-01    1.780424e+00   3.391684e-02
  5.691925e-01    1.771547e+00   3.375957e-02
  5.714030e-01    1.732999e+00   3.331907e-02
  5.736134e-01    1.654724e+00   3.248866e-02
  5.758239e-01    1.682045e+00   3.268585e-02
  5.780343e-01    1.702083e+00   3.281041e-02
  5.802448e-01    1.676854e+00   3.249817e-02
  5.824552e-01    1.639433e+00   3.206608e-02
  5.846657e-01    1.640093e+00   3.200567e-02
  5.868762e-01    1.625610e+00   3.179771e-02
  5.890866e-01    1.616220e+00   3.163996e-02
  5.912971e-01    1.617622e+00   3.158815e-02
  5.935075e-01    1.591181e+00   3.126417e-02
  5.957180e-01    1.577686e+00   3.106744e-02
  5.979284e-01    1.594406e+00   3.116786e-02
  6.001389e-01    1.633640e+00   3.148477e-02
  6.023494e-01    1.631588e+00   3.140110e-02
  6.045598e-01    1.663849e+00   3.164547e-02
  6.067703e-01    1.601989e+00   3.098920e-02
  6.089807e-01    1.662039e+00   3.150116e-02
  6.111912e-01    1.692116e+00   3.172149e-02
  6.134016e-01    1.646735e+00   3.123080e-02
  6.156121e-01    1.664419e+00   3.133562e-02
  6.178226e-01    1.705844e+00   3.166038e-02
  6.200330e-01    1.757547e+00   3.207320e-02
  6.222435e-01    1.711077e+00   3.158368e-02
  6.244539e-01    1.684363e+00   3.127478e-02
  6.266644e-01    1.681389e+00   3.118622e-02
  6.288748e-01    1.662652e+00   3.095159e-02
  6.310853e-01    1.698505e+00   3.122280e-02
  6.332957e-01    1.669039e+00   3.089103e-02
  6.355062e-01    1.703341e+00   3.114621e-02
  6.377167e-01    1.683473e+00   3.090464e-02
  6.399271e-01    1.683759e+00   3.084803e-02
  6.421376e-01    1.713821e+00   3.106279e-02
  6.443480e-01    1.671472e+00   3.061827e-02
  6.465585e-01    1.655105e+00   3.041024e-02
  6.487689e-01    1.714819e+00   3.089552e-02
  6.509794e-01    1.682870e+00   3.054864e-02
  6.531899e-01    1.615360e+00   2.987336e-02
  6.554003e-01    1.607761e+00   2.974695e-02
  6.576108e-01    1.629175e+00   2.988865e-02
  6.598212e-01    1.586151e+00   2.943657e-02
  6.620317e-01    1.589275e+00   2.941091e-02
  6.642421e-01    1.573882e+00   2.921400e-02
  6.664526e-01    1.554593e+00   2.898092e-02
  6.686630e-01    1.618346e+00   2.951453e-02
  6.708735e-01    1.580917e+00   2.911773e-02
  6.730840e-01    1.578170e+00   2.903936e-02
  6.752944e-01    1.598802e+00   2.917542e-02
  6.775049e-01    1.590633e+00   2.904795e-02
  6.797153e-01    1.591604e+00   2.900421e-02
  6.819258e-01    1.603608e+00   2.906086e-02
  6.841362e-01    1.604031e+00   2.901244e-02
  6.863467e-01    1.583494e+00   2.877447e-02
  6.885572e-01    1.608962e+00   2.895297e-02
  6.907676e-01    1.590545e+00   2.873522e-02
  6.929781e-01    1.570461e+00   2.850245e-02
  6.951885e-01    1.590387e+00   2.863192e-02
  6.973990e-01    1.544079e+00   2.816211e-02
  6.996094e-01    1.533137e+00   2.801278e-02
  7.018199e-01    1.533849e+00   2.797009e-02
  7.040303e-01    1.581288e+00   2.834944e-02
  7.062408e-01    1.561992e+00   2.812660e-02
  7.084513e-01    1.625282e+00   2.864085e-02
  7.106617e-01    1.589065e+00   2.827077e-02
  7.128722e-01    1.544898e+00   2.782687e-02
  7.150826e-01    1.575487e+00   2.805257e-02
  7.172931e-01    1.547335e+00   2.775289e-02
  7.195035e-01    1.535497e+00   2.759897e-02
  7.217140e-01    1.565051e+00   2.791263e-02
  7.239245e-01    1.527237e+00   2.779665e-02
  7.261349e-01    1.531842e+00   2.794564e-02
  7.283454e-01    1.544029e+00   2.812829e-02
  7.305558e-01    1.582836e+00   2.853370e-02
  7.327663e-01    1.560978e+00   2.837833e-02
  7.349767e-01    1.556950e+00   2.835797e-02
  7.371872e-01    1.563125e+00   2.840300e-02
  7.393976e-01    1.539106e+00   2.816983e-02
  7.416081e-01    1.552143e+00   2.827285e-02
  7.438186e-01    1.534548e+00   2.796967e-02
  7.460290e-01    1.531529e+00   2.765195e-02
  7.482395e-01    1.536715e+00   2.752965e-02
  7.504499e-01    1.578382e+00   2.776391e-02
  7.526604e-01    1.588512e+00   2.773583e-02
  7.548708e-01    1.564129e+00   2.743300e-02
  7.570813e-01    1.564930e+00   2.738922e-02
  7.592918e-01    1.589939e+00   2.757185e-02
  7.615022e-01    1.551592e+00   2.720379e-02
  7.637127e-01    1.583165e+00   2.744628e-02
  7.659231e-01    1.539907e+00   2.703710e-02
  7.681336e-01    1.527110e+00   2.689338e-02
  7.703440e-01    1.525198e+00   2.684582e-02
  7.725545e-01    1.537359e+00   2.692210e-02
  7.747650e-01    1.646543e+00   2.782267e-02
  7.769754e-01    1.600491e+00   2.737772e-02
  7.791859e-01    1.562658e+00   2.699893e-02
  7.813963e-01    1.557520e+00   2.690227e-02
  7.836068e-01    1.508336e+00   2.642336e-02
  7.858172e-01    1.563171e+00   2.684908e-02
  7.880277e-01    1.568326e+00   2.684215e-02
  7.902381e-01    1.608758e+00   2.713656e-02
  7.924486e-01    1.603739e+00   2.704403e-02
  7.946591e-01    1.583683e+00   2.682633e-02
  7.968695e-01    1.620574e+00   2.708844e-02
  7.990800e-01    1.633462e+00   2.714734e-02
  8.012904e-01    1.602542e+00   2.684266e-02
  8.035009e-01    1.638457e+00   2.709348e-02
  8.057113e-01    1.661589e+00   2.723688e-02
  8.079218e-01    1.685926e+00   2.738828e-02
  8.101323e-01    1.651204e+00   2.705878e-02
  8.123427e-01    1.614538e+00   2.671102e-02
  8.145532e-01    1.642879e+00   2.689835e-02
  8.167636e-01    1.634209e+00   2.678216e-02
  8.189741e-01    1.611607e+00   2.655199e-02
  8.211845e-01    1.659466e+00   2.689816e-02
  8.233950e-01    1.650073e+00   2.677836e-02
  8.256054e-01    1.615866e+00   2.645540e-02
  8.278159e-01    1.610393e+00   2.636697e-02
  8.300264e-01    1.599953e+00   2.623876e-02
  8.322368e-01    1.657858e+00   2.666599e-02
  8.344473e-01    1.588411e+00   2.605881e-02
  8.366577e-01    1.618252e+00   2.626012e-02
  8.388682e-01    1.625634e+00   2.627788e-02
  8.410786e-01    1.646160e+00   2.640112e-02
  8.432891e-01    1.618581e+00   2.613745e-02
  8.454996e-01    1.612354e+00   2.604583e-02
  8.477100e-01    1.636592e+00   2.619922e-02
  8.499205e-01    1.609590e+00   2.594140e-02
  8.521309e-01    1.653977e+00   2.625563e-02
  8.543414e-01    1.649917e+00   2.618250e-02
  8.565518e-01    1.632908e+00   2.600663e-02
  8.587623e-01    1.604931e+00   2.574274e-02
  8.609727e-01    1.620289e+00   2.582550e-02
  8.631832e-01    1.592341e+00   2.556234e-02
  8.653937e-01    1.600132e+00   2.558540e-02
  8.676041e-01    1.589326e+00   2.546040e-02
  8.698146e-01    1.586252e+00   2.539689e-02
  8.720250e-01    1.584588e+00   2.534488e-02
  8.742355e-01    1.552660e+00   2.505004e-02
  8.764459e-01    1.565658e+00   2.511631e-02
  8.786564e-01    1.588504e+00   2.526116e-02
  8.808669e-01    1.597763e+00   2.529629e-02
  8.830773e-01    1.599523e+00   2.527210e-02
  8.852878e-01    1.601886e+00   2.525285e-02
  8.874982e-01    1.600730e+00   2.520711e-02
  8.897087e-01    1.602778e+00   2.518552e-02
  8.919191e-01    1.603094e+00   2.515022e-02
  8.941296e-01    1.574200e+00   2.488556e-02
  8.963401e-01    1.561298e+00   2.474738e-02
  8.985505e-01    1.565321e+00   2.474267e-02
  9.007610e-01    1.594898e+00   2.493867e-02
  9.029714e-01    1.576936e+00   2.476227e-02
  9.051819e-01    1.561061e+00   2.460053e-02
  9.073923e-01    1.587917e+00   2.477480e-02
  9.096028e-01    1.592525e+00   2.477590e-02
  9.118132e-01    1.568998e+00   2.455634e-02
  9.140237e-01    1.548181e+00   2.435687e-02
  9.162342e-01    1.544036e+00   2.429028e-02
  9.184446e-01    1.549570e+00   2.429858e-02
  9.206551e-01    1.580763e+00   2.450655e-02
  9.228655e-01    1.581685e+00   2.447867e-02
  9.250760e-01    1.587207e+00   2.448615e-02
  9.272864e-01    1.587617e+00   2.445524e-02
  9.294969e-01    1.573502e+00   2.431079e-02
  9.317074e-01    1.586209e+00   2.437426e-02
  9.339178e-01    1.622241e+00   2.461588e-02
  9.361283e-01    1.647752e+00   2.477211e-02
  9.383387e-01    1.618962e+00   2.452134e-02
  9.405492e-01    1.631535e+00   2.458200e-02
  9.427596e-01    1.652517e+00   2.470395e-02
  9.449701e-01    1.631416e+00   2.451237e-02
  9.471805e-01    1.649744e+00   2.461476e-02
  9.493910e-01    1.633972e+00   2.446320e-02
  9.516015e-01    1.649673e+00   2.454613e-02
  9.538119e-01    1.667382e+00   2.464372e-02
  9.560224e-01    1.652245e+00   2.449707e-02
  9.582328e-01    1.678152e+00   2.465524e-02
  9.604433e-01    1.716433e+00   2.489957e-02
  9.626537e-01    1.733789e+00   2.499149e-02
  9.648642e-01    1.745350e+00   2.504034e-02
  9.670747e-01    1.768609e+00   2.517186e-02
  9.692851e-01    1.781244e+00   2.522804e-02
  9.714956e-01    1.808200e+00   2.538238e-02
  9.737060e-01    1.796746e+00   2.526862e-02
  9.759165e-01    1.794460e+00   2.521693e-02
  9.781269e-01    1.784582e+00   2.511454e-02
  9.803374e-01    1.777485e+00   2.502988e-02
  9.825478e-01    1.788266e+00   2.507256e-02
  9.847583e-01    1.775395e+00   2.494825e-02
  9.869688e-01    1.779098e+00   2.494081e-02
  9.891792e-01    1.766808e+00   2.482150e-02
  9.913897e-01    1.744658e+00   2.463212e-02
  9.936001e-01    1.708878e+00   2.434633e-02
  9.958106e-01    1.652306e+00   2.390741e-02
  9.980210e-01    1.623814e+00   2.366962e-02
  1.000231e+00    1.611053e+00   2.370559e-02
  1.002442e+00    1.557654e+00   2.343326e-02
  1.004652e+00    1.604260e+00   2.384757e-02
  1.006863e+00    1.569528e+00   2.363698e-02
  1.009073e+00    1.553039e+00   2.354845e-02
  1.011284e+00    1.566231e+00   2.367989e-02
  1.013494e+00    1.557213e+00   2.363503e-02
  1.015705e+00    1.549554e+00   2.359912e-02
  1.017915e+00    1.530072e+00   2.346648e-02
  1.020126e+00    1.503336e+00   2.327625e-02
  1.022336e+00    1.505439e+00   2.330400e-02
  1.024547e+00    1.509621e+00   2.334742e-02
  1.026757e+00    1.478160e+00   2.311103e-02
  1.028967e+00    1.493672e+00   2.323953e-02
  1.031178e+00    1.460575e+00   2.298664e-02
  1.033388e+00    1.481242e+00   2.315365e-02
  1.035599e+00    1.484721e+00   2.318422e-02
  1.037809e+00    1.481864e+00   2.316509e-02
  1.040020e+00    1.476594e+00   2.312514e-02
  1.042230e+00    1.467680e+00   2.305712e-02
  1.044441e+00    1.477388e+00   2.313305e-02
  1.046651e+00    1.478679e+00   2.314332e-02
  1.048862e+00    1.448398e+00   2.290434e-02
  1.051072e+00    1.442835e+00   2.285801e-02
  1.053282e+00    1.440331e+00   2.283723e-02
  1.055493e+00    1.441662e+00   2.284355e-02
  1.057703e+00    1.473368e+00   2.309187e-02
  1.059914e+00    1.489599e+00   2.321446e-02
  1.062124e+00    1.449079e+00   2.289256e-02
  1.064335e+00    1.426261e+00   2.270822e-02
  1.066545e+00    1.416304e+00   2.262295e-02
  1.068756e+00    1.443171e+00   2.283283e-02
  1.070966e+00    1.408961e+00   2.255422e-02
  1.073177e+00    1.409349e+00   2.255138e-02
  1.075387e+00    1.426101e+00   2.267987e-02
  1.077597e+00    1.412600e+00   2.256515e-02
  1.079808e+00    1.394014e+00   2.228669e-02
  1.082018e+00    1.389770e+00   2.206844e-02
  1.084229e+00    1.399996e+00   2.204174e-02
  1.086439e+00    1.404472e+00   2.199106e-02
  1.088650e+00    1.404272e+00   2.191514e-02
  1.090860e+00    1.384072e+00   2.169097e-02
  1.093071e+00    1.394800e+00   2.171390e-02
  1.095281e+00    1.369460e+00   2.146004e-02
  1.097492e+00    1.401751e+00   2.165746e-02
  1.099702e+00    1.424837e+00   2.178399e-02
  1.101912e+00    1.424073e+00   2.172956e-02
  1.104123e+00    1.392369e+00   2.143884e-02
  1.106333e+00    1.389482e+00   2.137285e-02
  1.108544e+00    1.411787e+00   2.149973e-02
  1.110754e+00    1.388609e+00   2.128008e-02
  1.112965e+00    1.393190e+00   2.127502e-02
  1.115175e+00    1.378719e+00   2.112367e-02
  1.117386e+00    1.357304e+00   2.092053e-02
  1.119596e+00    1.387012e+00   2.111068e-02
  1.121807e+00    1.387957e+00   2.107937e-02
  1.124017e+00    1.390417e+00   2.106161e-02
  1.126228e+00    1.402432e+00   2.111670e-02
  1.128438e+00    1.365143e+00   2.079779e-02
  1.130648e+00    1.374400e+00   2.083414e-02
  1.132859e+00    1.432110e+00   2.123224e-02
  1.135069e+00    1.475616e+00   2.151661e-02
  1.137280e+00    1.464995e+00   2.140518e-02
  1.139490e+00    1.465870e+00   2.137755e-02
  1.141701e+00    1.508322e+00   2.165033e-02
  1.143911e+00    1.515983e+00   2.167191e-02
  1.146122e+00    1.467333e+00   2.128834e-02
  1.148332e+00    1.398954e+00   2.075431e-02
  1.150543e+00    1.325386e+00   2.017096e-02
  1.152753e+00    1.350692e+00   2.033203e-02
  1.154963e+00    1.375415e+00   2.048622e-02
  1.157174e+00    1.369471e+00   2.041180e-02
  1.159384e+00    1.380501e+00   2.046388e-02
  1.161595e+00    1.368717e+00   2.034653e-02
  1.163805e+00    1.370264e+00   2.032875e-02
  1.166016e+00    1.363349e+00   2.024801e-02
  1.168226e+00    1.372995e+00   2.029047e-02
  1.170437e+00    1.496286e+00   2.115191e-02
  1.172647e+00    1.589008e+00   2.176630e-02
  1.174858e+00    1.556823e+00   2.151477e-02
  1.177068e+00    1.408307e+00   2.043412e-02
  1.179278e+00    1.364161e+00   2.008265e-02
  1.181489e+00    1.371384e+00   2.010863e-02
  1.183699e+00    1.363856e+00   2.002573e-02
  1.185910e+00    1.341761e+00   1.983526e-02
  1.188120e+00    1.326757e+00   1.969765e-02
  1.190331e+00    1.319279e+00   1.961565e-02
  1.192541e+00    1.311293e+00   1.952925e-02
  1.194752e+00    1.330483e+00   1.964481e-02
  1.196962e+00    1.322793e+00   1.956249e-02
  1.199173e+00    1.320188e+00   1.951701e-02
  1.201383e+00    1.314774e+00   1.945015e-02
  1.203593e+00    1.329303e+00   1.953269e-02
  1.205804e+00    1.329878e+00   1.951120e-02
  1.208014e+00    1.316463e+00   1.938603e-02
  1.210225e+00    1.286286e+00   1.913782e-02
  1.212435e+00    1.302964e+00   1.923713e-02
  1.214646e+00    1.309440e+00   1.925918e-02
  1.216856e+00    1.278679e+00   1.900681e-02
  1.219067e+00    1.310058e+00   1.921453e-02
  1.221277e+00    1.317351e+00   1.924319e-02
  1.223488e+00    1.310947e+00   1.917101e-02
  1.225698e+00    1.318878e+00   1.920231e-02
  1.227909e+00    1.316137e+00   1.915257e-02
  1.230119e+00    1.333582e+00   1.924742e-02
  1.232329e+00    1.307101e+00   1.902515e-02
  1.234540e+00    1.318297e+00   1.907650e-02
  1.236750e+00    1.323881e+00   1.908690e-02
  1.238961e+00    1.339707e+00   1.917377e-02
  1.241171e+00    1.336476e+00   1.912658e-02
  1.243382e+00    1.338686e+00   1.911898e-02
  1.245592e+00    1.306501e+00   1.886404e-02
  1.247803e+00    1.323467e+00   1.896271e-02
  1.250013e+00    1.322436e+00   1.893201e-02
  1.252224e+00    1.300157e+00   1.874906e-02
  1.254434e+00    1.314131e+00   1.882610e-02
  1.256644e+00    1.319257e+00   1.883985e-02
  1.258855e+00    1.326126e+00   1.886576e-02
  1.261065e+00    1.342635e+00   1.895954e-02
  1.263276e+00    1.308520e+00   1.869453e-02
  1.265486e+00    1.325617e+00   1.879358e-02
  1.267697e+00    1.327171e+00   1.878178e-02
  1.269907e+00    1.332399e+00   1.879619e-02
  1.272118e+00    1.341048e+00   1.883459e-02
  1.274328e+00    1.332251e+00   1.875015e-02
  1.276539e+00    1.329832e+00   1.871048e-02
  1.278749e+00    1.344810e+00   1.879331e-02
  1.280959e+00    1.360713e+00   1.888149e-02
  1.283170e+00    1.350253e+00   1.878636e-02
  1.285380e+00    1.331324e+00   1.863190e-02
  1.287591e+00    1.347628e+00   1.872363e-02
  1.289801e+00    1.326533e+00   1.855548e-02
  1.292012e+00    1.344116e+00   1.866098e-02
  1.294222e+00    1.352708e+00   1.870427e-02
  1.296433e+00    1.368083e+00   1.879458e-02
  1.298643e+00    1.344064e+00   1.861243e-02
  1.300854e+00    1.334394e+00   1.852902e-02
  1.303064e+00    1.338794e+00   1.854041e-02
  1.305274e+00    1.334845e+00   1.849172e-02
  1.307485e+00    1.332057e+00   1.845100e-02
  1.309695e+00    1.363519e+00   1.864527e-02
  1.311906e+00    1.343392e+00   1.848550e-02
  1.314116e+00    1.343561e+00   1.846591e-02
  1.316327e+00    1.327933e+00   1.833671e-02
  1.318537e+00    1.315445e+00   1.822867e-02
  1.320748e+00    1.324481e+00   1.826982e-02
  1.322958e+00    1.367177e+00   1.854131e-02
  1.325169e+00    1.353048e+00   1.842422e-02
  1.327379e+00    1.340699e+00   1.831820e-02
  1.329589e+00    1.359792e+00   1.842703e-02
  1.331800e+00    1.371620e+00   1.848615e-02
  1.334010e+00    1.355975e+00   1.835972e-02
  1.336221e+00    1.340231e+00   1.823114e-02
  1.338431e+00    1.335790e+00   1.818016e-02
  1.340642e+00    1.316616e+00   1.811257e-02
  1.342852e+00    1.334351e+00   1.833423e-02
  1.345063e+00    1.341032e+00   1.842940e-02
  1.347273e+00    1.320359e+00   1.832167e-02
  1.349484e+00    1.303812e+00   1.823368e-02
  1.351694e+00    1.333670e+00   1.846384e-02
  1.353905e+00    1.310283e+00   1.831900e-02
  1.356115e+00    1.298921e+00   1.825413e-02
  1.358325e+00    1.289569e+00   1.820133e-02
  1.360536e+00    1.313050e+00   1.837774e-02
  1.362746e+00    1.312174e+00   1.838105e-02
  1.364957e+00    1.313976e+00   1.840123e-02
  1.367167e+00    1.303925e+00   1.833775e-02
  1.369378e+00    1.348293e+00   1.865314e-02
  1.371588e+00    1.318079e+00   1.844808e-02
  1.373799e+00    1.287523e+00   1.823656e-02
  1.376009e+00    1.290512e+00   1.826105e-02
  1.378220e+00    1.302800e+00   1.835027e-02
  1.380430e+00    1.307303e+00   1.838465e-02
  1.382640e+00    1.288494e+00   1.825282e-02
  1.384851e+00    1.268195e+00   1.810932e-02
  1.387061e+00    1.250758e+00   1.798469e-02
  1.389272e+00    1.263411e+00   1.807561e-02
  1.391482e+00    1.312826e+00   1.842503e-02
  1.393693e+00    1.306840e+00   1.838213e-02
  1.395903e+00    1.283116e+00   1.821300e-02
  1.398114e+00    1.282188e+00   1.820504e-02
  1.400324e+00    1.263737e+00   1.807146e-02
  1.402535e+00    1.249746e+00   1.796885e-02
  1.404745e+00    1.255110e+00   1.800502e-02
  1.406955e+00    1.260196e+00   1.803880e-02
  1.409166e+00    1.243544e+00   1.791594e-02
  1.411376e+00    1.258412e+00   1.801963e-02
  1.413587e+00    1.242985e+00   1.790507e-02
  1.415797e+00    1.256398e+00   1.799788e-02
  1.418008e+00    1.259836e+00   1.798081e-02
  1.420218e+00    1.247831e+00   1.774650e-02
  1.422429e+00    1.250073e+00   1.767780e-02
  1.424639e+00    1.263358e+00   1.770695e-02
  1.426850e+00    1.258821e+00   1.762069e-02
  1.429060e+00    1.250359e+00   1.751275e-02
  1.431270e+00    1.243868e+00   1.742338e-02
  1.433481e+00    1.241009e+00   1.736287e-02
  1.435691e+00    1.252857e+00   1.740737e-02
  1.437902e+00    1.252892e+00   1.737140e-02
  1.440112e+00    1.264421e+00   1.741587e-02
  1.442323e+00    1.261474e+00   1.736264e-02
  1.444533e+00    1.260115e+00   1.732087e-02
  1.446744e+00    1.242668e+00   1.716975e-02
  1.448954e+00    1.243622e+00   1.714646e-02
  1.451165e+00    1.257388e+00   1.721148e-02
  1.453375e+00    1.235001e+00   1.702992e-02
  1.455586e+00    1.250280e+00   1.710699e-02
  1.457796e+00    1.262072e+00   1.716005e-02
  1.460006e+00    1.251742e+00   1.706263e-02
  1.462217e+00    1.248025e+00   1.701127e-02
  1.464427e+00    1.233919e+00   1.688962e-02
  1.466638e+00    1.239219e+00   1.690084e-02
  1.468848e+00    1.239137e+00   1.687524e-02
  1.471059e+00    1.255231e+00   1.695953e-02
  1.473269e+00    1.256468e+00   1.694363e-02
  1.475480e+00    1.278664e+00   1.706877e-02
  1.477690e+00    1.261252e+00   1.692840e-02
  1.479901e+00    1.219854e+00   1.662487e-02
  1.482111e+00    1.232235e+00   1.668602e-02
  1.484321e+00    1.245950e+00   1.675569e-02
  1.486532e+00    1.279988e+00   1.696057e-02
  1.488742e+00    1.244630e+00   1.670224e-02
  1.490953e+00    1.231817e+00   1.659371e-02
  1.493163e+00    1.246043e+00   1.666712e-02
  1.495374e+00    1.233895e+00   1.656446e-02
  1.497584e+00    1.236732e+00   1.656203e-02
  1.499795e+00    1.232083e+00   1.650948e-02
  1.502005e+00    1.242852e+00   1.655994e-02
  1.504216e+00    1.209542e+00   1.631589e-02
  1.506426e+00    1.233949e+00   1.645907e-02
  1.508636e+00    1.243804e+00   1.650433e-02
  1.510847e+00    1.241384e+00   1.646659e-02
  1.513057e+00    1.229149e+00   1.636041e-02
  1.515268e+00    1.261170e+00   1.654637e-02
  1.517478e+00    1.242563e+00   1.639883e-02
  1.519689e+00    1.216262e+00   1.619977e-02
  1.521899e+00    1.212899e+00   1.615460e-02
  1.524110e+00    1.257961e+00   1.643159e-02
  1.526320e+00    1.238323e+00   1.628337e-02
  1.528531e+00    1.241748e+00   1.628617e-02
  1.530741e+00    1.244100e+00   1.628249e-02
  1.532951e+00    1.239766e+00   1.623459e-02
  1.535162e+00    1.215051e+00   1.615737e-02
  1.537372e+00    1.183647e+00   1.601231e-02
  1.539583e+00    1.218557e+00   1.628054e-02
  1.541793e+00    1.227967e+00   1.635018e-02
  1.544004e+00    1.203830e+00   1.618896e-02
  1.546214e+00    1.194803e+00   1.612666e-02
  1.548425e+00    1.201226e+00   1.617022e-02
  1.550635e+00    1.209998e+00   1.623868e-02
  1.552846e+00    1.216284e+00   1.629035e-02
  1.555056e+00    1.206571e+00   1.618435e-02
  1.557266e+00    1.222303e+00   1.618004e-02
  1.559477e+00    1.233430e+00   1.619467e-02
  1.561687e+00    1.257069e+00   1.631830e-02
  1.563898e+00    1.246269e+00   1.623088e-02
  1.566108e+00    1.226635e+00   1.608667e-02
  1.568319e+00    1.235206e+00   1.612722e-02
  1.570529e+00    1.232172e+00   1.608239e-02
  1.572740e+00    1.218959e+00   1.596859e-02
  1.574950e+00    1.223344e+00   1.597120e-02
  1.577161e+00    1.237478e+00   1.603778e-02
  1.579371e+00    1.229487e+00   1.596242e-02
  1.581582e+00    1.220043e+00   1.588141e-02
  1.583792e+00    1.220094e+00   1.586390e-02
  1.586002e+00    1.218438e+00   1.583569e-02
  1.588213e+00    1.222762e+00   1.584668e-02
  1.590423e+00    1.229918e+00   1.587302e-02
  1.592634e+00    1.222345e+00   1.580264e-02
  1.594844e+00    1.220864e+00   1.577186e-02
  1.597055e+00    1.218459e+00   1.573604e-02
  1.599265e+00    1.200279e+00   1.559782e-02
  1.601476e+00    1.202931e+00   1.559504e-02
  1.603686e+00    1.222304e+00   1.570050e-02
  1.605897e+00    1.221895e+00   1.567786e-02
  1.608107e+00    1.211525e+00   1.559182e-02
  1.610317e+00    1.229734e+00   1.568932e-02
  1.612528e+00    1.215499e+00   1.557923e-02
  1.614738e+00    1.201417e+00   1.547000e-02
  1.616949e+00    1.193853e+00   1.540249e-02
  1.619159e+00    1.203113e+00   1.544356e-02
  1.621370e+00    1.186035e+00   1.531533e-02
  1.623580e+00    1.208022e+00   1.543836e-02
  1.625791e+00    1.188802e+00   1.529694e-02
  1.628001e+00    1.180988e+00   1.522850e-02
  1.630212e+00    1.142895e+00   1.496350e-02
  1.632422e+00    1.151048e+00   1.499915e-02
  1.634632e+00    1.158497e+00   1.503048e-02
  1.636843e+00    1.130093e+00   1.482789e-02
  1.639053e+00    1.124616e+00   1.477498e-02
  1.641264e+00    1.140743e+00   1.486366e-02
  1.643474e+00    1.118307e+00   1.469972e-02
  1.645685e+00    1.112718e+00   1.464661e-02
  1.647895e+00    1.107458e+00   1.459569e-02
  1.650106e+00    1.128707e+00   1.471821e-02
  1.652316e+00    1.130812e+00   1.471558e-02
  1.654527e+00    1.111724e+00   1.457443e-02
  1.656737e+00    1.086879e+00   1.439444e-02
  1.658947e+00    1.088332e+00   1.438808e-02
  1.661158e+00    1.085666e+00   1.435451e-02
  1.663368e+00    1.075881e+00   1.427397e-02
  1.665579e+00    1.094306e+00   1.437971e-02
  1.667789e+00    1.093509e+00   1.435841e-02
  1.670000e+00    1.075175e+00   1.422230e-02
  1.672210e+00    1.068115e+00   1.415995e-02
  1.674421e+00    1.079270e+00   1.421855e-02
  1.676631e+00    1.068335e+00   1.413071e-02
  1.678842e+00    1.065360e+00   1.409549e-02
  1.681052e+00    1.062224e+00   1.405955e-02
  1.683263e+00    1.053462e+00   1.398659e-02
  1.685473e+00    1.049446e+00   1.394498e-02
  1.687683e+00    1.025517e+00   1.377011e-02
  1.689894e+00    1.013440e+00   1.367349e-02
  1.692104e+00    1.026443e+00   1.374636e-02
  1.694315e+00    1.038752e+00   1.381426e-02
  1.696525e+00    1.059177e+00   1.393434e-02
  1.698736e+00    1.028274e+00   1.371500e-02
  1.700946e+00    1.020777e+00   1.365006e-02
  1.703157e+00    1.007915e+00   1.354949e-02
  1.705367e+00    1.023597e+00   1.364019e-02
  1.707578e+00    1.016931e+00   1.358138e-02
  1.709788e+00    1.011546e+00   1.353147e-02
  1.711998e+00    9.987864e-01   1.343118e-02
  1.714209e+00    9.897166e-01   1.335594e-02
  1.716419e+00    1.002941e+00   1.343085e-02
  1.718630e+00    9.670092e-01   1.317425e-02
  1.720840e+00    9.882601e-01   1.330430e-02
  1.723051e+00    9.908439e-01   1.330804e-02
  1.725261e+00    9.946275e-01   1.331896e-02
  1.727472e+00    9.694723e-01   1.313562e-02
  1.729682e+00    9.916263e-01   1.327155e-02
  1.731893e+00    9.928178e-01   1.326576e-02
  1.734103e+00    9.719147e-01   1.311181e-02
  1.736313e+00    9.740848e-01   1.311266e-02
  1.738524e+00    9.742649e-01   1.310025e-02
  1.740734e+00    9.716962e-01   1.306944e-02
  1.742945e+00    9.734701e-01   1.306808e-02
  1.745155e+00    9.567389e-01   1.294208e-02
  1.747366e+00    9.649025e-01   1.298354e-02
  1.749576e+00    9.467038e-01   1.284713e-02
  1.751787e+00    9.405115e-01   1.279196e-02
  1.753997e+00    9.827198e-01   1.306246e-02
  1.756208e+00    9.655093e-01   1.293446e-02
  1.758418e+00    9.479795e-01   1.280354e-02
  1.760628e+00    9.528396e-01   1.282307e-02
  1.762839e+00    9.477128e-01   1.277544e-02
  1.765049e+00    9.482779e-01   1.276622e-02
  1.767260e+00    9.460620e-01   1.273857e-02
  1.769470e+00    9.472769e-01   1.273383e-02
  1.771681e+00    9.402726e-01   1.267360e-02
  1.773891e+00    9.319354e-01   1.260436e-02
  1.776102e+00    9.489645e-01   1.270611e-02
  1.778312e+00    9.361434e-01   1.260733e-02
  1.780523e+00    9.231436e-01   1.250686e-02
  1.782733e+00    9.190607e-01   1.246663e-02
  1.784944e+00    9.074242e-01   1.237478e-02
  1.787154e+00    8.724504e-01   1.212182e-02
  1.789364e+00    8.993773e-01   1.229519e-02
  1.791575e+00    8.827940e-01   1.216909e-02
  1.793785e+00    8.802027e-01   1.213908e-02
  1.795996e+00    8.727866e-01   1.207567e-02
  1.798206e+00    8.850179e-01   1.214768e-02
  1.800417e+00    8.815773e-01   1.211163e-02
  1.802627e+00    8.598315e-01   1.194974e-02
  1.804838e+00    8.613158e-01   1.194827e-02
  1.807048e+00    8.679467e-01   1.198163e-02
  1.809259e+00    8.786414e-01   1.204184e-02
  1.811469e+00    8.823459e-01   1.205243e-02
  1.813679e+00    8.649243e-01   1.191819e-02
  1.815890e+00    8.505603e-01   1.180445e-02
  1.818100e+00    8.472619e-01   1.176685e-02
  1.820311e+00    8.605915e-01   1.184457e-02
  1.822521e+00    8.440902e-01   1.171601e-02
  1.824732e+00    8.437176e-01   1.169899e-02
  1.826942e+00    8.494002e-01   1.172626e-02
  1.829153e+00    8.369474e-01   1.162861e-02
  1.831363e+00    8.571928e-01   1.175655e-02
  1.833574e+00    8.608362e-01   1.176999e-02
  1.835784e+00    8.498992e-01   1.168374e-02
  1.837994e+00    8.501580e-01   1.167399e-02
  1.840205e+00    8.601950e-01   1.173162e-02
  1.842415e+00    8.441184e-01   1.160991e-02
  1.844626e+00    8.336983e-01   1.152670e-02
  1.846836e+00    8.454499e-01   1.159638e-02
  1.849047e+00    8.486791e-01   1.160701e-02
  1.851257e+00    8.637441e-01   1.170000e-02
  1.853468e+00    8.382131e-01   1.151714e-02
  1.855678e+00    8.195248e-01   1.137933e-02
  1.857889e+00    8.280876e-01   1.143027e-02
  1.860099e+00    8.384988e-01   1.149338e-02
  1.862309e+00    8.317834e-01   1.143887e-02
  1.864520e+00    8.442926e-01   1.151606e-02
  1.866730e+00    8.262421e-01   1.138307e-02
  1.868941e+00    8.161954e-01   1.130293e-02
  1.871151e+00    8.174208e-01   1.130026e-02
  1.873362e+00    8.178322e-01   1.129196e-02
  1.875572e+00    8.209354e-01   1.130263e-02
  1.877783e+00    8.229315e-01   1.130509e-02
  1.879993e+00    8.202076e-01   1.127541e-02
  1.882204e+00    8.211063e-01   1.127081e-02
  1.884414e+00    8.471802e-01   1.143727e-02
  1.886624e+00    8.344439e-01   1.133999e-02
  1.888835e+00    8.276165e-01   1.128260e-02
  1.891045e+00    8.172311e-01   1.120087e-02
  1.893256e+00    8.065187e-01   1.111632e-02
  1.895466e+00    8.146846e-01   1.116145e-02
  1.897677e+00    8.127469e-01   1.113739e-02
  1.899887e+00    8.131301e-01   1.112917e-02
  1.902098e+00    8.464447e-01   1.134391e-02
  1.904308e+00    8.410236e-01   1.129691e-02
  1.906519e+00    8.318015e-01   1.122395e-02
  1.908729e+00    8.157703e-01   1.110473e-02
  1.910940e+00    8.241262e-01   1.115035e-02
  1.913150e+00    8.150833e-01   1.107850e-02
  1.915360e+00    8.081532e-01   1.102079e-02
  1.917571e+00    8.090298e-01   1.101597e-02
  1.919781e+00    8.109269e-01   1.101827e-02
  1.921992e+00    8.148256e-01   1.103413e-02
  1.924202e+00    8.130105e-01   1.101111e-02
  1.926413e+00    8.103239e-01   1.098264e-02
  1.928623e+00    7.946339e-01   1.086538e-02
  1.930834e+00    8.043270e-01   1.092106e-02
  1.933044e+00    7.997590e-01   1.087943e-02
  1.935255e+00    7.809948e-01   1.074091e-02
  1.937465e+00    7.822722e-01   1.073944e-02
  1.939675e+00    8.054605e-01   1.088660e-02
  1.941886e+00    8.092285e-01   1.090176e-02
  1.944096e+00    7.827277e-01   1.071171e-02
  1.946307e+00    7.895073e-01   1.074773e-02
  1.948517e+00    7.956239e-01   1.077886e-02
  1.950728e+00    7.992890e-01   1.079342e-02
  1.952938e+00    7.903929e-01   1.072314e-02
  1.955149e+00    7.871932e-01   1.069123e-02
  1.957359e+00    7.906622e-01   1.070477e-02
  1.959570e+00    7.742136e-01   1.058210e-02
  1.961780e+00    7.896429e-01   1.067712e-02
  1.963990e+00    7.888127e-01   1.066142e-02
  1.966201e+00    7.838410e-01   1.061776e-02
  1.968411e+00    7.814226e-01   1.059125e-02
  1.970622e+00    7.740999e-01   1.053153e-02
  1.972832e+00    7.733769e-01   1.051670e-02
  1.975043e+00    7.947072e-01   1.065064e-02
  1.977253e+00    7.872700e-01   1.059075e-02
  1.979464e+00    7.803369e-01   1.053398e-02
  1.981674e+00    7.664414e-01   1.042963e-02
  1.983885e+00    7.718242e-01   1.045623e-02
  1.986095e+00    7.550012e-01   1.033211e-02
  1.988305e+00    7.618676e-01   1.036918e-02
  1.990516e+00    7.710956e-01   1.042194e-02
  1.992726e+00    7.674823e-01   1.038787e-02
  1.994937e+00    7.621980e-01   1.034203e-02
  1.997147e+00    7.567839e-01   1.029561e-02
  1.999358e+00    7.555307e-01   1.027737e-02
  2.001568e+00    7.475162e-01   1.021207e-02
  2.003779e+00    7.640306e-01   1.031240e-02
  2.005989e+00    7.744201e-01   1.037026e-02
  2.008200e+00    7.626589e-01   1.027973e-02
  2.010410e+00    7.750703e-01   1.035124e-02
  2.012621e+00    7.599330e-01   1.023804e-02
  2.014831e+00    7.532629e-01   1.018163e-02
  2.017041e+00    7.479696e-01   1.013555e-02
  2.019252e+00    7.494875e-01   1.013597e-02
  2.021462e+00    7.659335e-01   1.023705e-02
  2.023673e+00    7.678121e-01   1.024020e-02
  2.025883e+00    7.630386e-01   1.019879e-02
  2.028094e+00    7.496303e-01   1.009925e-02
  2.030304e+00    7.436910e-01   1.004971e-02
  2.032515e+00    7.390918e-01   1.000944e-02
  2.034725e+00    7.373922e-01   9.988605e-03
  2.036936e+00    7.485411e-01   1.005456e-02
  2.039146e+00    7.550461e-01   1.008859e-02
  2.041356e+00    7.636835e-01   1.013645e-02
  2.043567e+00    7.395720e-01   9.965950e-03
  2.045777e+00    7.417631e-01   9.971529e-03
  2.047988e+00    7.332729e-01   9.905060e-03
  2.050198e+00    7.501980e-01   1.001031e-02
  2.052409e+00    7.360153e-01   9.907677e-03
  2.054619e+00    7.302002e-01   9.861187e-03
  2.056830e+00    7.289445e-01   9.845619e-03
  2.059040e+00    7.433357e-01   9.934861e-03
  2.061251e+00    7.543861e-01   1.000118e-02
  2.063461e+00    7.497382e-01   9.962712e-03
  2.065671e+00    7.368305e-01   9.867947e-03
  2.067882e+00    7.150024e-01   9.711888e-03
  2.070092e+00    7.177513e-01   9.721498e-03
  2.072303e+00    7.276397e-01   9.779233e-03
  2.074513e+00    7.103851e-01   9.653477e-03
  2.076724e+00    7.331039e-01   9.797241e-03
  2.078934e+00    7.330036e-01   9.787630e-03
  2.081145e+00    7.280391e-01   9.745442e-03
  2.083355e+00    7.079529e-01   9.601106e-03
  2.085566e+00    7.073039e-01   9.587998e-03
  2.087776e+00    7.095752e-01   9.594057e-03
  2.089986e+00    7.228555e-01   9.674737e-03
  2.092197e+00    7.131548e-01   9.600810e-03
  2.094407e+00    6.931064e-01   9.455923e-03
  2.096618e+00    6.986035e-01   9.484679e-03
  2.098828e+00    7.143230e-01   9.581605e-03
  2.101039e+00    7.243022e-01   9.639376e-03
  2.103249e+00    7.407547e-01   9.739527e-03
  2.105460e+00    7.126059e-01   9.543782e-03
  2.107670e+00    7.053870e-01   9.486707e-03
  2.109881e+00    7.087764e-01   9.500433e-03
  2.112091e+00    7.001788e-01   9.433812e-03
  2.114301e+00    6.957506e-01   9.395330e-03
  2.116512e+00    6.899403e-01   9.347405e-03
  2.118722e+00    7.150066e-01   9.506920e-03
  2.120933e+00    7.270146e-01   9.577519e-03
  2.123143e+00    7.173300e-01   9.504622e-03
  2.125354e+00    6.943703e-01   9.342892e-03
  2.127564e+00    6.953508e-01   9.340867e-03
  2.129775e+00    7.069988e-01   9.410121e-03
  2.131985e+00    7.006682e-01   9.358916e-03
  2.134196e+00    7.003005e-01   9.347953e-03
  2.136406e+00    7.040584e-01   9.364310e-03
  2.138617e+00    7.061954e-01   9.370070e-03
  2.140827e+00    6.951896e-01   9.312697e-03
  2.143037e+00    6.880730e-01   9.309732e-03
  2.145248e+00    6.853171e-01   9.312781e-03
  2.147458e+00    6.710887e-01   9.230363e-03
  2.149669e+00    7.023157e-01   9.454501e-03
  2.151879e+00    7.007673e-01   9.453318e-03
  2.154090e+00    6.809759e-01   9.326068e-03
  2.156300e+00    6.856942e-01   9.364841e-03
  2.158511e+00    7.003839e-01   9.469949e-03
  2.160721e+00    6.866824e-01   9.381629e-03
  2.162932e+00    6.819682e-01   9.353074e-03
  2.165142e+00    6.817793e-01   9.354752e-03
  2.167352e+00    6.912982e-01   9.422746e-03
  2.169563e+00    6.770190e-01   9.326844e-03
  2.171773e+00    6.794799e-01   9.346207e-03
  2.173984e+00    6.789484e-01   9.343939e-03
  2.176194e+00    6.676134e-01   9.266801e-03
  2.178405e+00    6.753788e-01   9.321224e-03
  2.180615e+00    6.697755e-01   9.283139e-03
  2.182826e+00    6.836469e-01   9.379451e-03
  2.185036e+00    6.887520e-01   9.414472e-03
  2.187247e+00    6.713721e-01   9.294875e-03
  2.189457e+00    6.787190e-01   9.345178e-03
  2.191667e+00    6.715736e-01   9.295705e-03
  2.193878e+00    6.568229e-01   9.192489e-03
  2.196088e+00    6.567933e-01   9.191595e-03
  2.198299e+00    6.793591e-01   9.347088e-03
  2.200509e+00    6.657084e-01   9.251679e-03
  2.202720e+00    6.619076e-01   9.224060e-03
  2.204930e+00    6.735606e-01   9.303696e-03
  2.207141e+00    6.646050e-01   9.240528e-03
  2.209351e+00    6.581334e-01   9.193579e-03
  2.211562e+00    6.757208e-01   9.313979e-03
  2.213772e+00    6.654062e-01   9.187629e-03
  2.215982e+00    6.560090e-01   9.078952e-03
  2.218193e+00    6.630157e-01   9.097965e-03
  2.220403e+00    6.616821e-01   9.064459e-03
  2.222614e+00    6.640619e-01   9.059942e-03
  2.224824e+00    6.646289e-01   9.044573e-03
  2.227035e+00    6.575814e-01   8.979240e-03
  2.229245e+00    6.451144e-01   8.877085e-03
  2.231456e+00    6.453589e-01   8.863449e-03
  2.233666e+00    6.358646e-01   8.783329e-03
  2.235877e+00    6.426008e-01   8.815739e-03
  2.238087e+00    6.578626e-01   8.906471e-03
  2.240298e+00    6.675135e-01   8.957802e-03
  2.242508e+00    6.633412e-01   8.914712e-03
  2.244718e+00    6.696386e-01   8.941088e-03
  2.246929e+00    6.696563e-01   8.926806e-03
  2.249139e+00    6.357354e-01   8.685675e-03
  2.251350e+00    6.517033e-01   8.782497e-03
  2.253560e+00    6.531003e-01   8.780463e-03
  2.255771e+00    6.621036e-01   8.829402e-03
  2.257981e+00    6.637018e-01   8.828882e-03
  2.260192e+00    6.504862e-01   8.729559e-03
  2.262402e+00    6.513811e-01   8.724791e-03
  2.264613e+00    6.609381e-01   8.777773e-03
  2.266823e+00    6.528193e-01   8.713370e-03
  2.269033e+00    6.515065e-01   8.694315e-03
  2.271244e+00    6.483388e-01   8.662872e-03
  2.273454e+00    6.543600e-01   8.692805e-03
  2.275665e+00    6.401628e-01   8.587866e-03
  2.277875e+00    6.394893e-01   8.573569e-03
  2.280086e+00    6.460962e-01   8.607803e-03
  2.282296e+00    6.447222e-01   8.589356e-03
  2.284507e+00    6.443250e-01   8.576690e-03
  2.286717e+00    6.481373e-01   8.592625e-03
  2.288928e+00    6.532480e-01   8.616596e-03
  2.291138e+00    6.521710e-01   8.600107e-03
  2.293348e+00    6.460517e-01   8.550194e-03
  2.295559e+00    6.372551e-01   8.482605e-03
  2.297769e+00    6.348144e-01   8.457235e-03
  2.299980e+00    6.395262e-01   8.479331e-03
  2.302190e+00    6.292207e-01   8.401778e-03
  2.304401e+00    6.425851e-01   8.481275e-03
  2.306611e+00    6.355360e-01   8.425553e-03
  2.308822e+00    6.300148e-01   8.380631e-03
  2.311032e+00    6.339611e-01   8.400450e-03
  2.313243e+00    6.467707e-01   8.478646e-03
  2.315453e+00    6.433561e-01   8.448708e-03
  2.317663e+00    6.410226e-01   8.424283e-03
  2.319874e+00    6.354627e-01   8.379012e-03
  2.322084e+00    6.328947e-01   8.353196e-03
  2.324295e+00    6.299968e-01   8.325931e-03
  2.326505e+00    6.169376e-01   8.230314e-03
  2.328716e+00    6.261109e-01   8.282845e-03
  2.330926e+00    6.192147e-01   8.228482e-03
  2.333137e+00    6.245889e-01   8.255837e-03
  2.335347e+00    6.336908e-01   8.306963e-03
  2.337558e+00    6.303185e-01   8.276667e-03
  2.339768e+00    6.269788e-01   8.246235e-03
  2.341979e+00    6.204703e-01   8.195063e-03
  2.344189e+00    6.204719e-01   8.186796e-03
  2.346399e+00    6.216938e-01   8.186460e-03
  2.348610e+00    6.212556e-01   8.175201e-03
  2.350820e+00    6.192814e-01   8.154140e-03
  2.353031e+00    6.097395e-01   8.082936e-03
  2.355241e+00    6.283313e-01   8.197216e-03
  2.357452e+00    6.153373e-01   8.103734e-03
  2.359662e+00    6.148885e-01   8.092627e-03
  2.361873e+00    6.379943e-01   8.235004e-03
  2.364083e+00    6.343925e-01   8.203730e-03
  2.366294e+00    6.068006e-01   8.015354e-03
  2.368504e+00    6.230351e-01   8.113815e-03
  2.370714e+00    5.961303e-01   7.928830e-03
  2.372925e+00    6.073709e-01   7.995288e-03
  2.375135e+00    6.160527e-01   8.044227e-03
  2.377346e+00    6.129931e-01   8.016363e-03
  2.379556e+00    6.018496e-01   7.935386e-03
  2.381767e+00    6.112865e-01   7.989557e-03
  2.383977e+00    6.077520e-01   7.958590e-03
  2.386188e+00    5.907984e-01   7.839062e-03
  2.388398e+00    5.968254e-01   7.871122e-03
  2.390609e+00    6.171845e-01   7.996527e-03
  2.392819e+00    5.947253e-01   7.842048e-03
  2.395029e+00    6.111279e-01   7.941823e-03
  2.397240e+00    6.010873e-01   7.868527e-03
  2.399450e+00    6.191805e-01   7.978232e-03
  2.401661e+00    6.128974e-01   7.929957e-03
  2.403871e+00    6.081223e-01   7.891291e-03
  2.406082e+00    5.856186e-01   7.736610e-03
  2.408292e+00    5.885387e-01   7.748206e-03
  2.410503e+00    6.032587e-01   7.837045e-03
  2.412713e+00    5.920762e-01   7.756384e-03
  2.414924e+00    5.937642e-01   7.760018e-03
  2.417134e+00    5.723415e-01   7.611316e-03
  2.419344e+00    5.943679e-01   7.749030e-03
  2.421555e+00    5.857620e-01   7.685320e-03
  2.423765e+00    5.886571e-01   7.696970e-03
  2.425976e+00    5.944419e-01   7.726910e-03
  2.428186e+00    5.902773e-01   7.692644e-03
  2.430397e+00    5.752970e-01   7.587058e-03
  2.432607e+00    5.827036e-01   7.628528e-03
  2.434818e+00    6.010038e-01   7.739823e-03
  2.437028e+00    5.860008e-01   7.635524e-03
  2.439239e+00    5.797448e-01   7.587077e-03
  2.441449e+00    5.728253e-01   7.534593e-03
  2.443659e+00    5.635057e-01   7.465868e-03
  2.445870e+00    5.616622e-01   7.465593e-03
  2.448080e+00    5.707740e-01   7.560352e-03
  2.450291e+00    5.602254e-01   7.506520e-03
  2.452501e+00    5.656016e-01   7.553512e-03
  2.454712e+00    5.540872e-01   7.484525e-03
  2.456922e+00    5.430235e-01   7.415884e-03
  2.459133e+00    5.445522e-01   7.431620e-03
  2.461343e+00    5.667048e-01   7.585621e-03
  2.463554e+00    5.593371e-01   7.539631e-03
  2.465764e+00    5.583686e-01   7.536206e-03
  2.467975e+00    5.557804e-01   7.521002e-03
  2.470185e+00    5.509870e-01   7.490745e-03
  2.472395e+00    5.462089e-01   7.459389e-03
  2.474606e+00    5.369882e-01   7.397714e-03
  2.476816e+00    5.361152e-01   7.392413e-03
  2.479027e+00    5.362327e-01   7.394054e-03
  2.481237e+00    5.266903e-01   7.328258e-03
  2.483448e+00    5.301791e-01   7.352776e-03
  2.485658e+00    5.299978e-01   7.351377e-03
  2.487869e+00    5.447243e-01   7.452847e-03
  2.490079e+00    5.329311e-01   7.371228e-03
  2.492290e+00    5.266577e-01   7.327269e-03
  2.494500e+00    5.413983e-01   7.428379e-03
  2.496710e+00    5.357615e-01   7.388899e-03
  2.498921e+00    5.464529e-01   7.461276e-03
  2.501131e+00    5.167103e-01   7.254453e-03
  2.503342e+00    5.146839e-01   7.238956e-03
  2.505552e+00    5.139273e-01   7.232519e-03
  2.507763e+00    5.179508e-01   7.259387e-03
  2.509973e+00    5.110344e-01   7.209382e-03
  2.512184e+00    5.168088e-01   7.248387e-03
  2.514394e+00    5.332109e-01   7.353102e-03
  2.516605e+00    5.310997e-01   7.291273e-03
  2.518815e+00    4.930785e-01   6.998012e-03
  2.521025e+00    5.109900e-01   7.103309e-03
  2.523236e+00    5.168463e-01   7.126043e-03
  2.525446e+00    5.188287e-01   7.124211e-03
  2.527657e+00    5.104342e-01   7.051944e-03
  2.529867e+00    5.149217e-01   7.068826e-03
  2.532078e+00    5.309504e-01   7.162881e-03
  2.534288e+00    5.208359e-01   7.080510e-03
  2.536499e+00    5.172387e-01   7.044148e-03
  2.538709e+00    5.071512e-01   6.964314e-03
  2.540920e+00    5.244876e-01   7.071689e-03
  2.543130e+00    5.159308e-01   7.003496e-03
  2.545340e+00    5.079572e-01   6.939254e-03
  2.547551e+00    5.020172e-01   6.888810e-03
  2.549761e+00    5.103446e-01   6.936239e-03
  2.551972e+00    5.006579e-01   6.860938e-03
  2.554182e+00    4.918663e-01   6.791527e-03
  2.556393e+00    4.990841e-01   6.832248e-03
  2.558603e+00    5.177007e-01   6.949469e-03
  2.560814e+00    5.161214e-01   6.930207e-03
  2.563024e+00    5.112685e-01   6.889027e-03
  2.565235e+00    5.016935e-01   6.814867e-03
  2.567445e+00    5.042497e-01   6.822783e-03
  2.569656e+00    5.100189e-01   6.852040e-03
  2.571866e+00    4.963392e-01   6.750364e-03
  2.574076e+00    5.064644e-01   6.809683e-03
  2.576287e+00    5.131871e-01   6.846427e-03
  2.578497e+00    5.173590e-01   6.866354e-03
  2.580708e+00    5.128554e-01   6.828338e-03
  2.582918e+00    5.126069e-01   6.818929e-03
  2.585129e+00    5.089608e-01   6.786942e-03
  2.587339e+00    5.025539e-01   6.736491e-03
  2.589550e+00    5.000239e-01   6.712045e-03
  2.591760e+00    5.042597e-01   6.732747e-03
  2.593971e+00    5.045169e-01   6.726993e-03
  2.596181e+00    4.921910e-01   6.638212e-03
  2.598391e+00    4.825239e-01   6.567640e-03
  2.600602e+00    5.055304e-01   6.716485e-03
  2.602812e+00    5.162486e-01   6.779747e-03
  2.605023e+00    5.045227e-01   6.695173e-03
  2.607233e+00    5.023794e-01   6.673828e-03
  2.609444e+00    5.090833e-01   6.710961e-03
  2.611654e+00    5.140522e-01   6.736273e-03
  2.613865e+00    5.129181e-01   6.721750e-03
  2.616075e+00    4.994447e-01   6.625794e-03
  2.618286e+00    4.977697e-01   6.607726e-03
  2.620496e+00    4.938996e-01   6.575373e-03
  2.622706e+00    4.831504e-01   6.497798e-03
  2.624917e+00    5.021027e-01   6.618173e-03
  2.627127e+00    5.005138e-01   6.601997e-03
  2.629338e+00    4.878277e-01   6.511899e-03
  2.631548e+00    4.811291e-01   6.461009e-03
  2.633759e+00    4.802637e-01   6.448193e-03
  2.635969e+00    4.997774e-01   6.571219e-03
  2.638180e+00    4.994921e-01   6.562378e-03
  2.640390e+00    5.007243e-01   6.563863e-03
  2.642601e+00    5.022246e-01   6.567020e-03
  2.644811e+00    4.850779e-01   6.446973e-03
  2.647021e+00    4.935848e-01   6.496735e-03
  2.649232e+00    5.055026e-01   6.567943e-03
  2.651442e+00    4.950376e-01   6.493127e-03
  2.653653e+00    4.965450e-01   6.496229e-03
  2.655863e+00    4.824745e-01   6.396959e-03
  2.658074e+00    4.805573e-01   6.377729e-03
  2.660284e+00    4.769287e-01   6.347396e-03
  2.662495e+00    4.822728e-01   6.376181e-03
  2.664705e+00    4.920527e-01   6.434000e-03
  2.666916e+00    4.895778e-01   6.411365e-03
  2.669126e+00    4.835688e-01   6.365526e-03
  2.671337e+00    4.943527e-01   6.429532e-03
  2.673547e+00    5.068415e-01   6.503792e-03
  2.675757e+00    4.936275e-01   6.412008e-03
  2.677968e+00    5.049598e-01   6.478593e-03
  2.680178e+00    4.947672e-01   6.406479e-03
  2.682389e+00    4.841891e-01   6.331284e-03
  2.684599e+00    4.831308e-01   6.318242e-03
  2.686810e+00    4.684650e-01   6.215140e-03
  2.689020e+00    4.818654e-01   6.297190e-03
  2.691231e+00    4.813586e-01   6.287647e-03
  2.693441e+00    4.851294e-01   6.306120e-03
  2.695652e+00    4.792474e-01   6.261329e-03
  2.697862e+00    4.947493e-01   6.355409e-03
  2.700072e+00    4.838463e-01   6.278960e-03
  2.702283e+00    4.804400e-01   6.250652e-03
  2.704493e+00    4.765987e-01   6.219398e-03
  2.706704e+00    4.901817e-01   6.301002e-03
  2.708914e+00    4.691093e-01   6.158218e-03
  2.711125e+00    4.647338e-01   6.123334e-03
  2.713335e+00    4.801641e-01   6.218105e-03
  2.715546e+00    4.882978e-01   6.264091e-03
  2.717756e+00    4.822097e-01   6.219055e-03
  2.719967e+00    4.823859e-01   6.214007e-03
  2.722177e+00    4.763203e-01   6.168746e-03
  2.724387e+00    4.797098e-01   6.184584e-03
  2.726598e+00    4.753665e-01   6.150542e-03
  2.728808e+00    4.612501e-01   6.052522e-03
  2.731019e+00    4.728867e-01   6.122336e-03
  2.733229e+00    4.699254e-01   6.097440e-03
  2.735440e+00    4.665643e-01   6.069420e-03
  2.737650e+00    4.817581e-01   6.161463e-03
  2.739861e+00    4.705016e-01   6.083055e-03
  2.742071e+00    4.718950e-01   6.086396e-03
  2.744282e+00    4.655343e-01   6.039086e-03
  2.746492e+00    4.701564e-01   6.063042e-03
  2.748702e+00    4.755387e-01   6.091776e-03
  2.750913e+00    4.824531e-01   6.130116e-03
  2.753123e+00    4.623236e-01   5.994875e-03
  2.755334e+00    4.700998e-01   6.039062e-03
  2.757544e+00    4.726356e-01   6.049643e-03
  2.759755e+00    4.708273e-01   6.032245e-03
  2.761965e+00    4.727199e-01   6.038408e-03
  2.764176e+00    4.639023e-01   5.975957e-03
  2.766386e+00    4.745950e-01   6.038651e-03
  2.768597e+00    4.687758e-01   5.995746e-03
  2.770807e+00    4.609165e-01   5.939495e-03
  2.773017e+00    4.695233e-01   5.988773e-03
  2.775228e+00    4.757132e-01   6.022368e-03
  2.777438e+00    4.740159e-01   6.005835e-03
  2.779649e+00    4.674686e-01   5.958389e-03
  2.781859e+00    4.783302e-01   6.021433e-03
  2.784070e+00    4.602707e-01   5.900925e-03
  2.786280e+00    4.639946e-01   5.919065e-03
  2.788491e+00    4.534788e-01   5.845907e-03
  2.790701e+00    4.751846e-01   5.978530e-03
  2.792912e+00    4.803004e-01   6.004644e-03
  2.795122e+00    4.737853e-01   5.958075e-03
  2.797333e+00    4.699253e-01   5.928215e-03
  2.799543e+00    4.749704e-01   5.954102e-03
  2.801753e+00    4.627404e-01   5.871165e-03
  2.803964e+00    4.686296e-01   5.902784e-03
  2.806174e+00    4.612854e-01   5.850287e-03
  2.808385e+00    4.640772e-01   5.861262e-03
  2.810595e+00    4.662175e-01   5.867933e-03
  2.812806e+00    4.698141e-01   5.883955e-03
  2.815016e+00    4.654462e-01   5.851860e-03
  2.817227e+00    4.585041e-01   5.833535e-03
  2.819437e+00    4.552309e-01   5.823542e-03
  2.821648e+00    4.722802e-01   5.933870e-03
  2.823858e+00    4.672309e-01   5.907383e-03
  2.826068e+00    4.595092e-01   5.863265e-03
  2.828279e+00    4.513624e-01   5.815010e-03
  2.830489e+00    4.506450e-01   5.813636e-03
  2.832700e+00    4.579976e-01   5.863395e-03
  2.834910e+00    4.669264e-01   5.922324e-03
  2.837121e+00    4.543862e-01   5.843949e-03
  2.839331e+00    4.544849e-01   5.845779e-03
  2.841542e+00    4.624592e-01   5.897843e-03
  2.843752e+00    4.601655e-01   5.883987e-03
  2.845963e+00    4.569254e-01   5.863620e-03
  2.848173e+00    4.540371e-01   5.845154e-03
  2.850383e+00    4.618526e-01   5.895515e-03
  2.852594e+00    4.627224e-01   5.901010e-03
  2.854804e+00    4.542152e-01   5.846004e-03
  2.857015e+00    4.587728e-01   5.874834e-03
  2.859225e+00    4.607365e-01   5.887141e-03
  2.861436e+00    4.534342e-01   5.839665e-03
  2.863646e+00    4.434822e-01   5.775257e-03
  2.865857e+00    4.526832e-01   5.835181e-03
  2.868067e+00    4.665783e-01   5.924291e-03
  2.870278e+00    4.665180e-01   5.923560e-03
  2.872488e+00    4.651427e-01   5.913659e-03
  2.874698e+00    4.530233e-01   5.835076e-03
  2.876909e+00    4.611051e-01   5.885576e-03
  2.879119e+00    4.480591e-01   5.800113e-03
  2.881330e+00    4.578903e-01   5.861938e-03
  2.883540e+00    4.502324e-01   5.811349e-03
  2.885751e+00    4.558617e-01   5.845924e-03
  2.887961e+00    4.405393e-01   5.745017e-03
  2.890172e+00    4.420783e-01   5.753441e-03
  2.892382e+00    4.626987e-01   5.884299e-03
  2.894593e+00    4.504185e-01   5.803904e-03
  2.896803e+00    4.455136e-01   5.770270e-03
  2.899014e+00    4.489513e-01   5.790584e-03
  2.901224e+00    4.602908e-01   5.861268e-03
  2.903434e+00    4.641470e-01   5.883828e-03
  2.905645e+00    4.578893e-01   5.841804e-03
  2.907855e+00    4.514530e-01   5.798530e-03
  2.910066e+00    4.568500e-01   5.831009e-03
  2.912276e+00    4.461138e-01   5.759984e-03
  2.914487e+00    4.486017e-01   5.773602e-03
  2.916697e+00    4.631793e-01   5.864420e-03
  2.918908e+00    4.504569e-01   5.781338e-03
  2.921118e+00    4.602068e-01   5.840856e-03
  2.923329e+00    4.563454e-01   5.814014e-03
  2.925539e+00    4.455688e-01   5.742695e-03
  2.927749e+00    4.519298e-01   5.781223e-03
  2.929960e+00    4.539083e-01   5.791119e-03
  2.932170e+00    4.507003e-01   5.768292e-03
  2.934381e+00    4.621942e-01   5.838932e-03
  2.936591e+00    4.486218e-01   5.750016e-03
  2.938802e+00    4.450512e-01   5.724408e-03
  2.941012e+00    4.431188e-01   5.709643e-03
  2.943223e+00    4.471712e-01   5.733049e-03
  2.945433e+00    4.441173e-01   5.709724e-03
  2.947644e+00    4.491908e-01   5.738167e-03
  2.949854e+00    4.346549e-01   5.640370e-03
  2.952064e+00    4.548699e-01   5.765814e-03
  2.954275e+00    4.585177e-01   5.784478e-03
  2.956485e+00    4.512364e-01   5.734187e-03
  2.958696e+00    4.465106e-01   5.699750e-03
  2.960906e+00    4.481277e-01   5.705910e-03
  2.963117e+00    4.405360e-01   5.652959e-03
  2.965327e+00    4.347451e-01   5.611861e-03
  2.967538e+00    4.495821e-01   5.703918e-03
  2.969748e+00    4.640592e-01   5.792171e-03
  2.971959e+00    4.608129e-01   5.768752e-03
  2.974169e+00    4.371403e-01   5.616076e-03
  2.976379e+00    4.386210e-01   5.622696e-03
  2.978590e+00    4.495806e-01   5.689410e-03
  2.980800e+00    4.530942e-01   5.708792e-03
  2.983011e+00    4.514746e-01   5.695790e-03
  2.985221e+00    4.555522e-01   5.718296e-03
  2.987432e+00    4.479965e-01   5.667587e-03
  2.989642e+00    4.362660e-01   5.590326e-03
  2.991853e+00    4.477488e-01   5.660161e-03
  2.994063e+00    4.330120e-01   5.563390e-03
  2.996274e+00    4.319999e-01   5.553773e-03
  2.998484e+00    4.456421e-01   5.638122e-03
  3.000694e+00    4.472694e-01   5.644959e-03
  3.002905e+00    4.471354e-01   5.641212e-03
  3.005115e+00    4.451144e-01   5.625494e-03
  3.007326e+00    4.409097e-01   5.595747e-03
  3.009536e+00    4.345111e-01   5.551809e-03
  3.011747e+00    4.378314e-01   5.570127e-03
  3.013957e+00    4.360973e-01   5.555942e-03
  3.016168e+00    4.381150e-01   5.565589e-03
  3.018378e+00    4.478509e-01   5.624072e-03
  3.020589e+00    4.351672e-01   5.540696e-03
  3.022799e+00    4.421693e-01   5.581972e-03
  3.025010e+00    4.513167e-01   5.636176e-03
  3.027220e+00    4.445677e-01   5.590807e-03
  3.029430e+00    4.307761e-01   5.500243e-03
  3.031641e+00    4.253700e-01   5.462544e-03
  3.033851e+00    4.393261e-01   5.547982e-03
  3.036062e+00    4.453340e-01   5.583033e-03
  3.038272e+00    4.467868e-01   5.588568e-03
  3.040483e+00    4.435744e-01   5.565254e-03
  3.042693e+00    4.292186e-01   5.471262e-03
  3.044904e+00    4.392963e-01   5.531160e-03
  3.047114e+00    4.360591e-01   5.506014e-03
  3.049325e+00    4.473068e-01   5.572184e-03
  3.051535e+00    4.450873e-01   5.553997e-03
  3.053745e+00    4.377518e-01   5.503344e-03
  3.055956e+00    4.347352e-01   5.479862e-03
  3.058166e+00    4.354401e-01   5.480106e-03
  3.060377e+00    4.440513e-01   5.529293e-03
  3.062587e+00    4.468673e-01   5.542186e-03
  3.064798e+00    4.510167e-01   5.563600e-03
  3.067008e+00    4.431645e-01   5.510267e-03
  3.069219e+00    4.389957e-01   5.479829e-03
  3.071429e+00    4.378231e-01   5.469036e-03
  3.073640e+00    4.310595e-01   5.423368e-03
  3.075850e+00    4.444543e-01   5.503406e-03
  3.078060e+00    4.457333e-01   5.508246e-03
  3.080271e+00    4.361767e-01   5.445460e-03
  3.082481e+00    4.344999e-01   5.431573e-03
  3.084692e+00    4.333701e-01   5.421184e-03
  3.086902e+00    4.359879e-01   5.434331e-03
  3.089113e+00    4.404505e-01   5.458539e-03
  3.091323e+00    4.373350e-01   5.435872e-03
  3.093534e+00    4.381791e-01   5.437774e-03
  3.095744e+00    4.521919e-01   5.520636e-03
  3.097955e+00    4.518490e-01   5.514994e-03
  3.100165e+00    4.501933e-01   5.501527e-03
  3.102375e+00    4.437538e-01   5.458633e-03
  3.104586e+00    4.486023e-01   5.484877e-03
  3.106796e+00    4.447568e-01   5.457804e-03
  3.109007e+00    4.421812e-01   5.438777e-03
  3.111217e+00    4.316531e-01   5.370010e-03
  3.113428e+00    4.360470e-01   5.393886e-03
  3.115638e+00    4.270331e-01   5.334686e-03
  3.117849e+00    4.300233e-01   5.349659e-03
  3.120059e+00    4.366793e-01   5.387479e-03
  3.122270e+00    4.280994e-01   5.331092e-03
  3.124480e+00    4.375590e-01   5.386010e-03
  3.126691e+00    4.345816e-01   5.364144e-03
  3.128901e+00    4.351493e-01   5.364542e-03
  3.131111e+00    4.435154e-01   5.412035e-03
  3.133322e+00    4.365720e-01   5.366107e-03
  3.135532e+00    4.313122e-01   5.330312e-03
  3.137743e+00    4.396862e-01   5.378346e-03
  3.139953e+00    4.276448e-01   5.300580e-03
  3.142164e+00    4.386142e-01   5.380078e-03
  3.144374e+00    4.312978e-01   5.363072e-03
  3.146585e+00    4.340583e-01   5.394639e-03
  3.148795e+00    4.238481e-01   5.341359e-03
  3.151006e+00    4.354501e-01   5.422432e-03
  3.153216e+00    4.468771e-01   5.500307e-03
  3.155426e+00    4.459818e-01   5.501151e-03
  3.157637e+00    4.426315e-01   5.485983e-03
  3.159847e+00    4.305608e-01   5.415494e-03
  3.162058e+00    4.367469e-01   5.458644e-03
  3.164268e+00    4.237909e-01   5.381079e-03
  3.166479e+00    4.220174e-01   5.373378e-03
  3.168689e+00    4.248656e-01   5.394779e-03
  3.170900e+00    4.294821e-01   5.427155e-03
  3.173110e+00    4.245281e-01   5.398585e-03
  3.175321e+00    4.443808e-01   5.525890e-03
  3.177531e+00    4.333555e-01   5.459641e-03
  3.179741e+00    4.253236e-01   5.410847e-03
  3.181952e+00    4.190735e-01   5.373006e-03
  3.184162e+00    4.222229e-01   5.395309e-03
  3.186373e+00    4.274768e-01   5.430351e-03
  3.188583e+00    4.286647e-01   5.439665e-03
  3.190794e+00    4.273940e-01   5.433335e-03
  3.193004e+00    4.256822e-01   5.423675e-03
  3.195215e+00    4.266831e-01   5.431528e-03
  3.197425e+00    4.344552e-01   5.481984e-03
  3.199636e+00    4.183127e-01   5.378422e-03
  3.201846e+00    4.288339e-01   5.445029e-03
  3.204056e+00    4.265570e-01   5.431466e-03
  3.206267e+00    4.160730e-01   5.365106e-03
  3.208477e+00    4.206937e-01   5.395723e-03
  3.210688e+00    4.258895e-01   5.429794e-03
  3.212898e+00    4.164563e-01   5.369879e-03
  3.215109e+00    4.105856e-01   5.332645e-03
  3.217319e+00    4.197280e-01   5.392299e-03
  3.219530e+00    4.094273e-01   5.326112e-03
  3.221740e+00    4.180051e-01   5.382146e-03
  3.223951e+00    4.255803e-01   5.431188e-03
  3.226161e+00    4.252400e-01   5.429185e-03
  3.228372e+00    4.365941e-01   5.501741e-03
  3.230582e+00    4.136123e-01   5.355120e-03
  3.232792e+00    4.132843e-01   5.353203e-03
  3.235003e+00    4.132823e-01   5.353432e-03
  3.237213e+00    4.181608e-01   5.385031e-03
  3.239424e+00    4.332680e-01   5.481440e-03
  3.241634e+00    4.324934e-01   5.476686e-03
  3.243845e+00    4.284031e-01   5.450772e-03
  3.246055e+00    4.242637e-01   5.424126e-03
  3.248266e+00    4.184464e-01   5.387007e-03
  3.250476e+00    4.202729e-01   5.398438e-03
  3.252687e+00    4.171854e-01   5.378504e-03
  3.254897e+00    4.155388e-01   5.367735e-03
  3.257107e+00    4.300998e-01   5.460685e-03
  3.259318e+00    4.058202e-01   5.304094e-03
  3.261528e+00    4.017279e-01   5.277124e-03
  3.263739e+00    4.169112e-01   5.375373e-03
  3.265949e+00    4.117651e-01   5.341990e-03
  3.268160e+00    4.259978e-01   5.433087e-03
  3.270370e+00    4.263438e-01   5.434800e-03
  3.272581e+00    4.174924e-01   5.377823e-03
  3.274791e+00    4.261919e-01   5.433012e-03
  3.277002e+00    4.234269e-01   5.414829e-03
  3.279212e+00    4.091418e-01   5.322315e-03
  3.281422e+00    4.089552e-01   5.320523e-03
  3.283633e+00    4.143760e-01   5.355017e-03
  3.285843e+00    4.256181e-01   5.426816e-03
  3.288054e+00    4.245974e-01   5.419377e-03
  3.290264e+00    4.095288e-01   5.322048e-03
  3.292475e+00    4.263476e-01   5.429365e-03
  3.294685e+00    4.255861e-01   5.423911e-03
  3.296896e+00    4.070471e-01   5.303706e-03
  3.299106e+00    4.202636e-01   5.388558e-03
  3.301317e+00    4.132628e-01   5.342502e-03
  3.303527e+00    4.025488e-01   5.272314e-03
  3.305737e+00    4.153702e-01   5.354587e-03
  3.307948e+00    4.085547e-01   5.309818e-03
  3.310158e+00    4.188239e-01   5.375286e-03
  3.312369e+00    4.148443e-01   5.348823e-03
  3.314579e+00    4.064848e-01   5.293774e-03
  3.316790e+00    4.107687e-01   5.320868e-03
  3.319000e+00    4.186127e-01   5.370276e-03
  3.321211e+00    4.026832e-01   5.266507e-03
  3.323421e+00    4.067648e-01   5.291956e-03
  3.325632e+00    4.079238e-01   5.298599e-03
  3.327842e+00    4.107282e-01   5.315894e-03
  3.330052e+00    4.125502e-01   5.326611e-03
  3.332263e+00    4.083169e-01   5.298212e-03
  3.334473e+00    4.168589e-01   5.352428e-03
  3.336684e+00    4.190316e-01   5.365111e-03
  3.338894e+00    4.114665e-01   5.315615e-03
  3.341105e+00    4.253929e-01   5.403617e-03
  3.343315e+00    4.139822e-01   5.329521e-03
  3.345526e+00    4.096344e-01   5.300570e-03
  3.347736e+00    4.132241e-01   5.322354e-03
  3.349947e+00    4.092631e-01   5.295855e-03
  3.352157e+00    4.048907e-01   5.266348e-03
  3.354368e+00    4.043805e-01   5.261743e-03
  3.356578e+00    4.295019e-01   5.421695e-03
  3.358788e+00    4.042780e-01   5.258783e-03
  3.360999e+00    4.048311e-01   5.261139e-03
  3.363209e+00    4.121502e-01   5.307480e-03
  3.365420e+00    4.164049e-01   5.333295e-03
  3.367630e+00    4.063758e-01   5.267684e-03
  3.369841e+00    4.015973e-01   5.235213e-03
  3.372051e+00    3.983991e-01   5.212393e-03
  3.374262e+00    4.012085e-01   5.228336e-03
  3.376472e+00    4.044960e-01   5.247318e-03
  3.378683e+00    4.046910e-01   5.246101e-03
  3.380893e+00    4.155915e-01   5.313952e-03
  3.383103e+00    4.035417e-01   5.233676e-03
  3.385314e+00    4.173069e-01   5.319967e-03
  3.387524e+00    4.108538e-01   5.275963e-03
  3.389735e+00    4.026093e-01   5.220139e-03
  3.391945e+00    4.012627e-01   5.207816e-03
  3.394156e+00    4.044695e-01   5.224361e-03
  3.396366e+00    4.117921e-01   5.268075e-03
  3.398577e+00    3.942554e-01   5.151690e-03
  3.400787e+00    3.872350e-01   5.117164e-03
  3.402998e+00    3.962037e-01   5.213514e-03
  3.405208e+00    4.026977e-01   5.276639e-03
  3.407418e+00    3.994601e-01   5.271157e-03
  3.409629e+00    3.876839e-01   5.206603e-03
  3.411839e+00    3.876632e-01   5.218075e-03
  3.414050e+00    3.869707e-01   5.224244e-03
  3.416260e+00    3.802208e-01   5.187949e-03
  3.418471e+00    3.897828e-01   5.262160e-03
  3.420681e+00    3.794665e-01   5.200404e-03
  3.422892e+00    3.853171e-01   5.248283e-03
  3.425102e+00    3.866241e-01   5.264963e-03
  3.427313e+00    3.816440e-01   5.238086e-03
  3.429523e+00    3.755948e-01   5.203349e-03
  3.431733e+00    3.743521e-01   5.201301e-03
  3.433944e+00    3.685046e-01   5.166862e-03
  3.436154e+00    3.761978e-01   5.226699e-03
  3.438365e+00    3.788981e-01   5.251351e-03
  3.440575e+00    3.626017e-01   5.142956e-03
  3.442786e+00    3.548910e-01   5.093403e-03
  3.444996e+00    3.668754e-01   5.184116e-03
  3.447207e+00    3.530805e-01   5.090855e-03
  3.449417e+00    3.499018e-01   5.107494e-03
  3.451628e+00    3.544360e-01   5.169325e-03
  3.453838e+00    3.587564e-01   5.221649e-03
  3.456049e+00    3.574507e-01   5.235728e-03
  3.458259e+00    3.641578e-01   5.306489e-03
  3.460469e+00    3.755030e-01   5.408544e-03
  3.462680e+00    3.577189e-01   5.297767e-03
  3.464890e+00    3.531219e-01   5.281052e-03
  3.467101e+00    3.634481e-01   5.375118e-03
  3.469311e+00    3.619982e-01   5.380724e-03
  3.471522e+00    3.693884e-01   5.451646e-03
  3.473732e+00    3.931184e-01   5.640281e-03
  3.475943e+00    3.912237e-01   5.642568e-03
  3.478153e+00    3.886344e-01   5.639297e-03
  3.480364e+00    4.037909e-01   5.763593e-03
  3.482574e+00    3.944573e-01   5.711719e-03
  3.484784e+00    4.179504e-01   5.894349e-03
  3.486995e+00    4.322678e-01   6.009867e-03
  3.489205e+00    4.305210e-01   6.012511e-03
  3.491416e+00    4.340749e-01   6.052298e-03
  3.493626e+00    4.392499e-01   6.102948e-03
  3.495837e+00    4.315205e-01   6.063614e-03
  3.498047e+00    4.396754e-01   6.135034e-03
  3.500258e+00    4.531569e-01   6.242983e-03
  3.502468e+00    4.592653e-01   6.299435e-03
  3.504679e+00    4.668546e-01   6.365844e-03
  3.506889e+00    4.635139e-01   6.357448e-03
  3.509099e+00    4.689040e-01   6.408619e-03
  3.511310e+00    4.565476e-01   6.337785e-03
  3.513520e+00    4.812067e-01   6.521063e-03
  3.515731e+00    5.027956e-01   6.680406e-03
  3.517941e+00    4.858968e-01   6.581468e-03
  3.520152e+00    4.887845e-01   6.615232e-03
  3.522362e+00    4.994350e-01   6.701354e-03
  3.524573e+00    5.100428e-01   6.786517e-03
  3.526783e+00    5.010137e-01   6.739409e-03
  3.528994e+00    5.058471e-01   6.783911e-03
  3.531204e+00    5.263187e-01   6.932357e-03
  3.533414e+00    5.271634e-01   6.950021e-03
  3.535625e+00    5.373845e-01   7.029545e-03
  3.537835e+00    5.347031e-01   7.024126e-03
  3.540046e+00    5.416957e-01   7.078903e-03
  3.542256e+00    5.315197e-01   7.019594e-03
  3.544467e+00    5.241973e-01   6.978596e-03
  3.546677e+00    5.449299e-01   7.122929e-03
  3.548888e+00    5.205362e-01   6.969062e-03
  3.551098e+00    5.346973e-01   7.070482e-03
  3.553309e+00    5.442277e-01   7.141451e-03
  3.555519e+00    5.378914e-01   7.111076e-03
  3.557729e+00    5.403110e-01   7.138817e-03
  3.559940e+00    5.353564e-01   7.117555e-03
  3.562150e+00    5.282518e-01   7.081808e-03
  3.564361e+00    5.153521e-01   7.007841e-03
  3.566571e+00    5.184061e-01   7.042185e-03
  3.568782e+00    5.308647e-01   7.140371e-03
  3.570992e+00    5.311972e-01   7.156258e-03
  3.573203e+00    5.388628e-01   7.221929e-03
  3.575413e+00    5.453767e-01   7.279321e-03
  3.577624e+00    5.383714e-01   7.246600e-03
  3.579834e+00    5.269105e-01   7.182797e-03
  3.582045e+00    5.231721e-01   7.171130e-03
  3.584255e+00    5.295566e-01   7.228739e-03
  3.586465e+00    5.253428e-01   7.213709e-03
  3.588676e+00    5.347524e-01   7.292179e-03
  3.590886e+00    5.348049e-01   7.306268e-03
  3.593097e+00    5.119427e-01   7.162543e-03
  3.595307e+00    5.323611e-01   7.317884e-03
  3.597518e+00    5.231791e-01   7.268541e-03
  3.599728e+00    5.189926e-01   7.253289e-03
  3.601939e+00    5.201127e-01   7.274947e-03
  3.604149e+00    5.439338e-01   7.454218e-03
  3.606360e+00    5.098780e-01   7.230908e-03
  3.608570e+00    5.200297e-01   7.316462e-03
  3.610780e+00    5.341269e-01   7.426019e-03
  3.612991e+00    5.460294e-01   7.518433e-03
  3.615201e+00    5.480841e-01   7.542499e-03
  3.617412e+00    5.455886e-01   7.532622e-03
  3.619622e+00    5.462257e-01   7.543076e-03
  3.621833e+00    5.325240e-01   7.454551e-03
  3.624043e+00    5.219773e-01   7.389755e-03
  3.626254e+00    5.327839e-01   7.475555e-03
  3.628464e+00    5.238920e-01   7.423788e-03
  3.630675e+00    5.353957e-01   7.518953e-03
  3.632885e+00    5.311635e-01   7.503621e-03
  3.635095e+00    5.334919e-01   7.534424e-03
  3.637306e+00    5.345909e-01   7.556579e-03
  3.639516e+00    5.216178e-01   7.478705e-03
  3.641727e+00    5.208007e-01   7.487222e-03
  3.643937e+00    5.208895e-01   7.502247e-03
  3.646148e+00    5.383338e-01   7.641490e-03
  3.648358e+00    5.388592e-01   7.660198e-03
  3.650569e+00    5.312081e-01   7.620306e-03
  3.652779e+00    5.381094e-01   7.684518e-03
  3.654990e+00    5.193419e-01   7.564007e-03
  3.657200e+00    5.332642e-01   7.679618e-03
  3.659410e+00    5.428838e-01   7.763720e-03
  3.661621e+00    5.250194e-01   7.649915e-03
  3.663831e+00    5.168532e-01   7.605103e-03
  3.666042e+00    5.009018e-01   7.501528e-03
  3.668252e+00    5.228047e-01   7.678888e-03
  3.670463e+00    5.243808e-01   7.705598e-03
  3.672673e+00    5.309222e-01   7.768944e-03
  3.674884e+00    5.045180e-01   7.588336e-03
  3.677094e+00    5.164401e-01   7.692732e-03
  3.679305e+00    5.255392e-01   7.775697e-03
  3.681515e+00    5.203685e-01   7.752829e-03
  3.683726e+00    5.253333e-01   7.805464e-03
  3.685936e+00    5.243891e-01   7.814106e-03
  3.688146e+00    5.198882e-01   7.796120e-03
  3.690357e+00    5.513036e-01   8.044507e-03
  3.692567e+00    5.382133e-01   7.964744e-03
  3.694778e+00    5.284250e-01   7.908052e-03
  3.696988e+00    5.234804e-01   7.886936e-03
  3.699199e+00    5.424798e-01   8.045247e-03
  3.701409e+00    5.254688e-01   7.934514e-03
  3.703620e+00    5.291606e-01   7.978701e-03
  3.705830e+00    5.333233e-01   8.026563e-03
  3.708041e+00    5.158826e-01   7.910736e-03
  3.710251e+00    5.052981e-01   7.845518e-03
  3.712461e+00    5.248494e-01   8.012639e-03
  3.714672e+00    5.043705e-01   7.871247e-03
  3.716882e+00    5.078176e-01   7.914587e-03
  3.719093e+00    5.080193e-01   7.933092e-03
  3.721303e+00    4.987836e-01   7.877256e-03
  3.723514e+00    5.003189e-01   7.906323e-03
  3.725724e+00    5.084610e-01   7.987372e-03
  3.727935e+00    5.010113e-01   7.945855e-03
  3.730145e+00    5.016356e-01   7.967819e-03
  3.732356e+00    5.288970e-01   8.199239e-03
  3.734566e+00    5.026688e-01   8.010691e-03
  3.736776e+00    4.988879e-01   7.997958e-03
  3.738987e+00    5.138761e-01   8.134953e-03
  3.741197e+00    5.034271e-01   8.069666e-03
  3.743408e+00    5.005806e-01   8.064630e-03
  3.745618e+00    5.248727e-01   8.276513e-03
  3.747829e+00    4.991018e-01   8.088695e-03
  3.750039e+00    4.918563e-01   8.047723e-03
  3.752250e+00    4.921776e-01   8.068531e-03
  3.754460e+00    4.860286e-01   8.036043e-03
  3.756671e+00    4.618982e-01   7.851966e-03
  3.758881e+00    4.677767e-01   7.919528e-03
  3.761091e+00    4.911361e-01   8.133758e-03
  3.763302e+00    5.010502e-01   8.234361e-03
  3.765512e+00    4.922965e-01   8.181097e-03
  3.767723e+00    4.779046e-01   8.079419e-03
  3.769933e+00    4.852472e-01   8.160130e-03
  3.772144e+00    5.002363e-01   8.304690e-03
  3.774354e+00    4.966520e-01   8.294599e-03
  3.776565e+00    4.904175e-01   8.261856e-03
  3.778775e+00    4.944190e-01   8.315266e-03
  3.780986e+00    5.013134e-01   8.393330e-03
  3.783196e+00    5.104764e-01   8.490035e-03
  3.785407e+00    5.023621e-01   8.442728e-03
  3.787617e+00    5.121010e-01   8.545110e-03
  3.789827e+00    4.818451e-01   8.308966e-03
  3.792038e+00    4.870759e-01   8.374394e-03
  3.794248e+00    5.248888e-01   8.715075e-03
  3.796459e+00    5.019708e-01   8.544073e-03
  3.798669e+00    5.022460e-01   8.567849e-03
  3.800880e+00    4.898590e-01   8.482716e-03
  3.803090e+00    4.762003e-01   8.384885e-03
  3.805301e+00    4.820111e-01   8.457605e-03
  3.807511e+00    4.925682e-01   8.571560e-03
  3.809722e+00    4.886464e-01   8.559364e-03
  3.811932e+00    4.865088e-01   8.562520e-03
  3.814142e+00    5.032324e-01   8.731415e-03
  3.816353e+00    5.017021e-01   8.741076e-03
  3.818563e+00    5.018497e-01   8.765525e-03
  3.820774e+00    4.955542e-01   8.733458e-03
  3.822984e+00    4.995792e-01   8.792222e-03
  3.825195e+00    5.073944e-01   8.884704e-03
  3.827405e+00    4.941545e-01   8.791885e-03
  3.829616e+00    4.887800e-01   8.767726e-03
  3.831826e+00    5.048763e-01   8.935287e-03
  3.834037e+00    4.921008e-01   8.845899e-03
  3.836247e+00    5.023977e-01   8.962804e-03
  3.838457e+00    4.818841e-01   8.802555e-03
  3.840668e+00    5.097774e-01   9.079239e-03
  3.842878e+00    5.157930e-01   9.158733e-03
  3.845089e+00    4.781156e-01   8.843015e-03
  3.847299e+00    4.763848e-01   8.852230e-03
  3.849510e+00    4.754308e-01   8.868659e-03
  3.851720e+00    4.835979e-01   8.965755e-03
  3.853931e+00    4.818189e-01   8.967930e-03
  3.856141e+00    4.898690e-01   9.061511e-03
  3.858352e+00    4.830973e-01   9.017650e-03
  3.860562e+00    4.681644e-01   8.896003e-03
  3.862772e+00    5.149633e-01   9.349993e-03
  3.864983e+00    5.115418e-01   9.338952e-03
  3.867193e+00    4.857561e-01   9.120151e-03
  3.869404e+00    5.023806e-01   9.294868e-03
  3.871614e+00    4.954863e-01   9.250903e-03
  3.873825e+00    4.515373e-01   8.850629e-03
  3.876035e+00    4.684851e-01   9.035056e-03
  3.878246e+00    4.989330e-01   9.350107e-03
  3.880456e+00    4.958251e-01   9.350053e-03
  3.882667e+00    4.800782e-01   9.229340e-03
  3.884877e+00    4.808210e-01   9.265831e-03
  3.887087e+00    4.824755e-01   9.311503e-03
  3.889298e+00    4.748377e-01   9.267298e-03
  3.891508e+00    4.705720e-01   9.255484e-03
  3.893719e+00    4.915124e-01   9.490187e-03
  3.895929e+00    4.895104e-01   9.502260e-03
  3.898140e+00    4.800635e-01   9.441473e-03
  3.900350e+00    4.797422e-01   9.470085e-03
  3.902561e+00    4.720509e-01   9.425611e-03
  3.904771e+00    4.828427e-01   9.565326e-03
  3.906982e+00    4.856722e-01   9.626351e-03
  3.909192e+00    4.906212e-01   9.708778e-03
  3.911403e+00    4.968982e-01   9.805005e-03
  3.913613e+00    4.982132e-01   9.852583e-03
  3.915823e+00    4.781128e-01   9.686236e-03
  3.918034e+00    4.918001e-01   9.859219e-03
  3.920244e+00    4.779133e-01   9.754441e-03
  3.922455e+00    4.776148e-01   9.787071e-03
  3.924665e+00    4.645073e-01   9.687381e-03
  3.926876e+00    4.811698e-01   9.896392e-03
  3.929086e+00    4.970139e-01   1.009577e-02
  3.931297e+00    4.745506e-01   9.899308e-03
  3.933507e+00    4.757092e-01   9.940035e-03
  3.935718e+00    4.851517e-01   1.006677e-02
  3.937928e+00    4.929243e-01   1.017677e-02
  3.940138e+00    4.782935e-01   1.005366e-02
  3.942349e+00    4.734487e-01   1.003208e-02
  3.944559e+00    4.774522e-01   1.010406e-02
  3.946770e+00    4.672759e-01   1.002542e-02
  3.948980e+00    4.902757e-01   1.029996e-02
  3.951191e+00    4.628585e-01   1.003798e-02
  3.953401e+00    4.740580e-01   1.018951e-02
  3.955612e+00    4.860668e-01   1.034957e-02
  3.957822e+00    4.828522e-01   1.034676e-02
  3.960033e+00    4.844219e-01   1.039623e-02
  3.962243e+00    4.754781e-01   1.033225e-02
  3.964453e+00    4.831998e-01   1.044878e-02
  3.966664e+00    4.825302e-01   1.047498e-02
  3.968874e+00    4.673971e-01   1.033712e-02
  3.971085e+00    4.637289e-01   1.031799e-02
  3.973295e+00    4.554294e-01   1.024601e-02
  3.975506e+00    4.484051e-01   1.018743e-02
  3.977716e+00    4.602982e-01   1.034310e-02
  3.979927e+00    4.841057e-01   1.062927e-02
  3.982137e+00    4.872497e-01   1.068607e-02
  3.984348e+00    4.449430e-01   1.023335e-02
  3.986558e+00    4.592139e-01   1.041768e-02
  3.988768e+00    4.859654e-01   1.073997e-02
  3.990979e+00    4.509765e-01   1.036802e-02
  3.993189e+00    4.620799e-01   1.051740e-02
  3.995400e+00    4.882334e-01   1.083454e-02
  3.997610e+00    4.796397e-01   1.076838e-02
  3.999821e+00    4.643807e-01   1.063251e-02
  4.002031e+00    4.854770e-01   1.090977e-02
  4.004242e+00    4.434266e-01   1.046340e-02
  4.006452e+00    4.400823e-01   1.046133e-02
  4.008663e+00    4.599523e-01   1.073381e-02
  4.010873e+00    4.495991e-01   1.065097e-02
  4.013084e+00    4.641201e-01   1.086150e-02
  4.015294e+00    4.578902e-01   1.082826e-02
  4.017504e+00    4.779940e-01   1.110507e-02
  4.019715e+00    4.611747e-01   1.094927e-02
  4.021925e+00    4.705042e-01   1.110198e-02
  4.024136e+00    4.741859e-01   1.118853e-02
  4.026346e+00    4.495976e-01   1.093716e-02
  4.028557e+00    4.621595e-01   1.113215e-02
  4.030767e+00    4.722440e-01   1.129812e-02
  4.032978e+00    4.626981e-01   1.122858e-02
  4.035188e+00    4.683724e-01   1.134260e-02
  4.037399e+00    4.953220e-01   1.171260e-02
  4.039609e+00    4.839933e-01   1.162565e-02
  4.041819e+00    4.680533e-01   1.148056e-02
  4.044030e+00    4.651466e-01   1.149383e-02
  4.046240e+00    4.772355e-01   1.169183e-02
  4.048451e+00    4.886793e-01   1.188226e-02
  4.050661e+00    4.744913e-01   1.175964e-02
  4.052872e+00    4.486080e-01   1.148527e-02
  4.055082e+00    4.708684e-01   1.181952e-02
  4.057293e+00    4.928580e-01   1.214673e-02
  4.059503e+00    4.503796e-01   1.166433e-02
  4.061714e+00    4.606874e-01   1.185216e-02
  4.063924e+00    4.927947e-01   1.231570e-02
  4.066134e+00    4.456657e-01   1.176707e-02
  4.068345e+00    4.882089e-01   1.237526e-02
  4.070555e+00    4.631383e-01   1.211152e-02
  4.072766e+00    4.681503e-01   1.223686e-02
  4.074976e+00    4.391213e-01   1.191049e-02
  4.077187e+00    4.799867e-01   1.251408e-02
  4.079397e+00    4.929278e-01   1.274664e-02
  4.081608e+00    4.834708e-01   1.268942e-02
  4.083818e+00    4.574573e-01   1.240735e-02
  4.086029e+00    4.749942e-01   1.270972e-02
  4.088239e+00    4.545955e-01   1.250077e-02
  4.090449e+00    4.484710e-01   1.248362e-02
  4.092660e+00    4.513727e-01   1.259276e-02
  4.094870e+00    4.490118e-01   1.262976e-02
  4.097081e+00    4.851287e-01   1.319957e-02
  4.099291e+00    4.723682e-01   1.307896e-02
  4.101502e+00    4.832848e-01   1.327846e-02
  4.103712e+00    4.786676e-01   1.326416e-02
  4.105923e+00    4.601096e-01   1.305485e-02
  4.108133e+00    4.522382e-01   1.299253e-02
  4.110344e+00    4.390860e-01   1.285120e-02
  4.112554e+00    4.735903e-01   1.339935e-02
  4.114764e+00    4.568312e-01   1.321291e-02
  4.116975e+00    5.239724e-01   1.420646e-02
  4.119185e+00    4.738518e-01   1.356499e-02
  4.121396e+00    4.106292e-01   1.267961e-02
  4.123606e+00    4.434824e-01   1.323108e-02
  4.125817e+00    4.854456e-01   1.390095e-02
  4.128027e+00    5.179005e-01   1.441872e-02
  4.130238e+00    4.734848e-01   1.384563e-02
  4.132448e+00    4.783029e-01   1.397625e-02
  4.134659e+00    4.785655e-01   1.404028e-02
  4.136869e+00    4.661979e-01   1.391943e-02
  4.139080e+00    4.628389e-01   1.393163e-02
  4.141290e+00    4.999781e-01   1.454411e-02
  4.143500e+00    5.041906e-01   1.467253e-02
  4.145711e+00    4.963200e-01   1.462557e-02
  4.147921e+00    4.714173e-01   1.431930e-02
  4.150132e+00    4.697944e-01   1.436301e-02
  4.152342e+00    4.707898e-01   1.444768e-02
  4.154553e+00    4.791882e-01   1.464523e-02
  4.156763e+00    5.194348e-01   1.532350e-02
  4.158974e+00    4.879975e-01   1.492722e-02
  4.161184e+00    4.799535e-01   1.487692e-02
  4.163395e+00    4.761562e-01   1.489390e-02
  4.165605e+00    4.560252e-01   1.465127e-02
  4.167815e+00    4.902179e-01   1.526983e-02
  4.170026e+00    4.811117e-01   1.520718e-02
  4.172236e+00    4.610034e-01   1.496652e-02
  4.174447e+00    4.497408e-01   1.486273e-02
  4.176657e+00    4.700293e-01   1.527753e-02
  4.178868e+00    4.708154e-01   1.537687e-02
  4.181078e+00    4.861401e-01   1.571281e-02
  4.183289e+00    5.104342e-01   1.619306e-02
  4.185499e+00    4.669860e-01   1.557998e-02
  4.187710e+00    4.986534e-01   1.619405e-02
  4.189920e+00    4.588865e-01   1.562819e-02
  4.192130e+00    4.703185e-01   1.591846e-02
  4.194341e+00    4.610443e-01   1.585735e-02
  4.196551e+00    4.637397e-01   1.600444e-02
  4.198762e+00    4.527868e-01   1.591459e-02
  4.200972e+00    4.131652e-01   1.530087e-02
  4.203183e+00    4.486039e-01   1.604836e-02
  4.205393e+00    4.530121e-01   1.623472e-02
  4.207604e+00    4.449986e-01   1.620015e-02
  4.209814e+00    4.784292e-01   1.691253e-02
  4.212025e+00    4.932401e-01   1.729448e-02
  4.214235e+00    4.391696e-01   1.643457e-02
  4.216445e+00    4.806366e-01   1.731712e-02
  4.218656e+00    4.720122e-01   1.728980e-02
  4.220866e+00    4.930961e-01   1.780242e-02
  4.223077e+00    5.122118e-01   1.828399e-02
  4.225287e+00    4.616886e-01   1.749534e-02
  4.227498e+00    5.180175e-01   1.867706e-02
  4.229708e+00    5.414278e-01   1.924992e-02
  4.231919e+00    4.822428e-01   1.831788e-02
  4.234129e+00    4.319840e-01   1.748210e-02
  4.236340e+00    4.915235e-01   1.880747e-02
  4.238550e+00    4.787056e-01   1.872485e-02
  4.240761e+00    4.668458e-01   1.865463e-02
  4.242971e+00    5.171043e-01   1.981266e-02
  4.245181e+00    5.142981e-01   1.994504e-02
  4.247392e+00    5.189386e-01   2.022161e-02
  4.249602e+00    4.656016e-01   1.934483e-02
  4.251813e+00    4.647473e-01   1.951744e-02
  4.254023e+00    4.704945e-01   1.983528e-02
  4.256234e+00    4.967247e-01   2.059886e-02
  4.258444e+00    4.263399e-01   1.928337e-02
  4.260655e+00    4.904935e-01   2.091071e-02
  4.262865e+00    3.815778e-01   1.865293e-02
  4.265076e+00    4.316355e-01   2.006385e-02
  4.267286e+00    5.314242e-01   2.252689e-02
  4.269496e+00    4.774708e-01   2.161335e-02
  4.271707e+00    5.223756e-01   2.288643e-02
  4.273917e+00    4.671466e-01   2.192222e-02
  4.276128e+00    4.418083e-01   2.160260e-02
  4.278338e+00    4.537916e-01   2.218646e-02
  4.280549e+00    4.044381e-01   2.124522e-02
  4.282759e+00    4.462563e-01   2.263739e-02
  4.284970e+00    4.480416e-01   2.301799e-02
  4.287180e+00    5.110990e-01   2.487929e-02
  4.289391e+00    5.193670e-01   2.526808e-02
  4.291601e+00    4.133737e-01   2.272301e-02
  4.293811e+00    4.868436e-01   2.485214e-02
  4.296022e+00    4.527874e-01   2.416027e-02
  4.298232e+00    5.316913e-01   2.639950e-02
  4.300443e+00    4.497534e-01   2.448107e-02
  4.302653e+00    4.600613e-01   2.497394e-02
  4.304864e+00    5.279436e-01   2.698527e-02
  4.307074e+00    4.917655e-01   2.627831e-02
  4.309285e+00    5.390581e-01   2.776202e-02
  4.311495e+00    5.367702e-01   2.796343e-02
  4.313706e+00    4.518046e-01   2.589500e-02
  4.315916e+00    5.169943e-01   2.797318e-02
  4.318126e+00    4.619753e-01   2.670514e-02
  4.320337e+00    4.639640e-01   2.703232e-02
  4.322547e+00    5.498627e-01   2.974093e-02
  4.324758e+00    5.769260e-01   3.078151e-02
  4.326968e+00    4.750298e-01   2.824512e-02
  4.329179e+00    4.916326e-01   2.905134e-02
  4.331389e+00    4.487854e-01   2.807634e-02
  4.333600e+00    5.173623e-01   3.050496e-02
  4.335810e+00    5.663634e-01   3.229697e-02
  4.338021e+00    5.020701e-01   3.079743e-02
  4.340231e+00    4.443516e-01   2.933774e-02
  4.342442e+00    3.720201e-01   2.720347e-02
  4.344652e+00    3.555507e-01   2.695576e-02
  4.346862e+00    3.561406e-01   2.735593e-02
  4.349073e+00    4.787879e-01   3.217960e-02
  4.351283e+00    4.130496e-01   3.033624e-02
  4.353494e+00    4.225745e-01   3.115644e-02
  4.355704e+00    4.901690e-01   3.409810e-02
  4.357915e+00    3.746325e-01   3.030527e-02
  4.360125e+00    4.496052e-01   3.376598e-02
  4.362336e+00    3.811217e-01   3.165534e-02
  4.364546e+00    3.959310e-01   3.285012e-02
  4.366757e+00    5.020083e-01   3.772982e-02
  4.368967e+00    2.410876e-01   2.666558e-02
  4.371177e+00    4.847152e-01   3.861530e-02
  4.373388e+00    4.591366e-01   3.842146e-02
  4.375598e+00    4.709860e-01   3.980359e-02
  4.377809e+00    4.139532e-01   3.825889e-02
  4.380019e+00    4.744757e-01   4.199294e-02
  4.382230e+00    2.667491e-01   3.236524e-02
  4.384440e+00    2.723157e-01   3.363943e-02
  4.386651e+00    3.901417e-01   4.150579e-02
  4.388861e+00    5.772687e-01   5.218410e-02
  4.391072e+00    5.059210e-01   5.057230e-02
  4.393282e+00    1.756960e-01   3.095098e-02
  4.395492e+00    3.499068e-01   4.549714e-02
  4.397703e+00    5.418483e-01   5.920177e-02
  4.399913e+00    4.006650e-01   5.349075e-02
  4.402124e+00    2.745269e-01   4.678233e-02
  4.404334e+00    5.329509e-01   6.929189e-02
  4.406545e+00    4.188804e-01   6.599849e-02
  4.408755e+00    5.876753e-01   8.478943e-02
  4.410966e+00    1.010902e-01   3.891239e-02
  4.413176e+00    1.440402e-03   5.355076e-03
  4.415387e+00   -6.551961e-01            nan
  4.417597e+00   -2.044852e+00            nan
  4.419807e+00   -3.766224e-01            nan
