# == pyFAI calibration ==
# Distance Sample to Detector: 0.216 m
# PONI: 1.166e-01, 1.308e-01 m
# Rotations: 0.000000 0.000000 0.000000 rad
# 
# == Fit2d calibration ==
# Distance Sample-beamCenter: 216.000 mm
# Center: x=1744.293, y=1555.000 pix
# Tilt: 0.000 deg  TiltPlanRot: 0.000 deg
# 
# Detector Eiger 9M	 PixelSize= 7.500e-05, 7.500e-05 m
#    Detector has a mask: True 
#    Detector has a dark current: False 
#    detector has a flat field: False 
# 
# Wavelength: 9.8e-11 m
# Mask applied: from detector
# Dark current applied: False
# Flat field applied: False
# Polarization factor: None
# Normalization factor: 1.0
# 
# Headers of the input frame:
# {
# "_array_data.header_convention": "SLS_1.0",
# "_array_data.header_contents": "# Detector: Dectris Eiger 9M, S/N E-18-0102\r\n# Pixel_size 75e-6 m x 75e-6 m\r\n# Silicon sensor, thickness 0.000450 m\r\n# Exposure_time 0.024997 s\r\n# Exposure_period 0.025000 s\r\n# Count_cutoff 62318 counts\r\n# Wavelength 0.980106 A\r\n# Detector_distance 0.215992 m\r\n# Beam_xy (1555, 1744) pixels\r\n# Start_angle 0.000000 deg.\r\n# Angle_increment 0.000000 deg.",
# "Content-Type": "application/octet-stream;",
# "conversions": "x-CBF_BYTE_OFFSET",
# "Content-Transfer-Encoding": "BINARY",
# "X-Binary-Size": "10166672",
# "X-Binary-ID": "1",
# "X-Binary-Element-Type": "signed 32-bit integer",
# "X-Binary-Element-Byte-Order": "LITTLE_ENDIAN",
# "Content-MD5": "uzsuTRVMzDFDweKsTsO1Yw==",
# "X-Binary-Number-of-Elements": "10166590",
# "X-Binary-Size-Fastest-Dimension": "3110",
# "X-Binary-Size-Second-Dimension": "3269",
# "X-Binary-Size-Padding": "4095"
# }
# --> H:/Proxima2a_2019-04-05/RAW_DATA/C5_gel17_position5/C5_mesh_1_data.cbf/C5_mesh_1_data.cbf000046.dat
#        q_A^-1              I           sigma 
  1.105228e-03    2.005338e+00   7.662682e-01
  3.315685e-03    1.665158e+00   4.244956e-01
  5.526141e-03    1.089434e+00   2.655049e-01
  7.736597e-03    1.473301e+00   2.608351e-01
  9.947054e-03    1.354181e+00   2.204525e-01
  1.215751e-02    1.492065e+00   2.092486e-01
  1.436797e-02    1.574849e+00   1.977404e-01
  1.657842e-02    1.256261e+00   1.643934e-01
  1.878888e-02    1.441302e+00   1.654021e-01
  2.099934e-02    1.650162e+00   1.674424e-01
  2.320979e-02    1.566055e+00   1.551445e-01
  2.542025e-02    1.310997e+00   1.356470e-01
  2.763070e-02    1.312664e+00   1.301869e-01
  2.984116e-02    1.432300e+00   1.308559e-01
  3.205162e-02    1.458149e+00   1.274052e-01
  3.426207e-02    1.330602e+00   1.177061e-01
  3.647253e-02    1.322365e+00   1.137275e-01
  3.868299e-02    1.273677e+00   1.083865e-01
  4.089344e-02    1.494599e+00   1.141939e-01
  4.310390e-02    1.464682e+00   1.101021e-01
  4.531436e-02    1.473002e+00   1.076880e-01
  4.752481e-02    1.449117e+00   1.042967e-01
  4.973527e-02    1.466777e+00   1.025732e-01
  5.194572e-02    1.379479e+00   9.733310e-02
  5.415618e-02    1.373918e+00   9.513037e-02
  5.636664e-02    1.296005e+00   9.056670e-02
  5.857709e-02    1.448947e+00   9.393787e-02
  6.078755e-02    1.480627e+00   9.321378e-02
  6.299801e-02    1.366385e+00   8.795955e-02
  6.520846e-02    1.388138e+00   8.714190e-02
  6.741892e-02    1.425162e+00   8.683243e-02
  6.962938e-02    1.526025e+00   8.841933e-02
  7.183983e-02    1.474586e+00   8.556715e-02
  7.405029e-02    1.384485e+00   8.166301e-02
  7.626074e-02    1.497456e+00   8.368880e-02
  7.847120e-02    1.490860e+00   8.231753e-02
  8.068166e-02    1.576901e+00   8.349115e-02
  8.289211e-02    1.491186e+00   8.010004e-02
  8.510257e-02    1.497209e+00   7.921194e-02
  8.731303e-02    1.342223e+00   7.404182e-02
  8.952348e-02    1.413085e+00   7.502943e-02
  9.173394e-02    1.421123e+00   7.432754e-02
  9.394439e-02    1.503069e+00   7.553335e-02
  9.615485e-02    1.531695e+00   7.536606e-02
  9.836531e-02    1.518079e+00   7.418048e-02
  1.005758e-01    1.390236e+00   7.020432e-02
  1.027862e-01    1.326626e+00   6.783628e-02
  1.049967e-01    1.505087e+00   7.148924e-02
  1.072071e-01    1.520229e+00   7.110257e-02
  1.094176e-01    1.463522e+00   6.905451e-02
  1.116280e-01    1.454407e+00   6.815264e-02
  1.138385e-01    1.413594e+00   6.653278e-02
  1.160490e-01    1.549608e+00   6.899268e-02
  1.182594e-01    1.535811e+00   6.803842e-02
  1.204699e-01    1.660067e+00   7.008473e-02
  1.226803e-01    1.646747e+00   6.916845e-02
  1.248908e-01    1.490195e+00   6.521285e-02
  1.271012e-01    1.512331e+00   6.512035e-02
  1.293117e-01    1.552381e+00   6.540981e-02
  1.315222e-01    1.537930e+00   6.455375e-02
  1.337326e-01    1.575759e+00   6.479932e-02
  1.359431e-01    1.588129e+00   6.509126e-02
  1.381535e-01    1.515699e+00   6.444319e-02
  1.403640e-01    1.623892e+00   6.699158e-02
  1.425744e-01    1.576254e+00   6.610709e-02
  1.447849e-01    1.511831e+00   6.475697e-02
  1.469953e-01    1.592490e+00   6.642036e-02
  1.492058e-01    1.547794e+00   6.540553e-02
  1.514163e-01    1.557556e+00   6.550251e-02
  1.536267e-01    1.624748e+00   6.676984e-02
  1.558372e-01    1.636971e+00   6.687257e-02
  1.580476e-01    1.626171e+00   6.648987e-02
  1.602581e-01    1.628806e+00   6.637471e-02
  1.624685e-01    1.667755e+00   6.697973e-02
  1.646790e-01    1.661530e+00   6.666265e-02
  1.668895e-01    1.718323e+00   6.759657e-02
  1.690999e-01    1.790339e+00   6.879137e-02
  1.713104e-01    1.690942e+00   6.664702e-02
  1.735208e-01    1.764482e+00   6.786913e-02
  1.757313e-01    1.777622e+00   6.790790e-02
  1.779417e-01    1.768574e+00   6.751393e-02
  1.801522e-01    1.856931e+00   6.895954e-02
  1.823626e-01    1.879072e+00   6.913850e-02
  1.845731e-01    1.885141e+00   6.902576e-02
  1.867836e-01    1.882607e+00   6.874654e-02
  1.889940e-01    1.981389e+00   7.029660e-02
  1.912045e-01    1.981308e+00   7.006045e-02
  1.934149e-01    1.954751e+00   6.935640e-02
  1.956254e-01    1.948132e+00   6.901053e-02
  1.978358e-01    1.959782e+00   6.897936e-02
  2.000463e-01    1.951379e+00   6.860323e-02
  2.022568e-01    2.026722e+00   6.968560e-02
  2.044672e-01    1.981895e+00   6.867457e-02
  2.066777e-01    2.059271e+00   6.976996e-02
  2.088881e-01    2.003586e+00   6.859501e-02
  2.110986e-01    1.994715e+00   6.820828e-02
  2.133090e-01    1.954277e+00   6.729389e-02
  2.155195e-01    1.963143e+00   6.722263e-02
  2.177300e-01    1.928268e+00   6.609946e-02
  2.199404e-01    1.899332e+00   6.387307e-02
  2.221509e-01    1.835469e+00   6.175897e-02
  2.243613e-01    1.929458e+00   6.251776e-02
  2.265718e-01    2.053578e+00   6.378637e-02
  2.287822e-01    2.048012e+00   6.306942e-02
  2.309927e-01    2.068971e+00   6.281380e-02
  2.332031e-01    2.197225e+00   6.417738e-02
  2.354136e-01    2.169016e+00   6.324732e-02
  2.376241e-01    2.103853e+00   6.180650e-02
  2.398345e-01    2.205955e+00   6.282011e-02
  2.420450e-01    2.251292e+00   6.300884e-02
  2.442554e-01    2.131013e+00   6.088024e-02
  2.464659e-01    2.123128e+00   6.035950e-02
  2.486763e-01    2.161482e+00   6.050194e-02
  2.508868e-01    2.114080e+00   5.945740e-02
  2.530973e-01    2.098368e+00   5.886879e-02
  2.553077e-01    2.114912e+00   5.874190e-02
  2.575182e-01    2.092032e+00   5.807766e-02
  2.597286e-01    2.024859e+00   5.680547e-02
  2.619391e-01    2.111908e+00   5.767966e-02
  2.641495e-01    2.057049e+00   5.661054e-02
  2.663600e-01    2.033316e+00   5.597350e-02
  2.685704e-01    2.037875e+00   5.573246e-02
  2.707809e-01    1.993266e+00   5.482654e-02
  2.729914e-01    2.062458e+00   5.547936e-02
  2.752018e-01    1.997836e+00   5.431910e-02
  2.774123e-01    2.020759e+00   5.435076e-02
  2.796227e-01    2.044528e+00   5.439906e-02
  2.818332e-01    2.020329e+00   5.380642e-02
  2.840436e-01    2.018638e+00   5.352318e-02
  2.862541e-01    2.037164e+00   5.350975e-02
  2.884646e-01    1.962136e+00   5.226592e-02
  2.906750e-01    1.989492e+00   5.237943e-02
  2.928855e-01    1.968514e+00   5.186116e-02
  2.950959e-01    1.937736e+00   5.121775e-02
  2.973064e-01    1.892048e+00   5.038292e-02
  2.995168e-01    1.901005e+00   5.027326e-02
  3.017273e-01    1.977751e+00   5.105197e-02
  3.039377e-01    1.918849e+00   5.006580e-02
  3.061482e-01    1.907338e+00   4.969947e-02
  3.083587e-01    1.899791e+00   4.938636e-02
  3.105691e-01    1.861392e+00   4.867590e-02
  3.127796e-01    1.919798e+00   4.922584e-02
  3.149900e-01    1.842075e+00   4.801820e-02
  3.172005e-01    1.823016e+00   4.757380e-02
  3.194109e-01    1.864964e+00   4.791939e-02
  3.216214e-01    1.865103e+00   4.772565e-02
  3.238319e-01    1.883233e+00   4.776704e-02
  3.260423e-01    1.947316e+00   4.837947e-02
  3.282528e-01    1.878371e+00   4.732618e-02
  3.304632e-01    1.887624e+00   4.725879e-02
  3.326737e-01    1.857589e+00   4.669839e-02
  3.348841e-01    1.875069e+00   4.673566e-02
  3.370946e-01    1.881729e+00   4.664242e-02
  3.393050e-01    1.887631e+00   4.653856e-02
  3.415155e-01    1.886102e+00   4.634479e-02
  3.437260e-01    1.904602e+00   4.639892e-02
  3.459364e-01    1.774440e+00   4.461973e-02
  3.481469e-01    1.788044e+00   4.462694e-02
  3.503573e-01    1.825865e+00   4.493217e-02
  3.525678e-01    1.845828e+00   4.501614e-02
  3.547782e-01    1.816049e+00   4.449015e-02
  3.569887e-01    1.818224e+00   4.435905e-02
  3.591992e-01    1.762409e+00   4.351838e-02
  3.614096e-01    1.804293e+00   4.387975e-02
  3.636201e-01    1.852726e+00   4.430855e-02
  3.658305e-01    1.733900e+00   4.271792e-02
  3.680410e-01    1.710441e+00   4.228202e-02
  3.702514e-01    1.778791e+00   4.297353e-02
  3.724619e-01    1.798538e+00   4.306426e-02
  3.746724e-01    1.833359e+00   4.333407e-02
  3.768828e-01    1.850703e+00   4.339206e-02
  3.790933e-01    1.783920e+00   4.246317e-02
  3.813037e-01    1.756103e+00   4.199291e-02
  3.835142e-01    1.796068e+00   4.232861e-02
  3.857246e-01    1.801310e+00   4.225311e-02
  3.879351e-01    1.789204e+00   4.197462e-02
  3.901455e-01    1.755142e+00   4.144078e-02
  3.923560e-01    1.732350e+00   4.104000e-02
  3.945665e-01    1.717793e+00   4.073759e-02
  3.967769e-01    1.742325e+00   4.089897e-02
  3.989874e-01    1.753760e+00   4.090482e-02
  4.011978e-01    1.757054e+00   4.081733e-02
  4.034083e-01    1.742591e+00   4.052419e-02
  4.056187e-01    1.810743e+00   4.118177e-02
  4.078292e-01    1.871238e+00   4.173736e-02
  4.100397e-01    1.754897e+00   4.029567e-02
  4.122501e-01    1.705480e+00   3.960540e-02
  4.144606e-01    1.778583e+00   4.032537e-02
  4.166710e-01    1.772255e+00   4.013389e-02
  4.188815e-01    1.810565e+00   4.044550e-02
  4.210919e-01    1.841569e+00   4.067080e-02
  4.233024e-01    1.816367e+00   4.027275e-02
  4.255128e-01    1.739160e+00   3.929362e-02
  4.277233e-01    1.754168e+00   3.934939e-02
  4.299338e-01    1.808890e+00   3.984347e-02
  4.321442e-01    1.808468e+00   3.972484e-02
  4.343547e-01    1.759226e+00   3.906948e-02
  4.365651e-01    1.800151e+00   3.940903e-02
  4.387756e-01    1.716984e+00   3.838015e-02
  4.409860e-01    1.757548e+00   3.872327e-02
  4.431965e-01    1.752952e+00   3.856570e-02
  4.454070e-01    1.709091e+00   3.797421e-02
  4.476174e-01    1.686610e+00   3.762004e-02
  4.498279e-01    1.701328e+00   3.768102e-02
  4.520383e-01    1.737977e+00   3.798021e-02
  4.542488e-01    1.750059e+00   3.800922e-02
  4.564592e-01    1.711531e+00   3.748767e-02
  4.586697e-01    1.695259e+00   3.721001e-02
  4.608801e-01    1.688592e+00   3.703730e-02
  4.630906e-01    1.690098e+00   3.695570e-02
  4.653011e-01    1.708431e+00   3.705787e-02
  4.675115e-01    1.709363e+00   3.697035e-02
  4.697220e-01    1.718246e+00   3.696925e-02
  4.719324e-01    1.697120e+00   3.664626e-02
  4.741429e-01    1.698473e+00   3.656637e-02
  4.763533e-01    1.681496e+00   3.628992e-02
  4.785638e-01    1.683345e+00   3.621605e-02
  4.807743e-01    1.652243e+00   3.578867e-02
  4.829847e-01    1.700000e+00   3.621051e-02
  4.851952e-01    1.652335e+00   3.560891e-02
  4.874056e-01    1.748832e+00   3.654159e-02
  4.896161e-01    1.650984e+00   3.541658e-02
  4.918265e-01    1.636651e+00   3.517492e-02
  4.940370e-01    1.658189e+00   3.531820e-02
  4.962475e-01    1.677638e+00   3.543700e-02
  4.984579e-01    1.669346e+00   3.526219e-02
  5.006684e-01    1.657219e+00   3.504821e-02
  5.028788e-01    1.688286e+00   3.528949e-02
  5.050893e-01    1.687847e+00   3.519908e-02
  5.072997e-01    1.669749e+00   3.492531e-02
  5.095102e-01    1.660023e+00   3.474004e-02
  5.117206e-01    1.696084e+00   3.503183e-02
  5.139311e-01    1.652397e+00   3.449590e-02
  5.161416e-01    1.660100e+00   3.449450e-02
  5.183520e-01    1.664448e+00   3.445756e-02
  5.205625e-01    1.640213e+00   3.412566e-02
  5.227729e-01    1.646308e+00   3.410926e-02
  5.249834e-01    1.630876e+00   3.387021e-02
  5.271938e-01    1.670722e+00   3.420148e-02
  5.294043e-01    1.688737e+00   3.430602e-02
  5.316148e-01    1.722443e+00   3.456734e-02
  5.338252e-01    1.783742e+00   3.509667e-02
  5.360357e-01    1.765996e+00   3.484215e-02
  5.382461e-01    1.730558e+00   3.441282e-02
  5.404566e-01    1.765585e+00   3.468024e-02
  5.426670e-01    1.742470e+00   3.437486e-02
  5.448775e-01    1.765157e+00   3.452061e-02
  5.470879e-01    1.741817e+00   3.421517e-02
  5.492984e-01    1.746921e+00   3.418904e-02
  5.515089e-01    1.765119e+00   3.429045e-02
  5.537193e-01    1.777026e+00   3.433009e-02
  5.559298e-01    1.801354e+00   3.448850e-02
  5.581402e-01    1.779434e+00   3.420310e-02
  5.603507e-01    1.765511e+00   3.399489e-02
  5.625611e-01    1.739104e+00   3.366650e-02
  5.647716e-01    1.741498e+00   3.361649e-02
  5.669821e-01    1.793274e+00   3.403903e-02
  5.691925e-01    1.772062e+00   3.376447e-02
  5.714030e-01    1.765573e+00   3.363074e-02
  5.736134e-01    1.700860e+00   3.293847e-02
  5.758239e-01    1.718588e+00   3.303898e-02
  5.780343e-01    1.714933e+00   3.293405e-02
  5.802448e-01    1.660334e+00   3.233769e-02
  5.824552e-01    1.659247e+00   3.225927e-02
  5.846657e-01    1.624856e+00   3.185667e-02
  5.868762e-01    1.601534e+00   3.156136e-02
  5.890866e-01    1.617428e+00   3.165178e-02
  5.912971e-01    1.625857e+00   3.166844e-02
  5.935075e-01    1.645439e+00   3.179272e-02
  5.957180e-01    1.680308e+00   3.206192e-02
  5.979284e-01    1.606336e+00   3.128428e-02
  6.001389e-01    1.632488e+00   3.147366e-02
  6.023494e-01    1.672677e+00   3.179405e-02
  6.045598e-01    1.632028e+00   3.134140e-02
  6.067703e-01    1.654016e+00   3.148837e-02
  6.089807e-01    1.686558e+00   3.173269e-02
  6.111912e-01    1.713373e+00   3.192010e-02
  6.134016e-01    1.716938e+00   3.188957e-02
  6.156121e-01    1.680889e+00   3.149029e-02
  6.178226e-01    1.674073e+00   3.136415e-02
  6.200330e-01    1.680641e+00   3.136364e-02
  6.222435e-01    1.675834e+00   3.125669e-02
  6.244539e-01    1.686272e+00   3.129251e-02
  6.266644e-01    1.671489e+00   3.109427e-02
  6.288748e-01    1.709363e+00   3.138337e-02
  6.310853e-01    1.693298e+00   3.117490e-02
  6.332957e-01    1.707446e+00   3.124443e-02
  6.355062e-01    1.721229e+00   3.130933e-02
  6.377167e-01    1.681135e+00   3.088317e-02
  6.399271e-01    1.682894e+00   3.084011e-02
  6.421376e-01    1.663923e+00   3.060726e-02
  6.443480e-01    1.640844e+00   3.033644e-02
  6.465585e-01    1.675007e+00   3.059252e-02
  6.487689e-01    1.721148e+00   3.095249e-02
  6.509794e-01    1.687915e+00   3.059440e-02
  6.531899e-01    1.646331e+00   3.015838e-02
  6.554003e-01    1.581718e+00   2.950504e-02
  6.576108e-01    1.552097e+00   2.917307e-02
  6.598212e-01    1.596978e+00   2.953683e-02
  6.620317e-01    1.599486e+00   2.950526e-02
  6.642421e-01    1.602045e+00   2.947419e-02
  6.664526e-01    1.608523e+00   2.947934e-02
  6.686630e-01    1.606962e+00   2.941054e-02
  6.708735e-01    1.576375e+00   2.907587e-02
  6.730840e-01    1.578980e+00   2.904682e-02
  6.752944e-01    1.607131e+00   2.925131e-02
  6.775049e-01    1.632663e+00   2.942922e-02
  6.797153e-01    1.648708e+00   2.951993e-02
  6.819258e-01    1.614437e+00   2.915884e-02
  6.841362e-01    1.594898e+00   2.892971e-02
  6.863467e-01    1.609003e+00   2.900532e-02
  6.885572e-01    1.589890e+00   2.878087e-02
  6.907676e-01    1.585191e+00   2.868680e-02
  6.929781e-01    1.566267e+00   2.846438e-02
  6.951885e-01    1.580610e+00   2.854377e-02
  6.973990e-01    1.578689e+00   2.847598e-02
  6.996094e-01    1.622449e+00   2.881716e-02
  7.018199e-01    1.584096e+00   2.842455e-02
  7.040303e-01    1.593989e+00   2.846307e-02
  7.062408e-01    1.583536e+00   2.831990e-02
  7.084513e-01    1.594607e+00   2.836929e-02
  7.106617e-01    1.582223e+00   2.820982e-02
  7.128722e-01    1.589510e+00   2.822578e-02
  7.150826e-01    1.547427e+00   2.780165e-02
  7.172931e-01    1.563635e+00   2.789866e-02
  7.195035e-01    1.566527e+00   2.787646e-02
  7.217140e-01    1.570193e+00   2.795843e-02
  7.239245e-01    1.573615e+00   2.821554e-02
  7.261349e-01    1.562935e+00   2.822785e-02
  7.283454e-01    1.536670e+00   2.806118e-02
  7.305558e-01    1.546772e+00   2.820677e-02
  7.327663e-01    1.579007e+00   2.854173e-02
  7.349767e-01    1.575298e+00   2.852458e-02
  7.371872e-01    1.567320e+00   2.844108e-02
  7.393976e-01    1.615352e+00   2.885916e-02
  7.416081e-01    1.545801e+00   2.821504e-02
  7.438186e-01    1.528472e+00   2.791423e-02
  7.460290e-01    1.564145e+00   2.794483e-02
  7.482395e-01    1.566199e+00   2.779248e-02
  7.504499e-01    1.546403e+00   2.748124e-02
  7.526604e-01    1.553784e+00   2.743095e-02
  7.548708e-01    1.556578e+00   2.736672e-02
  7.570813e-01    1.531819e+00   2.709792e-02
  7.592918e-01    1.564157e+00   2.734738e-02
  7.615022e-01    1.571587e+00   2.737851e-02
  7.637127e-01    1.572316e+00   2.735208e-02
  7.659231e-01    1.595322e+00   2.751926e-02
  7.681336e-01    1.559827e+00   2.717995e-02
  7.703440e-01    1.546346e+00   2.703130e-02
  7.725545e-01    1.547943e+00   2.701463e-02
  7.747650e-01    1.625336e+00   2.764290e-02
  7.769754e-01    1.591206e+00   2.729821e-02
  7.791859e-01    1.541068e+00   2.681176e-02
  7.813963e-01    1.552027e+00   2.685477e-02
  7.836068e-01    1.600094e+00   2.721521e-02
  7.858172e-01    1.604107e+00   2.719838e-02
  7.880277e-01    1.640001e+00   2.744865e-02
  7.902381e-01    1.707352e+00   2.795573e-02
  7.924486e-01    1.681439e+00   2.769143e-02
  7.946591e-01    1.619899e+00   2.713133e-02
  7.968695e-01    1.647577e+00   2.731319e-02
  7.990800e-01    1.621300e+00   2.704608e-02
  8.012904e-01    1.668119e+00   2.738635e-02
  8.035009e-01    1.665813e+00   2.731873e-02
  8.057113e-01    1.654911e+00   2.718211e-02
  8.079218e-01    1.623779e+00   2.687875e-02
  8.101323e-01    1.637085e+00   2.694282e-02
  8.123427e-01    1.681636e+00   2.726039e-02
  8.145532e-01    1.852049e+00   2.855935e-02
  8.167636e-01    1.911333e+00   2.896412e-02
  8.189741e-01    1.755170e+00   2.770943e-02
  8.211845e-01    1.679272e+00   2.705822e-02
  8.233950e-01    1.818751e+00   2.811369e-02
  8.256054e-01    1.791952e+00   2.785964e-02
  8.278159e-01    1.672708e+00   2.687228e-02
  8.300264e-01    1.645561e+00   2.661012e-02
  8.322368e-01    1.620709e+00   2.636554e-02
  8.344473e-01    1.622568e+00   2.633749e-02
  8.366577e-01    1.643926e+00   2.646762e-02
  8.388682e-01    1.643299e+00   2.642028e-02
  8.410786e-01    1.612014e+00   2.612587e-02
  8.432891e-01    1.645753e+00   2.635591e-02
  8.454996e-01    1.640417e+00   2.627151e-02
  8.477100e-01    1.641287e+00   2.623678e-02
  8.499205e-01    1.634093e+00   2.613809e-02
  8.521309e-01    1.624253e+00   2.601867e-02
  8.543414e-01    1.600660e+00   2.578869e-02
  8.565518e-01    1.609807e+00   2.582201e-02
  8.587623e-01    1.598827e+00   2.569374e-02
  8.609727e-01    1.611260e+00   2.575345e-02
  8.631832e-01    1.640200e+00   2.594362e-02
  8.653937e-01    1.660215e+00   2.606134e-02
  8.676041e-01    1.665973e+00   2.606709e-02
  8.698146e-01    1.781149e+00   2.691188e-02
  8.720250e-01    1.768105e+00   2.677235e-02
  8.742355e-01    1.642576e+00   2.576521e-02
  8.764459e-01    1.581700e+00   2.524466e-02
  8.786564e-01    1.590984e+00   2.528089e-02
  8.808669e-01    1.587508e+00   2.521497e-02
  8.830773e-01    1.609428e+00   2.535024e-02
  8.852878e-01    1.598437e+00   2.522565e-02
  8.874982e-01    1.564493e+00   2.492015e-02
  8.897087e-01    1.568883e+00   2.491779e-02
  8.919191e-01    1.590542e+00   2.505154e-02
  8.941296e-01    1.587268e+00   2.498864e-02
  8.963401e-01    1.558690e+00   2.472670e-02
  8.985505e-01    1.593717e+00   2.496608e-02
  9.007610e-01    1.611405e+00   2.506740e-02
  9.029714e-01    1.589450e+00   2.486032e-02
  9.051819e-01    1.563626e+00   2.462075e-02
  9.073923e-01    1.574796e+00   2.467223e-02
  9.096028e-01    1.589855e+00   2.475511e-02
  9.118132e-01    1.594806e+00   2.475747e-02
  9.140237e-01    1.594572e+00   2.471909e-02
  9.162342e-01    1.590914e+00   2.465626e-02
  9.184446e-01    1.613016e+00   2.479104e-02
  9.206551e-01    1.634230e+00   2.491756e-02
  9.228655e-01    1.619763e+00   2.477157e-02
  9.250760e-01    1.629273e+00   2.480852e-02
  9.272864e-01    1.626380e+00   2.475199e-02
  9.294969e-01    1.632724e+00   2.476405e-02
  9.317074e-01    1.619532e+00   2.462898e-02
  9.339178e-01    1.605296e+00   2.448698e-02
  9.361283e-01    1.632377e+00   2.465626e-02
  9.383387e-01    1.631561e+00   2.461658e-02
  9.405492e-01    1.628262e+00   2.455733e-02
  9.427596e-01    1.677927e+00   2.489316e-02
  9.449701e-01    1.685631e+00   2.491632e-02
  9.471805e-01    1.696018e+00   2.495759e-02
  9.493910e-01    1.709313e+00   2.502082e-02
  9.516015e-01    1.695189e+00   2.488247e-02
  9.538119e-01    1.663309e+00   2.461360e-02
  9.560224e-01    1.684405e+00   2.473432e-02
  9.582328e-01    1.729969e+00   2.503300e-02
  9.604433e-01    1.747657e+00   2.512503e-02
  9.626537e-01    1.787795e+00   2.537773e-02
  9.648642e-01    1.756884e+00   2.512295e-02
  9.670747e-01    1.795530e+00   2.536271e-02
  9.692851e-01    1.790708e+00   2.529499e-02
  9.714956e-01    1.801892e+00   2.533806e-02
  9.737060e-01    1.793129e+00   2.524318e-02
  9.759165e-01    1.847564e+00   2.558732e-02
  9.781269e-01    1.829038e+00   2.542543e-02
  9.803374e-01    1.819004e+00   2.532052e-02
  9.825478e-01    1.814631e+00   2.525670e-02
  9.847583e-01    1.891299e+00   2.574970e-02
  9.869688e-01    1.910605e+00   2.584620e-02
  9.891792e-01    1.773246e+00   2.486667e-02
  9.913897e-01    1.762379e+00   2.475691e-02
  9.936001e-01    1.716372e+00   2.439965e-02
  9.958106e-01    1.697142e+00   2.422960e-02
  9.980210e-01    1.667956e+00   2.398919e-02
  1.000231e+00    1.612617e+00   2.371709e-02
  1.002442e+00    1.618700e+00   2.388803e-02
  1.004652e+00    1.608862e+00   2.388177e-02
  1.006863e+00    1.596669e+00   2.384045e-02
  1.009073e+00    1.598104e+00   2.388769e-02
  1.011284e+00    1.580130e+00   2.378472e-02
  1.013494e+00    1.562139e+00   2.367238e-02
  1.015705e+00    1.542383e+00   2.354445e-02
  1.017915e+00    1.538252e+00   2.352910e-02
  1.020126e+00    1.543100e+00   2.358207e-02
  1.022336e+00    1.549522e+00   2.364274e-02
  1.024547e+00    1.547494e+00   2.363846e-02
  1.026757e+00    1.539098e+00   2.358261e-02
  1.028967e+00    1.520510e+00   2.344738e-02
  1.031178e+00    1.519541e+00   2.344605e-02
  1.033388e+00    1.547049e+00   2.366238e-02
  1.035599e+00    1.554715e+00   2.372441e-02
  1.037809e+00    1.572848e+00   2.386566e-02
  1.040020e+00    1.541981e+00   2.363161e-02
  1.042230e+00    1.520627e+00   2.346934e-02
  1.044441e+00    1.507703e+00   2.336916e-02
  1.046651e+00    1.551229e+00   2.370427e-02
  1.048862e+00    1.549609e+00   2.369108e-02
  1.051072e+00    1.668886e+00   2.458342e-02
  1.053282e+00    1.891563e+00   2.617108e-02
  1.055493e+00    1.924271e+00   2.639161e-02
  1.057703e+00    1.703978e+00   2.483342e-02
  1.059914e+00    1.553087e+00   2.370403e-02
  1.062124e+00    1.524518e+00   2.348088e-02
  1.064335e+00    1.488254e+00   2.319649e-02
  1.066545e+00    1.474189e+00   2.308064e-02
  1.068756e+00    1.449143e+00   2.288004e-02
  1.070966e+00    1.391443e+00   2.241356e-02
  1.073177e+00    1.436300e+00   2.276596e-02
  1.075387e+00    1.472652e+00   2.304707e-02
  1.077597e+00    1.451684e+00   2.287518e-02
  1.079808e+00    1.469620e+00   2.288307e-02
  1.082018e+00    1.481468e+00   2.278484e-02
  1.084229e+00    1.568790e+00   2.333267e-02
  1.086439e+00    1.611822e+00   2.355852e-02
  1.088650e+00    1.572656e+00   2.319186e-02
  1.090860e+00    1.537305e+00   2.286019e-02
  1.093071e+00    1.508960e+00   2.258504e-02
  1.095281e+00    1.453569e+00   2.210923e-02
  1.097492e+00    1.442882e+00   2.197293e-02
  1.099702e+00    1.423406e+00   2.177305e-02
  1.101912e+00    1.394211e+00   2.150052e-02
  1.104123e+00    1.417122e+00   2.162855e-02
  1.106333e+00    1.410057e+00   2.153051e-02
  1.108544e+00    1.412053e+00   2.150176e-02
  1.110754e+00    1.421552e+00   2.153102e-02
  1.112965e+00    1.377228e+00   2.115280e-02
  1.115175e+00    1.390510e+00   2.121381e-02
  1.117386e+00    1.343861e+00   2.081667e-02
  1.119596e+00    1.387994e+00   2.111814e-02
  1.121807e+00    1.406193e+00   2.121740e-02
  1.124017e+00    1.428919e+00   2.135123e-02
  1.126228e+00    1.415115e+00   2.121197e-02
  1.128438e+00    1.390765e+00   2.099203e-02
  1.130648e+00    1.443659e+00   2.135263e-02
  1.132859e+00    1.442160e+00   2.130665e-02
  1.135069e+00    1.438058e+00   2.124102e-02
  1.137280e+00    1.389348e+00   2.084522e-02
  1.139490e+00    1.380266e+00   2.074396e-02
  1.141701e+00    1.379723e+00   2.070684e-02
  1.143911e+00    1.348861e+00   2.044248e-02
  1.146122e+00    1.359655e+00   2.049234e-02
  1.148332e+00    1.359567e+00   2.046003e-02
  1.150543e+00    1.362457e+00   2.045110e-02
  1.152753e+00    1.349468e+00   2.032284e-02
  1.154963e+00    1.363719e+00   2.039892e-02
  1.157174e+00    1.380699e+00   2.049530e-02
  1.159384e+00    1.370006e+00   2.038596e-02
  1.161595e+00    1.350764e+00   2.021265e-02
  1.163805e+00    1.348548e+00   2.016700e-02
  1.166016e+00    1.374109e+00   2.032775e-02
  1.168226e+00    1.349457e+00   2.011580e-02
  1.170437e+00    1.366341e+00   2.021262e-02
  1.172647e+00    1.373004e+00   2.023287e-02
  1.174858e+00    1.512850e+00   2.120860e-02
  1.177068e+00    2.092931e+00   2.491034e-02
  1.179278e+00    2.948360e+00   2.952409e-02
  1.181489e+00    2.909694e+00   2.929061e-02
  1.183699e+00    2.199912e+00   2.543374e-02
  1.185910e+00    1.683316e+00   2.221697e-02
  1.188120e+00    1.502842e+00   2.096408e-02
  1.190331e+00    1.425250e+00   2.038828e-02
  1.192541e+00    1.366511e+00   1.993621e-02
  1.194752e+00    1.338282e+00   1.970231e-02
  1.196962e+00    1.327680e+00   1.959859e-02
  1.199173e+00    1.327929e+00   1.957415e-02
  1.201383e+00    1.332818e+00   1.958316e-02
  1.203593e+00    1.346650e+00   1.965973e-02
  1.205804e+00    1.353013e+00   1.968018e-02
  1.208014e+00    1.346705e+00   1.960742e-02
  1.210225e+00    1.330293e+00   1.946244e-02
  1.212435e+00    1.337690e+00   1.949181e-02
  1.214646e+00    1.353204e+00   1.957836e-02
  1.216856e+00    1.361250e+00   1.961091e-02
  1.219067e+00    1.378648e+00   1.971110e-02
  1.221277e+00    1.386286e+00   1.974026e-02
  1.223488e+00    1.410414e+00   1.988500e-02
  1.225698e+00    1.384071e+00   1.967119e-02
  1.227909e+00    1.347700e+00   1.938086e-02
  1.230119e+00    1.354334e+00   1.939660e-02
  1.232329e+00    1.379527e+00   1.954510e-02
  1.234540e+00    1.392019e+00   1.960265e-02
  1.236750e+00    1.438827e+00   1.989824e-02
  1.238961e+00    1.558018e+00   2.067702e-02
  1.241171e+00    1.584618e+00   2.082667e-02
  1.243382e+00    1.437348e+00   1.981102e-02
  1.245592e+00    1.382119e+00   1.940228e-02
  1.247803e+00    1.356360e+00   1.919691e-02
  1.250013e+00    1.345693e+00   1.909776e-02
  1.252224e+00    1.365234e+00   1.921254e-02
  1.254434e+00    1.360875e+00   1.915802e-02
  1.256644e+00    1.325538e+00   1.888464e-02
  1.258855e+00    1.328342e+00   1.888153e-02
  1.261065e+00    1.341934e+00   1.895458e-02
  1.263276e+00    1.319302e+00   1.877140e-02
  1.265486e+00    1.295146e+00   1.857634e-02
  1.267697e+00    1.322153e+00   1.874624e-02
  1.269907e+00    1.310029e+00   1.863773e-02
  1.272118e+00    1.321240e+00   1.869498e-02
  1.274328e+00    1.325818e+00   1.870481e-02
  1.276539e+00    1.359929e+00   1.892103e-02
  1.278749e+00    1.351691e+00   1.884135e-02
  1.280959e+00    1.335967e+00   1.870902e-02
  1.283170e+00    1.335665e+00   1.868458e-02
  1.285380e+00    1.347375e+00   1.874389e-02
  1.287591e+00    1.337670e+00   1.865432e-02
  1.289801e+00    1.351439e+00   1.872886e-02
  1.292012e+00    1.352277e+00   1.871754e-02
  1.294222e+00    1.350447e+00   1.868864e-02
  1.296433e+00    1.356774e+00   1.871672e-02
  1.298643e+00    1.375543e+00   1.882912e-02
  1.300854e+00    1.348422e+00   1.862617e-02
  1.303064e+00    1.341266e+00   1.855752e-02
  1.305274e+00    1.338479e+00   1.851686e-02
  1.307485e+00    1.358244e+00   1.863148e-02
  1.309695e+00    1.369235e+00   1.868432e-02
  1.311906e+00    1.333396e+00   1.841661e-02
  1.314116e+00    1.369114e+00   1.864067e-02
  1.316327e+00    1.356249e+00   1.853119e-02
  1.318537e+00    1.336203e+00   1.837192e-02
  1.320748e+00    1.374050e+00   1.860855e-02
  1.322958e+00    1.391677e+00   1.870671e-02
  1.325169e+00    1.392705e+00   1.869225e-02
  1.327379e+00    1.413415e+00   1.880841e-02
  1.329589e+00    1.381976e+00   1.857675e-02
  1.331800e+00    1.378588e+00   1.853304e-02
  1.334010e+00    1.354987e+00   1.835303e-02
  1.336221e+00    1.356065e+00   1.833852e-02
  1.338431e+00    1.340607e+00   1.821292e-02
  1.340642e+00    1.335272e+00   1.824044e-02
  1.342852e+00    1.350239e+00   1.844307e-02
  1.345063e+00    1.349617e+00   1.848830e-02
  1.347273e+00    1.353733e+00   1.855177e-02
  1.349484e+00    1.328487e+00   1.840542e-02
  1.351694e+00    1.350897e+00   1.858271e-02
  1.353905e+00    1.350441e+00   1.859759e-02
  1.356115e+00    1.330459e+00   1.847442e-02
  1.358325e+00    1.342256e+00   1.856942e-02
  1.360536e+00    1.344662e+00   1.859766e-02
  1.362746e+00    1.337634e+00   1.855851e-02
  1.364957e+00    1.354103e+00   1.868010e-02
  1.367167e+00    1.320488e+00   1.845385e-02
  1.369378e+00    1.318759e+00   1.844772e-02
  1.371588e+00    1.308107e+00   1.837814e-02
  1.373799e+00    1.319802e+00   1.846375e-02
  1.376009e+00    1.312123e+00   1.841332e-02
  1.378220e+00    1.302549e+00   1.834851e-02
  1.380430e+00    1.318779e+00   1.846517e-02
  1.382640e+00    1.293882e+00   1.829094e-02
  1.384851e+00    1.295379e+00   1.830237e-02
  1.387061e+00    1.284865e+00   1.822826e-02
  1.389272e+00    1.292053e+00   1.827936e-02
  1.391482e+00    1.297154e+00   1.831475e-02
  1.393693e+00    1.278375e+00   1.818082e-02
  1.395903e+00    1.269251e+00   1.811433e-02
  1.398114e+00    1.275371e+00   1.815658e-02
  1.400324e+00    1.280294e+00   1.818945e-02
  1.402535e+00    1.286027e+00   1.822783e-02
  1.404745e+00    1.266414e+00   1.808592e-02
  1.406955e+00    1.279711e+00   1.817792e-02
  1.409166e+00    1.267367e+00   1.808674e-02
  1.411376e+00    1.261831e+00   1.804409e-02
  1.413587e+00    1.269396e+00   1.809428e-02
  1.415797e+00    1.263911e+00   1.805161e-02
  1.418008e+00    1.263862e+00   1.800951e-02
  1.420218e+00    1.257871e+00   1.781776e-02
  1.422429e+00    1.252112e+00   1.769220e-02
  1.424639e+00    1.255709e+00   1.765328e-02
  1.426850e+00    1.271894e+00   1.771193e-02
  1.429060e+00    1.282981e+00   1.773973e-02
  1.431270e+00    1.279262e+00   1.766953e-02
  1.433481e+00    1.273705e+00   1.759010e-02
  1.435691e+00    1.278840e+00   1.758696e-02
  1.437902e+00    1.242624e+00   1.730009e-02
  1.440112e+00    1.256209e+00   1.735922e-02
  1.442323e+00    1.274402e+00   1.745139e-02
  1.444533e+00    1.252038e+00   1.726526e-02
  1.446744e+00    1.257782e+00   1.727384e-02
  1.448954e+00    1.285620e+00   1.743357e-02
  1.451165e+00    1.278355e+00   1.735439e-02
  1.453375e+00    1.266248e+00   1.724401e-02
  1.455586e+00    1.275901e+00   1.728138e-02
  1.457796e+00    1.264282e+00   1.717508e-02
  1.460006e+00    1.260410e+00   1.712159e-02
  1.462217e+00    1.258430e+00   1.708206e-02
  1.464427e+00    1.240036e+00   1.693143e-02
  1.466638e+00    1.266672e+00   1.708702e-02
  1.468848e+00    1.254984e+00   1.698282e-02
  1.471059e+00    1.235684e+00   1.682696e-02
  1.473269e+00    1.256605e+00   1.694455e-02
  1.475480e+00    1.260116e+00   1.694453e-02
  1.477690e+00    1.249542e+00   1.684962e-02
  1.479901e+00    1.253491e+00   1.685251e-02
  1.482111e+00    1.254616e+00   1.683688e-02
  1.484321e+00    1.238419e+00   1.670499e-02
  1.486532e+00    1.246610e+00   1.673798e-02
  1.488742e+00    1.244017e+00   1.669811e-02
  1.490953e+00    1.251093e+00   1.672304e-02
  1.493163e+00    1.249566e+00   1.669067e-02
  1.495374e+00    1.263692e+00   1.676325e-02
  1.497584e+00    1.265711e+00   1.675496e-02
  1.499795e+00    1.262841e+00   1.671428e-02
  1.502005e+00    1.280328e+00   1.680774e-02
  1.504216e+00    1.272676e+00   1.673630e-02
  1.506426e+00    1.324143e+00   1.704996e-02
  1.508636e+00    1.396284e+00   1.748673e-02
  1.510847e+00    1.407443e+00   1.753339e-02
  1.513057e+00    1.374499e+00   1.730074e-02
  1.515268e+00    1.305836e+00   1.683685e-02
  1.517478e+00    1.281328e+00   1.665266e-02
  1.519689e+00    1.241050e+00   1.636402e-02
  1.521899e+00    1.260041e+00   1.646555e-02
  1.524110e+00    1.269480e+00   1.650667e-02
  1.526320e+00    1.238847e+00   1.628681e-02
  1.528531e+00    1.245695e+00   1.631202e-02
  1.530741e+00    1.259203e+00   1.638102e-02
  1.532951e+00    1.242826e+00   1.625463e-02
  1.535162e+00    1.218476e+00   1.618011e-02
  1.537372e+00    1.202649e+00   1.614033e-02
  1.539583e+00    1.221423e+00   1.629968e-02
  1.541793e+00    1.222901e+00   1.631643e-02
  1.544004e+00    1.228534e+00   1.635422e-02
  1.546214e+00    1.224628e+00   1.632671e-02
  1.548425e+00    1.222080e+00   1.630997e-02
  1.550635e+00    1.235348e+00   1.640790e-02
  1.552846e+00    1.236746e+00   1.642681e-02
  1.555056e+00    1.226985e+00   1.632069e-02
  1.557266e+00    1.219056e+00   1.615853e-02
  1.559477e+00    1.222504e+00   1.612278e-02
  1.561687e+00    1.239099e+00   1.620125e-02
  1.563898e+00    1.215255e+00   1.602765e-02
  1.566108e+00    1.230689e+00   1.611322e-02
  1.568319e+00    1.259192e+00   1.628304e-02
  1.570529e+00    1.262787e+00   1.628096e-02
  1.572740e+00    1.233557e+00   1.606393e-02
  1.574950e+00    1.242858e+00   1.609807e-02
  1.577161e+00    1.260426e+00   1.618582e-02
  1.579371e+00    1.248969e+00   1.608838e-02
  1.581582e+00    1.227239e+00   1.592819e-02
  1.583792e+00    1.217239e+00   1.584533e-02
  1.586002e+00    1.212881e+00   1.579955e-02
  1.588213e+00    1.235361e+00   1.592809e-02
  1.590423e+00    1.241520e+00   1.594772e-02
  1.592634e+00    1.221364e+00   1.579631e-02
  1.594844e+00    1.216724e+00   1.574510e-02
  1.597055e+00    1.219411e+00   1.574218e-02
  1.599265e+00    1.226964e+00   1.577025e-02
  1.601476e+00    1.214450e+00   1.566953e-02
  1.603686e+00    1.243019e+00   1.583298e-02
  1.605897e+00    1.241648e+00   1.580407e-02
  1.608107e+00    1.230944e+00   1.571630e-02
  1.610317e+00    1.210708e+00   1.556747e-02
  1.612528e+00    1.217924e+00   1.559475e-02
  1.614738e+00    1.223147e+00   1.560929e-02
  1.616949e+00    1.195196e+00   1.541115e-02
  1.619159e+00    1.197729e+00   1.540895e-02
  1.621370e+00    1.186365e+00   1.531748e-02
  1.623580e+00    1.174101e+00   1.522007e-02
  1.625791e+00    1.171679e+00   1.518637e-02
  1.628001e+00    1.184275e+00   1.524968e-02
  1.630212e+00    1.155816e+00   1.504787e-02
  1.632422e+00    1.130936e+00   1.486753e-02
  1.634632e+00    1.156870e+00   1.501991e-02
  1.636843e+00    1.149075e+00   1.495189e-02
  1.639053e+00    1.169072e+00   1.506418e-02
  1.641264e+00    1.167413e+00   1.503642e-02
  1.643474e+00    1.142859e+00   1.486020e-02
  1.645685e+00    1.137811e+00   1.481084e-02
  1.647895e+00    1.123966e+00   1.470407e-02
  1.650106e+00    1.119869e+00   1.466049e-02
  1.652316e+00    1.098194e+00   1.450180e-02
  1.654527e+00    1.093398e+00   1.445378e-02
  1.656737e+00    1.119756e+00   1.461052e-02
  1.658947e+00    1.103896e+00   1.449061e-02
  1.661158e+00    1.097750e+00   1.443417e-02
  1.663368e+00    1.082261e+00   1.431624e-02
  1.665579e+00    1.081861e+00   1.429772e-02
  1.667789e+00    1.097223e+00   1.438275e-02
  1.670000e+00    1.114397e+00   1.447941e-02
  1.672210e+00    1.076848e+00   1.421772e-02
  1.674421e+00    1.080200e+00   1.422467e-02
  1.676631e+00    1.085985e+00   1.424696e-02
  1.678842e+00    1.070962e+00   1.413251e-02
  1.681052e+00    1.071061e+00   1.411793e-02
  1.683263e+00    1.073726e+00   1.412045e-02
  1.685473e+00    1.117880e+00   1.439247e-02
  1.687683e+00    1.099940e+00   1.426101e-02
  1.689894e+00    1.075624e+00   1.408674e-02
  1.692104e+00    1.056606e+00   1.394690e-02
  1.694315e+00    1.044702e+00   1.385377e-02
  1.696525e+00    1.022022e+00   1.368777e-02
  1.698736e+00    1.021459e+00   1.366947e-02
  1.700946e+00    1.026733e+00   1.368981e-02
  1.703157e+00    1.027272e+00   1.367899e-02
  1.705367e+00    1.026619e+00   1.366031e-02
  1.707578e+00    1.017277e+00   1.358367e-02
  1.709788e+00    1.020647e+00   1.359221e-02
  1.711998e+00    1.012966e+00   1.352618e-02
  1.714209e+00    9.947273e-01   1.338973e-02
  1.716419e+00    9.980221e-01   1.339786e-02
  1.718630e+00    1.017201e+00   1.351182e-02
  1.720840e+00    9.899470e-01   1.331567e-02
  1.723051e+00    9.946060e-01   1.333330e-02
  1.725261e+00    1.018599e+00   1.347849e-02
  1.727472e+00    1.003975e+00   1.336733e-02
  1.729682e+00    9.752938e-01   1.316180e-02
  1.731893e+00    9.869066e-01   1.322619e-02
  1.734103e+00    9.939757e-01   1.325979e-02
  1.736313e+00    9.896137e-01   1.321678e-02
  1.738524e+00    9.775682e-01   1.312242e-02
  1.740734e+00    9.902981e-01   1.319396e-02
  1.742945e+00    9.760447e-01   1.308534e-02
  1.745155e+00    9.729652e-01   1.305137e-02
  1.747366e+00    9.603850e-01   1.295311e-02
  1.749576e+00    9.813595e-01   1.308013e-02
  1.751787e+00    1.043978e+00   1.347723e-02
  1.753997e+00    1.053793e+00   1.352660e-02
  1.756208e+00    1.002455e+00   1.317960e-02
  1.758418e+00    9.596739e-01   1.288228e-02
  1.760628e+00    9.567391e-01   1.284928e-02
  1.762839e+00    9.537949e-01   1.281637e-02
  1.765049e+00    9.751264e-01   1.294567e-02
  1.767260e+00    9.652106e-01   1.286686e-02
  1.769470e+00    9.235058e-01   1.257305e-02
  1.771681e+00    9.282213e-01   1.259211e-02
  1.773891e+00    9.363098e-01   1.263391e-02
  1.776102e+00    9.303363e-01   1.258079e-02
  1.778312e+00    9.090477e-01   1.242353e-02
  1.780523e+00    9.646839e-01   1.278513e-02
  1.782733e+00    1.041249e+00   1.326948e-02
  1.784944e+00    1.002325e+00   1.300578e-02
  1.787154e+00    9.623598e-01   1.273113e-02
  1.789364e+00    9.230844e-01   1.245619e-02
  1.791575e+00    9.200604e-01   1.242328e-02
  1.793785e+00    9.188805e-01   1.240293e-02
  1.795996e+00    9.201062e-01   1.239869e-02
  1.798206e+00    9.349725e-01   1.248582e-02
  1.800417e+00    9.243764e-01   1.240214e-02
  1.802627e+00    9.184131e-01   1.235010e-02
  1.804838e+00    9.253417e-01   1.238441e-02
  1.807048e+00    9.047196e-01   1.223281e-02
  1.809259e+00    1.187124e+00   1.399680e-02
  1.811469e+00    1.775746e+00   1.709789e-02
  1.813679e+00    1.611055e+00   1.626603e-02
  1.815890e+00    1.024554e+00   1.295580e-02
  1.818100e+00    8.715024e-01   1.193399e-02
  1.820311e+00    8.750129e-01   1.194340e-02
  1.822521e+00    8.572022e-01   1.180665e-02
  1.824732e+00    8.674412e-01   1.186233e-02
  1.826942e+00    8.782434e-01   1.192368e-02
  1.829153e+00    8.548462e-01   1.175231e-02
  1.831363e+00    8.619416e-01   1.178908e-02
  1.833574e+00    8.667092e-01   1.181007e-02
  1.835784e+00    8.638380e-01   1.177916e-02
  1.837994e+00    8.522931e-01   1.168864e-02
  1.840205e+00    8.672153e-01   1.177939e-02
  1.842415e+00    8.539352e-01   1.167722e-02
  1.844626e+00    8.490312e-01   1.163223e-02
  1.846836e+00    8.528132e-01   1.164675e-02
  1.849047e+00    8.610744e-01   1.169149e-02
  1.851257e+00    8.497580e-01   1.160490e-02
  1.853468e+00    8.367664e-01   1.150718e-02
  1.855678e+00    8.422031e-01   1.153570e-02
  1.857889e+00    8.455706e-01   1.155032e-02
  1.860099e+00    8.360301e-01   1.147645e-02
  1.862309e+00    8.332823e-01   1.144917e-02
  1.864520e+00    8.339626e-01   1.144539e-02
  1.866730e+00    8.395628e-01   1.147443e-02
  1.868941e+00    8.569340e-01   1.158158e-02
  1.871151e+00    8.593330e-01   1.158633e-02
  1.873362e+00    8.761703e-01   1.168777e-02
  1.875572e+00    8.712609e-01   1.164391e-02
  1.877783e+00    8.824934e-01   1.170705e-02
  1.879993e+00    8.945960e-01   1.177560e-02
  1.882204e+00    8.845991e-01   1.169849e-02
  1.884414e+00    8.637760e-01   1.154876e-02
  1.886624e+00    8.374512e-01   1.136040e-02
  1.888835e+00    8.210780e-01   1.123796e-02
  1.891045e+00    8.134720e-01   1.117506e-02
  1.893256e+00    8.104175e-01   1.114315e-02
  1.895466e+00    8.280910e-01   1.125291e-02
  1.897677e+00    8.233084e-01   1.120952e-02
  1.899887e+00    8.276959e-01   1.122840e-02
  1.902098e+00    8.490577e-01   1.136142e-02
  1.904308e+00    8.484483e-01   1.134666e-02
  1.906519e+00    8.501199e-01   1.134684e-02
  1.908729e+00    9.234627e-01   1.181496e-02
  1.910940e+00    9.249418e-01   1.181273e-02
  1.913150e+00    8.668159e-01   1.142468e-02
  1.915360e+00    8.629574e-01   1.138831e-02
  1.917571e+00    8.565804e-01   1.133511e-02
  1.919781e+00    8.281388e-01   1.113459e-02
  1.921992e+00    8.230156e-01   1.108946e-02
  1.924202e+00    8.062508e-01   1.096524e-02
  1.926413e+00    7.982202e-01   1.090031e-02
  1.928623e+00    8.100627e-01   1.097034e-02
  1.930834e+00    8.023068e-01   1.090736e-02
  1.933044e+00    7.811991e-01   1.075245e-02
  1.935255e+00    7.808148e-01   1.073965e-02
  1.937465e+00    7.830527e-01   1.074480e-02
  1.939675e+00    7.940351e-01   1.080913e-02
  1.941886e+00    7.981330e-01   1.082674e-02
  1.944096e+00    7.879998e-01   1.074772e-02
  1.946307e+00    7.956702e-01   1.078959e-02
  1.948517e+00    7.889725e-01   1.073373e-02
  1.950728e+00    7.777652e-01   1.064709e-02
  1.952938e+00    8.008313e-01   1.079371e-02
  1.955149e+00    8.037748e-01   1.080325e-02
  1.957359e+00    7.989314e-01   1.076061e-02
  1.959570e+00    7.720317e-01   1.056718e-02
  1.961780e+00    7.819383e-01   1.062491e-02
  1.963990e+00    7.814813e-01   1.061176e-02
  1.966201e+00    7.752207e-01   1.055921e-02
  1.968411e+00    7.761341e-01   1.055535e-02
  1.970622e+00    7.736970e-01   1.052877e-02
  1.972832e+00    7.815674e-01   1.057225e-02
  1.975043e+00    7.766535e-01   1.052899e-02
  1.977253e+00    7.625525e-01   1.042316e-02
  1.979464e+00    7.802380e-01   1.053331e-02
  1.981674e+00    7.885024e-01   1.057865e-02
  1.983885e+00    7.726365e-01   1.046174e-02
  1.986095e+00    7.746088e-01   1.046540e-02
  1.988305e+00    7.813517e-01   1.050095e-02
  1.990516e+00    7.823118e-01   1.049746e-02
  1.992726e+00    7.806556e-01   1.047665e-02
  1.994937e+00    7.688235e-01   1.038687e-02
  1.997147e+00    7.668780e-01   1.036406e-02
  1.999358e+00    7.639530e-01   1.033449e-02
  2.001568e+00    7.709525e-01   1.037092e-02
  2.003779e+00    7.748303e-01   1.038504e-02
  2.005989e+00    7.856207e-01   1.044498e-02
  2.008200e+00    7.585515e-01   1.025202e-02
  2.010410e+00    7.473239e-01   1.016428e-02
  2.012621e+00    7.669562e-01   1.028523e-02
  2.014831e+00    7.542234e-01   1.018812e-02
  2.017041e+00    7.584888e-01   1.020657e-02
  2.019252e+00    7.510447e-01   1.014649e-02
  2.021462e+00    7.598898e-01   1.019659e-02
  2.023673e+00    7.483580e-01   1.010964e-02
  2.025883e+00    7.442527e-01   1.007246e-02
  2.028094e+00    7.461199e-01   1.007556e-02
  2.030304e+00    7.405163e-01   1.002825e-02
  2.032515e+00    7.586465e-01   1.014097e-02
  2.034725e+00    7.745482e-01   1.023717e-02
  2.036936e+00    7.600474e-01   1.013155e-02
  2.039146e+00    7.555773e-01   1.009214e-02
  2.041356e+00    7.567393e-01   1.009025e-02
  2.043567e+00    7.479261e-01   1.002208e-02
  2.045777e+00    7.584643e-01   1.008315e-02
  2.047988e+00    7.432207e-01   9.972033e-03
  2.050198e+00    7.392104e-01   9.936732e-03
  2.052409e+00    7.378799e-01   9.920206e-03
  2.054619e+00    7.298238e-01   9.858645e-03
  2.056830e+00    7.375574e-01   9.903615e-03
  2.059040e+00    7.284404e-01   9.834840e-03
  2.061251e+00    7.326077e-01   9.855745e-03
  2.063461e+00    7.482870e-01   9.953069e-03
  2.065671e+00    7.457213e-01   9.927281e-03
  2.067882e+00    7.483004e-01   9.935447e-03
  2.070092e+00    7.335714e-01   9.828079e-03
  2.072303e+00    7.170154e-01   9.707564e-03
  2.074513e+00    7.369618e-01   9.832399e-03
  2.076724e+00    7.341167e-01   9.804009e-03
  2.078934e+00    7.460792e-01   9.874536e-03
  2.081145e+00    7.507418e-01   9.896226e-03
  2.083355e+00    7.497326e-01   9.880332e-03
  2.085566e+00    7.701823e-01   1.000509e-02
  2.087776e+00    8.000256e-01   1.018721e-02
  2.089986e+00    7.901133e-01   1.011483e-02
  2.092197e+00    7.901500e-01   1.010579e-02
  2.094407e+00    7.620717e-01   9.915235e-03
  2.096618e+00    7.429478e-01   9.781071e-03
  2.098828e+00    7.394786e-01   9.748874e-03
  2.101039e+00    7.240401e-01   9.637641e-03
  2.103249e+00    7.233111e-01   9.624170e-03
  2.105460e+00    7.094002e-01   9.522282e-03
  2.107670e+00    7.185137e-01   9.574569e-03
  2.109881e+00    7.140463e-01   9.535687e-03
  2.112091e+00    7.113649e-01   9.508872e-03
  2.114301e+00    7.150900e-01   9.524996e-03
  2.116512e+00    7.226470e-01   9.566413e-03
  2.118722e+00    7.181812e-01   9.528009e-03
  2.120933e+00    7.009544e-01   9.404307e-03
  2.123143e+00    7.128147e-01   9.474649e-03
  2.125354e+00    7.099594e-01   9.447176e-03
  2.127564e+00    7.150294e-01   9.472123e-03
  2.129775e+00    7.041250e-01   9.390982e-03
  2.131985e+00    7.005719e-01   9.358271e-03
  2.134196e+00    6.976790e-01   9.330442e-03
  2.136406e+00    7.028955e-01   9.356566e-03
  2.138617e+00    6.878879e-01   9.247837e-03
  2.140827e+00    6.805339e-01   9.213992e-03
  2.143037e+00    6.854520e-01   9.291996e-03
  2.145248e+00    6.917368e-01   9.356280e-03
  2.147458e+00    7.130525e-01   9.514568e-03
  2.149669e+00    7.085683e-01   9.496521e-03
  2.151879e+00    7.085549e-01   9.505676e-03
  2.154090e+00    7.087530e-01   9.514379e-03
  2.156300e+00    6.940536e-01   9.421775e-03
  2.158511e+00    6.990324e-01   9.460782e-03
  2.160721e+00    6.981361e-01   9.459564e-03
  2.162932e+00    6.885083e-01   9.397807e-03
  2.165142e+00    6.848002e-01   9.375458e-03
  2.167352e+00    6.923203e-01   9.429701e-03
  2.169563e+00    6.935651e-01   9.440132e-03
  2.171773e+00    6.848605e-01   9.383141e-03
  2.173984e+00    6.778902e-01   9.336652e-03
  2.176194e+00    6.947027e-01   9.452934e-03
  2.178405e+00    6.841244e-01   9.381372e-03
  2.180615e+00    7.025493e-01   9.507558e-03
  2.182826e+00    6.826550e-01   9.372649e-03
  2.185036e+00    6.852991e-01   9.390843e-03
  2.187247e+00    6.778445e-01   9.339565e-03
  2.189457e+00    6.726558e-01   9.303357e-03
  2.191667e+00    6.650571e-01   9.250478e-03
  2.193878e+00    6.631429e-01   9.236618e-03
  2.196088e+00    6.700748e-01   9.284060e-03
  2.198299e+00    6.775140e-01   9.334389e-03
  2.200509e+00    6.758048e-01   9.321552e-03
  2.202720e+00    6.901957e-01   9.419123e-03
  2.204930e+00    6.817725e-01   9.360221e-03
  2.207141e+00    7.039431e-01   9.510072e-03
  2.209351e+00    6.754547e-01   9.313775e-03
  2.211562e+00    6.804540e-01   9.346562e-03
  2.213772e+00    6.738465e-01   9.245709e-03
  2.215982e+00    6.639495e-01   9.133738e-03
  2.218193e+00    6.763418e-01   9.188931e-03
  2.220403e+00    6.734779e-01   9.144905e-03
  2.222614e+00    6.604347e-01   9.035173e-03
  2.224824e+00    6.742392e-01   9.109708e-03
  2.227035e+00    6.696422e-01   9.061208e-03
  2.229245e+00    6.761116e-01   9.087848e-03
  2.231456e+00    6.718279e-01   9.043393e-03
  2.233666e+00    6.738840e-01   9.042088e-03
  2.235877e+00    6.687136e-01   8.993096e-03
  2.238087e+00    6.655080e-01   8.958070e-03
  2.240298e+00    6.974288e-01   9.156319e-03
  2.242508e+00    7.256959e-01   9.324276e-03
  2.244718e+00    7.273852e-01   9.318668e-03
  2.246929e+00    6.896065e-01   9.058790e-03
  2.249139e+00    6.771746e-01   8.964295e-03
  2.251350e+00    6.839566e-01   8.997189e-03
  2.253560e+00    7.187030e-01   9.210889e-03
  2.255771e+00    7.336944e-01   9.294487e-03
  2.257981e+00    7.861125e-01   9.608618e-03
  2.260192e+00    7.817214e-01   9.569719e-03
  2.262402e+00    7.455228e-01   9.334044e-03
  2.264613e+00    7.224453e-01   9.177106e-03
  2.266823e+00    7.360485e-01   9.252149e-03
  2.269033e+00    7.403578e-01   9.268239e-03
  2.271244e+00    7.051799e-01   9.034653e-03
  2.273454e+00    7.085351e-01   9.045482e-03
  2.275665e+00    7.262979e-01   9.147373e-03
  2.277875e+00    7.122235e-01   9.048034e-03
  2.280086e+00    6.806814e-01   8.835210e-03
  2.282296e+00    6.601587e-01   8.691574e-03
  2.284507e+00    6.579537e-01   8.666925e-03
  2.286717e+00    6.524734e-01   8.621321e-03
  2.288928e+00    6.566287e-01   8.638863e-03
  2.291138e+00    6.689975e-01   8.710344e-03
  2.293348e+00    6.574101e-01   8.625027e-03
  2.295559e+00    6.579646e-01   8.619336e-03
  2.297769e+00    6.581538e-01   8.611299e-03
  2.299980e+00    6.487358e-01   8.540171e-03
  2.302190e+00    6.505713e-01   8.543128e-03
  2.304401e+00    6.523986e-01   8.545785e-03
  2.306611e+00    6.437479e-01   8.479827e-03
  2.308822e+00    6.305413e-01   8.384111e-03
  2.311032e+00    6.596483e-01   8.568966e-03
  2.313243e+00    6.387500e-01   8.425918e-03
  2.315453e+00    6.388542e-01   8.419083e-03
  2.317663e+00    6.328822e-01   8.370625e-03
  2.319874e+00    6.457992e-01   8.446876e-03
  2.322084e+00    6.403868e-01   8.402501e-03
  2.324295e+00    6.351593e-01   8.359967e-03
  2.326505e+00    6.206025e-01   8.254733e-03
  2.328716e+00    6.234699e-01   8.265357e-03
  2.330926e+00    6.232026e-01   8.254937e-03
  2.333137e+00    6.324246e-01   8.307454e-03
  2.335347e+00    6.409305e-01   8.354289e-03
  2.337558e+00    6.335626e-01   8.297932e-03
  2.339768e+00    6.387532e-01   8.323301e-03
  2.341979e+00    6.379334e-01   8.309592e-03
  2.344189e+00    6.365454e-01   8.292160e-03
  2.346399e+00    6.243051e-01   8.203632e-03
  2.348610e+00    6.289944e-01   8.225976e-03
  2.350820e+00    6.192409e-01   8.153860e-03
  2.353031e+00    6.276026e-01   8.200486e-03
  2.355241e+00    6.219180e-01   8.155284e-03
  2.357452e+00    6.293299e-01   8.195330e-03
  2.359662e+00    6.386401e-01   8.247460e-03
  2.361873e+00    6.350625e-01   8.216075e-03
  2.364083e+00    6.225926e-01   8.127068e-03
  2.366294e+00    6.173685e-01   8.084839e-03
  2.368504e+00    6.157057e-01   8.065963e-03
  2.370714e+00    6.067807e-01   7.999332e-03
  2.372925e+00    6.135337e-01   8.035761e-03
  2.375135e+00    6.260759e-01   8.109399e-03
  2.377346e+00    6.032013e-01   7.952083e-03
  2.379556e+00    6.024129e-01   7.939095e-03
  2.381767e+00    6.095162e-01   7.977990e-03
  2.383977e+00    6.125197e-01   7.989743e-03
  2.386188e+00    6.098738e-01   7.964608e-03
  2.388398e+00    5.986032e-01   7.882843e-03
  2.390609e+00    6.003147e-01   7.886478e-03
  2.392819e+00    6.142654e-01   7.969840e-03
  2.395029e+00    6.127716e-01   7.952496e-03
  2.397240e+00    5.997956e-01   7.860078e-03
  2.399450e+00    5.886122e-01   7.778798e-03
  2.401661e+00    6.083335e-01   7.900380e-03
  2.403871e+00    6.062368e-01   7.879038e-03
  2.406082e+00    5.950415e-01   7.798600e-03
  2.408292e+00    6.020902e-01   7.836904e-03
  2.410503e+00    6.055329e-01   7.851808e-03
  2.412713e+00    6.061671e-01   7.848130e-03
  2.414924e+00    6.098636e-01   7.864507e-03
  2.417134e+00    6.097406e-01   7.856065e-03
  2.419344e+00    6.113281e-01   7.858817e-03
  2.421555e+00    6.026453e-01   7.795301e-03
  2.423765e+00    5.943199e-01   7.733895e-03
  2.425976e+00    5.980279e-01   7.750181e-03
  2.428186e+00    5.819985e-01   7.638525e-03
  2.430397e+00    5.820366e-01   7.631351e-03
  2.432607e+00    5.898986e-01   7.675490e-03
  2.434818e+00    5.911103e-01   7.675858e-03
  2.437028e+00    5.917430e-01   7.672826e-03
  2.439239e+00    5.862981e-01   7.629852e-03
  2.441449e+00    5.793312e-01   7.577246e-03
  2.443659e+00    5.919085e-01   7.651702e-03
  2.445870e+00    5.939510e-01   7.677192e-03
  2.448080e+00    5.793419e-01   7.616890e-03
  2.450291e+00    5.677327e-01   7.556649e-03
  2.452501e+00    5.707149e-01   7.587583e-03
  2.454712e+00    5.650366e-01   7.558118e-03
  2.456922e+00    5.528560e-01   7.482713e-03
  2.459133e+00    5.583985e-01   7.525511e-03
  2.461343e+00    5.615278e-01   7.550901e-03
  2.463554e+00    5.543332e-01   7.505817e-03
  2.465764e+00    5.645517e-01   7.577822e-03
  2.467975e+00    5.599486e-01   7.549149e-03
  2.470185e+00    5.563515e-01   7.527120e-03
  2.472395e+00    5.552921e-01   7.521155e-03
  2.474606e+00    5.569570e-01   7.534005e-03
  2.476816e+00    5.459875e-01   7.460176e-03
  2.479027e+00    5.400628e-01   7.420415e-03
  2.481237e+00    5.519935e-01   7.502221e-03
  2.483448e+00    5.348967e-01   7.385431e-03
  2.485658e+00    5.236561e-01   7.307264e-03
  2.487869e+00    5.371464e-01   7.400815e-03
  2.490079e+00    5.476967e-01   7.472634e-03
  2.492290e+00    5.612911e-01   7.564358e-03
  2.494500e+00    5.499597e-01   7.486889e-03
  2.496710e+00    5.454966e-01   7.455743e-03
  2.498921e+00    5.267874e-01   7.325782e-03
  2.501131e+00    5.365990e-01   7.392736e-03
  2.503342e+00    5.419647e-01   7.428334e-03
  2.505552e+00    5.249918e-01   7.309968e-03
  2.507763e+00    5.309094e-01   7.349628e-03
  2.509973e+00    5.262275e-01   7.315761e-03
  2.512184e+00    5.295971e-01   7.337524e-03
  2.514394e+00    5.252453e-01   7.297979e-03
  2.516605e+00    5.275083e-01   7.266568e-03
  2.518815e+00    5.273424e-01   7.237063e-03
  2.521025e+00    5.258090e-01   7.205570e-03
  2.523236e+00    5.292128e-01   7.210811e-03
  2.525446e+00    5.241135e-01   7.160396e-03
  2.527657e+00    5.153550e-01   7.085858e-03
  2.529867e+00    5.075313e-01   7.017924e-03
  2.532078e+00    5.172720e-01   7.070012e-03
  2.534288e+00    5.117993e-01   7.018809e-03
  2.536499e+00    5.122478e-01   7.010086e-03
  2.538709e+00    5.160542e-01   7.025170e-03
  2.540920e+00    5.166100e-01   7.018380e-03
  2.543130e+00    5.200804e-01   7.031597e-03
  2.545340e+00    5.158645e-01   6.993052e-03
  2.547551e+00    5.216289e-01   7.022083e-03
  2.549761e+00    5.182557e-01   6.989789e-03
  2.551972e+00    5.179763e-01   6.978601e-03
  2.554182e+00    5.125525e-01   6.932857e-03
  2.556393e+00    5.184377e-01   6.963470e-03
  2.558603e+00    5.125871e-01   6.915076e-03
  2.560814e+00    5.301588e-01   7.023797e-03
  2.563024e+00    5.145200e-01   6.910909e-03
  2.565235e+00    5.005815e-01   6.807304e-03
  2.567445e+00    5.042927e-01   6.823080e-03
  2.569656e+00    5.192730e-01   6.913910e-03
  2.571866e+00    5.273724e-01   6.958186e-03
  2.574076e+00    5.113244e-01   6.842305e-03
  2.576287e+00    5.111205e-01   6.832630e-03
  2.578497e+00    5.228653e-01   6.902791e-03
  2.580708e+00    5.101867e-01   6.810548e-03
  2.582918e+00    5.172770e-01   6.849924e-03
  2.585129e+00    5.093899e-01   6.789801e-03
  2.587339e+00    5.076771e-01   6.770737e-03
  2.589550e+00    5.142986e-01   6.807178e-03
  2.591760e+00    5.280496e-01   6.889730e-03
  2.593971e+00    5.149997e-01   6.796524e-03
  2.596181e+00    5.168920e-01   6.802722e-03
  2.598391e+00    5.137547e-01   6.776867e-03
  2.600602e+00    5.168399e-01   6.791211e-03
  2.602812e+00    5.038940e-01   6.698136e-03
  2.605023e+00    5.001075e-01   6.665805e-03
  2.607233e+00    5.101562e-01   6.725280e-03
  2.609444e+00    5.058481e-01   6.689620e-03
  2.611654e+00    5.033962e-01   6.666080e-03
  2.613865e+00    5.156226e-01   6.739444e-03
  2.616075e+00    5.098842e-01   6.694681e-03
  2.618286e+00    5.123156e-01   6.703575e-03
  2.620496e+00    5.012094e-01   6.623863e-03
  2.622706e+00    4.882267e-01   6.531844e-03
  2.624917e+00    5.071706e-01   6.651495e-03
  2.627127e+00    5.064444e-01   6.640978e-03
  2.629338e+00    4.915397e-01   6.536637e-03
  2.631548e+00    5.038618e-01   6.611877e-03
  2.633759e+00    4.975574e-01   6.563272e-03
  2.635969e+00    4.988197e-01   6.564920e-03
  2.638180e+00    4.915708e-01   6.510140e-03
  2.640390e+00    4.956140e-01   6.530282e-03
  2.642601e+00    4.977822e-01   6.537908e-03
  2.644811e+00    5.123889e-01   6.625966e-03
  2.647021e+00    5.104346e-01   6.606720e-03
  2.649232e+00    4.820092e-01   6.413502e-03
  2.651442e+00    4.922210e-01   6.474625e-03
  2.653653e+00    4.980364e-01   6.505974e-03
  2.655863e+00    5.052558e-01   6.546236e-03
  2.658074e+00    4.882721e-01   6.428729e-03
  2.660284e+00    4.990627e-01   6.492993e-03
  2.662495e+00    5.039239e-01   6.517748e-03
  2.664705e+00    5.165859e-01   6.592429e-03
  2.666916e+00    4.957861e-01   6.451914e-03
  2.669126e+00    4.893149e-01   6.403231e-03
  2.671337e+00    5.018215e-01   6.477916e-03
  2.673547e+00    5.087215e-01   6.515839e-03
  2.675757e+00    4.960598e-01   6.427793e-03
  2.677968e+00    4.974973e-01   6.430552e-03
  2.680178e+00    4.830400e-01   6.330097e-03
  2.682389e+00    4.884513e-01   6.359076e-03
  2.684599e+00    5.040812e-01   6.453765e-03
  2.686810e+00    5.075172e-01   6.469030e-03
  2.689020e+00    4.864238e-01   6.326909e-03
  2.691231e+00    4.849922e-01   6.311339e-03
  2.693441e+00    4.778689e-01   6.258748e-03
  2.695652e+00    4.918969e-01   6.343422e-03
  2.697862e+00    4.795932e-01   6.257306e-03
  2.700072e+00    4.960587e-01   6.357703e-03
  2.702283e+00    4.873690e-01   6.295559e-03
  2.704493e+00    4.887357e-01   6.298106e-03
  2.706704e+00    4.785541e-01   6.225803e-03
  2.708914e+00    4.841805e-01   6.256365e-03
  2.711125e+00    4.883897e-01   6.277235e-03
  2.713335e+00    4.866403e-01   6.259922e-03
  2.715546e+00    4.885910e-01   6.265958e-03
  2.717756e+00    4.864869e-01   6.246573e-03
  2.719967e+00    4.853944e-01   6.233362e-03
  2.722177e+00    4.820553e-01   6.205766e-03
  2.724387e+00    4.850387e-01   6.218836e-03
  2.726598e+00    4.933847e-01   6.266017e-03
  2.728808e+00    4.759293e-01   6.148075e-03
  2.731019e+00    4.875281e-01   6.216406e-03
  2.733229e+00    4.824451e-01   6.178121e-03
  2.735440e+00    4.777823e-01   6.141958e-03
  2.737650e+00    4.952470e-01   6.247112e-03
  2.739861e+00    4.990970e-01   6.265194e-03
  2.742071e+00    4.931401e-01   6.221884e-03
  2.744282e+00    4.883777e-01   6.185484e-03
  2.746492e+00    4.967089e-01   6.231898e-03
  2.748702e+00    4.849271e-01   6.151624e-03
  2.750913e+00    4.741182e-01   6.076943e-03
  2.753123e+00    4.701634e-01   6.045470e-03
  2.755334e+00    4.715671e-01   6.048501e-03
  2.757544e+00    4.663207e-01   6.009092e-03
  2.759755e+00    4.779508e-01   6.077690e-03
  2.761965e+00    4.827960e-01   6.102437e-03
  2.764176e+00    4.671354e-01   5.996735e-03
  2.766386e+00    4.648565e-01   5.976385e-03
  2.768597e+00    4.659123e-01   5.977399e-03
  2.770807e+00    4.754008e-01   6.032096e-03
  2.773017e+00    4.633885e-01   5.949536e-03
  2.775228e+00    4.681814e-01   5.974491e-03
  2.777438e+00    4.762760e-01   6.020141e-03
  2.779649e+00    4.749119e-01   6.005634e-03
  2.781859e+00    4.666817e-01   5.947678e-03
  2.784070e+00    4.617984e-01   5.910696e-03
  2.786280e+00    4.776853e-01   6.005738e-03
  2.788491e+00    4.798627e-01   6.013568e-03
  2.790701e+00    4.856090e-01   6.043754e-03
  2.792912e+00    4.822101e-01   6.016583e-03
  2.795122e+00    4.706092e-01   5.938068e-03
  2.797333e+00    4.609464e-01   5.871313e-03
  2.799543e+00    4.689282e-01   5.916090e-03
  2.801753e+00    4.667043e-01   5.896271e-03
  2.803964e+00    4.639338e-01   5.873130e-03
  2.806174e+00    4.616839e-01   5.852826e-03
  2.808385e+00    4.577573e-01   5.821203e-03
  2.810595e+00    4.674758e-01   5.875846e-03
  2.812806e+00    4.716959e-01   5.895735e-03
  2.815016e+00    4.756672e-01   5.915741e-03
  2.817227e+00    4.801455e-01   5.969624e-03
  2.819437e+00    4.716431e-01   5.927594e-03
  2.821648e+00    4.739372e-01   5.944274e-03
  2.823858e+00    4.615918e-01   5.871627e-03
  2.826068e+00    4.631901e-01   5.886702e-03
  2.828279e+00    4.769163e-01   5.977336e-03
  2.830489e+00    4.667615e-01   5.916698e-03
  2.832700e+00    4.536639e-01   5.835594e-03
  2.834910e+00    4.515037e-01   5.823695e-03
  2.837121e+00    4.606311e-01   5.883953e-03
  2.839331e+00    4.723243e-01   5.959410e-03
  2.841542e+00    4.719381e-01   5.957982e-03
  2.843752e+00    4.628179e-01   5.900918e-03
  2.845963e+00    4.708046e-01   5.952008e-03
  2.848173e+00    4.755579e-01   5.982071e-03
  2.850383e+00    4.652711e-01   5.917309e-03
  2.852594e+00    4.566884e-01   5.862413e-03
  2.854804e+00    4.478976e-01   5.805198e-03
  2.857015e+00    4.578003e-01   5.868599e-03
  2.859225e+00    4.632258e-01   5.903025e-03
  2.861436e+00    4.662579e-01   5.921665e-03
  2.863646e+00    4.560997e-01   5.856832e-03
  2.865857e+00    4.546698e-01   5.847989e-03
  2.868067e+00    4.602611e-01   5.884045e-03
  2.870278e+00    4.592799e-01   5.877430e-03
  2.872488e+00    4.668702e-01   5.924624e-03
  2.874698e+00    4.497983e-01   5.814280e-03
  2.876909e+00    4.614704e-01   5.887885e-03
  2.879119e+00    4.694491e-01   5.936950e-03
  2.881330e+00    4.592807e-01   5.870840e-03
  2.883540e+00    4.628992e-01   5.892524e-03
  2.885751e+00    4.559230e-01   5.846322e-03
  2.887961e+00    4.615279e-01   5.880266e-03
  2.890172e+00    4.559579e-01   5.843078e-03
  2.892382e+00    4.555219e-01   5.838492e-03
  2.894593e+00    4.565780e-01   5.843444e-03
  2.896803e+00    4.581560e-01   5.851563e-03
  2.899014e+00    4.598726e-01   5.860615e-03
  2.901224e+00    4.434233e-01   5.752876e-03
  2.903434e+00    4.548261e-01   5.824431e-03
  2.905645e+00    4.651557e-01   5.887984e-03
  2.907855e+00    4.636912e-01   5.876578e-03
  2.910066e+00    4.703669e-01   5.916644e-03
  2.912276e+00    4.639757e-01   5.874176e-03
  2.914487e+00    4.557041e-01   5.819123e-03
  2.916697e+00    4.590920e-01   5.838494e-03
  2.918908e+00    4.462950e-01   5.754577e-03
  2.921118e+00    4.520252e-01   5.788701e-03
  2.923329e+00    4.598895e-01   5.836533e-03
  2.925539e+00    4.712548e-01   5.905882e-03
  2.927749e+00    4.576871e-01   5.817964e-03
  2.929960e+00    4.428036e-01   5.719838e-03
  2.932170e+00    4.538362e-01   5.788328e-03
  2.934381e+00    4.510575e-01   5.768159e-03
  2.936591e+00    4.505859e-01   5.762576e-03
  2.938802e+00    4.599755e-01   5.819594e-03
  2.941012e+00    4.649534e-01   5.848627e-03
  2.943223e+00    4.589162e-01   5.807844e-03
  2.945433e+00    4.603874e-01   5.813385e-03
  2.947644e+00    4.649075e-01   5.837675e-03
  2.949854e+00    4.525178e-01   5.755106e-03
  2.952064e+00    4.504593e-01   5.737809e-03
  2.954275e+00    4.576915e-01   5.779259e-03
  2.956485e+00    4.569897e-01   5.770622e-03
  2.958696e+00    4.572034e-01   5.767593e-03
  2.960906e+00    4.545711e-01   5.746784e-03
  2.963117e+00    4.577178e-01   5.762134e-03
  2.965327e+00    4.589926e-01   5.766246e-03
  2.967538e+00    4.549396e-01   5.737809e-03
  2.969748e+00    4.614865e-01   5.776105e-03
  2.971959e+00    4.553548e-01   5.734472e-03
  2.974169e+00    4.518433e-01   5.709738e-03
  2.976379e+00    4.510866e-01   5.702036e-03
  2.978590e+00    4.687301e-01   5.809312e-03
  2.980800e+00    4.611317e-01   5.759202e-03
  2.983011e+00    4.554021e-01   5.720519e-03
  2.985221e+00    4.485691e-01   5.674312e-03
  2.987432e+00    4.506496e-01   5.684336e-03
  2.989642e+00    4.495834e-01   5.675009e-03
  2.991853e+00    4.454245e-01   5.645443e-03
  2.994063e+00    4.576271e-01   5.719324e-03
  2.996274e+00    4.586528e-01   5.722549e-03
  2.998484e+00    4.583559e-01   5.717980e-03
  3.000694e+00    4.529075e-01   5.680432e-03
  3.002905e+00    4.571129e-01   5.703800e-03
  3.005115e+00    4.477995e-01   5.642434e-03
  3.007326e+00    4.602924e-01   5.717413e-03
  3.009536e+00    4.646616e-01   5.741198e-03
  3.011747e+00    4.535538e-01   5.669264e-03
  3.013957e+00    4.622805e-01   5.720293e-03
  3.016168e+00    4.454165e-01   5.611789e-03
  3.018378e+00    4.533952e-01   5.658764e-03
  3.020589e+00    4.426643e-01   5.588240e-03
  3.022799e+00    4.491998e-01   5.626161e-03
  3.025010e+00    4.591734e-01   5.685035e-03
  3.027220e+00    4.543843e-01   5.652187e-03
  3.029430e+00    4.615583e-01   5.693348e-03
  3.031641e+00    4.605313e-01   5.683859e-03
  3.033851e+00    4.434890e-01   5.574211e-03
  3.036062e+00    4.370787e-01   5.531031e-03
  3.038272e+00    4.406680e-01   5.550175e-03
  3.040483e+00    4.441581e-01   5.568908e-03
  3.042693e+00    4.441783e-01   5.565794e-03
  3.044904e+00    4.462747e-01   5.574924e-03
  3.047114e+00    4.397780e-01   5.529438e-03
  3.049325e+00    4.619886e-01   5.662881e-03
  3.051535e+00    4.578965e-01   5.633362e-03
  3.053745e+00    4.566998e-01   5.621173e-03
  3.055956e+00    4.562560e-01   5.613870e-03
  3.058166e+00    4.587351e-01   5.624791e-03
  3.060377e+00    4.356352e-01   5.476651e-03
  3.062587e+00    4.507537e-01   5.566230e-03
  3.064798e+00    4.564121e-01   5.596783e-03
  3.067008e+00    4.325308e-01   5.443761e-03
  3.069219e+00    4.505084e-01   5.551197e-03
  3.071429e+00    4.449289e-01   5.513247e-03
  3.073640e+00    4.411021e-01   5.486182e-03
  3.075850e+00    4.544926e-01   5.565210e-03
  3.078060e+00    4.644929e-01   5.622949e-03
  3.080271e+00    4.709761e-01   5.658510e-03
  3.082481e+00    4.528713e-01   5.545227e-03
  3.084692e+00    4.436559e-01   5.485144e-03
  3.086902e+00    4.333970e-01   5.418179e-03
  3.089113e+00    4.387974e-01   5.448272e-03
  3.091323e+00    4.477759e-01   5.500372e-03
  3.093534e+00    4.481400e-01   5.499231e-03
  3.095744e+00    4.481671e-01   5.496019e-03
  3.097955e+00    4.460284e-01   5.479359e-03
  3.100165e+00    4.356786e-01   5.412121e-03
  3.102375e+00    4.392025e-01   5.430562e-03
  3.104586e+00    4.441576e-01   5.457632e-03
  3.106796e+00    4.395675e-01   5.425872e-03
  3.109007e+00    4.463646e-01   5.464435e-03
  3.111217e+00    4.433918e-01   5.442534e-03
  3.113428e+00    4.469335e-01   5.460806e-03
  3.115638e+00    4.393325e-01   5.410965e-03
  3.117849e+00    4.429499e-01   5.429482e-03
  3.120059e+00    4.347613e-01   5.375630e-03
  3.122270e+00    4.283840e-01   5.332865e-03
  3.124480e+00    4.483054e-01   5.451742e-03
  3.126691e+00    4.489833e-01   5.452297e-03
  3.128901e+00    4.534372e-01   5.476124e-03
  3.131111e+00    4.453064e-01   5.422951e-03
  3.133322e+00    4.371890e-01   5.369900e-03
  3.135532e+00    4.292617e-01   5.317615e-03
  3.137743e+00    4.474268e-01   5.425485e-03
  3.139953e+00    4.452534e-01   5.408601e-03
  3.142164e+00    4.489027e-01   5.442811e-03
  3.144374e+00    4.468610e-01   5.458978e-03
  3.146585e+00    4.514275e-01   5.501494e-03
  3.148795e+00    4.613917e-01   5.572900e-03
  3.151006e+00    4.584883e-01   5.564051e-03
  3.153216e+00    4.483785e-01   5.509544e-03
  3.155426e+00    4.498721e-01   5.525084e-03
  3.157637e+00    4.459768e-01   5.506669e-03
  3.159847e+00    4.278102e-01   5.398175e-03
  3.162058e+00    4.248700e-01   5.383912e-03
  3.164268e+00    4.276433e-01   5.405464e-03
  3.166479e+00    4.457639e-01   5.522483e-03
  3.168689e+00    4.447282e-01   5.519454e-03
  3.170900e+00    4.390430e-01   5.487238e-03
  3.173110e+00    4.342842e-01   5.460257e-03
  3.175321e+00    4.415152e-01   5.508065e-03
  3.177531e+00    4.301845e-01   5.439604e-03
  3.179741e+00    4.350788e-01   5.472551e-03
  3.181952e+00    4.334641e-01   5.464474e-03
  3.184162e+00    4.370895e-01   5.489477e-03
  3.186373e+00    4.435728e-01   5.531644e-03
  3.188583e+00    4.347643e-01   5.478233e-03
  3.190794e+00    4.480378e-01   5.563002e-03
  3.193004e+00    4.430966e-01   5.533506e-03
  3.195215e+00    4.316646e-01   5.463148e-03
  3.197425e+00    4.368570e-01   5.497103e-03
  3.199636e+00    4.385567e-01   5.507028e-03
  3.201846e+00    4.468378e-01   5.558163e-03
  3.204056e+00    4.312183e-01   5.461058e-03
  3.206267e+00    4.300324e-01   5.454365e-03
  3.208477e+00    4.201241e-01   5.392083e-03
  3.210688e+00    4.298246e-01   5.454812e-03
  3.212898e+00    4.206602e-01   5.396908e-03
  3.215109e+00    4.323204e-01   5.471957e-03
  3.217319e+00    4.350975e-01   5.490140e-03
  3.219530e+00    4.233227e-01   5.415743e-03
  3.221740e+00    4.197373e-01   5.393301e-03
  3.223951e+00    4.259183e-01   5.433329e-03
  3.226161e+00    4.371955e-01   5.504997e-03
  3.228372e+00    4.170105e-01   5.376924e-03
  3.230582e+00    4.251605e-01   5.429345e-03
  3.232792e+00    4.368100e-01   5.503455e-03
  3.235003e+00    4.363144e-01   5.500589e-03
  3.237213e+00    4.290572e-01   5.454755e-03
  3.239424e+00    4.170550e-01   5.377909e-03
  3.241634e+00    4.290662e-01   5.454937e-03
  3.243845e+00    4.158224e-01   5.370148e-03
  3.246055e+00    4.208026e-01   5.401944e-03
  3.248266e+00    4.249708e-01   5.428835e-03
  3.250476e+00    4.308822e-01   5.466147e-03
  3.252687e+00    4.186277e-01   5.387804e-03
  3.254897e+00    4.164228e-01   5.373449e-03
  3.257107e+00    4.183476e-01   5.385561e-03
  3.259318e+00    4.160600e-01   5.370582e-03
  3.261528e+00    4.126170e-01   5.348178e-03
  3.263739e+00    4.279500e-01   5.446063e-03
  3.265949e+00    4.335592e-01   5.481537e-03
  3.268160e+00    4.246871e-01   5.424741e-03
  3.270370e+00    4.232205e-01   5.414855e-03
  3.272581e+00    4.174435e-01   5.377491e-03
  3.274791e+00    4.201597e-01   5.394460e-03
  3.277002e+00    4.178923e-01   5.379290e-03
  3.279212e+00    4.168679e-01   5.372337e-03
  3.281422e+00    4.193337e-01   5.387608e-03
  3.283633e+00    4.197084e-01   5.389368e-03
  3.285843e+00    4.186125e-01   5.381966e-03
  3.288054e+00    4.280937e-01   5.441640e-03
  3.290264e+00    4.301189e-01   5.454195e-03
  3.292475e+00    4.221125e-01   5.402347e-03
  3.294685e+00    4.322534e-01   5.466199e-03
  3.296896e+00    4.305791e-01   5.454876e-03
  3.299106e+00    4.213003e-01   5.395216e-03
  3.301317e+00    4.118658e-01   5.333438e-03
  3.303527e+00    4.251036e-01   5.418006e-03
  3.305737e+00    4.276758e-01   5.433317e-03
  3.307948e+00    4.391002e-01   5.504742e-03
  3.310158e+00    4.394260e-01   5.505907e-03
  3.312369e+00    4.217260e-01   5.393017e-03
  3.314579e+00    4.157397e-01   5.353679e-03
  3.316790e+00    4.304987e-01   5.447164e-03
  3.319000e+00    4.214791e-01   5.388626e-03
  3.321211e+00    4.320995e-01   5.455478e-03
  3.323421e+00    4.391505e-01   5.498578e-03
  3.325632e+00    4.262376e-01   5.416258e-03
  3.327842e+00    4.173071e-01   5.358283e-03
  3.330052e+00    4.393165e-01   5.496693e-03
  3.332263e+00    4.229488e-01   5.392311e-03
  3.334473e+00    4.334222e-01   5.457724e-03
  3.336684e+00    4.179897e-01   5.358452e-03
  3.338894e+00    4.170890e-01   5.351813e-03
  3.341105e+00    4.130797e-01   5.324840e-03
  3.343315e+00    4.115392e-01   5.313759e-03
  3.345526e+00    4.259494e-01   5.405096e-03
  3.347736e+00    4.258097e-01   5.402788e-03
  3.349947e+00    4.367633e-01   5.470895e-03
  3.352157e+00    4.180652e-01   5.351340e-03
  3.354368e+00    4.193373e-01   5.358171e-03
  3.356578e+00    4.300599e-01   5.425214e-03
  3.358788e+00    4.014632e-01   5.240454e-03
  3.360999e+00    4.009898e-01   5.236124e-03
  3.363209e+00    4.162924e-01   5.334083e-03
  3.365420e+00    4.057176e-01   5.264410e-03
  3.367630e+00    4.135683e-01   5.314071e-03
  3.369841e+00    4.241402e-01   5.380142e-03
  3.372051e+00    4.214189e-01   5.360865e-03
  3.374262e+00    4.089359e-01   5.278464e-03
  3.376472e+00    4.079725e-01   5.269816e-03
  3.378683e+00    4.166003e-01   5.322730e-03
  3.380893e+00    4.054189e-01   5.248530e-03
  3.383103e+00    4.012629e-01   5.218877e-03
  3.385314e+00    4.133567e-01   5.294723e-03
  3.387524e+00    4.109652e-01   5.276656e-03
  3.389735e+00    4.092745e-01   5.263191e-03
  3.391945e+00    4.204455e-01   5.330826e-03
  3.394156e+00    4.066721e-01   5.238588e-03
  3.396366e+00    4.101164e-01   5.257330e-03
  3.398577e+00    4.112720e-01   5.261675e-03
  3.400787e+00    4.227783e-01   5.346872e-03
  3.402998e+00    3.919299e-01   5.185335e-03
  3.405208e+00    3.865139e-01   5.169527e-03
  3.407418e+00    3.937036e-01   5.233029e-03
  3.409629e+00    3.912960e-01   5.230802e-03
  3.411839e+00    3.948717e-01   5.266362e-03
  3.414050e+00    3.840965e-01   5.204808e-03
  3.416260e+00    3.892476e-01   5.249174e-03
  3.418471e+00    4.011031e-01   5.338033e-03
  3.420681e+00    3.822662e-01   5.219561e-03
  3.422892e+00    3.699700e-01   5.142695e-03
  3.425102e+00    3.892326e-01   5.282692e-03
  3.427313e+00    3.864661e-01   5.271072e-03
  3.429523e+00    3.753684e-01   5.201770e-03
  3.431733e+00    3.969678e-01   5.356114e-03
  3.433944e+00    3.792242e-01   5.241482e-03
  3.436154e+00    3.766649e-01   5.229955e-03
  3.438365e+00    3.776823e-01   5.242900e-03
  3.440575e+00    3.773472e-01   5.246480e-03
  3.442786e+00    3.665761e-01   5.176590e-03
  3.444996e+00    3.734014e-01   5.229999e-03
  3.447207e+00    3.756050e-01   5.250739e-03
  3.449417e+00    3.552506e-01   5.146391e-03
  3.451628e+00    3.726932e-01   5.300784e-03
  3.453838e+00    3.640222e-01   5.259850e-03
  3.456049e+00    3.686124e-01   5.316840e-03
  3.458259e+00    3.636659e-01   5.302903e-03
  3.460469e+00    3.564397e-01   5.269469e-03
  3.462680e+00    3.495877e-01   5.237207e-03
  3.464890e+00    3.505108e-01   5.261504e-03
  3.467101e+00    3.535255e-01   5.301217e-03
  3.469311e+00    3.839826e-01   5.541698e-03
  3.471522e+00    3.886742e-01   5.592172e-03
  3.473732e+00    3.864715e-01   5.592400e-03
  3.475943e+00    4.073110e-01   5.757391e-03
  3.478153e+00    4.078736e-01   5.777224e-03
  3.480364e+00    3.925523e-01   5.682782e-03
  3.482574e+00    4.067076e-01   5.799744e-03
  3.484784e+00    4.286849e-01   5.969564e-03
  3.486995e+00    4.433581e-01   6.086473e-03
  3.489205e+00    4.444550e-01   6.109023e-03
  3.491416e+00    4.477868e-01   6.147171e-03
  3.493626e+00    4.374647e-01   6.090521e-03
  3.495837e+00    4.388176e-01   6.114677e-03
  3.498047e+00    4.395948e-01   6.134476e-03
  3.500258e+00    4.587909e-01   6.281670e-03
  3.502468e+00    4.588719e-01   6.296731e-03
  3.504679e+00    4.678176e-01   6.372413e-03
  3.506889e+00    4.740917e-01   6.429567e-03
  3.509099e+00    4.652303e-01   6.383464e-03
  3.511310e+00    4.622861e-01   6.377498e-03
  3.513520e+00    4.532596e-01   6.328910e-03
  3.515731e+00    4.639886e-01   6.417389e-03
  3.517941e+00    4.954572e-01   6.645885e-03
  3.520152e+00    4.939247e-01   6.649949e-03
  3.522362e+00    4.826213e-01   6.587583e-03
  3.524573e+00    4.962391e-01   6.694056e-03
  3.526783e+00    5.044672e-01   6.762565e-03
  3.528994e+00    5.120413e-01   6.825331e-03
  3.531204e+00    5.330259e-01   6.976400e-03
  3.533414e+00    5.261373e-01   6.943245e-03
  3.535625e+00    5.523521e-01   7.126778e-03
  3.537835e+00    5.403691e-01   7.061253e-03
  3.540046e+00    5.413963e-01   7.076913e-03
  3.542256e+00    5.538441e-01   7.165494e-03
  3.544467e+00    5.328445e-01   7.035972e-03
  3.546677e+00    5.298498e-01   7.023654e-03
  3.548888e+00    5.438178e-01   7.123178e-03
  3.551098e+00    5.478051e-01   7.156643e-03
  3.553309e+00    5.281615e-01   7.035261e-03
  3.555519e+00    5.426967e-01   7.142743e-03
  3.557729e+00    5.385066e-01   7.126897e-03
  3.559940e+00    5.438840e-01   7.174024e-03
  3.562150e+00    5.292833e-01   7.088702e-03
  3.564361e+00    5.442371e-01   7.201574e-03
  3.566571e+00    5.269211e-01   7.099781e-03
  3.568782e+00    5.395353e-01   7.198429e-03
  3.570992e+00    5.365993e-01   7.192592e-03
  3.573203e+00    5.302816e-01   7.164181e-03
  3.575413e+00    5.396791e-01   7.241193e-03
  3.577624e+00    5.322161e-01   7.205056e-03
  3.579834e+00    5.267774e-01   7.181875e-03
  3.582045e+00    5.402770e-01   7.287417e-03
  3.584255e+00    5.431690e-01   7.321052e-03
  3.586465e+00    5.553665e-01   7.416966e-03
  3.588676e+00    5.371942e-01   7.308846e-03
  3.590886e+00    5.475761e-01   7.392962e-03
  3.593097e+00    5.409299e-01   7.362547e-03
  3.595307e+00    5.470945e-01   7.418429e-03
  3.597518e+00    5.381417e-01   7.371779e-03
  3.599728e+00    5.309239e-01   7.336158e-03
  3.601939e+00    5.454776e-01   7.450253e-03
  3.604149e+00    5.474165e-01   7.478049e-03
  3.606360e+00    5.409804e-01   7.448167e-03
  3.608570e+00    5.392613e-01   7.450519e-03
  3.610780e+00    5.580823e-01   7.590745e-03
  3.612991e+00    5.374445e-01   7.459103e-03
  3.615201e+00    5.329341e-01   7.437523e-03
  3.617412e+00    5.318105e-01   7.436905e-03
  3.619622e+00    5.434053e-01   7.523551e-03
  3.621833e+00    5.305088e-01   7.440448e-03
  3.624043e+00    5.368049e-01   7.493971e-03
  3.626254e+00    5.143001e-01   7.344751e-03
  3.628464e+00    5.319347e-01   7.480519e-03
  3.630675e+00    5.333256e-01   7.504441e-03
  3.632885e+00    5.298574e-01   7.494359e-03
  3.635095e+00    5.564971e-01   7.695174e-03
  3.637306e+00    5.292059e-01   7.518418e-03
  3.639516e+00    5.565317e-01   7.724924e-03
  3.641727e+00    5.446907e-01   7.657008e-03
  3.643937e+00    5.479481e-01   7.694639e-03
  3.646148e+00    5.489834e-01   7.716735e-03
  3.648358e+00    5.350081e-01   7.632781e-03
  3.650569e+00    5.256230e-01   7.580142e-03
  3.652779e+00    5.311033e-01   7.634329e-03
  3.654990e+00    5.189085e-01   7.560845e-03
  3.657200e+00    5.302592e-01   7.657951e-03
  3.659410e+00    5.442997e-01   7.773832e-03
  3.661621e+00    5.356266e-01   7.726783e-03
  3.663831e+00    5.495577e-01   7.842020e-03
  3.666042e+00    5.239677e-01   7.672327e-03
  3.668252e+00    5.240635e-01   7.688135e-03
  3.670463e+00    5.259064e-01   7.716818e-03
  3.672673e+00    5.177415e-01   7.671880e-03
  3.674884e+00    5.300807e-01   7.778160e-03
  3.677094e+00    5.420704e-01   7.881340e-03
  3.679305e+00    5.210634e-01   7.742540e-03
  3.681515e+00    5.216460e-01   7.762334e-03
  3.683726e+00    5.410132e-01   7.921079e-03
  3.685936e+00    5.270777e-01   7.834117e-03
  3.688146e+00    5.109957e-01   7.729164e-03
  3.690357e+00    5.242343e-01   7.844557e-03
  3.692567e+00    5.180477e-01   7.814104e-03
  3.694778e+00    5.234007e-01   7.870344e-03
  3.696988e+00    5.093775e-01   7.779982e-03
  3.699199e+00    5.209562e-01   7.884016e-03
  3.701409e+00    5.201257e-01   7.894078e-03
  3.703620e+00    5.335213e-01   8.011486e-03
  3.705830e+00    5.260595e-01   7.971733e-03
  3.708041e+00    5.196854e-01   7.939777e-03
  3.710251e+00    5.220802e-01   7.974779e-03
  3.712461e+00    5.334373e-01   8.077925e-03
  3.714672e+00    5.179874e-01   7.976798e-03
  3.716882e+00    5.241687e-01   8.040977e-03
  3.719093e+00    5.135937e-01   7.976511e-03
  3.721303e+00    5.110871e-01   7.973813e-03
  3.723514e+00    5.256714e-01   8.104146e-03
  3.725724e+00    5.190466e-01   8.070100e-03
  3.727935e+00    5.157063e-01   8.061522e-03
  3.730145e+00    5.197971e-01   8.110831e-03
  3.732356e+00    5.065076e-01   8.023810e-03
  3.734566e+00    4.928619e-01   7.932138e-03
  3.736776e+00    5.031171e-01   8.031804e-03
  3.738987e+00    5.070572e-01   8.080796e-03
  3.741197e+00    5.151072e-01   8.162742e-03
  3.743408e+00    5.038562e-01   8.090970e-03
  3.745618e+00    5.119994e-01   8.174388e-03
  3.747829e+00    5.180710e-01   8.240955e-03
  3.750039e+00    5.335225e-01   8.381670e-03
  3.752250e+00    5.412789e-01   8.461400e-03
  3.754460e+00    5.197499e-01   8.310193e-03
  3.756671e+00    4.896853e-01   8.084645e-03
  3.758881e+00    4.960778e-01   8.155632e-03
  3.761091e+00    5.081077e-01   8.273080e-03
  3.763302e+00    5.081603e-01   8.292584e-03
  3.765512e+00    5.129609e-01   8.351029e-03
  3.767723e+00    5.281135e-01   8.493155e-03
  3.769933e+00    5.392343e-01   8.602160e-03
  3.772144e+00    4.892624e-01   8.213138e-03
  3.774354e+00    4.941591e-01   8.273675e-03
  3.776565e+00    5.108439e-01   8.432210e-03
  3.778775e+00    5.219337e-01   8.543514e-03
  3.780986e+00    5.193603e-01   8.543018e-03
  3.783196e+00    5.472728e-01   8.790717e-03
  3.785407e+00    5.144520e-01   8.543738e-03
  3.787617e+00    5.152346e-01   8.571181e-03
  3.789827e+00    5.190470e-01   8.623742e-03
  3.792038e+00    5.125962e-01   8.591019e-03
  3.794248e+00    5.019062e-01   8.522174e-03
  3.796459e+00    4.918377e-01   8.457383e-03
  3.798669e+00    4.935711e-01   8.493487e-03
  3.800880e+00    5.145662e-01   8.694002e-03
  3.803090e+00    5.081384e-01   8.661539e-03
  3.805301e+00    4.752038e-01   8.397696e-03
  3.807511e+00    5.057844e-01   8.685778e-03
  3.809722e+00    4.904282e-01   8.574947e-03
  3.811932e+00    4.918087e-01   8.609068e-03
  3.814142e+00    4.866299e-01   8.586170e-03
  3.816353e+00    5.097058e-01   8.810491e-03
  3.818563e+00    5.232087e-01   8.950075e-03
  3.820774e+00    5.049563e-01   8.815953e-03
  3.822984e+00    5.179404e-01   8.952372e-03
  3.825195e+00    4.834929e-01   8.672906e-03
  3.827405e+00    5.040494e-01   8.879459e-03
  3.829616e+00    4.713904e-01   8.610357e-03
  3.831826e+00    4.891702e-01   8.795178e-03
  3.834037e+00    5.222360e-01   9.112738e-03
  3.836247e+00    4.778316e-01   8.740976e-03
  3.838457e+00    4.879230e-01   8.857523e-03
  3.840668e+00    4.962592e-01   8.958035e-03
  3.842878e+00    5.150630e-01   9.152212e-03
  3.845089e+00    4.924615e-01   8.974703e-03
  3.847299e+00    4.803116e-01   8.888652e-03
  3.849510e+00    4.708495e-01   8.825836e-03
  3.851720e+00    4.858596e-01   8.986682e-03
  3.853931e+00    4.963987e-01   9.102607e-03
  3.856141e+00    4.949105e-01   9.108000e-03
  3.858352e+00    4.873122e-01   9.056896e-03
  3.860562e+00    5.080941e-01   9.267569e-03
  3.862772e+00    5.314348e-01   9.498397e-03
  3.864983e+00    4.956721e-01   9.193000e-03
  3.867193e+00    4.706537e-01   8.977229e-03
  3.869404e+00    4.837362e-01   9.120776e-03
  3.871614e+00    4.854976e-01   9.157178e-03
  3.873825e+00    4.731087e-01   9.059511e-03
  3.876035e+00    4.723280e-01   9.072147e-03
  3.878246e+00    4.745120e-01   9.118431e-03
  3.880456e+00    4.823788e-01   9.222296e-03
  3.882667e+00    4.987470e-01   9.407098e-03
  3.884877e+00    5.006428e-01   9.454880e-03
  3.887087e+00    5.024245e-01   9.502060e-03
  3.889298e+00    5.057547e-01   9.564194e-03
  3.891508e+00    5.213579e-01   9.742184e-03
  3.893719e+00    4.969549e-01   9.542590e-03
  3.895929e+00    4.926349e-01   9.532533e-03
  3.898140e+00    5.168357e-01   9.796355e-03
  3.900350e+00    5.315051e-01   9.967928e-03
  3.902561e+00    4.992257e-01   9.693161e-03
  3.904771e+00    4.852217e-01   9.588860e-03
  3.906982e+00    5.112976e-01   9.877000e-03
  3.909192e+00    4.893245e-01   9.696037e-03
  3.911403e+00    4.784589e-01   9.621344e-03
  3.913613e+00    5.129837e-01   9.997514e-03
  3.915823e+00    4.937643e-01   9.843490e-03
  3.918034e+00    4.910105e-01   9.851296e-03
  3.920244e+00    5.151103e-01   1.012695e-02
  3.922455e+00    4.761089e-01   9.771610e-03
  3.924665e+00    4.971422e-01   1.002187e-02
  3.926876e+00    5.087921e-01   1.017650e-02
  3.929086e+00    4.926961e-01   1.005185e-02
  3.931297e+00    4.860688e-01   1.001872e-02
  3.933507e+00    4.976279e-01   1.016639e-02
  3.935718e+00    4.936106e-01   1.015423e-02
  3.937928e+00    5.149216e-01   1.040136e-02
  3.940138e+00    4.977292e-01   1.025589e-02
  3.942349e+00    5.110092e-01   1.042234e-02
  3.944559e+00    5.051389e-01   1.039295e-02
  3.946770e+00    5.182975e-01   1.055854e-02
  3.948980e+00    4.952396e-01   1.035204e-02
  3.951191e+00    5.052852e-01   1.048786e-02
  3.953401e+00    4.966733e-01   1.042986e-02
  3.955612e+00    4.835506e-01   1.032264e-02
  3.957822e+00    5.041629e-01   1.057269e-02
  3.960033e+00    5.007460e-01   1.056991e-02
  3.962243e+00    4.895361e-01   1.048386e-02
  3.964453e+00    4.935570e-01   1.056026e-02
  3.966664e+00    4.875028e-01   1.052871e-02
  3.968874e+00    4.929909e-01   1.061642e-02
  3.971085e+00    5.173761e-01   1.089839e-02
  3.973295e+00    5.617247e-01   1.137900e-02
  3.975506e+00    5.354277e-01   1.113223e-02
  3.977716e+00    5.528697e-01   1.133551e-02
  3.979927e+00    5.592580e-01   1.142462e-02
  3.982137e+00    5.329509e-01   1.117599e-02
  3.984348e+00    5.119703e-01   1.097700e-02
  3.986558e+00    5.213880e-01   1.110064e-02
  3.988768e+00    4.843028e-01   1.072161e-02
  3.990979e+00    4.983667e-01   1.089911e-02
  3.993189e+00    4.904368e-01   1.083535e-02
  3.995400e+00    5.297270e-01   1.128543e-02
  3.997610e+00    5.058287e-01   1.105860e-02
  3.999821e+00    5.082103e-01   1.112302e-02
  4.002031e+00    4.829733e-01   1.088150e-02
  4.004242e+00    4.823206e-01   1.091264e-02
  4.006452e+00    4.563709e-01   1.065319e-02
  4.008663e+00    4.531828e-01   1.065451e-02
  4.010873e+00    4.796135e-01   1.100066e-02
  4.013084e+00    4.918852e-01   1.118175e-02
  4.015294e+00    4.964456e-01   1.127491e-02
  4.017504e+00    5.062401e-01   1.142841e-02
  4.019715e+00    5.079334e-01   1.149101e-02
  4.021925e+00    5.037166e-01   1.148714e-02
  4.024136e+00    4.782424e-01   1.123629e-02
  4.026346e+00    4.736104e-01   1.122542e-02
  4.028557e+00    4.448323e-01   1.092148e-02
  4.030767e+00    4.599881e-01   1.115055e-02
  4.032978e+00    4.741873e-01   1.136713e-02
  4.035188e+00    4.671071e-01   1.132735e-02
  4.037399e+00    4.729605e-01   1.144503e-02
  4.039609e+00    5.145500e-01   1.198707e-02
  4.041819e+00    4.705090e-01   1.151069e-02
  4.044030e+00    4.818439e-01   1.169825e-02
  4.046240e+00    4.885074e-01   1.182908e-02
  4.048451e+00    4.650201e-01   1.159120e-02
  4.050661e+00    4.646434e-01   1.163692e-02
  4.052872e+00    4.811041e-01   1.189389e-02
  4.055082e+00    4.567080e-01   1.164050e-02
  4.057293e+00    4.380150e-01   1.145102e-02
  4.059503e+00    4.847464e-01   1.210106e-02
  4.061714e+00    4.809306e-01   1.210973e-02
  4.063924e+00    4.947246e-01   1.233979e-02
  4.066134e+00    4.805833e-01   1.221949e-02
  4.068345e+00    4.736140e-01   1.218881e-02
  4.070555e+00    5.060713e-01   1.266045e-02
  4.072766e+00    5.010927e-01   1.265999e-02
  4.074976e+00    4.636962e-01   1.223924e-02
  4.077187e+00    4.267366e-01   1.179977e-02
  4.079397e+00    4.746055e-01   1.250725e-02
  4.081608e+00    4.936371e-01   1.282222e-02
  4.083818e+00    4.926224e-01   1.287531e-02
  4.086029e+00    5.442802e-01   1.360514e-02
  4.088239e+00    4.814816e-01   1.286524e-02
  4.090449e+00    4.561981e-01   1.259060e-02
  4.092660e+00    5.105613e-01   1.339303e-02
  4.094870e+00    4.598504e-01   1.278123e-02
  4.097081e+00    4.783078e-01   1.310663e-02
  4.099291e+00    4.531390e-01   1.280990e-02
  4.101502e+00    5.107478e-01   1.365054e-02
  4.103712e+00    4.712956e-01   1.316156e-02
  4.105923e+00    4.944809e-01   1.353371e-02
  4.108133e+00    5.044287e-01   1.372173e-02
  4.110344e+00    4.848844e-01   1.350481e-02
  4.112554e+00    5.333885e-01   1.422015e-02
  4.114764e+00    4.989798e-01   1.380915e-02
  4.116975e+00    4.873301e-01   1.370078e-02
  4.119185e+00    4.471486e-01   1.317697e-02
  4.121396e+00    4.996271e-01   1.398636e-02
  4.123606e+00    4.998031e-01   1.404614e-02
  4.125817e+00    4.991944e-01   1.409655e-02
  4.128027e+00    5.110747e-01   1.432340e-02
  4.130238e+00    4.545732e-01   1.356640e-02
  4.132448e+00    4.735725e-01   1.390672e-02
  4.134659e+00    5.310439e-01   1.479011e-02
  4.136869e+00    5.056097e-01   1.449606e-02
  4.139080e+00    4.890821e-01   1.432106e-02
  4.141290e+00    4.523838e-01   1.383463e-02
  4.143500e+00    4.606002e-01   1.402384e-02
  4.145711e+00    4.738983e-01   1.429151e-02
  4.147921e+00    4.799990e-01   1.444895e-02
  4.150132e+00    5.177418e-01   1.507805e-02
  4.152342e+00    4.757869e-01   1.452426e-02
  4.154553e+00    5.153252e-01   1.518742e-02
  4.156763e+00    4.976608e-01   1.499877e-02
  4.158974e+00    5.074664e-01   1.522202e-02
  4.161184e+00    5.569850e-01   1.602647e-02
  4.163395e+00    5.471283e-01   1.596526e-02
  4.165605e+00    5.101010e-01   1.549569e-02
  4.167815e+00    5.077713e-01   1.554068e-02
  4.170026e+00    5.372729e-01   1.607037e-02
  4.172236e+00    4.886140e-01   1.540813e-02
  4.174447e+00    5.241081e-01   1.604452e-02
  4.176657e+00    5.439820e-01   1.643554e-02
  4.178868e+00    5.074256e-01   1.596357e-02
  4.181078e+00    4.491668e-01   1.510380e-02
  4.183289e+00    4.632678e-01   1.542679e-02
  4.185499e+00    4.739687e-01   1.569589e-02
  4.187710e+00    5.129761e-01   1.642477e-02
  4.189920e+00    4.803870e-01   1.599031e-02
  4.192130e+00    5.060921e-01   1.651267e-02
  4.194341e+00    4.976691e-01   1.647527e-02
  4.196551e+00    4.445480e-01   1.566961e-02
  4.198762e+00    5.402915e-01   1.738451e-02
  4.200972e+00    4.534541e-01   1.602937e-02
  4.203183e+00    4.461777e-01   1.600522e-02
  4.205393e+00    4.036977e-01   1.532544e-02
  4.207604e+00    4.473716e-01   1.624313e-02
  4.209814e+00    4.950726e-01   1.720455e-02
  4.212025e+00    4.444706e-01   1.641702e-02
  4.214235e+00    5.118969e-01   1.774300e-02
  4.216445e+00    5.314004e-01   1.820894e-02
  4.218656e+00    5.106530e-01   1.798349e-02
  4.220866e+00    5.313746e-01   1.848086e-02
  4.223077e+00    4.915673e-01   1.791153e-02
  4.225287e+00    4.902415e-01   1.802822e-02
  4.227498e+00    4.699403e-01   1.778942e-02
  4.229708e+00    4.892796e-01   1.829925e-02
  4.231919e+00    4.670154e-01   1.802597e-02
  4.234129e+00    5.059093e-01   1.891893e-02
  4.236340e+00    5.154523e-01   1.925994e-02
  4.238550e+00    5.451357e-01   1.998215e-02
  4.240761e+00    4.346477e-01   1.799979e-02
  4.242971e+00    4.798128e-01   1.908516e-02
  4.245181e+00    4.505004e-01   1.866655e-02
  4.247392e+00    4.331466e-01   1.847475e-02
  4.249602e+00    5.280855e-01   2.060164e-02
  4.251813e+00    4.573253e-01   1.936107e-02
  4.254023e+00    4.698176e-01   1.982115e-02
  4.256234e+00    4.930633e-01   2.052278e-02
  4.258444e+00    4.521648e-01   1.985887e-02
  4.260655e+00    4.665835e-01   2.039472e-02
  4.262865e+00    4.551445e-01   2.037144e-02
  4.265076e+00    4.214669e-01   1.982664e-02
  4.267286e+00    4.496722e-01   2.072184e-02
  4.269496e+00    4.137253e-01   2.011886e-02
  4.271707e+00    4.542631e-01   2.134226e-02
  4.273917e+00    4.974718e-01   2.262237e-02
  4.276128e+00    5.246428e-01   2.354112e-02
  4.278338e+00    4.781286e-01   2.277332e-02
  4.280549e+00    4.989657e-01   2.359779e-02
  4.282759e+00    4.758960e-01   2.337714e-02
  4.284970e+00    5.260462e-01   2.494158e-02
  4.287180e+00    5.449481e-01   2.569008e-02
  4.289391e+00    4.483014e-01   2.347606e-02
  4.291601e+00    4.914325e-01   2.477545e-02
  4.293811e+00    5.726597e-01   2.695396e-02
  4.296022e+00    3.766153e-01   2.203449e-02
  4.298232e+00    5.008190e-01   2.562191e-02
  4.300443e+00    4.921364e-01   2.560822e-02
  4.302653e+00    3.819165e-01   2.275481e-02
  4.304864e+00    4.682099e-01   2.541234e-02
  4.307074e+00    4.756603e-01   2.584403e-02
  4.309285e+00    4.578533e-01   2.558611e-02
  4.311495e+00    5.042881e-01   2.710368e-02
  4.313706e+00    4.598988e-01   2.612588e-02
  4.315916e+00    3.992263e-01   2.458236e-02
  4.318126e+00    4.614037e-01   2.668821e-02
  4.320337e+00    3.328661e-01   2.289767e-02
  4.322547e+00    4.174487e-01   2.591367e-02
  4.324758e+00    3.528517e-01   2.407193e-02
  4.326968e+00    4.094662e-01   2.622372e-02
  4.329179e+00    5.380923e-01   3.039225e-02
  4.331389e+00    4.620426e-01   2.848845e-02
  4.333600e+00    4.881975e-01   2.963249e-02
  4.335810e+00    4.662312e-01   2.930399e-02
  4.338021e+00    4.549237e-01   2.931541e-02
  4.340231e+00    4.232586e-01   2.863271e-02
  4.342442e+00    5.980945e-01   3.449238e-02
  4.344652e+00    4.044107e-01   2.874860e-02
  4.346862e+00    4.439444e-01   3.054193e-02
  4.349073e+00    4.349194e-01   3.067083e-02
  4.351283e+00    4.906749e-01   3.306312e-02
  4.353494e+00    4.402050e-01   3.180206e-02
  4.355704e+00    3.758630e-01   2.985752e-02
  4.357915e+00    4.230673e-01   3.220475e-02
  4.360125e+00    5.459153e-01   3.720702e-02
  4.362336e+00    4.036958e-01   3.257897e-02
  4.364546e+00    4.054674e-01   3.324496e-02
  4.366757e+00    3.956240e-01   3.349258e-02
  4.368967e+00    3.603894e-01   3.260337e-02
  4.371177e+00    5.057747e-01   3.944479e-02
  4.373388e+00    4.279479e-01   3.709431e-02
  4.375598e+00    4.919147e-01   4.067766e-02
  4.377809e+00    4.674544e-01   4.065815e-02
  4.380019e+00    3.766943e-01   3.741600e-02
  4.382230e+00    3.504663e-01   3.709471e-02
  4.384440e+00    2.778692e-01   3.398408e-02
  4.386651e+00    4.615385e-01   4.514514e-02
  4.388861e+00    3.934764e-01   4.308310e-02
  4.391072e+00    3.448080e-01   4.175071e-02
  4.393282e+00    4.440153e-01   4.920460e-02
  4.395492e+00    3.405239e-01   4.488411e-02
  4.397703e+00    3.647217e-01   4.857150e-02
  4.399913e+00    4.816971e-01   5.864858e-02
  4.402124e+00    3.766500e-01   5.479866e-02
  4.404334e+00    3.453960e-01   5.578516e-02
  4.406545e+00    2.819289e-01   5.414382e-02
  4.408755e+00    3.066611e-01   6.124468e-02
  4.410966e+00    5.795629e-01   9.319111e-02
  4.413176e+00    1.876250e-01   6.001260e-02
  4.415387e+00   -3.185775e-01            nan
  4.417597e+00   -2.031091e+00            nan
  4.419807e+00   -3.766224e-01            nan
