# == pyFAI calibration ==
# Distance Sample to Detector: 0.216 m
# PONI: 1.166e-01, 1.308e-01 m
# Rotations: 0.000000 0.000000 0.000000 rad
# 
# == Fit2d calibration ==
# Distance Sample-beamCenter: 216.000 mm
# Center: x=1744.293, y=1555.000 pix
# Tilt: 0.000 deg  TiltPlanRot: 0.000 deg
# 
# Detector Eiger 9M	 PixelSize= 7.500e-05, 7.500e-05 m
#    Detector has a mask: True 
#    Detector has a dark current: False 
#    detector has a flat field: False 
# 
# Wavelength: 9.8e-11 m
# Mask applied: from detector
# Dark current applied: False
# Flat field applied: False
# Polarization factor: None
# Normalization factor: 1.0
# 
# Headers of the input frame:
# {
# "_array_data.header_convention": "SLS_1.0",
# "_array_data.header_contents": "# Detector: Dectris Eiger 9M, S/N E-18-0102\r\n# Pixel_size 75e-6 m x 75e-6 m\r\n# Silicon sensor, thickness 0.000450 m\r\n# Exposure_time 0.024997 s\r\n# Exposure_period 0.025000 s\r\n# Count_cutoff 62318 counts\r\n# Wavelength 0.980106 A\r\n# Detector_distance 0.215992 m\r\n# Beam_xy (1555, 1744) pixels\r\n# Start_angle 0.000000 deg.\r\n# Angle_increment 0.000000 deg.",
# "Content-Type": "application/octet-stream;",
# "conversions": "x-CBF_BYTE_OFFSET",
# "Content-Transfer-Encoding": "BINARY",
# "X-Binary-Size": "10166612",
# "X-Binary-ID": "1",
# "X-Binary-Element-Type": "signed 32-bit integer",
# "X-Binary-Element-Byte-Order": "LITTLE_ENDIAN",
# "Content-MD5": "uTuV6A2T21v+Olr/BvrkRw==",
# "X-Binary-Number-of-Elements": "10166590",
# "X-Binary-Size-Fastest-Dimension": "3110",
# "X-Binary-Size-Second-Dimension": "3269",
# "X-Binary-Size-Padding": "4095"
# }
# --> H:/Proxima2a_2019-04-05/RAW_DATA/C5_gel17_position5/C5_mesh_1_data.cbf/C5_mesh_1_data.cbf000086.dat
#        q_A^-1              I           sigma 
  1.105228e-03    1.210061e+00   5.952378e-01
  3.315685e-03    1.197915e+00   3.600463e-01
  5.526141e-03    1.349384e+00   2.954880e-01
  7.736597e-03    1.638839e+00   2.750986e-01
  9.947054e-03    1.411091e+00   2.250370e-01
  1.215751e-02    1.528630e+00   2.117970e-01
  1.436797e-02    1.701368e+00   2.055299e-01
  1.657842e-02    1.329248e+00   1.691014e-01
  1.878888e-02    1.381533e+00   1.619363e-01
  2.099934e-02    1.431026e+00   1.559286e-01
  2.320979e-02    1.357932e+00   1.444681e-01
  2.542025e-02    1.306962e+00   1.354381e-01
  2.763070e-02    1.488302e+00   1.386232e-01
  2.984116e-02    1.553225e+00   1.362680e-01
  3.205162e-02    1.439133e+00   1.265717e-01
  3.426207e-02    1.505059e+00   1.251848e-01
  3.647253e-02    1.396499e+00   1.168719e-01
  3.868299e-02    1.391388e+00   1.132843e-01
  4.089344e-02    1.511613e+00   1.148421e-01
  4.310390e-02    1.406129e+00   1.078789e-01
  4.531436e-02    1.342037e+00   1.027893e-01
  4.752481e-02    1.573420e+00   1.086779e-01
  4.973527e-02    1.310302e+00   9.694772e-02
  5.194572e-02    1.337790e+00   9.585106e-02
  5.415618e-02    1.448823e+00   9.768918e-02
  5.636664e-02    1.368925e+00   9.307970e-02
  5.857709e-02    1.426668e+00   9.321291e-02
  6.078755e-02    1.304635e+00   8.749875e-02
  6.299801e-02    1.339028e+00   8.707455e-02
  6.520846e-02    1.363021e+00   8.634996e-02
  6.741892e-02    1.422083e+00   8.673857e-02
  6.962938e-02    1.409467e+00   8.497552e-02
  7.183983e-02    1.406381e+00   8.356483e-02
  7.405029e-02    1.489361e+00   8.469956e-02
  7.626074e-02    1.543097e+00   8.495459e-02
  7.847120e-02    1.477451e+00   8.194655e-02
  8.068166e-02    1.458796e+00   8.030368e-02
  8.289211e-02    1.504983e+00   8.046973e-02
  8.510257e-02    1.459575e+00   7.821006e-02
  8.731303e-02    1.473653e+00   7.758225e-02
  8.952348e-02    1.538878e+00   7.829781e-02
  9.173394e-02    1.527503e+00   7.705927e-02
  9.394439e-02    1.440974e+00   7.395670e-02
  9.615485e-02    1.431081e+00   7.284868e-02
  9.836531e-02    1.507199e+00   7.391418e-02
  1.005758e-01    1.414238e+00   7.080773e-02
  1.027862e-01    1.557919e+00   7.351235e-02
  1.049967e-01    1.416842e+00   6.936185e-02
  1.072071e-01    1.390009e+00   6.798915e-02
  1.094176e-01    1.479386e+00   6.942774e-02
  1.116280e-01    1.468895e+00   6.849126e-02
  1.138385e-01    1.532751e+00   6.928018e-02
  1.160490e-01    1.445124e+00   6.662613e-02
  1.182594e-01    1.506803e+00   6.739280e-02
  1.204699e-01    1.555134e+00   6.783355e-02
  1.226803e-01    1.586960e+00   6.790118e-02
  1.248908e-01    1.528142e+00   6.603794e-02
  1.271012e-01    1.524153e+00   6.537437e-02
  1.293117e-01    1.536139e+00   6.506675e-02
  1.315222e-01    1.604966e+00   6.594563e-02
  1.337326e-01    1.584439e+00   6.497756e-02
  1.359431e-01    1.530287e+00   6.389491e-02
  1.381535e-01    1.594695e+00   6.610119e-02
  1.403640e-01    1.559586e+00   6.565176e-02
  1.425744e-01    1.568178e+00   6.593751e-02
  1.447849e-01    1.503398e+00   6.457612e-02
  1.469953e-01    1.495744e+00   6.437118e-02
  1.492058e-01    1.550298e+00   6.545842e-02
  1.514163e-01    1.543640e+00   6.520923e-02
  1.536267e-01    1.536322e+00   6.492747e-02
  1.558372e-01    1.615501e+00   6.643257e-02
  1.580476e-01    1.607275e+00   6.610245e-02
  1.602581e-01    1.564586e+00   6.505307e-02
  1.624685e-01    1.540089e+00   6.436507e-02
  1.646790e-01    1.483696e+00   6.299424e-02
  1.668895e-01    1.571071e+00   6.463537e-02
  1.690999e-01    1.683318e+00   6.670360e-02
  1.713104e-01    1.743427e+00   6.767344e-02
  1.735208e-01    1.692690e+00   6.647411e-02
  1.757313e-01    1.761564e+00   6.760046e-02
  1.779417e-01    1.881613e+00   6.963810e-02
  1.801522e-01    1.916523e+00   7.005732e-02
  1.823626e-01    1.861332e+00   6.881138e-02
  1.845731e-01    1.845311e+00   6.829266e-02
  1.867836e-01    1.820544e+00   6.760389e-02
  1.889940e-01    1.924675e+00   6.928324e-02
  1.912045e-01    1.934411e+00   6.922632e-02
  1.934149e-01    1.905848e+00   6.848336e-02
  1.956254e-01    1.950148e+00   6.904622e-02
  1.978358e-01    1.988454e+00   6.948213e-02
  2.000463e-01    1.927235e+00   6.817751e-02
  2.022568e-01    1.880867e+00   6.713127e-02
  2.044672e-01    1.918286e+00   6.756353e-02
  2.066777e-01    1.903687e+00   6.708255e-02
  2.088881e-01    1.876014e+00   6.637530e-02
  2.110986e-01    1.917227e+00   6.687030e-02
  2.133090e-01    2.003791e+00   6.814103e-02
  2.155195e-01    1.995180e+00   6.776892e-02
  2.177300e-01    1.995450e+00   6.724108e-02
  2.199404e-01    1.967538e+00   6.500979e-02
  2.221509e-01    1.909521e+00   6.299252e-02
  2.243613e-01    1.960181e+00   6.301352e-02
  2.265718e-01    1.989815e+00   6.278832e-02
  2.287822e-01    2.097726e+00   6.383026e-02
  2.309927e-01    2.062890e+00   6.272145e-02
  2.332031e-01    2.050837e+00   6.200265e-02
  2.354136e-01    2.132797e+00   6.271704e-02
  2.376241e-01    2.129036e+00   6.217531e-02
  2.398345e-01    2.153119e+00   6.206325e-02
  2.420450e-01    2.109868e+00   6.099766e-02
  2.442554e-01    2.060406e+00   5.986318e-02
  2.464659e-01    2.126052e+00   6.040104e-02
  2.486763e-01    2.137252e+00   6.016187e-02
  2.508868e-01    2.090980e+00   5.913166e-02
  2.530973e-01    2.065949e+00   5.841225e-02
  2.553077e-01    2.070254e+00   5.811841e-02
  2.575182e-01    2.144340e+00   5.879921e-02
  2.597286e-01    2.063507e+00   5.734502e-02
  2.619391e-01    2.145437e+00   5.813572e-02
  2.641495e-01    2.128670e+00   5.758760e-02
  2.663600e-01    2.045519e+00   5.614123e-02
  2.685704e-01    2.029588e+00   5.561903e-02
  2.707809e-01    2.010799e+00   5.506713e-02
  2.729914e-01    2.015216e+00   5.484028e-02
  2.752018e-01    2.010231e+00   5.448734e-02
  2.774123e-01    1.985907e+00   5.388003e-02
  2.796227e-01    1.943931e+00   5.304388e-02
  2.818332e-01    2.022415e+00   5.383416e-02
  2.840436e-01    1.978974e+00   5.299475e-02
  2.862541e-01    1.944667e+00   5.228084e-02
  2.884646e-01    2.027046e+00   5.312339e-02
  2.906750e-01    1.982162e+00   5.228286e-02
  2.928855e-01    1.902436e+00   5.098331e-02
  2.950959e-01    1.902610e+00   5.075141e-02
  2.973064e-01    1.960875e+00   5.129110e-02
  2.995168e-01    1.911501e+00   5.041188e-02
  3.017273e-01    1.880915e+00   4.978646e-02
  3.039377e-01    1.824022e+00   4.881303e-02
  3.061482e-01    1.902746e+00   4.963961e-02
  3.083587e-01    1.951111e+00   5.004896e-02
  3.105691e-01    1.888687e+00   4.903150e-02
  3.127796e-01    1.878332e+00   4.869132e-02
  3.149900e-01    1.875262e+00   4.844881e-02
  3.172005e-01    1.917738e+00   4.879409e-02
  3.194109e-01    1.850193e+00   4.772925e-02
  3.216214e-01    1.874764e+00   4.784908e-02
  3.238319e-01    1.923317e+00   4.827271e-02
  3.260423e-01    1.922804e+00   4.807403e-02
  3.282528e-01    1.928490e+00   4.795339e-02
  3.304632e-01    1.846679e+00   4.674345e-02
  3.326737e-01    1.866339e+00   4.680824e-02
  3.348841e-01    1.791172e+00   4.567815e-02
  3.370946e-01    1.813711e+00   4.579166e-02
  3.393050e-01    1.862900e+00   4.623269e-02
  3.415155e-01    1.858075e+00   4.599917e-02
  3.437260e-01    1.821086e+00   4.537022e-02
  3.459364e-01    1.837683e+00   4.540792e-02
  3.481469e-01    1.856432e+00   4.547237e-02
  3.503573e-01    1.851391e+00   4.524517e-02
  3.525678e-01    1.765473e+00   4.402539e-02
  3.547782e-01    1.762542e+00   4.382983e-02
  3.569887e-01    1.814795e+00   4.431720e-02
  3.591992e-01    1.829576e+00   4.433986e-02
  3.614096e-01    1.824495e+00   4.412474e-02
  3.636201e-01    1.712511e+00   4.259892e-02
  3.658305e-01    1.768144e+00   4.313767e-02
  3.680410e-01    1.775154e+00   4.307445e-02
  3.702514e-01    1.742000e+00   4.252680e-02
  3.724619e-01    1.782060e+00   4.286653e-02
  3.746724e-01    1.779030e+00   4.268717e-02
  3.768828e-01    1.728423e+00   4.193407e-02
  3.790933e-01    1.725418e+00   4.176106e-02
  3.813037e-01    1.825535e+00   4.281501e-02
  3.835142e-01    1.770163e+00   4.202225e-02
  3.857246e-01    1.710307e+00   4.117198e-02
  3.879351e-01    1.753749e+00   4.155663e-02
  3.901455e-01    1.801702e+00   4.198685e-02
  3.923560e-01    1.778356e+00   4.158136e-02
  3.945665e-01    1.765243e+00   4.129641e-02
  3.967769e-01    1.744540e+00   4.092495e-02
  3.989874e-01    1.784036e+00   4.125639e-02
  4.011978e-01    1.811816e+00   4.144850e-02
  4.034083e-01    1.758522e+00   4.070901e-02
  4.056187e-01    1.799760e+00   4.105669e-02
  4.078292e-01    1.787284e+00   4.079034e-02
  4.100397e-01    1.771690e+00   4.048798e-02
  4.122501e-01    1.828614e+00   4.101023e-02
  4.144606e-01    1.786559e+00   4.041569e-02
  4.166710e-01    1.765725e+00   4.005987e-02
  4.188815e-01    1.812858e+00   4.047111e-02
  4.210919e-01    1.797157e+00   4.017739e-02
  4.233024e-01    1.809662e+00   4.019834e-02
  4.255128e-01    1.811993e+00   4.010795e-02
  4.277233e-01    1.800534e+00   3.986605e-02
  4.299338e-01    1.796255e+00   3.970407e-02
  4.321442e-01    1.835108e+00   4.001634e-02
  4.343547e-01    1.839457e+00   3.995046e-02
  4.365651e-01    1.759845e+00   3.896534e-02
  4.387756e-01    1.733610e+00   3.856552e-02
  4.409860e-01    1.739368e+00   3.852248e-02
  4.431965e-01    1.787710e+00   3.894614e-02
  4.454070e-01    1.728297e+00   3.818698e-02
  4.476174e-01    1.774685e+00   3.858981e-02
  4.498279e-01    1.723679e+00   3.792775e-02
  4.520383e-01    1.710044e+00   3.767375e-02
  4.542488e-01    1.737461e+00   3.787217e-02
  4.564592e-01    1.721046e+00   3.759174e-02
  4.586697e-01    1.720690e+00   3.748805e-02
  4.608801e-01    1.745925e+00   3.766081e-02
  4.630906e-01    1.708719e+00   3.715873e-02
  4.653011e-01    1.673976e+00   3.668229e-02
  4.675115e-01    1.706142e+00   3.693551e-02
  4.697220e-01    1.691187e+00   3.667701e-02
  4.719324e-01    1.688698e+00   3.655521e-02
  4.741429e-01    1.716883e+00   3.676400e-02
  4.763533e-01    1.697091e+00   3.645782e-02
  4.785638e-01    1.724757e+00   3.665879e-02
  4.807743e-01    1.708585e+00   3.639378e-02
  4.829847e-01    1.693725e+00   3.614361e-02
  4.851952e-01    1.669320e+00   3.579149e-02
  4.874056e-01    1.692607e+00   3.594937e-02
  4.896161e-01    1.733008e+00   3.628569e-02
  4.918265e-01    1.669435e+00   3.552547e-02
  4.940370e-01    1.695792e+00   3.571642e-02
  4.962475e-01    1.695331e+00   3.562337e-02
  4.984579e-01    1.716523e+00   3.575698e-02
  5.006684e-01    1.680540e+00   3.529397e-02
  5.028788e-01    1.628528e+00   3.465931e-02
  5.050893e-01    1.629052e+00   3.458058e-02
  5.072997e-01    1.647324e+00   3.468997e-02
  5.095102e-01    1.693390e+00   3.508746e-02
  5.117206e-01    1.676167e+00   3.482553e-02
  5.139311e-01    1.688556e+00   3.487130e-02
  5.161416e-01    1.667960e+00   3.457606e-02
  5.183520e-01    1.672867e+00   3.454460e-02
  5.205625e-01    1.629019e+00   3.400900e-02
  5.227729e-01    1.593252e+00   3.355514e-02
  5.249834e-01    1.626883e+00   3.382871e-02
  5.271938e-01    1.706338e+00   3.456410e-02
  5.294043e-01    1.745856e+00   3.488137e-02
  5.316148e-01    1.770395e+00   3.504522e-02
  5.338252e-01    1.748373e+00   3.474697e-02
  5.360357e-01    1.770434e+00   3.488589e-02
  5.382461e-01    1.745633e+00   3.456241e-02
  5.404566e-01    1.702974e+00   3.405977e-02
  5.426670e-01    1.736042e+00   3.431140e-02
  5.448775e-01    1.726855e+00   3.414403e-02
  5.470879e-01    1.723968e+00   3.403940e-02
  5.492984e-01    1.756777e+00   3.428535e-02
  5.515089e-01    1.763374e+00   3.427350e-02
  5.537193e-01    1.784442e+00   3.440166e-02
  5.559298e-01    1.797677e+00   3.445328e-02
  5.581402e-01    1.767545e+00   3.408866e-02
  5.603507e-01    1.772416e+00   3.406130e-02
  5.625611e-01    1.809964e+00   3.434549e-02
  5.647716e-01    1.844620e+00   3.459749e-02
  5.669821e-01    1.803303e+00   3.413409e-02
  5.691925e-01    1.727533e+00   3.333756e-02
  5.714030e-01    1.754154e+00   3.352180e-02
  5.736134e-01    1.734537e+00   3.326294e-02
  5.758239e-01    1.721297e+00   3.306504e-02
  5.780343e-01    1.675732e+00   3.255544e-02
  5.802448e-01    1.623850e+00   3.198044e-02
  5.824552e-01    1.605287e+00   3.173038e-02
  5.846657e-01    1.642131e+00   3.202555e-02
  5.868762e-01    1.630993e+00   3.185031e-02
  5.890866e-01    1.637786e+00   3.185036e-02
  5.912971e-01    1.642901e+00   3.183400e-02
  5.935075e-01    1.629103e+00   3.163453e-02
  5.957180e-01    1.659431e+00   3.186212e-02
  5.979284e-01    1.644089e+00   3.164975e-02
  6.001389e-01    1.659706e+00   3.173496e-02
  6.023494e-01    1.665735e+00   3.172800e-02
  6.045598e-01    1.628579e+00   3.130827e-02
  6.067703e-01    1.649375e+00   3.144416e-02
  6.089807e-01    1.705660e+00   3.191189e-02
  6.111912e-01    1.669129e+00   3.150529e-02
  6.134016e-01    1.682018e+00   3.156359e-02
  6.156121e-01    1.673716e+00   3.142304e-02
  6.178226e-01    1.669830e+00   3.132438e-02
  6.200330e-01    1.666736e+00   3.123362e-02
  6.222435e-01    1.645567e+00   3.097316e-02
  6.244539e-01    1.715511e+00   3.156261e-02
  6.266644e-01    1.723047e+00   3.157019e-02
  6.288748e-01    1.711457e+00   3.140258e-02
  6.310853e-01    1.699710e+00   3.123387e-02
  6.332957e-01    1.697325e+00   3.115169e-02
  6.355062e-01    1.703153e+00   3.114450e-02
  6.377167e-01    1.713117e+00   3.117554e-02
  6.399271e-01    1.711053e+00   3.109705e-02
  6.421376e-01    1.724374e+00   3.115829e-02
  6.443480e-01    1.696606e+00   3.084760e-02
  6.465585e-01    1.677517e+00   3.061546e-02
  6.487689e-01    1.697217e+00   3.073654e-02
  6.509794e-01    1.674835e+00   3.047563e-02
  6.531899e-01    1.597568e+00   2.970838e-02
  6.554003e-01    1.592154e+00   2.960221e-02
  6.576108e-01    1.628387e+00   2.988141e-02
  6.598212e-01    1.594154e+00   2.951074e-02
  6.620317e-01    1.563137e+00   2.916807e-02
  6.642421e-01    1.587391e+00   2.933908e-02
  6.664526e-01    1.609043e+00   2.948409e-02
  6.686630e-01    1.581336e+00   2.917511e-02
  6.708735e-01    1.563911e+00   2.896068e-02
  6.730840e-01    1.593679e+00   2.918170e-02
  6.752944e-01    1.601043e+00   2.919587e-02
  6.775049e-01    1.562192e+00   2.878709e-02
  6.797153e-01    1.585993e+00   2.895302e-02
  6.819258e-01    1.623431e+00   2.923993e-02
  6.841362e-01    1.625279e+00   2.920397e-02
  6.863467e-01    1.580162e+00   2.874420e-02
  6.885572e-01    1.569037e+00   2.859148e-02
  6.907676e-01    1.603366e+00   2.885081e-02
  6.929781e-01    1.561136e+00   2.841771e-02
  6.951885e-01    1.597460e+00   2.869551e-02
  6.973990e-01    1.592890e+00   2.860377e-02
  6.996094e-01    1.599392e+00   2.861167e-02
  7.018199e-01    1.596671e+00   2.853713e-02
  7.040303e-01    1.588856e+00   2.841723e-02
  7.062408e-01    1.556757e+00   2.807943e-02
  7.084513e-01    1.568295e+00   2.813426e-02
  7.106617e-01    1.577090e+00   2.816400e-02
  7.128722e-01    1.625357e+00   2.854229e-02
  7.150826e-01    1.597360e+00   2.824662e-02
  7.172931e-01    1.607761e+00   2.828959e-02
  7.195035e-01    1.595874e+00   2.813636e-02
  7.217140e-01    1.598891e+00   2.821277e-02
  7.239245e-01    1.595826e+00   2.841398e-02
  7.261349e-01    1.557177e+00   2.817580e-02
  7.283454e-01    1.553714e+00   2.821637e-02
  7.305558e-01    1.540462e+00   2.814919e-02
  7.327663e-01    1.574413e+00   2.850018e-02
  7.349767e-01    1.574202e+00   2.851466e-02
  7.371872e-01    1.528899e+00   2.809033e-02
  7.393976e-01    1.519723e+00   2.799190e-02
  7.416081e-01    1.530803e+00   2.807781e-02
  7.438186e-01    1.539698e+00   2.801656e-02
  7.460290e-01    1.560485e+00   2.791213e-02
  7.482395e-01    1.563228e+00   2.776610e-02
  7.504499e-01    1.560168e+00   2.760328e-02
  7.526604e-01    1.569902e+00   2.757286e-02
  7.548708e-01    1.585140e+00   2.761666e-02
  7.570813e-01    1.561864e+00   2.736239e-02
  7.592918e-01    1.506668e+00   2.684012e-02
  7.615022e-01    1.545915e+00   2.715396e-02
  7.637127e-01    1.551566e+00   2.717102e-02
  7.659231e-01    1.541248e+00   2.704885e-02
  7.681336e-01    1.564589e+00   2.722140e-02
  7.703440e-01    1.590843e+00   2.741746e-02
  7.725545e-01    1.562201e+00   2.713876e-02
  7.747650e-01    1.626685e+00   2.765439e-02
  7.769754e-01    1.576793e+00   2.717427e-02
  7.791859e-01    1.573496e+00   2.709237e-02
  7.813963e-01    1.605793e+00   2.731598e-02
  7.836068e-01    1.560435e+00   2.687584e-02
  7.858172e-01    1.559666e+00   2.681897e-02
  7.880277e-01    1.575659e+00   2.690484e-02
  7.902381e-01    1.609388e+00   2.714187e-02
  7.924486e-01    1.614749e+00   2.713669e-02
  7.946591e-01    1.622120e+00   2.714993e-02
  7.968695e-01    1.621908e+00   2.709959e-02
  7.990800e-01    1.614126e+00   2.698617e-02
  8.012904e-01    1.648496e+00   2.722481e-02
  8.035009e-01    1.631138e+00   2.703290e-02
  8.057113e-01    1.640282e+00   2.706169e-02
  8.079218e-01    1.631931e+00   2.694614e-02
  8.101323e-01    1.615174e+00   2.676191e-02
  8.123427e-01    1.629089e+00   2.683114e-02
  8.145532e-01    1.605013e+00   2.658655e-02
  8.167636e-01    1.637174e+00   2.680643e-02
  8.189741e-01    1.659340e+00   2.694233e-02
  8.211845e-01    1.623889e+00   2.660828e-02
  8.233950e-01    1.639844e+00   2.669521e-02
  8.256054e-01    1.664963e+00   2.685430e-02
  8.278159e-01    1.651775e+00   2.670359e-02
  8.300264e-01    1.631536e+00   2.649650e-02
  8.322368e-01    1.585061e+00   2.607397e-02
  8.344473e-01    1.612684e+00   2.625714e-02
  8.366577e-01    1.628528e+00   2.634339e-02
  8.388682e-01    1.618577e+00   2.622079e-02
  8.410786e-01    1.627962e+00   2.625479e-02
  8.432891e-01    1.624076e+00   2.618177e-02
  8.454996e-01    1.661044e+00   2.643617e-02
  8.477100e-01    1.625295e+00   2.610866e-02
  8.499205e-01    1.631567e+00   2.611788e-02
  8.521309e-01    1.668537e+00   2.637096e-02
  8.543414e-01    1.657485e+00   2.624247e-02
  8.565518e-01    1.636393e+00   2.603437e-02
  8.587623e-01    1.647336e+00   2.608060e-02
  8.609727e-01    1.608236e+00   2.572928e-02
  8.631832e-01    1.581306e+00   2.547359e-02
  8.653937e-01    1.620913e+00   2.575101e-02
  8.676041e-01    1.605412e+00   2.558893e-02
  8.698146e-01    1.591045e+00   2.543522e-02
  8.720250e-01    1.628530e+00   2.569389e-02
  8.742355e-01    1.612498e+00   2.552820e-02
  8.764459e-01    1.544235e+00   2.494389e-02
  8.786564e-01    1.583493e+00   2.522130e-02
  8.808669e-01    1.604253e+00   2.534761e-02
  8.830773e-01    1.583818e+00   2.514774e-02
  8.852878e-01    1.596206e+00   2.520803e-02
  8.874982e-01    1.587533e+00   2.510299e-02
  8.897087e-01    1.580026e+00   2.500611e-02
  8.919191e-01    1.589345e+00   2.504214e-02
  8.941296e-01    1.585001e+00   2.497077e-02
  8.963401e-01    1.635222e+00   2.532647e-02
  8.985505e-01    1.613099e+00   2.511746e-02
  9.007610e-01    1.638475e+00   2.527706e-02
  9.029714e-01    1.672633e+00   2.550254e-02
  9.051819e-01    1.629433e+00   2.513352e-02
  9.073923e-01    1.597269e+00   2.484764e-02
  9.096028e-01    1.612873e+00   2.493368e-02
  9.118132e-01    1.603248e+00   2.482292e-02
  9.140237e-01    1.573016e+00   2.455144e-02
  9.162342e-01    1.583945e+00   2.460219e-02
  9.184446e-01    1.601173e+00   2.469987e-02
  9.206551e-01    1.593957e+00   2.460861e-02
  9.228655e-01    1.609206e+00   2.469071e-02
  9.250760e-01    1.609504e+00   2.465756e-02
  9.272864e-01    1.602994e+00   2.457338e-02
  9.294969e-01    1.633042e+00   2.476646e-02
  9.317074e-01    1.610680e+00   2.456157e-02
  9.339178e-01    1.576715e+00   2.426802e-02
  9.361283e-01    1.606377e+00   2.445911e-02
  9.383387e-01    1.634743e+00   2.464057e-02
  9.405492e-01    1.643291e+00   2.467040e-02
  9.427596e-01    1.654800e+00   2.472100e-02
  9.449701e-01    1.691990e+00   2.496329e-02
  9.471805e-01    1.672139e+00   2.478128e-02
  9.493910e-01    1.645939e+00   2.455262e-02
  9.516015e-01    1.650745e+00   2.455410e-02
  9.538119e-01    1.706878e+00   2.493388e-02
  9.560224e-01    1.744293e+00   2.517019e-02
  9.582328e-01    1.724081e+00   2.499038e-02
  9.604433e-01    1.764863e+00   2.524839e-02
  9.626537e-01    1.771640e+00   2.526283e-02
  9.648642e-01    1.774781e+00   2.525057e-02
  9.670747e-01    1.795663e+00   2.536365e-02
  9.692851e-01    1.872902e+00   2.586897e-02
  9.714956e-01    1.901204e+00   2.602696e-02
  9.737060e-01    1.865699e+00   2.574893e-02
  9.759165e-01    1.850365e+00   2.560674e-02
  9.781269e-01    1.842948e+00   2.552192e-02
  9.803374e-01    1.823015e+00   2.534843e-02
  9.825478e-01    1.798811e+00   2.514637e-02
  9.847583e-01    1.845695e+00   2.543737e-02
  9.869688e-01    1.847983e+00   2.541909e-02
  9.891792e-01    1.801516e+00   2.506410e-02
  9.913897e-01    1.787597e+00   2.493340e-02
  9.936001e-01    1.798660e+00   2.497769e-02
  9.958106e-01    1.779107e+00   2.480780e-02
  9.980210e-01    1.712776e+00   2.430938e-02
  1.000231e+00    1.636781e+00   2.389412e-02
  1.002442e+00    1.613586e+00   2.385026e-02
  1.004652e+00    1.668158e+00   2.431786e-02
  1.006863e+00    1.644519e+00   2.419507e-02
  1.009073e+00    1.606905e+00   2.395338e-02
  1.011284e+00    1.569598e+00   2.370532e-02
  1.013494e+00    1.582949e+00   2.382954e-02
  1.015705e+00    1.560215e+00   2.368016e-02
  1.017915e+00    1.545398e+00   2.358370e-02
  1.020126e+00    1.560272e+00   2.371292e-02
  1.022336e+00    1.510815e+00   2.334559e-02
  1.024547e+00    1.516257e+00   2.339867e-02
  1.026757e+00    1.507128e+00   2.333639e-02
  1.028967e+00    1.517863e+00   2.342696e-02
  1.031178e+00    1.527841e+00   2.351000e-02
  1.033388e+00    1.489305e+00   2.321660e-02
  1.035599e+00    1.530509e+00   2.353898e-02
  1.037809e+00    1.519710e+00   2.345905e-02
  1.040020e+00    1.531255e+00   2.354927e-02
  1.042230e+00    1.518339e+00   2.345169e-02
  1.044441e+00    1.518968e+00   2.345630e-02
  1.046651e+00    1.568700e+00   2.383738e-02
  1.048862e+00    1.557914e+00   2.375450e-02
  1.051072e+00    1.514931e+00   2.342215e-02
  1.053282e+00    1.481962e+00   2.316492e-02
  1.055493e+00    1.478090e+00   2.313036e-02
  1.057703e+00    1.479590e+00   2.314058e-02
  1.059914e+00    1.449096e+00   2.289670e-02
  1.062124e+00    1.444368e+00   2.285529e-02
  1.064335e+00    1.501031e+00   2.329584e-02
  1.066545e+00    1.495303e+00   2.324533e-02
  1.068756e+00    1.480399e+00   2.312547e-02
  1.070966e+00    1.488272e+00   2.318030e-02
  1.073177e+00    1.473158e+00   2.305626e-02
  1.075387e+00    1.475557e+00   2.306976e-02
  1.077597e+00    1.550810e+00   2.364325e-02
  1.079808e+00    1.661760e+00   2.433299e-02
  1.082018e+00    1.629758e+00   2.389805e-02
  1.084229e+00    1.580077e+00   2.341646e-02
  1.086439e+00    1.699177e+00   2.418846e-02
  1.088650e+00    1.680457e+00   2.397356e-02
  1.090860e+00    1.656591e+00   2.373053e-02
  1.093071e+00    1.609387e+00   2.332450e-02
  1.095281e+00    1.546993e+00   2.280868e-02
  1.097492e+00    1.526877e+00   2.260344e-02
  1.099702e+00    1.566624e+00   2.284212e-02
  1.101912e+00    1.874234e+00   2.492841e-02
  1.104123e+00    2.045842e+00   2.598726e-02
  1.106333e+00    1.764303e+00   2.408376e-02
  1.108544e+00    1.559539e+00   2.259681e-02
  1.110754e+00    1.494077e+00   2.207343e-02
  1.112965e+00    1.432014e+00   2.156945e-02
  1.115175e+00    1.430032e+00   2.151316e-02
  1.117386e+00    1.426124e+00   2.144434e-02
  1.119596e+00    1.398384e+00   2.119707e-02
  1.121807e+00    1.392635e+00   2.111486e-02
  1.124017e+00    1.395907e+00   2.110316e-02
  1.126228e+00    1.422327e+00   2.126593e-02
  1.128438e+00    1.413018e+00   2.115933e-02
  1.130648e+00    1.421093e+00   2.118510e-02
  1.132859e+00    1.405849e+00   2.103670e-02
  1.135069e+00    1.408161e+00   2.101908e-02
  1.137280e+00    1.436261e+00   2.119420e-02
  1.139490e+00    1.408751e+00   2.095695e-02
  1.141701e+00    1.384011e+00   2.073899e-02
  1.143911e+00    1.389934e+00   2.075138e-02
  1.146122e+00    1.377431e+00   2.062587e-02
  1.148332e+00    1.394340e+00   2.072003e-02
  1.150543e+00    1.393396e+00   2.068200e-02
  1.152753e+00    1.359312e+00   2.039684e-02
  1.154963e+00    1.361401e+00   2.038158e-02
  1.157174e+00    1.356471e+00   2.031468e-02
  1.159384e+00    1.366025e+00   2.035631e-02
  1.161595e+00    1.365046e+00   2.031924e-02
  1.163805e+00    1.354681e+00   2.021283e-02
  1.166016e+00    1.348343e+00   2.013627e-02
  1.168226e+00    1.352227e+00   2.013644e-02
  1.170437e+00    1.379518e+00   2.030985e-02
  1.172647e+00    1.369430e+00   2.020654e-02
  1.174858e+00    1.396609e+00   2.037762e-02
  1.177068e+00    1.382403e+00   2.024530e-02
  1.179278e+00    1.347758e+00   1.996154e-02
  1.181489e+00    1.355845e+00   1.999438e-02
  1.183699e+00    1.336122e+00   1.982108e-02
  1.185910e+00    1.336261e+00   1.979456e-02
  1.188120e+00    1.329547e+00   1.971834e-02
  1.190331e+00    1.333171e+00   1.971866e-02
  1.192541e+00    1.313704e+00   1.954720e-02
  1.194752e+00    1.331953e+00   1.965565e-02
  1.196962e+00    1.348368e+00   1.975068e-02
  1.199173e+00    1.357849e+00   1.979344e-02
  1.201383e+00    1.352948e+00   1.973050e-02
  1.203593e+00    1.327516e+00   1.951956e-02
  1.205804e+00    1.367827e+00   1.978761e-02
  1.208014e+00    1.368782e+00   1.976750e-02
  1.210225e+00    1.338969e+00   1.952580e-02
  1.212435e+00    1.361347e+00   1.966340e-02
  1.214646e+00    1.348835e+00   1.954674e-02
  1.216856e+00    1.337152e+00   1.943653e-02
  1.219067e+00    1.355379e+00   1.954405e-02
  1.221277e+00    1.326262e+00   1.930818e-02
  1.223488e+00    1.354844e+00   1.948933e-02
  1.225698e+00    1.342088e+00   1.937055e-02
  1.227909e+00    1.316024e+00   1.915175e-02
  1.230119e+00    1.326167e+00   1.919382e-02
  1.232329e+00    1.356637e+00   1.938227e-02
  1.234540e+00    1.377019e+00   1.949675e-02
  1.236750e+00    1.388221e+00   1.954520e-02
  1.238961e+00    1.382402e+00   1.947691e-02
  1.241171e+00    1.355490e+00   1.926217e-02
  1.243382e+00    1.346361e+00   1.917370e-02
  1.245592e+00    1.351731e+00   1.918779e-02
  1.247803e+00    1.359366e+00   1.921816e-02
  1.250013e+00    1.362223e+00   1.921470e-02
  1.252224e+00    1.344348e+00   1.906502e-02
  1.254434e+00    1.335277e+00   1.897698e-02
  1.256644e+00    1.335706e+00   1.895693e-02
  1.258855e+00    1.346204e+00   1.900805e-02
  1.261065e+00    1.348305e+00   1.899953e-02
  1.263276e+00    1.346120e+00   1.896122e-02
  1.265486e+00    1.362015e+00   1.904985e-02
  1.267697e+00    1.340153e+00   1.887342e-02
  1.269907e+00    1.329249e+00   1.877396e-02
  1.272118e+00    1.336493e+00   1.880257e-02
  1.274328e+00    1.342737e+00   1.882378e-02
  1.276539e+00    1.379915e+00   1.905954e-02
  1.278749e+00    1.355962e+00   1.887111e-02
  1.280959e+00    1.327875e+00   1.865226e-02
  1.283170e+00    1.363896e+00   1.888102e-02
  1.285380e+00    1.369678e+00   1.889838e-02
  1.287591e+00    1.355354e+00   1.877723e-02
  1.289801e+00    1.362273e+00   1.880376e-02
  1.292012e+00    1.370810e+00   1.884538e-02
  1.294222e+00    1.351975e+00   1.869921e-02
  1.296433e+00    1.366007e+00   1.878030e-02
  1.298643e+00    1.398841e+00   1.898788e-02
  1.300854e+00    1.470543e+00   1.945132e-02
  1.303064e+00    1.475718e+00   1.946545e-02
  1.305274e+00    1.405801e+00   1.897687e-02
  1.307485e+00    1.369804e+00   1.871059e-02
  1.309695e+00    1.380184e+00   1.875887e-02
  1.311906e+00    1.383733e+00   1.876099e-02
  1.314116e+00    1.407231e+00   1.889839e-02
  1.316327e+00    1.400313e+00   1.882979e-02
  1.318537e+00    1.384326e+00   1.869984e-02
  1.320748e+00    1.372655e+00   1.859911e-02
  1.322958e+00    1.380683e+00   1.863266e-02
  1.325169e+00    1.397841e+00   1.872670e-02
  1.327379e+00    1.365191e+00   1.848476e-02
  1.329589e+00    1.390763e+00   1.863571e-02
  1.331800e+00    1.377908e+00   1.852848e-02
  1.334010e+00    1.360101e+00   1.838762e-02
  1.336221e+00    1.380712e+00   1.850442e-02
  1.338431e+00    1.392976e+00   1.856524e-02
  1.340642e+00    1.349915e+00   1.834019e-02
  1.342852e+00    1.392439e+00   1.872904e-02
  1.345063e+00    1.390477e+00   1.876609e-02
  1.347273e+00    1.368456e+00   1.865239e-02
  1.349484e+00    1.329712e+00   1.841391e-02
  1.351694e+00    1.312731e+00   1.831833e-02
  1.353905e+00    1.316397e+00   1.836168e-02
  1.356115e+00    1.313615e+00   1.835708e-02
  1.358325e+00    1.341082e+00   1.856130e-02
  1.360536e+00    1.343830e+00   1.859191e-02
  1.362746e+00    1.337309e+00   1.855626e-02
  1.364957e+00    1.323284e+00   1.846628e-02
  1.367167e+00    1.336852e+00   1.856785e-02
  1.369378e+00    1.338017e+00   1.858191e-02
  1.371588e+00    1.340312e+00   1.860300e-02
  1.373799e+00    1.320687e+00   1.846994e-02
  1.376009e+00    1.328928e+00   1.853084e-02
  1.378220e+00    1.346272e+00   1.865393e-02
  1.380430e+00    1.322617e+00   1.849202e-02
  1.382640e+00    1.289699e+00   1.826135e-02
  1.384851e+00    1.291597e+00   1.827565e-02
  1.387061e+00    1.269214e+00   1.811688e-02
  1.389272e+00    1.290167e+00   1.826602e-02
  1.391482e+00    1.275583e+00   1.816182e-02
  1.393693e+00    1.280808e+00   1.819810e-02
  1.395903e+00    1.293646e+00   1.828759e-02
  1.398114e+00    1.302919e+00   1.835161e-02
  1.400324e+00    1.283126e+00   1.820958e-02
  1.402535e+00    1.285078e+00   1.822106e-02
  1.404745e+00    1.286706e+00   1.823026e-02
  1.406955e+00    1.280812e+00   1.818574e-02
  1.409166e+00    1.271181e+00   1.811392e-02
  1.411376e+00    1.279032e+00   1.816667e-02
  1.413587e+00    1.249166e+00   1.794953e-02
  1.415797e+00    1.254235e+00   1.798239e-02
  1.418008e+00    1.256237e+00   1.795510e-02
  1.420218e+00    1.263117e+00   1.785485e-02
  1.422429e+00    1.256761e+00   1.772503e-02
  1.424639e+00    1.257380e+00   1.766501e-02
  1.426850e+00    1.271527e+00   1.770939e-02
  1.429060e+00    1.276130e+00   1.769231e-02
  1.431270e+00    1.279906e+00   1.767397e-02
  1.433481e+00    1.295143e+00   1.773750e-02
  1.435691e+00    1.287994e+00   1.764980e-02
  1.437902e+00    1.286257e+00   1.760119e-02
  1.440112e+00    1.275935e+00   1.749501e-02
  1.442323e+00    1.261820e+00   1.736502e-02
  1.444533e+00    1.261660e+00   1.733148e-02
  1.446744e+00    1.261990e+00   1.730272e-02
  1.448954e+00    1.271308e+00   1.733625e-02
  1.451165e+00    1.273823e+00   1.732359e-02
  1.453375e+00    1.278973e+00   1.733045e-02
  1.455586e+00    1.251835e+00   1.711763e-02
  1.457796e+00    1.256462e+00   1.712188e-02
  1.460006e+00    1.242848e+00   1.700189e-02
  1.462217e+00    1.259291e+00   1.708788e-02
  1.464427e+00    1.272319e+00   1.715042e-02
  1.466638e+00    1.280395e+00   1.717932e-02
  1.468848e+00    1.270897e+00   1.709015e-02
  1.471059e+00    1.268489e+00   1.704885e-02
  1.473269e+00    1.291540e+00   1.717848e-02
  1.475480e+00    1.257742e+00   1.692856e-02
  1.477690e+00    1.238405e+00   1.677437e-02
  1.479901e+00    1.249556e+00   1.682604e-02
  1.482111e+00    1.259657e+00   1.687067e-02
  1.484321e+00    1.246046e+00   1.675635e-02
  1.486532e+00    1.268089e+00   1.688155e-02
  1.488742e+00    1.268171e+00   1.685943e-02
  1.490953e+00    1.256463e+00   1.675890e-02
  1.493163e+00    1.262511e+00   1.677689e-02
  1.495374e+00    1.259509e+00   1.673550e-02
  1.497584e+00    1.277182e+00   1.683070e-02
  1.499795e+00    1.269142e+00   1.675594e-02
  1.502005e+00    1.253680e+00   1.663190e-02
  1.504216e+00    1.305948e+00   1.695365e-02
  1.506426e+00    1.274500e+00   1.672736e-02
  1.508636e+00    1.252107e+00   1.655933e-02
  1.510847e+00    1.261765e+00   1.660121e-02
  1.513057e+00    1.265243e+00   1.659889e-02
  1.515268e+00    1.252757e+00   1.649110e-02
  1.517478e+00    1.225394e+00   1.628513e-02
  1.519689e+00    1.252751e+00   1.644096e-02
  1.521899e+00    1.264049e+00   1.649172e-02
  1.524110e+00    1.277742e+00   1.656028e-02
  1.526320e+00    1.268525e+00   1.648074e-02
  1.528531e+00    1.261296e+00   1.641387e-02
  1.530741e+00    1.251632e+00   1.633170e-02
  1.532951e+00    1.240681e+00   1.624059e-02
  1.535162e+00    1.221412e+00   1.619959e-02
  1.537372e+00    1.231671e+00   1.633391e-02
  1.539583e+00    1.260836e+00   1.656058e-02
  1.541793e+00    1.242916e+00   1.644941e-02
  1.544004e+00    1.237203e+00   1.641180e-02
  1.546214e+00    1.249801e+00   1.649367e-02
  1.548425e+00    1.225161e+00   1.633051e-02
  1.550635e+00    1.222085e+00   1.631960e-02
  1.552846e+00    1.208655e+00   1.623919e-02
  1.555056e+00    1.246578e+00   1.645046e-02
  1.557266e+00    1.244108e+00   1.632372e-02
  1.559477e+00    1.259994e+00   1.636814e-02
  1.561687e+00    1.242718e+00   1.622489e-02
  1.563898e+00    1.230561e+00   1.612827e-02
  1.566108e+00    1.238091e+00   1.616161e-02
  1.568319e+00    1.267398e+00   1.633602e-02
  1.570529e+00    1.260042e+00   1.626325e-02
  1.572740e+00    1.266363e+00   1.627614e-02
  1.574950e+00    1.245083e+00   1.611247e-02
  1.577161e+00    1.257405e+00   1.616642e-02
  1.579371e+00    1.218188e+00   1.588890e-02
  1.581582e+00    1.236185e+00   1.598612e-02
  1.583792e+00    1.219457e+00   1.585975e-02
  1.586002e+00    1.238016e+00   1.596242e-02
  1.588213e+00    1.229598e+00   1.589091e-02
  1.590423e+00    1.251073e+00   1.600895e-02
  1.592634e+00    1.255735e+00   1.601703e-02
  1.594844e+00    1.241096e+00   1.590201e-02
  1.597055e+00    1.245621e+00   1.591046e-02
  1.599265e+00    1.241740e+00   1.586493e-02
  1.601476e+00    1.223097e+00   1.572522e-02
  1.603686e+00    1.242126e+00   1.582729e-02
  1.605897e+00    1.253159e+00   1.587715e-02
  1.608107e+00    1.244046e+00   1.579971e-02
  1.610317e+00    1.237699e+00   1.574004e-02
  1.612528e+00    1.267395e+00   1.590832e-02
  1.614738e+00    1.253179e+00   1.579975e-02
  1.616949e+00    1.224925e+00   1.560166e-02
  1.619159e+00    1.220380e+00   1.555398e-02
  1.621370e+00    1.215064e+00   1.550163e-02
  1.623580e+00    1.216767e+00   1.549414e-02
  1.625791e+00    1.197217e+00   1.535100e-02
  1.628001e+00    1.188040e+00   1.527389e-02
  1.630212e+00    1.175308e+00   1.517422e-02
  1.632422e+00    1.149891e+00   1.499162e-02
  1.634632e+00    1.152939e+00   1.499437e-02
  1.636843e+00    1.165272e+00   1.505690e-02
  1.639053e+00    1.156713e+00   1.498436e-02
  1.641264e+00    1.151557e+00   1.493395e-02
  1.643474e+00    1.151369e+00   1.491543e-02
  1.645685e+00    1.130820e+00   1.476527e-02
  1.647895e+00    1.112629e+00   1.462972e-02
  1.650106e+00    1.125848e+00   1.469958e-02
  1.652316e+00    1.162265e+00   1.491880e-02
  1.654527e+00    1.197523e+00   1.512637e-02
  1.656737e+00    1.130276e+00   1.467900e-02
  1.658947e+00    1.132510e+00   1.467721e-02
  1.661158e+00    1.128213e+00   1.463306e-02
  1.663368e+00    1.112576e+00   1.451537e-02
  1.665579e+00    1.110745e+00   1.448731e-02
  1.667789e+00    1.088641e+00   1.432641e-02
  1.670000e+00    1.095557e+00   1.435648e-02
  1.672210e+00    1.085216e+00   1.427285e-02
  1.674421e+00    1.089568e+00   1.428624e-02
  1.676631e+00    1.062204e+00   1.409009e-02
  1.678842e+00    1.098395e+00   1.431235e-02
  1.681052e+00    1.105978e+00   1.434621e-02
  1.683263e+00    1.082124e+00   1.417558e-02
  1.685473e+00    1.055529e+00   1.398535e-02
  1.687683e+00    1.083638e+00   1.415490e-02
  1.689894e+00    1.111466e+00   1.431951e-02
  1.692104e+00    1.162732e+00   1.463052e-02
  1.694315e+00    1.206778e+00   1.488969e-02
  1.696525e+00    1.165419e+00   1.461650e-02
  1.698736e+00    1.110235e+00   1.425113e-02
  1.700946e+00    1.058564e+00   1.390042e-02
  1.703157e+00    1.054675e+00   1.386022e-02
  1.705367e+00    1.044160e+00   1.377653e-02
  1.707578e+00    1.046382e+00   1.377661e-02
  1.709788e+00    1.030868e+00   1.366012e-02
  1.711998e+00    1.008079e+00   1.349350e-02
  1.714209e+00    1.014447e+00   1.352179e-02
  1.716419e+00    1.012627e+00   1.349553e-02
  1.718630e+00    1.039875e+00   1.366157e-02
  1.720840e+00    1.039205e+00   1.364292e-02
  1.723051e+00    1.019869e+00   1.350157e-02
  1.725261e+00    1.004693e+00   1.338618e-02
  1.727472e+00    1.002277e+00   1.335600e-02
  1.729682e+00    1.003235e+00   1.334902e-02
  1.731893e+00    9.926964e-01   1.326493e-02
  1.734103e+00    1.009459e+00   1.336267e-02
  1.736313e+00    1.007055e+00   1.333273e-02
  1.738524e+00    1.014828e+00   1.337017e-02
  1.740734e+00    9.906436e-01   1.319626e-02
  1.742945e+00    9.940060e-01   1.320518e-02
  1.745155e+00    1.037598e+00   1.347788e-02
  1.747366e+00    1.039288e+00   1.347473e-02
  1.749576e+00    1.030683e+00   1.340483e-02
  1.751787e+00    1.003996e+00   1.321668e-02
  1.753997e+00    9.637633e-01   1.293587e-02
  1.756208e+00    9.609500e-01   1.290386e-02
  1.758418e+00    9.645285e-01   1.291481e-02
  1.760628e+00    9.578630e-01   1.285683e-02
  1.762839e+00    9.954381e-01   1.309313e-02
  1.765049e+00    1.025468e+00   1.327563e-02
  1.767260e+00    1.061196e+00   1.349145e-02
  1.769470e+00    1.063759e+00   1.349403e-02
  1.771681e+00    1.068107e+00   1.350767e-02
  1.773891e+00    1.028015e+00   1.323819e-02
  1.776102e+00    9.875237e-01   1.296169e-02
  1.778312e+00    9.904893e-01   1.296809e-02
  1.780523e+00    1.030848e+00   1.321631e-02
  1.782733e+00    1.126475e+00   1.380181e-02
  1.784944e+00    1.191937e+00   1.418269e-02
  1.787154e+00    1.130139e+00   1.379636e-02
  1.789364e+00    1.021794e+00   1.310531e-02
  1.791575e+00    9.494424e-01   1.262009e-02
  1.793785e+00    9.786580e-01   1.280000e-02
  1.795996e+00    9.802015e-01   1.279719e-02
  1.798206e+00    9.570514e-01   1.263239e-02
  1.800417e+00    9.409478e-01   1.251282e-02
  1.802627e+00    9.195821e-01   1.235797e-02
  1.804838e+00    9.255915e-01   1.238608e-02
  1.807048e+00    9.316863e-01   1.241378e-02
  1.809259e+00    9.702263e-01   1.265386e-02
  1.811469e+00    1.042125e+00   1.309826e-02
  1.813679e+00    1.090636e+00   1.338323e-02
  1.815890e+00    1.020565e+00   1.293049e-02
  1.818100e+00    9.228316e-01   1.228042e-02
  1.820311e+00    9.026815e-01   1.213077e-02
  1.822521e+00    8.827969e-01   1.198161e-02
  1.824732e+00    8.823457e-01   1.196379e-02
  1.826942e+00    8.872568e-01   1.198472e-02
  1.829153e+00    8.825126e-01   1.194096e-02
  1.831363e+00    8.765360e-01   1.188847e-02
  1.833574e+00    8.855410e-01   1.193768e-02
  1.835784e+00    8.483316e-01   1.167297e-02
  1.837994e+00    8.555991e-01   1.171128e-02
  1.840205e+00    8.625587e-01   1.174774e-02
  1.842415e+00    8.464830e-01   1.162615e-02
  1.844626e+00    8.515733e-01   1.164962e-02
  1.846836e+00    8.465995e-01   1.160426e-02
  1.849047e+00    8.593596e-01   1.167982e-02
  1.851257e+00    8.610941e-01   1.168205e-02
  1.853468e+00    8.609350e-01   1.167217e-02
  1.855678e+00    8.764893e-01   1.176817e-02
  1.857889e+00    8.738678e-01   1.174200e-02
  1.860099e+00    8.440304e-01   1.153124e-02
  1.862309e+00    8.240069e-01   1.138528e-02
  1.864520e+00    8.436456e-01   1.151163e-02
  1.866730e+00    8.470379e-01   1.152542e-02
  1.868941e+00    8.391311e-01   1.146064e-02
  1.871151e+00    8.346725e-01   1.141887e-02
  1.873362e+00    8.642876e-01   1.160823e-02
  1.875572e+00    8.719981e-01   1.164884e-02
  1.877783e+00    8.476505e-01   1.147364e-02
  1.879993e+00    8.400996e-01   1.141129e-02
  1.882204e+00    8.365205e-01   1.137613e-02
  1.884414e+00    8.309040e-01   1.132687e-02
  1.886624e+00    8.405654e-01   1.138149e-02
  1.888835e+00    8.373166e-01   1.134854e-02
  1.891045e+00    8.212396e-01   1.122828e-02
  1.893256e+00    8.492248e-01   1.140684e-02
  1.895466e+00    8.463843e-01   1.137651e-02
  1.897677e+00    8.497145e-01   1.138786e-02
  1.899887e+00    8.415449e-01   1.132196e-02
  1.902098e+00    8.337526e-01   1.125855e-02
  1.904308e+00    8.463964e-01   1.133294e-02
  1.906519e+00    8.520513e-01   1.135973e-02
  1.908729e+00    8.522696e-01   1.135044e-02
  1.910940e+00    9.097617e-01   1.171532e-02
  1.913150e+00    9.409008e-01   1.190290e-02
  1.915360e+00    8.561075e-01   1.134307e-02
  1.917571e+00    8.382562e-01   1.121319e-02
  1.919781e+00    8.310882e-01   1.115440e-02
  1.921992e+00    8.254193e-01   1.110563e-02
  1.924202e+00    8.311772e-01   1.113345e-02
  1.926413e+00    8.050442e-01   1.094681e-02
  1.928623e+00    8.063695e-01   1.094530e-02
  1.930834e+00    8.195390e-01   1.102386e-02
  1.933044e+00    7.929751e-01   1.083320e-02
  1.935255e+00    7.987301e-01   1.086215e-02
  1.937465e+00    8.061701e-01   1.090226e-02
  1.939675e+00    8.093867e-01   1.091312e-02
  1.941886e+00    7.985649e-01   1.082968e-02
  1.944096e+00    7.969280e-01   1.080842e-02
  1.946307e+00    8.038154e-01   1.084469e-02
  1.948517e+00    7.889317e-01   1.073345e-02
  1.950728e+00    7.742333e-01   1.062290e-02
  1.952938e+00    7.778332e-01   1.063759e-02
  1.955149e+00    7.799712e-01   1.064210e-02
  1.957359e+00    7.803720e-01   1.063485e-02
  1.959570e+00    8.052887e-01   1.079237e-02
  1.961780e+00    8.019016e-01   1.075970e-02
  1.963990e+00    7.939997e-01   1.069641e-02
  1.966201e+00    7.933419e-01   1.068191e-02
  1.968411e+00    7.764496e-01   1.055750e-02
  1.970622e+00    7.798039e-01   1.057024e-02
  1.972832e+00    8.037409e-01   1.072116e-02
  1.975043e+00    7.963413e-01   1.066161e-02
  1.977253e+00    7.958294e-01   1.064815e-02
  1.979464e+00    7.879381e-01   1.058517e-02
  1.981674e+00    7.919099e-01   1.060149e-02
  1.983885e+00    7.748551e-01   1.047674e-02
  1.986095e+00    7.802495e-01   1.050343e-02
  1.988305e+00    7.862013e-01   1.053349e-02
  1.990516e+00    7.984560e-01   1.060520e-02
  1.992726e+00    8.101951e-01   1.067302e-02
  1.994937e+00    8.373572e-01   1.083994e-02
  1.997147e+00    8.187021e-01   1.070854e-02
  1.999358e+00    7.884784e-01   1.049907e-02
  2.001568e+00    7.773378e-01   1.041378e-02
  2.003779e+00    7.850257e-01   1.045315e-02
  2.005989e+00    7.771112e-01   1.038826e-02
  2.008200e+00    7.607893e-01   1.026713e-02
  2.010410e+00    7.665661e-01   1.029430e-02
  2.012621e+00    7.666222e-01   1.028300e-02
  2.014831e+00    7.609183e-01   1.023324e-02
  2.017041e+00    7.656287e-01   1.025449e-02
  2.019252e+00    7.608678e-01   1.021264e-02
  2.021462e+00    7.528226e-01   1.014906e-02
  2.023673e+00    7.546191e-01   1.015184e-02
  2.025883e+00    7.610016e-01   1.018517e-02
  2.028094e+00    7.687517e-01   1.022723e-02
  2.030304e+00    7.594494e-01   1.015563e-02
  2.032515e+00    7.744010e-01   1.024573e-02
  2.034725e+00    7.738855e-01   1.023281e-02
  2.036936e+00    7.546905e-01   1.009578e-02
  2.039146e+00    7.598848e-01   1.012087e-02
  2.041356e+00    7.626988e-01   1.012989e-02
  2.043567e+00    7.746857e-01   1.019979e-02
  2.045777e+00    7.693346e-01   1.015516e-02
  2.047988e+00    7.462504e-01   9.992335e-03
  2.050198e+00    7.517304e-01   1.002053e-02
  2.052409e+00    7.665769e-01   1.011126e-02
  2.054619e+00    7.657552e-01   1.009842e-02
  2.056830e+00    7.704346e-01   1.012195e-02
  2.059040e+00    7.642701e-01   1.007379e-02
  2.061251e+00    7.658729e-01   1.007703e-02
  2.063461e+00    7.602708e-01   1.003246e-02
  2.065671e+00    7.500873e-01   9.956303e-03
  2.067882e+00    7.598200e-01   1.001162e-02
  2.070092e+00    7.661205e-01   1.004374e-02
  2.072303e+00    7.668566e-01   1.003930e-02
  2.074513e+00    7.505730e-01   9.922804e-03
  2.076724e+00    7.329841e-01   9.796432e-03
  2.078934e+00    7.462632e-01   9.875763e-03
  2.081145e+00    7.405043e-01   9.828513e-03
  2.083355e+00    7.571151e-01   9.928861e-03
  2.085566e+00    7.494494e-01   9.869535e-03
  2.087776e+00    7.393878e-01   9.793531e-03
  2.089986e+00    7.419072e-01   9.801405e-03
  2.092197e+00    7.316872e-01   9.724744e-03
  2.094407e+00    7.377648e-01   9.755809e-03
  2.096618e+00    7.372871e-01   9.743731e-03
  2.098828e+00    7.506397e-01   9.822158e-03
  2.101039e+00    7.469554e-01   9.788965e-03
  2.103249e+00    7.372542e-01   9.716496e-03
  2.105460e+00    7.386127e-01   9.716352e-03
  2.107670e+00    7.186792e-01   9.575693e-03
  2.109881e+00    7.204177e-01   9.578124e-03
  2.112091e+00    7.326308e-01   9.649947e-03
  2.114301e+00    7.469009e-01   9.734560e-03
  2.116512e+00    7.229412e-01   9.568369e-03
  2.118722e+00    7.320208e-01   9.619365e-03
  2.120933e+00    7.334164e-01   9.619600e-03
  2.123143e+00    7.207393e-01   9.527186e-03
  2.125354e+00    7.091898e-01   9.442057e-03
  2.127564e+00    7.219278e-01   9.517702e-03
  2.129775e+00    7.301026e-01   9.562627e-03
  2.131985e+00    7.179058e-01   9.473355e-03
  2.134196e+00    7.095532e-01   9.409500e-03
  2.136406e+00    7.181554e-01   9.457589e-03
  2.138617e+00    7.161604e-01   9.435956e-03
  2.140827e+00    7.151679e-01   9.445542e-03
  2.143037e+00    7.246051e-01   9.553690e-03
  2.145248e+00    7.180117e-01   9.532333e-03
  2.147458e+00    6.930488e-01   9.380179e-03
  2.149669e+00    6.954270e-01   9.408031e-03
  2.151879e+00    7.041704e-01   9.476225e-03
  2.154090e+00    7.094933e-01   9.519334e-03
  2.156300e+00    7.131418e-01   9.550452e-03
  2.158511e+00    7.005414e-01   9.471005e-03
  2.160721e+00    7.038935e-01   9.498468e-03
  2.162932e+00    7.046818e-01   9.507555e-03
  2.165142e+00    6.992959e-01   9.474169e-03
  2.167352e+00    6.902509e-01   9.415605e-03
  2.169563e+00    7.074345e-01   9.534049e-03
  2.171773e+00    6.819695e-01   9.363310e-03
  2.173984e+00    6.920041e-01   9.433361e-03
  2.176194e+00    6.791952e-01   9.346828e-03
  2.178405e+00    6.777570e-01   9.337615e-03
  2.180615e+00    6.844074e-01   9.383992e-03
  2.182826e+00    6.922819e-01   9.438505e-03
  2.185036e+00    6.814002e-01   9.364098e-03
  2.187247e+00    6.626704e-01   9.234435e-03
  2.189457e+00    6.738914e-01   9.311889e-03
  2.191667e+00    6.908777e-01   9.428337e-03
  2.193878e+00    6.908352e-01   9.427490e-03
  2.196088e+00    6.915538e-01   9.431705e-03
  2.198299e+00    6.933747e-01   9.443021e-03
  2.200509e+00    6.761342e-01   9.323837e-03
  2.202720e+00    6.650998e-01   9.246294e-03
  2.204930e+00    6.808900e-01   9.354154e-03
  2.207141e+00    6.764683e-01   9.322646e-03
  2.209351e+00    6.753337e-01   9.312944e-03
  2.211562e+00    6.758884e-01   9.315131e-03
  2.213772e+00    6.729296e-01   9.239431e-03
  2.215982e+00    6.605929e-01   9.110614e-03
  2.218193e+00    6.758384e-01   9.185513e-03
  2.220403e+00    6.778213e-01   9.174343e-03
  2.222614e+00    6.633639e-01   9.055196e-03
  2.224824e+00    6.560286e-01   8.985847e-03
  2.227035e+00    6.555942e-01   8.965663e-03
  2.229245e+00    6.794401e-01   9.110167e-03
  2.231456e+00    6.930502e-01   9.185127e-03
  2.233666e+00    6.893008e-01   9.144935e-03
  2.235877e+00    6.772450e-01   9.050282e-03
  2.238087e+00    6.825681e-01   9.072159e-03
  2.240298e+00    6.839271e-01   9.067276e-03
  2.242508e+00    6.717952e-01   8.971336e-03
  2.244718e+00    6.719701e-01   8.956656e-03
  2.246929e+00    6.684323e-01   8.918621e-03
  2.249139e+00    6.526245e-01   8.800309e-03
  2.251350e+00    6.509494e-01   8.777402e-03
  2.253560e+00    6.519759e-01   8.772923e-03
  2.255771e+00    6.455106e-01   8.718055e-03
  2.257981e+00    6.726180e-01   8.887969e-03
  2.260192e+00    6.716699e-01   8.870565e-03
  2.262402e+00    6.647640e-01   8.813980e-03
  2.264613e+00    6.632722e-01   8.793248e-03
  2.266823e+00    6.657692e-01   8.799371e-03
  2.269033e+00    6.650516e-01   8.784234e-03
  2.271244e+00    6.405544e-01   8.610717e-03
  2.273454e+00    6.462014e-01   8.638442e-03
  2.275665e+00    6.545776e-01   8.684004e-03
  2.277875e+00    6.644003e-01   8.738955e-03
  2.280086e+00    6.661808e-01   8.740589e-03
  2.282296e+00    6.531543e-01   8.645334e-03
  2.284507e+00    6.713502e-01   8.754716e-03
  2.286717e+00    6.562734e-01   8.646386e-03
  2.288928e+00    6.574819e-01   8.644483e-03
  2.291138e+00    6.521779e-01   8.600149e-03
  2.293348e+00    6.513482e-01   8.585172e-03
  2.295559e+00    6.561089e-01   8.607161e-03
  2.297769e+00    6.640293e-01   8.649655e-03
  2.299980e+00    6.365042e-01   8.459293e-03
  2.302190e+00    6.267074e-01   8.384967e-03
  2.304401e+00    6.456051e-01   8.501180e-03
  2.306611e+00    6.556681e-01   8.557962e-03
  2.308822e+00    6.468369e-01   8.491776e-03
  2.311032e+00    6.520968e-01   8.519768e-03
  2.313243e+00    6.553735e-01   8.534844e-03
  2.315453e+00    6.499787e-01   8.492083e-03
  2.317663e+00    6.390830e-01   8.411524e-03
  2.319874e+00    6.559984e-01   8.513317e-03
  2.322084e+00    6.560112e-01   8.504381e-03
  2.324295e+00    6.456702e-01   8.428865e-03
  2.326505e+00    6.301938e-01   8.318275e-03
  2.328716e+00    6.294045e-01   8.304597e-03
  2.330926e+00    6.407934e-01   8.370616e-03
  2.333137e+00    6.557719e-01   8.459422e-03
  2.335347e+00    6.460246e-01   8.387416e-03
  2.337558e+00    6.393315e-01   8.335640e-03
  2.339768e+00    6.394678e-01   8.327944e-03
  2.341979e+00    6.367381e-01   8.301805e-03
  2.344189e+00    6.214187e-01   8.193057e-03
  2.346399e+00    6.051582e-01   8.076840e-03
  2.348610e+00    6.304207e-01   8.235288e-03
  2.350820e+00    6.292180e-01   8.219278e-03
  2.353031e+00    6.452999e-01   8.315302e-03
  2.355241e+00    6.368732e-01   8.252759e-03
  2.357452e+00    6.268091e-01   8.178909e-03
  2.359662e+00    6.168811e-01   8.105758e-03
  2.361873e+00    6.276992e-01   8.168291e-03
  2.364083e+00    6.129777e-01   8.064070e-03
  2.366294e+00    6.043214e-01   7.998958e-03
  2.368504e+00    6.154226e-01   8.064087e-03
  2.370714e+00    6.136348e-01   8.044404e-03
  2.372925e+00    6.109391e-01   8.018738e-03
  2.375135e+00    6.194889e-01   8.066627e-03
  2.377346e+00    6.189907e-01   8.055477e-03
  2.379556e+00    6.285712e-01   8.109637e-03
  2.381767e+00    6.262034e-01   8.086458e-03
  2.383977e+00    6.195332e-01   8.035361e-03
  2.386188e+00    6.085266e-01   7.955810e-03
  2.388398e+00    6.104622e-01   7.960545e-03
  2.390609e+00    6.072513e-01   7.931910e-03
  2.392819e+00    6.292590e-01   8.066513e-03
  2.395029e+00    6.185260e-01   7.989767e-03
  2.397240e+00    5.868665e-01   7.774890e-03
  2.399450e+00    6.019330e-01   7.866323e-03
  2.401661e+00    6.080247e-01   7.898379e-03
  2.403871e+00    6.005526e-01   7.842018e-03
  2.406082e+00    5.937520e-01   7.790138e-03
  2.408292e+00    6.002300e-01   7.824793e-03
  2.410503e+00    5.915270e-01   7.760481e-03
  2.412713e+00    5.947705e-01   7.773992e-03
  2.414924e+00    5.949937e-01   7.768053e-03
  2.417134e+00    6.016979e-01   7.804060e-03
  2.419344e+00    6.100037e-01   7.850298e-03
  2.421555e+00    6.082023e-01   7.831158e-03
  2.423765e+00    6.089019e-01   7.828198e-03
  2.425976e+00    6.065053e-01   7.804929e-03
  2.428186e+00    5.933077e-01   7.712363e-03
  2.430397e+00    5.972695e-01   7.730577e-03
  2.432607e+00    5.940199e-01   7.702258e-03
  2.434818e+00    5.924338e-01   7.684449e-03
  2.437028e+00    5.989810e-01   7.719615e-03
  2.439239e+00    5.890238e-01   7.647540e-03
  2.441449e+00    6.026375e-01   7.728164e-03
  2.443659e+00    6.044129e-01   7.732108e-03
  2.445870e+00    5.941777e-01   7.678663e-03
  2.448080e+00    5.770985e-01   7.602128e-03
  2.450291e+00    5.672223e-01   7.553251e-03
  2.452501e+00    5.775898e-01   7.633142e-03
  2.454712e+00    5.673839e-01   7.573797e-03
  2.456922e+00    5.619594e-01   7.544066e-03
  2.459133e+00    5.759708e-01   7.643003e-03
  2.461343e+00    5.873809e-01   7.722774e-03
  2.463554e+00    5.693702e-01   7.606947e-03
  2.465764e+00    5.589780e-01   7.540325e-03
  2.467975e+00    5.493231e-01   7.477179e-03
  2.470185e+00    5.482269e-01   7.471952e-03
  2.472395e+00    5.493702e-01   7.480957e-03
  2.474606e+00    5.374187e-01   7.400670e-03
  2.476816e+00    5.414755e-01   7.429279e-03
  2.479027e+00    5.407928e-01   7.425435e-03
  2.481237e+00    5.441957e-01   7.449032e-03
  2.483448e+00    5.601335e-01   7.557627e-03
  2.485658e+00    5.501874e-01   7.490106e-03
  2.487869e+00    5.401486e-01   7.421482e-03
  2.490079e+00    5.339222e-01   7.378071e-03
  2.492290e+00    5.478048e-01   7.472928e-03
  2.494500e+00    5.413083e-01   7.427767e-03
  2.496710e+00    5.361443e-01   7.391545e-03
  2.498921e+00    5.341105e-01   7.376535e-03
  2.501131e+00    5.252610e-01   7.314208e-03
  2.503342e+00    5.409957e-01   7.421690e-03
  2.505552e+00    5.316783e-01   7.356384e-03
  2.507763e+00    5.244708e-01   7.304910e-03
  2.509973e+00    5.361322e-01   7.384301e-03
  2.512184e+00    5.324578e-01   7.357309e-03
  2.514394e+00    5.279062e-01   7.316441e-03
  2.516605e+00    5.271875e-01   7.264356e-03
  2.518815e+00    5.239583e-01   7.213810e-03
  2.521025e+00    5.281094e-01   7.221310e-03
  2.523236e+00    5.377346e-01   7.268632e-03
  2.525446e+00    5.205852e-01   7.136261e-03
  2.527657e+00    5.213733e-01   7.127104e-03
  2.529867e+00    5.278990e-01   7.157353e-03
  2.532078e+00    5.320859e-01   7.170537e-03
  2.534288e+00    5.352409e-01   7.177743e-03
  2.536499e+00    5.316543e-01   7.141643e-03
  2.538709e+00    5.348507e-01   7.151962e-03
  2.540920e+00    5.330597e-01   7.129252e-03
  2.543130e+00    5.210785e-01   7.038348e-03
  2.545340e+00    5.283372e-01   7.077078e-03
  2.547551e+00    5.255204e-01   7.048230e-03
  2.549761e+00    5.203260e-01   7.003742e-03
  2.551972e+00    5.200270e-01   6.992398e-03
  2.554182e+00    5.223227e-01   6.998615e-03
  2.556393e+00    5.279248e-01   7.026909e-03
  2.558603e+00    5.110102e-01   6.904427e-03
  2.560814e+00    5.069015e-01   6.868017e-03
  2.563024e+00    5.125795e-01   6.897841e-03
  2.565235e+00    5.262858e-01   6.979896e-03
  2.567445e+00    5.107061e-01   6.866340e-03
  2.569656e+00    5.196859e-01   6.916658e-03
  2.571866e+00    5.171270e-01   6.890271e-03
  2.574076e+00    5.211019e-01   6.907393e-03
  2.576287e+00    5.113679e-01   6.834294e-03
  2.578497e+00    5.087615e-01   6.809058e-03
  2.580708e+00    5.122002e-01   6.823981e-03
  2.582918e+00    5.086488e-01   6.792558e-03
  2.585129e+00    5.122536e-01   6.808845e-03
  2.587339e+00    5.059663e-01   6.759333e-03
  2.589550e+00    5.069985e-01   6.758695e-03
  2.591760e+00    5.154325e-01   6.806923e-03
  2.593971e+00    5.053561e-01   6.732586e-03
  2.596181e+00    4.950021e-01   6.657126e-03
  2.598391e+00    5.056199e-01   6.722989e-03
  2.600602e+00    5.144410e-01   6.775436e-03
  2.602812e+00    5.026944e-01   6.690159e-03
  2.605023e+00    4.982664e-01   6.653517e-03
  2.607233e+00    5.147576e-01   6.755547e-03
  2.609444e+00    5.133631e-01   6.739117e-03
  2.611654e+00    5.133997e-01   6.731996e-03
  2.613865e+00    5.210516e-01   6.774839e-03
  2.616075e+00    5.161831e-01   6.735898e-03
  2.618286e+00    5.137796e-01   6.713158e-03
  2.620496e+00    4.967438e-01   6.594275e-03
  2.622706e+00    5.027586e-01   6.628335e-03
  2.624917e+00    5.016288e-01   6.615072e-03
  2.627127e+00    5.028017e-01   6.617052e-03
  2.629338e+00    4.970301e-01   6.573037e-03
  2.631548e+00    5.076969e-01   6.636984e-03
  2.633759e+00    5.067538e-01   6.623650e-03
  2.635969e+00    5.142975e-01   6.665991e-03
  2.638180e+00    5.025182e-01   6.582233e-03
  2.640390e+00    5.089653e-01   6.617652e-03
  2.642601e+00    5.045571e-01   6.582260e-03
  2.644811e+00    4.980892e-01   6.532868e-03
  2.647021e+00    5.006170e-01   6.542841e-03
  2.649232e+00    5.033597e-01   6.554027e-03
  2.651442e+00    4.926793e-01   6.477627e-03
  2.653653e+00    5.048085e-01   6.550061e-03
  2.655863e+00    5.165082e-01   6.618724e-03
  2.658074e+00    5.109326e-01   6.576211e-03
  2.660284e+00    5.090874e-01   6.557892e-03
  2.662495e+00    5.036401e-01   6.515924e-03
  2.664705e+00    5.065226e-01   6.527905e-03
  2.666916e+00    4.956849e-01   6.451232e-03
  2.669126e+00    4.941480e-01   6.434785e-03
  2.671337e+00    4.992487e-01   6.461292e-03
  2.673547e+00    4.896829e-01   6.392772e-03
  2.675757e+00    4.981449e-01   6.441268e-03
  2.677968e+00    4.886098e-01   6.372860e-03
  2.680178e+00    4.840370e-01   6.336622e-03
  2.682389e+00    4.916428e-01   6.379818e-03
  2.684599e+00    4.992501e-01   6.422769e-03
  2.686810e+00    4.999470e-01   6.420589e-03
  2.689020e+00    4.955478e-01   6.385976e-03
  2.691231e+00    4.844628e-01   6.307894e-03
  2.693441e+00    4.914073e-01   6.346779e-03
  2.695652e+00    4.880429e-01   6.318537e-03
  2.697862e+00    4.838198e-01   6.284816e-03
  2.700072e+00    4.762289e-01   6.229336e-03
  2.702283e+00    4.878621e-01   6.298742e-03
  2.704493e+00    4.792923e-01   6.236957e-03
  2.706704e+00    4.775637e-01   6.219368e-03
  2.708914e+00    4.712433e-01   6.172210e-03
  2.711125e+00    4.939643e-01   6.312950e-03
  2.713335e+00    4.923517e-01   6.296542e-03
  2.715546e+00    4.757964e-01   6.183387e-03
  2.717756e+00    4.984832e-01   6.323118e-03
  2.719967e+00    4.769668e-01   6.179005e-03
  2.722177e+00    4.871947e-01   6.238763e-03
  2.724387e+00    4.888184e-01   6.243025e-03
  2.726598e+00    4.933074e-01   6.265512e-03
  2.728808e+00    5.032004e-01   6.321779e-03
  2.731019e+00    4.973063e-01   6.278416e-03
  2.733229e+00    5.179906e-01   6.401659e-03
  2.735440e+00    5.216898e-01   6.417992e-03
  2.737650e+00    5.077525e-01   6.325506e-03
  2.739861e+00    4.891306e-01   6.202331e-03
  2.742071e+00    4.936281e-01   6.224960e-03
  2.744282e+00    4.768554e-01   6.112090e-03
  2.746492e+00    4.855351e-01   6.161398e-03
  2.748702e+00    4.766976e-01   6.099205e-03
  2.750913e+00    4.815097e-01   6.124103e-03
  2.753123e+00    4.871776e-01   6.153909e-03
  2.755334e+00    4.880396e-01   6.153218e-03
  2.757544e+00    4.763458e-01   6.073354e-03
  2.759755e+00    4.827286e-01   6.107982e-03
  2.761965e+00    5.040110e-01   6.235061e-03
  2.764176e+00    4.833292e-01   6.099810e-03
  2.766386e+00    4.741332e-01   6.035721e-03
  2.768597e+00    4.689490e-01   5.996847e-03
  2.770807e+00    4.775115e-01   6.045470e-03
  2.773017e+00    4.835278e-01   6.077443e-03
  2.775228e+00    4.786890e-01   6.041160e-03
  2.777438e+00    4.851005e-01   6.075663e-03
  2.779649e+00    4.690294e-01   5.968325e-03
  2.781859e+00    4.736577e-01   5.991952e-03
  2.784070e+00    4.784007e-01   6.016024e-03
  2.786280e+00    4.657908e-01   5.930505e-03
  2.788491e+00    4.662215e-01   5.927475e-03
  2.790701e+00    4.668728e-01   5.926023e-03
  2.792912e+00    4.795162e-01   5.999725e-03
  2.795122e+00    4.892045e-01   6.054247e-03
  2.797333e+00    4.752826e-01   5.961928e-03
  2.799543e+00    4.768330e-01   5.965739e-03
  2.801753e+00    4.927179e-01   6.058364e-03
  2.803964e+00    4.799242e-01   5.973494e-03
  2.806174e+00    4.764667e-01   5.945781e-03
  2.808385e+00    4.714552e-01   5.907658e-03
  2.810595e+00    4.790798e-01   5.948339e-03
  2.812806e+00    4.805017e-01   5.950516e-03
  2.815016e+00    4.672416e-01   5.863116e-03
  2.817227e+00    4.686325e-01   5.897620e-03
  2.819437e+00    4.804917e-01   5.982930e-03
  2.821648e+00    4.696502e-01   5.917338e-03
  2.823858e+00    4.855722e-01   6.022192e-03
  2.826068e+00    4.869498e-01   6.035806e-03
  2.828279e+00    4.657292e-01   5.906839e-03
  2.830489e+00    4.587223e-01   5.865504e-03
  2.832700e+00    4.653611e-01   5.910342e-03
  2.834910e+00    4.777988e-01   5.990871e-03
  2.837121e+00    4.812282e-01   6.014080e-03
  2.839331e+00    4.748628e-01   5.975402e-03
  2.841542e+00    4.581119e-01   5.870081e-03
  2.843752e+00    4.607147e-01   5.887475e-03
  2.845963e+00    4.706093e-01   5.950769e-03
  2.848173e+00    4.827282e-01   6.026998e-03
  2.850383e+00    4.710086e-01   5.953691e-03
  2.852594e+00    4.651805e-01   5.916649e-03
  2.854804e+00    4.711838e-01   5.954199e-03
  2.857015e+00    4.765801e-01   5.987747e-03
  2.859225e+00    4.853181e-01   6.042165e-03
  2.861436e+00    4.649359e-01   5.913263e-03
  2.863646e+00    4.609666e-01   5.888001e-03
  2.865857e+00    4.704898e-01   5.948845e-03
  2.868067e+00    4.654681e-01   5.917250e-03
  2.870278e+00    4.650734e-01   5.914385e-03
  2.872488e+00    4.633630e-01   5.902328e-03
  2.874698e+00    4.618054e-01   5.891366e-03
  2.876909e+00    4.619966e-01   5.891261e-03
  2.879119e+00    4.546346e-01   5.842505e-03
  2.881330e+00    4.786526e-01   5.993378e-03
  2.883540e+00    4.575908e-01   5.858647e-03
  2.885751e+00    4.671567e-01   5.917897e-03
  2.887961e+00    4.673669e-01   5.917349e-03
  2.890172e+00    4.688305e-01   5.924981e-03
  2.892382e+00    4.679630e-01   5.917694e-03
  2.894593e+00    4.631639e-01   5.885429e-03
  2.896803e+00    4.681275e-01   5.914908e-03
  2.899014e+00    4.594171e-01   5.857697e-03
  2.901224e+00    4.650412e-01   5.891448e-03
  2.903434e+00    4.576553e-01   5.842530e-03
  2.905645e+00    4.642099e-01   5.881977e-03
  2.907855e+00    4.636569e-01   5.876384e-03
  2.910066e+00    4.553752e-01   5.821578e-03
  2.912276e+00    4.592487e-01   5.844178e-03
  2.914487e+00    4.646193e-01   5.875765e-03
  2.916697e+00    4.520341e-01   5.793452e-03
  2.918908e+00    4.622208e-01   5.856325e-03
  2.921118e+00    4.613940e-01   5.848401e-03
  2.923329e+00    4.580778e-01   5.825025e-03
  2.925539e+00    4.648726e-01   5.865770e-03
  2.927749e+00    4.524221e-01   5.784384e-03
  2.929960e+00    4.502271e-01   5.767590e-03
  2.932170e+00    4.508638e-01   5.769345e-03
  2.934381e+00    4.567498e-01   5.804421e-03
  2.936591e+00    4.769865e-01   5.928997e-03
  2.938802e+00    4.518723e-01   5.768120e-03
  2.941012e+00    4.584022e-01   5.807274e-03
  2.943223e+00    4.664694e-01   5.855438e-03
  2.945433e+00    4.677649e-01   5.859782e-03
  2.947644e+00    4.556743e-01   5.779414e-03
  2.949854e+00    4.686985e-01   5.857097e-03
  2.952064e+00    4.639111e-01   5.822841e-03
  2.954275e+00    4.943377e-01   6.006151e-03
  2.956485e+00    4.827571e-01   5.931112e-03
  2.958696e+00    4.466200e-01   5.700440e-03
  2.960906e+00    4.577527e-01   5.766874e-03
  2.963117e+00    4.443170e-01   5.677158e-03
  2.965327e+00    4.574435e-01   5.756499e-03
  2.967538e+00    4.659266e-01   5.806668e-03
  2.969748e+00    4.702069e-01   5.830439e-03
  2.971959e+00    4.461913e-01   5.676472e-03
  2.974169e+00    4.563855e-01   5.738375e-03
  2.976379e+00    4.597878e-01   5.756762e-03
  2.978590e+00    4.670739e-01   5.799037e-03
  2.980800e+00    4.716541e-01   5.824536e-03
  2.983011e+00    4.707567e-01   5.816155e-03
  2.985221e+00    4.634447e-01   5.767621e-03
  2.987432e+00    4.618102e-01   5.754311e-03
  2.989642e+00    4.596229e-01   5.738016e-03
  2.991853e+00    4.578839e-01   5.723859e-03
  2.994063e+00    4.492125e-01   5.666510e-03
  2.996274e+00    4.552135e-01   5.701045e-03
  2.998484e+00    4.592345e-01   5.723446e-03
  3.000694e+00    4.589010e-01   5.717906e-03
  3.002905e+00    4.483868e-01   5.649089e-03
  3.005115e+00    4.622471e-01   5.732731e-03
  3.007326e+00    4.563015e-01   5.692590e-03
  3.009536e+00    4.574710e-01   5.696594e-03
  3.011747e+00    4.678852e-01   5.758121e-03
  3.013957e+00    4.596150e-01   5.703799e-03
  3.016168e+00    4.661125e-01   5.740658e-03
  3.018378e+00    4.606951e-01   5.704143e-03
  3.020589e+00    4.597035e-01   5.694765e-03
  3.022799e+00    4.622197e-01   5.707132e-03
  3.025010e+00    4.589292e-01   5.683521e-03
  3.027220e+00    4.550051e-01   5.656050e-03
  3.029430e+00    4.476661e-01   5.607024e-03
  3.031641e+00    4.549170e-01   5.649089e-03
  3.033851e+00    4.635948e-01   5.699156e-03
  3.036062e+00    4.552204e-01   5.644664e-03
  3.038272e+00    4.658980e-01   5.706834e-03
  3.040483e+00    4.513897e-01   5.614080e-03
  3.042693e+00    4.585712e-01   5.655239e-03
  3.044904e+00    4.619411e-01   5.671925e-03
  3.047114e+00    4.511063e-01   5.600214e-03
  3.049325e+00    4.489579e-01   5.582464e-03
  3.051535e+00    4.577488e-01   5.632432e-03
  3.053745e+00    4.527559e-01   5.596869e-03
  3.055956e+00    4.612944e-01   5.644759e-03
  3.058166e+00    4.670527e-01   5.675557e-03
  3.060377e+00    4.501713e-01   5.567280e-03
  3.062587e+00    4.478458e-01   5.548249e-03
  3.064798e+00    4.537547e-01   5.580460e-03
  3.067008e+00    4.567102e-01   5.593836e-03
  3.069219e+00    4.600659e-01   5.609785e-03
  3.071429e+00    4.695576e-01   5.663773e-03
  3.073640e+00    4.580583e-01   5.590633e-03
  3.075850e+00    4.453263e-01   5.508821e-03
  3.078060e+00    4.507146e-01   5.538938e-03
  3.080271e+00    4.442544e-01   5.495631e-03
  3.082481e+00    4.616120e-01   5.598465e-03
  3.084692e+00    4.516697e-01   5.534478e-03
  3.086902e+00    4.361643e-01   5.435442e-03
  3.089113e+00    4.474463e-01   5.501710e-03
  3.091323e+00    4.461640e-01   5.490460e-03
  3.093534e+00    4.495254e-01   5.507731e-03
  3.095744e+00    4.394994e-01   5.442620e-03
  3.097955e+00    4.439524e-01   5.466569e-03
  3.100165e+00    4.574164e-01   5.545493e-03
  3.102375e+00    4.542032e-01   5.522537e-03
  3.104586e+00    4.505569e-01   5.496801e-03
  3.106796e+00    4.584551e-01   5.541220e-03
  3.109007e+00    4.579826e-01   5.535105e-03
  3.111217e+00    4.496145e-01   5.480582e-03
  3.113428e+00    4.502003e-01   5.480738e-03
  3.115638e+00    4.330287e-01   5.371999e-03
  3.117849e+00    4.466965e-01   5.452385e-03
  3.120059e+00    4.568411e-01   5.510443e-03
  3.122270e+00    4.509833e-01   5.471720e-03
  3.124480e+00    4.572968e-01   5.506151e-03
  3.126691e+00    4.463201e-01   5.436110e-03
  3.128901e+00    4.436000e-01   5.416393e-03
  3.131111e+00    4.368762e-01   5.371384e-03
  3.133322e+00    4.546418e-01   5.476000e-03
  3.135532e+00    4.601951e-01   5.505901e-03
  3.137743e+00    4.524481e-01   5.455843e-03
  3.139953e+00    4.424444e-01   5.391521e-03
  3.142164e+00    4.558920e-01   5.485017e-03
  3.144374e+00    4.453702e-01   5.449878e-03
  3.146585e+00    4.332741e-01   5.389750e-03
  3.148795e+00    4.502301e-01   5.505065e-03
  3.151006e+00    4.393181e-01   5.446482e-03
  3.153216e+00    4.504552e-01   5.522289e-03
  3.155426e+00    4.344550e-01   5.429592e-03
  3.157637e+00    4.433256e-01   5.490268e-03
  3.159847e+00    4.524428e-01   5.551385e-03
  3.162058e+00    4.503967e-01   5.543314e-03
  3.164268e+00    4.359190e-01   5.457524e-03
  3.166479e+00    4.375947e-01   5.471648e-03
  3.168689e+00    4.414140e-01   5.498843e-03
  3.170900e+00    4.468881e-01   5.536037e-03
  3.173110e+00    4.424946e-01   5.511645e-03
  3.175321e+00    4.382353e-01   5.487550e-03
  3.177531e+00    4.510439e-01   5.569926e-03
  3.179741e+00    4.477869e-01   5.551911e-03
  3.181952e+00    4.355426e-01   5.477555e-03
  3.184162e+00    4.352544e-01   5.477950e-03
  3.186373e+00    4.293010e-01   5.441924e-03
  3.188583e+00    4.226305e-01   5.401253e-03
  3.190794e+00    4.330625e-01   5.469236e-03
  3.193004e+00    4.356616e-01   5.486875e-03
  3.195215e+00    4.399171e-01   5.515121e-03
  3.197425e+00    4.367781e-01   5.496619e-03
  3.199636e+00    4.293566e-01   5.448962e-03
  3.201846e+00    4.274824e-01   5.436453e-03
  3.204056e+00    4.299082e-01   5.452739e-03
  3.206267e+00    4.349587e-01   5.485523e-03
  3.208477e+00    4.357978e-01   5.491734e-03
  3.210688e+00    4.408442e-01   5.524307e-03
  3.212898e+00    4.365918e-01   5.498158e-03
  3.215109e+00    4.361328e-01   5.496031e-03
  3.217319e+00    4.335678e-01   5.480475e-03
  3.219530e+00    4.395024e-01   5.518263e-03
  3.221740e+00    4.333356e-01   5.479971e-03
  3.223951e+00    4.361682e-01   5.498325e-03
  3.226161e+00    4.313627e-01   5.468138e-03
  3.228372e+00    4.384346e-01   5.513314e-03
  3.230582e+00    4.330706e-01   5.479632e-03
  3.232792e+00    4.315333e-01   5.470111e-03
  3.235003e+00    4.259972e-01   5.435168e-03
  3.237213e+00    4.283049e-01   5.449966e-03
  3.239424e+00    4.272279e-01   5.443116e-03
  3.241634e+00    4.171310e-01   5.378519e-03
  3.243845e+00    4.285574e-01   5.451757e-03
  3.246055e+00    4.312174e-01   5.468393e-03
  3.248266e+00    4.330762e-01   5.480352e-03
  3.250476e+00    4.272254e-01   5.442919e-03
  3.252687e+00    4.263397e-01   5.437184e-03
  3.254897e+00    4.325390e-01   5.476452e-03
  3.257107e+00    4.236498e-01   5.419581e-03
  3.259318e+00    4.241830e-01   5.422759e-03
  3.261528e+00    4.301847e-01   5.460832e-03
  3.263739e+00    4.335033e-01   5.481304e-03
  3.265949e+00    4.280096e-01   5.446338e-03
  3.268160e+00    4.362503e-01   5.498088e-03
  3.270370e+00    4.280885e-01   5.445912e-03
  3.272581e+00    4.264216e-01   5.435018e-03
  3.274791e+00    4.204225e-01   5.396132e-03
  3.277002e+00    4.157508e-01   5.365513e-03
  3.279212e+00    4.122907e-01   5.342750e-03
  3.281422e+00    4.188870e-01   5.384748e-03
  3.283633e+00    4.300233e-01   5.455177e-03
  3.285843e+00    4.267228e-01   5.433860e-03
  3.288054e+00    4.214714e-01   5.399399e-03
  3.290264e+00    4.193819e-01   5.385675e-03
  3.292475e+00    4.323376e-01   5.467391e-03
  3.294685e+00    4.246529e-01   5.417943e-03
  3.296896e+00    4.194642e-01   5.384009e-03
  3.299106e+00    4.115176e-01   5.332192e-03
  3.301317e+00    4.171111e-01   5.367306e-03
  3.303527e+00    4.145627e-01   5.350412e-03
  3.305737e+00    4.241555e-01   5.410915e-03
  3.307948e+00    4.265124e-01   5.425252e-03
  3.310158e+00    4.407593e-01   5.514258e-03
  3.312369e+00    4.241921e-01   5.408756e-03
  3.314579e+00    4.153493e-01   5.351182e-03
  3.316790e+00    4.149182e-01   5.347689e-03
  3.319000e+00    4.116822e-01   5.325622e-03
  3.321211e+00    4.204968e-01   5.381736e-03
  3.323421e+00    4.242888e-01   5.404728e-03
  3.325632e+00    4.270773e-01   5.421578e-03
  3.327842e+00    4.299882e-01   5.439114e-03
  3.330052e+00    4.160770e-01   5.349334e-03
  3.332263e+00    4.023832e-01   5.259571e-03
  3.334473e+00    4.119621e-01   5.320899e-03
  3.336684e+00    4.235601e-01   5.394018e-03
  3.338894e+00    4.185338e-01   5.361078e-03
  3.341105e+00    4.327419e-01   5.450083e-03
  3.343315e+00    4.218606e-01   5.380016e-03
  3.345526e+00    4.017224e-01   5.249130e-03
  3.347736e+00    4.191090e-01   5.360096e-03
  3.349947e+00    4.180268e-01   5.352273e-03
  3.352157e+00    4.293998e-01   5.423367e-03
  3.354368e+00    4.306814e-01   5.430173e-03
  3.356578e+00    4.273419e-01   5.408048e-03
  3.358788e+00    4.207221e-01   5.364675e-03
  3.360999e+00    4.070977e-01   5.275839e-03
  3.363209e+00    4.188931e-01   5.350732e-03
  3.365420e+00    3.968598e-01   5.206636e-03
  3.367630e+00    3.995133e-01   5.222991e-03
  3.369841e+00    4.216858e-01   5.364555e-03
  3.372051e+00    4.201466e-01   5.352757e-03
  3.374262e+00    4.163914e-01   5.326363e-03
  3.376472e+00    4.217881e-01   5.358300e-03
  3.378683e+00    4.130659e-01   5.300111e-03
  3.380893e+00    4.178964e-01   5.328671e-03
  3.383103e+00    4.144653e-01   5.304055e-03
  3.385314e+00    3.963799e-01   5.184856e-03
  3.387524e+00    4.154036e-01   5.305069e-03
  3.389735e+00    4.159774e-01   5.306134e-03
  3.391945e+00    4.119279e-01   5.276521e-03
  3.394156e+00    4.217273e-01   5.334692e-03
  3.396366e+00    4.204767e-01   5.323298e-03
  3.398577e+00    4.269533e-01   5.361078e-03
  3.400787e+00    4.148237e-01   5.296318e-03
  3.402998e+00    4.199176e-01   5.367276e-03
  3.405208e+00    4.072415e-01   5.306325e-03
  3.407418e+00    4.105200e-01   5.343631e-03
  3.409629e+00    4.035459e-01   5.312051e-03
  3.411839e+00    3.950721e-01   5.267690e-03
  3.414050e+00    3.937575e-01   5.269852e-03
  3.416260e+00    4.069334e-01   5.367119e-03
  3.418471e+00    4.048789e-01   5.363077e-03
  3.420681e+00    3.924744e-01   5.288804e-03
  3.422892e+00    3.925288e-01   5.297170e-03
  3.425102e+00    3.903910e-01   5.290571e-03
  3.427313e+00    3.714593e-01   5.167711e-03
  3.429523e+00    3.880557e-01   5.288941e-03
  3.431733e+00    3.818472e-01   5.253110e-03
  3.433944e+00    3.855296e-01   5.284876e-03
  3.436154e+00    3.912622e-01   5.330324e-03
  3.438365e+00    3.763967e-01   5.233970e-03
  3.440575e+00    3.926606e-01   5.351899e-03
  3.442786e+00    3.824350e-01   5.287337e-03
  3.444996e+00    3.812138e-01   5.284458e-03
  3.447207e+00    3.744849e-01   5.242906e-03
  3.449417e+00    3.781339e-01   5.309528e-03
  3.451628e+00    3.912877e-01   5.431422e-03
  3.453838e+00    3.754577e-01   5.341835e-03
  3.456049e+00    3.508122e-01   5.186894e-03
  3.458259e+00    3.582689e-01   5.263399e-03
  3.460469e+00    3.608090e-01   5.301652e-03
  3.462680e+00    3.780972e-01   5.446567e-03
  3.464890e+00    3.567511e-01   5.308149e-03
  3.467101e+00    3.814079e-01   5.506300e-03
  3.469311e+00    3.883090e-01   5.572837e-03
  3.471522e+00    3.965600e-01   5.648596e-03
  3.473732e+00    3.929192e-01   5.638876e-03
  3.475943e+00    4.052443e-01   5.742779e-03
  3.478153e+00    4.110665e-01   5.799750e-03
  3.480364e+00    4.210328e-01   5.885363e-03
  3.482574e+00    4.083172e-01   5.811208e-03
  3.484784e+00    4.224325e-01   5.925869e-03
  3.486995e+00    4.399599e-01   6.063112e-03
  3.489205e+00    4.329704e-01   6.029579e-03
  3.491416e+00    4.442797e-01   6.123042e-03
  3.493626e+00    4.289526e-01   6.030983e-03
  3.495837e+00    4.285510e-01   6.042704e-03
  3.498047e+00    4.480211e-01   6.193000e-03
  3.500258e+00    4.552174e-01   6.257162e-03
  3.502468e+00    4.621241e-01   6.318999e-03
  3.504679e+00    4.784975e-01   6.444735e-03
  3.506889e+00    4.739859e-01   6.428867e-03
  3.509099e+00    4.722408e-01   6.431371e-03
  3.511310e+00    4.737298e-01   6.455948e-03
  3.513520e+00    4.780110e-01   6.499398e-03
  3.515731e+00    5.026283e-01   6.679259e-03
  3.517941e+00    5.241916e-01   6.835901e-03
  3.520152e+00    5.108666e-01   6.763013e-03
  3.522362e+00    5.157738e-01   6.810123e-03
  3.524573e+00    5.146324e-01   6.816953e-03
  3.526783e+00    5.030478e-01   6.753069e-03
  3.528994e+00    5.221150e-01   6.892137e-03
  3.531204e+00    5.315685e-01   6.966851e-03
  3.533414e+00    5.228977e-01   6.921857e-03
  3.535625e+00    5.264647e-01   6.957761e-03
  3.537835e+00    5.487233e-01   7.115589e-03
  3.540046e+00    5.444592e-01   7.096942e-03
  3.542256e+00    5.460872e-01   7.115140e-03
  3.544467e+00    5.410035e-01   7.089596e-03
  3.546677e+00    5.464157e-01   7.132624e-03
  3.548888e+00    5.426032e-01   7.115224e-03
  3.551098e+00    5.417044e-01   7.116679e-03
  3.553309e+00    5.438216e-01   7.138791e-03
  3.555519e+00    5.210796e-01   6.999074e-03
  3.557729e+00    5.392238e-01   7.131608e-03
  3.559940e+00    5.449251e-01   7.180891e-03
  3.562150e+00    5.469427e-01   7.205989e-03
  3.564361e+00    5.358796e-01   7.146065e-03
  3.566571e+00    5.483351e-01   7.242610e-03
  3.568782e+00    5.409073e-01   7.207582e-03
  3.570992e+00    5.357908e-01   7.187170e-03
  3.573203e+00    5.299516e-01   7.161935e-03
  3.575413e+00    5.505436e-01   7.313735e-03
  3.577624e+00    5.209273e-01   7.128221e-03
  3.579834e+00    5.264482e-01   7.179655e-03
  3.582045e+00    5.330275e-01   7.238366e-03
  3.584255e+00    5.264407e-01   7.207427e-03
  3.586465e+00    5.417487e-01   7.325478e-03
  3.588676e+00    5.277229e-01   7.244116e-03
  3.590886e+00    5.556415e-01   7.447209e-03
  3.593097e+00    5.434958e-01   7.379972e-03
  3.595307e+00    5.452666e-01   7.406071e-03
  3.597518e+00    5.329694e-01   7.336233e-03
  3.599728e+00    5.350269e-01   7.364463e-03
  3.601939e+00    5.349132e-01   7.377750e-03
  3.604149e+00    5.432692e-01   7.449641e-03
  3.606360e+00    5.189944e-01   7.295297e-03
  3.608570e+00    5.452297e-01   7.491593e-03
  3.610780e+00    5.585395e-01   7.593872e-03
  3.612991e+00    5.362368e-01   7.450713e-03
  3.615201e+00    5.281947e-01   7.404387e-03
  3.617412e+00    5.152428e-01   7.320159e-03
  3.619622e+00    5.041946e-01   7.247047e-03
  3.621833e+00    5.191066e-01   7.360016e-03
  3.624043e+00    5.259874e-01   7.418098e-03
  3.626254e+00    5.346464e-01   7.488576e-03
  3.628464e+00    5.659390e-01   7.715943e-03
  3.630675e+00    5.347420e-01   7.514399e-03
  3.632885e+00    5.230139e-01   7.445815e-03
  3.635095e+00    5.441537e-01   7.609360e-03
  3.637306e+00    5.379440e-01   7.580218e-03
  3.639516e+00    5.443223e-01   7.639719e-03
  3.641727e+00    5.241547e-01   7.511307e-03
  3.643937e+00    5.270915e-01   7.546767e-03
  3.646148e+00    5.417653e-01   7.665830e-03
  3.648358e+00    5.391805e-01   7.662493e-03
  3.650569e+00    5.217458e-01   7.552117e-03
  3.652779e+00    5.413565e-01   7.707647e-03
  3.654990e+00    5.435185e-01   7.738075e-03
  3.657200e+00    5.338429e-01   7.683821e-03
  3.659410e+00    5.294374e-01   7.666964e-03
  3.661621e+00    5.381341e-01   7.744827e-03
  3.663831e+00    5.159867e-01   7.598743e-03
  3.666042e+00    5.207644e-01   7.648794e-03
  3.668252e+00    5.216268e-01   7.670265e-03
  3.670463e+00    5.169756e-01   7.650991e-03
  3.672673e+00    5.222146e-01   7.704964e-03
  3.674884e+00    5.327259e-01   7.797558e-03
  3.677094e+00    5.260948e-01   7.764329e-03
  3.679305e+00    5.129773e-01   7.682212e-03
  3.681515e+00    5.227025e-01   7.770193e-03
  3.683726e+00    5.526316e-01   8.005684e-03
  3.685936e+00    5.428979e-01   7.950806e-03
  3.688146e+00    5.258351e-01   7.840584e-03
  3.690357e+00    5.537447e-01   8.062318e-03
  3.692567e+00    5.203073e-01   7.831130e-03
  3.694778e+00    5.393995e-01   7.989743e-03
  3.696988e+00    5.445314e-01   8.043941e-03
  3.699199e+00    5.256549e-01   7.919524e-03
  3.701409e+00    5.187328e-01   7.883509e-03
  3.703620e+00    5.291365e-01   7.978465e-03
  3.705830e+00    5.504979e-01   8.154797e-03
  3.708041e+00    5.240082e-01   7.972761e-03
  3.710251e+00    5.267127e-01   8.010064e-03
  3.712461e+00    5.489649e-01   8.194649e-03
  3.714672e+00    5.314766e-01   8.079992e-03
  3.716882e+00    5.225307e-01   8.028426e-03
  3.719093e+00    5.244144e-01   8.060070e-03
  3.721303e+00    5.281554e-01   8.105890e-03
  3.723514e+00    4.978530e-01   7.886836e-03
  3.725724e+00    5.308811e-01   8.161560e-03
  3.727935e+00    5.137908e-01   8.046560e-03
  3.730145e+00    5.083641e-01   8.021085e-03
  3.732356e+00    5.181201e-01   8.115269e-03
  3.734566e+00    5.331840e-01   8.250243e-03
  3.736776e+00    4.982798e-01   7.993146e-03
  3.738987e+00    4.981187e-01   8.009232e-03
  3.741197e+00    5.154546e-01   8.165473e-03
  3.743408e+00    5.266773e-01   8.272191e-03
  3.745618e+00    5.069001e-01   8.133598e-03
  3.747829e+00    4.913661e-01   8.025737e-03
  3.750039e+00    5.159291e-01   8.242286e-03
  3.752250e+00    5.187435e-01   8.283446e-03
  3.754460e+00    4.859682e-01   8.035533e-03
  3.756671e+00    5.219461e-01   8.346673e-03
  3.758881e+00    4.986932e-01   8.177160e-03
  3.761091e+00    5.189572e-01   8.360934e-03
  3.763302e+00    5.203711e-01   8.391614e-03
  3.765512e+00    5.129498e-01   8.350941e-03
  3.767723e+00    5.189004e-01   8.418816e-03
  3.769933e+00    4.859486e-01   8.166054e-03
  3.772144e+00    4.994850e-01   8.298424e-03
  3.774354e+00    5.179224e-01   8.470320e-03
  3.776565e+00    5.046723e-01   8.381104e-03
  3.778775e+00    5.080756e-01   8.429338e-03
  3.780986e+00    5.228734e-01   8.571864e-03
  3.783196e+00    5.003304e-01   8.405300e-03
  3.785407e+00    4.950479e-01   8.381023e-03
  3.787617e+00    4.987380e-01   8.432851e-03
  3.789827e+00    5.251532e-01   8.674304e-03
  3.792038e+00    4.959489e-01   8.450384e-03
  3.794248e+00    5.001422e-01   8.507175e-03
  3.796459e+00    4.886098e-01   8.429581e-03
  3.798669e+00    5.078321e-01   8.615337e-03
  3.800880e+00    5.113561e-01   8.666828e-03
  3.803090e+00    5.206028e-01   8.767110e-03
  3.805301e+00    5.256480e-01   8.832133e-03
  3.807511e+00    5.095342e-01   8.717973e-03
  3.809722e+00    5.044408e-01   8.696553e-03
  3.811932e+00    5.142140e-01   8.802991e-03
  3.814142e+00    5.072616e-01   8.766335e-03
  3.816353e+00    4.935082e-01   8.669392e-03
  3.818563e+00    4.911414e-01   8.671466e-03
  3.820774e+00    5.016947e-01   8.787374e-03
  3.822984e+00    5.094341e-01   8.878573e-03
  3.825195e+00    5.128899e-01   8.932697e-03
  3.827405e+00    5.170316e-01   8.993055e-03
  3.829616e+00    5.083417e-01   8.941481e-03
  3.831826e+00    5.097994e-01   8.978729e-03
  3.834037e+00    4.993684e-01   8.911020e-03
  3.836247e+00    4.830526e-01   8.788526e-03
  3.838457e+00    5.130213e-01   9.082497e-03
  3.840668e+00    4.975451e-01   8.969683e-03
  3.842878e+00    5.058592e-01   9.070067e-03
  3.845089e+00    5.106214e-01   9.138610e-03
  3.847299e+00    4.972605e-01   9.044164e-03
  3.849510e+00    5.141466e-01   9.222688e-03
  3.851720e+00    5.096343e-01   9.203957e-03
  3.853931e+00    4.790651e-01   8.942300e-03
  3.856141e+00    4.785484e-01   8.956145e-03
  3.858352e+00    4.908889e-01   9.090105e-03
  3.860562e+00    4.830502e-01   9.036332e-03
  3.862772e+00    5.037867e-01   9.247978e-03
  3.864983e+00    4.600765e-01   8.856746e-03
  3.867193e+00    4.752914e-01   9.021329e-03
  3.869404e+00    5.113567e-01   9.377527e-03
  3.871614e+00    4.763169e-01   9.070231e-03
  3.873825e+00    4.974551e-01   9.289642e-03
  3.876035e+00    4.843425e-01   9.186848e-03
  3.878246e+00    4.831758e-01   9.201263e-03
  3.880456e+00    4.824009e-01   9.222525e-03
  3.882667e+00    5.059104e-01   9.474417e-03
  3.884877e+00    4.554508e-01   9.018144e-03
  3.887087e+00    5.097902e-01   9.571321e-03
  3.889298e+00    5.128617e-01   9.631269e-03
  3.891508e+00    4.824808e-01   9.371879e-03
  3.893719e+00    4.819459e-01   9.397369e-03
  3.895929e+00    4.993663e-01   9.597447e-03
  3.898140e+00    4.796940e-01   9.437864e-03
  3.900350e+00    4.824729e-01   9.496992e-03
  3.902561e+00    4.830647e-01   9.534959e-03
  3.904771e+00    4.739404e-01   9.476714e-03
  3.906982e+00    5.029241e-01   9.795798e-03
  3.909192e+00    5.179790e-01   9.975849e-03
  3.911403e+00    4.968954e-01   9.804970e-03
  3.913613e+00    4.988191e-01   9.858600e-03
  3.915823e+00    4.904567e-01   9.810431e-03
  3.918034e+00    4.929658e-01   9.870944e-03
  3.920244e+00    4.824289e-01   9.800405e-03
  3.922455e+00    4.714487e-01   9.723658e-03
  3.924665e+00    5.050636e-01   1.010139e-02
  3.926876e+00    4.911603e-01   9.998646e-03
  3.929086e+00    4.963877e-01   1.008939e-02
  3.931297e+00    4.680963e-01   9.831818e-03
  3.933507e+00    4.825760e-01   1.001139e-02
  3.935718e+00    4.835726e-01   1.005051e-02
  3.937928e+00    5.099245e-01   1.035071e-02
  3.940138e+00    4.866696e-01   1.014129e-02
  3.942349e+00    5.478347e-01   1.079134e-02
  3.944559e+00    5.073503e-01   1.041574e-02
  3.946770e+00    4.924727e-01   1.029207e-02
  3.948980e+00    4.849389e-01   1.024382e-02
  3.951191e+00    4.650627e-01   1.006181e-02
  3.953401e+00    5.034502e-01   1.050072e-02
  3.955612e+00    4.736070e-01   1.021604e-02
  3.957822e+00    4.841658e-01   1.036092e-02
  3.960033e+00    4.716931e-01   1.025855e-02
  3.962243e+00    5.041740e-01   1.063952e-02
  3.964453e+00    4.737981e-01   1.034667e-02
  3.966664e+00    5.077844e-01   1.074548e-02
  3.968874e+00    5.249059e-01   1.095469e-02
  3.971085e+00    4.812272e-01   1.051082e-02
  3.973295e+00    4.855239e-01   1.057915e-02
  3.975506e+00    4.899375e-01   1.064882e-02
  3.977716e+00    4.751636e-01   1.050877e-02
  3.979927e+00    5.098773e-01   1.090855e-02
  3.982137e+00    4.830616e-01   1.064004e-02
  3.984348e+00    4.802238e-01   1.063123e-02
  3.986558e+00    5.082615e-01   1.095996e-02
  3.988768e+00    5.202186e-01   1.111196e-02
  3.990979e+00    4.887749e-01   1.079389e-02
  3.993189e+00    4.792861e-01   1.071138e-02
  3.995400e+00    4.754888e-01   1.069222e-02
  3.997610e+00    5.011435e-01   1.100714e-02
  3.999821e+00    4.893905e-01   1.091506e-02
  4.002031e+00    5.166932e-01   1.125498e-02
  4.004242e+00    4.617358e-01   1.067730e-02
  4.006452e+00    4.972308e-01   1.111975e-02
  4.008663e+00    4.827752e-01   1.099701e-02
  4.010873e+00    4.846422e-01   1.105821e-02
  4.013084e+00    4.734584e-01   1.097025e-02
  4.015294e+00    4.864986e-01   1.116142e-02
  4.017504e+00    4.728836e-01   1.104557e-02
  4.019715e+00    4.701509e-01   1.105541e-02
  4.021925e+00    4.892552e-01   1.132097e-02
  4.024136e+00    4.488185e-01   1.088521e-02
  4.026346e+00    4.966384e-01   1.149499e-02
  4.028557e+00    4.776070e-01   1.131672e-02
  4.030767e+00    4.764088e-01   1.134776e-02
  4.032978e+00    4.740146e-01   1.136508e-02
  4.035188e+00    4.811123e-01   1.149587e-02
  4.037399e+00    4.841095e-01   1.157929e-02
  4.039609e+00    4.743373e-01   1.150910e-02
  4.041819e+00    4.605573e-01   1.138821e-02
  4.044030e+00    4.560246e-01   1.138050e-02
  4.046240e+00    4.928053e-01   1.188104e-02
  4.048451e+00    4.990492e-01   1.200768e-02
  4.050661e+00    4.921869e-01   1.197688e-02
  4.052872e+00    4.768806e-01   1.184165e-02
  4.055082e+00    4.670095e-01   1.177103e-02
  4.057293e+00    4.540472e-01   1.165871e-02
  4.059503e+00    4.756472e-01   1.198689e-02
  4.061714e+00    4.835076e-01   1.214233e-02
  4.063924e+00    4.624253e-01   1.193000e-02
  4.066134e+00    5.099769e-01   1.258743e-02
  4.068345e+00    5.164065e-01   1.272778e-02
  4.070555e+00    4.832962e-01   1.237225e-02
  4.072766e+00    4.841177e-01   1.244379e-02
  4.074976e+00    5.077419e-01   1.280719e-02
  4.077187e+00    4.887895e-01   1.262861e-02
  4.079397e+00    4.768173e-01   1.253646e-02
  4.081608e+00    4.715873e-01   1.253246e-02
  4.083818e+00    4.646150e-01   1.250419e-02
  4.086029e+00    5.434783e-01   1.359490e-02
  4.088239e+00    5.612170e-01   1.388968e-02
  4.090449e+00    5.227037e-01   1.347727e-02
  4.092660e+00    4.950919e-01   1.318857e-02
  4.094870e+00    4.662222e-01   1.286953e-02
  4.097081e+00    4.751308e-01   1.306294e-02
  4.099291e+00    5.067070e-01   1.354583e-02
  4.101502e+00    4.928894e-01   1.340981e-02
  4.103712e+00    5.300106e-01   1.395739e-02
  4.105923e+00    4.821115e-01   1.336328e-02
  4.108133e+00    4.904747e-01   1.353072e-02
  4.110344e+00    4.668860e-01   1.325175e-02
  4.112554e+00    4.556305e-01   1.314279e-02
  4.114764e+00    5.148036e-01   1.402638e-02
  4.116975e+00    5.137979e-01   1.406783e-02
  4.119185e+00    4.971032e-01   1.389365e-02
  4.121396e+00    4.758348e-01   1.364926e-02
  4.123606e+00    4.918575e-01   1.393425e-02
  4.125817e+00    4.887111e-01   1.394748e-02
  4.128027e+00    4.618843e-01   1.361672e-02
  4.130238e+00    5.044181e-01   1.429064e-02
  4.132448e+00    4.801981e-01   1.400395e-02
  4.134659e+00    4.721968e-01   1.394661e-02
  4.136869e+00    4.965492e-01   1.436535e-02
  4.139080e+00    4.609831e-01   1.390381e-02
  4.141290e+00    4.684696e-01   1.407831e-02
  4.143500e+00    5.415934e-01   1.520693e-02
  4.145711e+00    5.373676e-01   1.521837e-02
  4.147921e+00    4.940799e-01   1.465966e-02
  4.150132e+00    4.849147e-01   1.459212e-02
  4.152342e+00    4.849894e-01   1.466408e-02
  4.154553e+00    4.760845e-01   1.459774e-02
  4.156763e+00    4.896734e-01   1.487796e-02
  4.158974e+00    5.253154e-01   1.548741e-02
  4.161184e+00    4.677852e-01   1.468745e-02
  4.163395e+00    4.910422e-01   1.512453e-02
  4.165605e+00    5.269981e-01   1.575026e-02
  4.167815e+00    4.818479e-01   1.513899e-02
  4.170026e+00    5.191711e-01   1.579709e-02
  4.172236e+00    5.142086e-01   1.580648e-02
  4.174447e+00    5.079139e-01   1.579483e-02
  4.176657e+00    4.779168e-01   1.540515e-02
  4.178868e+00    5.124221e-01   1.604193e-02
  4.181078e+00    4.436084e-01   1.501011e-02
  4.183289e+00    4.601566e-01   1.537471e-02
  4.185499e+00    4.887789e-01   1.593941e-02
  4.187710e+00    4.933177e-01   1.610690e-02
  4.189920e+00    4.948011e-01   1.622836e-02
  4.192130e+00    4.714610e-01   1.593773e-02
  4.194341e+00    4.831186e-01   1.623249e-02
  4.196551e+00    4.931804e-01   1.650452e-02
  4.198762e+00    4.541589e-01   1.593874e-02
  4.200972e+00    4.898973e-01   1.666126e-02
  4.203183e+00    4.719835e-01   1.646145e-02
  4.205393e+00    4.764724e-01   1.664944e-02
  4.207604e+00    5.293069e-01   1.766823e-02
  4.209814e+00    5.329534e-01   1.785031e-02
  4.212025e+00    4.936453e-01   1.730171e-02
  4.214235e+00    4.860864e-01   1.728999e-02
  4.216445e+00    4.770119e-01   1.725192e-02
  4.218656e+00    4.544971e-01   1.696602e-02
  4.220866e+00    4.794707e-01   1.755476e-02
  4.223077e+00    5.255419e-01   1.852023e-02
  4.225287e+00    5.027649e-01   1.825725e-02
  4.227498e+00    4.472377e-01   1.735433e-02
  4.229708e+00    4.621720e-01   1.778522e-02
  4.231919e+00    4.682790e-01   1.805018e-02
  4.234129e+00    5.487954e-01   1.970457e-02
  4.236340e+00    5.361938e-01   1.964385e-02
  4.238550e+00    4.519343e-01   1.819378e-02
  4.240761e+00    4.463226e-01   1.823989e-02
  4.242971e+00    4.857576e-01   1.920291e-02
  4.245181e+00    4.179219e-01   1.797928e-02
  4.247392e+00    3.985494e-01   1.772128e-02
  4.249602e+00    4.813567e-01   1.966912e-02
  4.251813e+00    4.590864e-01   1.939833e-02
  4.254023e+00    5.067714e-01   2.058580e-02
  4.256234e+00    4.738134e-01   2.011817e-02
  4.258444e+00    5.246526e-01   2.139121e-02
  4.260655e+00    4.969780e-01   2.104851e-02
  4.262865e+00    5.149355e-01   2.166836e-02
  4.265076e+00    4.184493e-01   1.975547e-02
  4.267286e+00    4.758142e-01   2.131587e-02
  4.269496e+00    3.840544e-01   1.938419e-02
  4.271707e+00    5.131550e-01   2.268327e-02
  4.273917e+00    4.300051e-01   2.103260e-02
  4.276128e+00    4.217328e-01   2.110664e-02
  4.278338e+00    5.074103e-01   2.345978e-02
  4.280549e+00    4.917391e-01   2.342638e-02
  4.282759e+00    3.945895e-01   2.128709e-02
  4.284970e+00    4.659461e-01   2.347347e-02
  4.287180e+00    4.598513e-01   2.359943e-02
  4.289391e+00    4.512545e-01   2.355260e-02
  4.291601e+00    4.906405e-01   2.475556e-02
  4.293811e+00    4.280238e-01   2.330296e-02
  4.296022e+00    4.623421e-01   2.441321e-02
  4.298232e+00    4.650480e-01   2.468996e-02
  4.300443e+00    4.527781e-01   2.456331e-02
  4.302653e+00    4.854637e-01   2.565424e-02
  4.304864e+00    5.049514e-01   2.639107e-02
  4.307074e+00    5.639271e-01   2.813981e-02
  4.309285e+00    5.025844e-01   2.680779e-02
  4.311495e+00    4.973516e-01   2.691605e-02
  4.313706e+00    4.776762e-01   2.662664e-02
  4.315916e+00    4.417710e-01   2.585809e-02
  4.318126e+00    4.678995e-01   2.687591e-02
  4.320337e+00    4.323001e-01   2.609310e-02
  4.322547e+00    4.784727e-01   2.774334e-02
  4.324758e+00    4.771591e-01   2.799369e-02
  4.326968e+00    5.140447e-01   2.938199e-02
  4.329179e+00    5.366015e-01   3.035102e-02
  4.331389e+00    4.933333e-01   2.943720e-02
  4.333600e+00    4.335710e-01   2.792557e-02
  4.335810e+00    4.499867e-01   2.878844e-02
  4.338021e+00    4.693883e-01   2.977758e-02
  4.340231e+00    4.936546e-01   3.092257e-02
  4.342442e+00    4.592500e-01   3.022446e-02
  4.344652e+00    5.026643e-01   3.205087e-02
  4.346862e+00    4.284180e-01   3.000376e-02
  4.349073e+00    4.247536e-01   3.030997e-02
  4.351283e+00    4.748802e-01   3.252659e-02
  4.353494e+00    5.155446e-01   3.441439e-02
  4.355704e+00    5.280073e-01   3.538982e-02
  4.357915e+00    3.514307e-01   2.935109e-02
  4.360125e+00    4.180532e-01   3.255940e-02
  4.362336e+00    4.551790e-01   3.459614e-02
  4.364546e+00    4.071267e-01   3.331095e-02
  4.366757e+00    5.378338e-01   3.905125e-02
  4.368967e+00    5.340478e-01   3.968912e-02
  4.371177e+00    5.317026e-01   4.044310e-02
  4.373388e+00    4.814689e-01   3.934650e-02
  4.375598e+00    4.323874e-01   3.813826e-02
  4.377809e+00    4.323852e-01   3.910166e-02
  4.380019e+00    4.420477e-01   4.053197e-02
  4.382230e+00    3.814951e-01   3.870419e-02
  4.384440e+00    4.514350e-01   4.331227e-02
  4.386651e+00    5.342743e-01   4.857372e-02
  4.388861e+00    4.284171e-01   4.495781e-02
  4.391072e+00    4.846566e-01   4.949371e-02
  4.393282e+00    4.434890e-01   4.917827e-02
  4.395492e+00    5.692940e-01   5.803031e-02
  4.397703e+00    5.282335e-01   5.845748e-02
  4.399913e+00    3.748564e-01   5.173848e-02
  4.402124e+00    3.532324e-01   5.306935e-02
  4.404334e+00    3.442832e-01   5.569333e-02
  4.406545e+00    6.347472e-02   2.569533e-02
  4.408755e+00    4.783132e-01   7.649040e-02
  4.410966e+00    3.237125e-01   6.964524e-02
  4.413176e+00    3.984431e-01   8.745483e-02
  4.415387e+00   -4.528618e-01            nan
  4.417597e+00   -1.637951e+00            nan
  4.419807e+00    1.372970e-01   1.330704e-01
