# == pyFAI calibration ==
# Distance Sample to Detector: 0.216 m
# PONI: 1.166e-01, 1.308e-01 m
# Rotations: 0.000000 0.000000 0.000000 rad
# 
# == Fit2d calibration ==
# Distance Sample-beamCenter: 216.000 mm
# Center: x=1744.293, y=1555.000 pix
# Tilt: 0.000 deg  TiltPlanRot: 0.000 deg
# 
# Detector Eiger 9M	 PixelSize= 7.500e-05, 7.500e-05 m
#    Detector has a mask: True 
#    Detector has a dark current: False 
#    detector has a flat field: False 
# 
# Wavelength: 9.8e-11 m
# Mask applied: from detector
# Dark current applied: False
# Flat field applied: False
# Polarization factor: None
# Normalization factor: 1.0
# 
# Headers of the input frame:
# {
# "_array_data.header_convention": "SLS_1.0",
# "_array_data.header_contents": "# Detector: Dectris Eiger 9M, S/N E-18-0102\r\n# Pixel_size 75e-6 m x 75e-6 m\r\n# Silicon sensor, thickness 0.000450 m\r\n# Exposure_time 0.024997 s\r\n# Exposure_period 0.025000 s\r\n# Count_cutoff 62318 counts\r\n# Wavelength 0.980106 A\r\n# Detector_distance 0.215992 m\r\n# Beam_xy (1555, 1744) pixels\r\n# Start_angle 0.000000 deg.\r\n# Angle_increment 0.000000 deg.",
# "Content-Type": "application/octet-stream;",
# "conversions": "x-CBF_BYTE_OFFSET",
# "Content-Transfer-Encoding": "BINARY",
# "X-Binary-Size": "10166622",
# "X-Binary-ID": "1",
# "X-Binary-Element-Type": "signed 32-bit integer",
# "X-Binary-Element-Byte-Order": "LITTLE_ENDIAN",
# "Content-MD5": "OnIISE/vyk7bmCTVlWs8xw==",
# "X-Binary-Number-of-Elements": "10166590",
# "X-Binary-Size-Fastest-Dimension": "3110",
# "X-Binary-Size-Second-Dimension": "3269",
# "X-Binary-Size-Padding": "4095"
# }
# --> H:/Proxima2a_2019-04-05/RAW_DATA/C5_gel17_position5/C5_mesh_1_data.cbf/C5_mesh_1_data.cbf000117.dat
#        q_A^-1              I           sigma 
  1.105228e-03    9.218834e-01   5.195471e-01
  3.315685e-03    1.039462e+00   3.353896e-01
  5.526141e-03    1.611818e+00   3.229461e-01
  7.736597e-03    1.540989e+00   2.667595e-01
  9.947054e-03    1.380363e+00   2.225734e-01
  1.215751e-02    1.302854e+00   1.955314e-01
  1.436797e-02    1.555325e+00   1.965108e-01
  1.657842e-02    1.571528e+00   1.838677e-01
  1.878888e-02    1.228915e+00   1.527300e-01
  2.099934e-02    1.237209e+00   1.449852e-01
  2.320979e-02    1.431301e+00   1.483195e-01
  2.542025e-02    1.538764e+00   1.469588e-01
  2.763070e-02    1.486009e+00   1.385164e-01
  2.984116e-02    1.392545e+00   1.290272e-01
  3.205162e-02    1.412119e+00   1.253781e-01
  3.426207e-02    1.553738e+00   1.271932e-01
  3.647253e-02    1.529881e+00   1.223259e-01
  3.868299e-02    1.447435e+00   1.155434e-01
  4.089344e-02    1.482809e+00   1.137426e-01
  4.310390e-02    1.374649e+00   1.066645e-01
  4.531436e-02    1.350146e+00   1.030994e-01
  4.752481e-02    1.466915e+00   1.049353e-01
  4.973527e-02    1.432570e+00   1.013701e-01
  5.194572e-02    1.512091e+00   1.019042e-01
  5.415618e-02    1.413862e+00   9.650334e-02
  5.636664e-02    1.292913e+00   9.045859e-02
  5.857709e-02    1.337998e+00   9.026974e-02
  6.078755e-02    1.463802e+00   9.268264e-02
  6.299801e-02    1.489754e+00   9.184462e-02
  6.520846e-02    1.415136e+00   8.798526e-02
  6.741892e-02    1.430656e+00   8.699962e-02
  6.962938e-02    1.418274e+00   8.524060e-02
  7.183983e-02    1.499052e+00   8.627407e-02
  7.405029e-02    1.448132e+00   8.351901e-02
  7.626074e-02    1.433106e+00   8.187089e-02
  7.847120e-02    1.351837e+00   7.838560e-02
  8.068166e-02    1.365427e+00   7.769132e-02
  8.289211e-02    1.406858e+00   7.780220e-02
  8.510257e-02    1.424843e+00   7.727391e-02
  8.731303e-02    1.500352e+00   7.828190e-02
  8.952348e-02    1.433124e+00   7.555957e-02
  9.173394e-02    1.535742e+00   7.726679e-02
  9.394439e-02    1.563553e+00   7.703812e-02
  9.615485e-02    1.539602e+00   7.556036e-02
  9.836531e-02    1.497521e+00   7.367649e-02
  1.005758e-01    1.506743e+00   7.308682e-02
  1.027862e-01    1.456483e+00   7.107888e-02
  1.049967e-01    1.515609e+00   7.173868e-02
  1.072071e-01    1.637701e+00   7.379860e-02
  1.094176e-01    1.462410e+00   6.902828e-02
  1.116280e-01    1.484341e+00   6.885041e-02
  1.138385e-01    1.584311e+00   7.043581e-02
  1.160490e-01    1.576036e+00   6.957850e-02
  1.182594e-01    1.579718e+00   6.900414e-02
  1.204699e-01    1.583415e+00   6.844756e-02
  1.226803e-01    1.619512e+00   6.859407e-02
  1.248908e-01    1.583606e+00   6.722566e-02
  1.271012e-01    1.623269e+00   6.746656e-02
  1.293117e-01    1.582214e+00   6.603533e-02
  1.315222e-01    1.644010e+00   6.674296e-02
  1.337326e-01    1.594877e+00   6.519124e-02
  1.359431e-01    1.603549e+00   6.540649e-02
  1.381535e-01    1.639839e+00   6.703030e-02
  1.403640e-01    1.661313e+00   6.775908e-02
  1.425744e-01    1.536837e+00   6.527531e-02
  1.447849e-01    1.483859e+00   6.415510e-02
  1.469953e-01    1.554355e+00   6.562026e-02
  1.492058e-01    1.546937e+00   6.538742e-02
  1.514163e-01    1.460527e+00   6.342947e-02
  1.536267e-01    1.501870e+00   6.419532e-02
  1.558372e-01    1.660906e+00   6.735967e-02
  1.580476e-01    1.628209e+00   6.653152e-02
  1.602581e-01    1.638032e+00   6.656243e-02
  1.624685e-01    1.678847e+00   6.720209e-02
  1.646790e-01    1.595432e+00   6.532323e-02
  1.668895e-01    1.614799e+00   6.552870e-02
  1.690999e-01    1.704992e+00   6.713166e-02
  1.713104e-01    1.738853e+00   6.758462e-02
  1.735208e-01    1.768189e+00   6.794040e-02
  1.757313e-01    1.806940e+00   6.846561e-02
  1.779417e-01    1.874840e+00   6.951267e-02
  1.801522e-01    1.889285e+00   6.955770e-02
  1.823626e-01    1.867671e+00   6.892844e-02
  1.845731e-01    1.922251e+00   6.970184e-02
  1.867836e-01    1.907373e+00   6.919724e-02
  1.889940e-01    2.015283e+00   7.089532e-02
  1.912045e-01    1.950307e+00   6.951018e-02
  1.934149e-01    1.942037e+00   6.913047e-02
  1.956254e-01    1.991977e+00   6.978279e-02
  1.978358e-01    1.911204e+00   6.811911e-02
  2.000463e-01    1.924979e+00   6.813756e-02
  2.022568e-01    1.984915e+00   6.896313e-02
  2.044672e-01    1.938766e+00   6.792323e-02
  2.066777e-01    1.972224e+00   6.827942e-02
  2.088881e-01    2.070369e+00   6.972883e-02
  2.110986e-01    1.987932e+00   6.809223e-02
  2.133090e-01    1.929405e+00   6.686430e-02
  2.155195e-01    1.963468e+00   6.722820e-02
  2.177300e-01    1.947622e+00   6.643037e-02
  2.199404e-01    1.957893e+00   6.485024e-02
  2.221509e-01    1.943777e+00   6.355502e-02
  2.243613e-01    1.972121e+00   6.320516e-02
  2.265718e-01    2.021598e+00   6.328776e-02
  2.287822e-01    2.111925e+00   6.404593e-02
  2.309927e-01    2.110234e+00   6.343708e-02
  2.332031e-01    2.141811e+00   6.336296e-02
  2.354136e-01    2.102458e+00   6.226933e-02
  2.376241e-01    2.161933e+00   6.265382e-02
  2.398345e-01    2.209613e+00   6.287219e-02
  2.420450e-01    2.164610e+00   6.178391e-02
  2.442554e-01    2.090106e+00   6.029308e-02
  2.464659e-01    2.092468e+00   5.992208e-02
  2.486763e-01    2.180360e+00   6.076557e-02
  2.508868e-01    2.136114e+00   5.976643e-02
  2.530973e-01    2.095190e+00   5.882419e-02
  2.553077e-01    2.060960e+00   5.798782e-02
  2.575182e-01    2.065356e+00   5.770616e-02
  2.597286e-01    2.105165e+00   5.792097e-02
  2.619391e-01    2.044349e+00   5.674960e-02
  2.641495e-01    2.036703e+00   5.632986e-02
  2.663600e-01    2.039577e+00   5.605961e-02
  2.685704e-01    2.066860e+00   5.612740e-02
  2.707809e-01    2.073338e+00   5.591692e-02
  2.729914e-01    2.031915e+00   5.506703e-02
  2.752018e-01    2.019989e+00   5.461942e-02
  2.774123e-01    2.080614e+00   5.514983e-02
  2.796227e-01    2.089656e+00   5.499615e-02
  2.818332e-01    2.013529e+00   5.371579e-02
  2.840436e-01    1.970348e+00   5.287910e-02
  2.862541e-01    2.013675e+00   5.320037e-02
  2.884646e-01    1.952600e+00   5.213876e-02
  2.906750e-01    1.879993e+00   5.091760e-02
  2.928855e-01    1.969172e+00   5.186981e-02
  2.950959e-01    1.988878e+00   5.188924e-02
  2.973064e-01    1.915153e+00   5.068961e-02
  2.995168e-01    1.933337e+00   5.069897e-02
  3.017273e-01    1.931897e+00   5.045668e-02
  3.039377e-01    1.938308e+00   5.031901e-02
  3.061482e-01    1.919077e+00   4.985219e-02
  3.083587e-01    1.866698e+00   4.895433e-02
  3.105691e-01    1.864836e+00   4.872091e-02
  3.127796e-01    1.916028e+00   4.917746e-02
  3.149900e-01    1.926814e+00   4.911025e-02
  3.172005e-01    1.879395e+00   4.830384e-02
  3.194109e-01    1.886091e+00   4.819005e-02
  3.216214e-01    1.878490e+00   4.789661e-02
  3.238319e-01    1.888744e+00   4.783687e-02
  3.260423e-01    1.886077e+00   4.761269e-02
  3.282528e-01    1.912293e+00   4.775158e-02
  3.304632e-01    1.897545e+00   4.738284e-02
  3.326737e-01    1.852887e+00   4.663925e-02
  3.348841e-01    1.807171e+00   4.588170e-02
  3.370946e-01    1.787857e+00   4.546412e-02
  3.393050e-01    1.813006e+00   4.560936e-02
  3.415155e-01    1.838223e+00   4.575278e-02
  3.437260e-01    1.787126e+00   4.494520e-02
  3.459364e-01    1.823291e+00   4.522975e-02
  3.481469e-01    1.837301e+00   4.523746e-02
  3.503573e-01    1.894653e+00   4.577073e-02
  3.525678e-01    1.830935e+00   4.483418e-02
  3.547782e-01    1.772559e+00   4.395422e-02
  3.569887e-01    1.802897e+00   4.417168e-02
  3.591992e-01    1.761520e+00   4.350739e-02
  3.614096e-01    1.816660e+00   4.402987e-02
  3.636201e-01    1.830588e+00   4.404303e-02
  3.658305e-01    1.772685e+00   4.319303e-02
  3.680410e-01    1.831578e+00   4.375365e-02
  3.702514e-01    1.790133e+00   4.311034e-02
  3.724619e-01    1.817131e+00   4.328628e-02
  3.746724e-01    1.816735e+00   4.313717e-02
  3.768828e-01    1.768005e+00   4.241150e-02
  3.790933e-01    1.729872e+00   4.181494e-02
  3.813037e-01    1.775602e+00   4.222541e-02
  3.835142e-01    1.774908e+00   4.207851e-02
  3.857246e-01    1.791290e+00   4.213545e-02
  3.879351e-01    1.798744e+00   4.208635e-02
  3.901455e-01    1.841874e+00   4.245235e-02
  3.923560e-01    1.829773e+00   4.217821e-02
  3.945665e-01    1.794017e+00   4.163162e-02
  3.967769e-01    1.756560e+00   4.106569e-02
  3.989874e-01    1.852572e+00   4.204139e-02
  4.011978e-01    1.807073e+00   4.139422e-02
  4.034083e-01    1.840597e+00   4.164817e-02
  4.056187e-01    1.834273e+00   4.144849e-02
  4.078292e-01    1.817651e+00   4.113539e-02
  4.100397e-01    1.827281e+00   4.111828e-02
  4.122501e-01    1.784590e+00   4.051356e-02
  4.144606e-01    1.772402e+00   4.025523e-02
  4.166710e-01    1.806663e+00   4.052161e-02
  4.188815e-01    1.798041e+00   4.030540e-02
  4.210919e-01    1.783521e+00   4.002466e-02
  4.233024e-01    1.830285e+00   4.042674e-02
  4.255128e-01    1.830172e+00   4.030864e-02
  4.277233e-01    1.823976e+00   4.012474e-02
  4.299338e-01    1.830185e+00   4.007731e-02
  4.321442e-01    1.816284e+00   3.981058e-02
  4.343547e-01    1.812158e+00   3.965288e-02
  4.365651e-01    1.805283e+00   3.946516e-02
  4.387756e-01    1.736818e+00   3.860119e-02
  4.409860e-01    1.716811e+00   3.827188e-02
  4.431965e-01    1.728418e+00   3.829486e-02
  4.454070e-01    1.709279e+00   3.797629e-02
  4.476174e-01    1.697747e+00   3.774404e-02
  4.498279e-01    1.726225e+00   3.795574e-02
  4.520383e-01    1.707764e+00   3.764862e-02
  4.542488e-01    1.751402e+00   3.802380e-02
  4.564592e-01    1.725626e+00   3.764170e-02
  4.586697e-01    1.718311e+00   3.746215e-02
  4.608801e-01    1.704825e+00   3.721490e-02
  4.630906e-01    1.706563e+00   3.713526e-02
  4.653011e-01    1.769683e+00   3.771633e-02
  4.675115e-01    1.754176e+00   3.745184e-02
  4.697220e-01    1.714332e+00   3.692713e-02
  4.719324e-01    1.720893e+00   3.690201e-02
  4.741429e-01    1.720113e+00   3.679859e-02
  4.763533e-01    1.734694e+00   3.685949e-02
  4.785638e-01    1.730808e+00   3.672307e-02
  4.807743e-01    1.702834e+00   3.633247e-02
  4.829847e-01    1.693195e+00   3.613796e-02
  4.851952e-01    1.698361e+00   3.610146e-02
  4.874056e-01    1.743604e+00   3.648692e-02
  4.896161e-01    1.729267e+00   3.624650e-02
  4.918265e-01    1.666779e+00   3.549722e-02
  4.940370e-01    1.680045e+00   3.555020e-02
  4.962475e-01    1.674615e+00   3.540506e-02
  4.984579e-01    1.693788e+00   3.551940e-02
  5.006684e-01    1.724891e+00   3.575666e-02
  5.028788e-01    1.679818e+00   3.520087e-02
  5.050893e-01    1.686908e+00   3.518929e-02
  5.072997e-01    1.681325e+00   3.504616e-02
  5.095102e-01    1.663903e+00   3.478062e-02
  5.117206e-01    1.664374e+00   3.470281e-02
  5.139311e-01    1.679530e+00   3.477797e-02
  5.161416e-01    1.672701e+00   3.462517e-02
  5.183520e-01    1.682988e+00   3.464894e-02
  5.205625e-01    1.670563e+00   3.443993e-02
  5.227729e-01    1.669782e+00   3.435158e-02
  5.249834e-01    1.684395e+00   3.442146e-02
  5.271938e-01    1.655296e+00   3.404323e-02
  5.294043e-01    1.688942e+00   3.430809e-02
  5.316148e-01    1.758326e+00   3.492554e-02
  5.338252e-01    1.783661e+00   3.509589e-02
  5.360357e-01    1.748985e+00   3.467394e-02
  5.382461e-01    1.799163e+00   3.508830e-02
  5.404566e-01    1.807097e+00   3.508557e-02
  5.426670e-01    1.758955e+00   3.453709e-02
  5.448775e-01    1.711159e+00   3.398850e-02
  5.470879e-01    1.706979e+00   3.387126e-02
  5.492984e-01    1.742258e+00   3.414339e-02
  5.515089e-01    1.794066e+00   3.457046e-02
  5.537193e-01    1.754244e+00   3.410935e-02
  5.559298e-01    1.804920e+00   3.452259e-02
  5.581402e-01    1.800892e+00   3.440873e-02
  5.603507e-01    1.764234e+00   3.398260e-02
  5.625611e-01    1.804236e+00   3.429111e-02
  5.647716e-01    1.807361e+00   3.424630e-02
  5.669821e-01    1.746294e+00   3.359019e-02
  5.691925e-01    1.746013e+00   3.351540e-02
  5.714030e-01    1.769577e+00   3.366883e-02
  5.736134e-01    1.747517e+00   3.338717e-02
  5.758239e-01    1.738582e+00   3.323064e-02
  5.780343e-01    1.664721e+00   3.244831e-02
  5.802448e-01    1.690686e+00   3.263191e-02
  5.824552e-01    1.731442e+00   3.295361e-02
  5.846657e-01    1.690981e+00   3.249842e-02
  5.868762e-01    1.655633e+00   3.209000e-02
  5.890866e-01    1.649111e+00   3.196029e-02
  5.912971e-01    1.607499e+00   3.148915e-02
  5.935075e-01    1.619015e+00   3.153643e-02
  5.957180e-01    1.640630e+00   3.168111e-02
  5.979284e-01    1.633448e+00   3.154717e-02
  6.001389e-01    1.638687e+00   3.153336e-02
  6.023494e-01    1.652812e+00   3.160469e-02
  6.045598e-01    1.664210e+00   3.164890e-02
  6.067703e-01    1.642274e+00   3.137641e-02
  6.089807e-01    1.623884e+00   3.113751e-02
  6.111912e-01    1.663608e+00   3.145313e-02
  6.134016e-01    1.668687e+00   3.143827e-02
  6.156121e-01    1.708014e+00   3.174334e-02
  6.178226e-01    1.705265e+00   3.165501e-02
  6.200330e-01    1.699067e+00   3.153509e-02
  6.222435e-01    1.764361e+00   3.207165e-02
  6.244539e-01    1.758477e+00   3.195546e-02
  6.266644e-01    1.705363e+00   3.140776e-02
  6.288748e-01    1.711176e+00   3.140000e-02
  6.310853e-01    1.709191e+00   3.132087e-02
  6.332957e-01    1.707426e+00   3.124424e-02
  6.355062e-01    1.714319e+00   3.124643e-02
  6.377167e-01    1.699957e+00   3.105556e-02
  6.399271e-01    1.692682e+00   3.092968e-02
  6.421376e-01    1.682934e+00   3.078160e-02
  6.443480e-01    1.690488e+00   3.079193e-02
  6.465585e-01    1.697698e+00   3.079906e-02
  6.487689e-01    1.687262e+00   3.064628e-02
  6.509794e-01    1.673202e+00   3.046076e-02
  6.531899e-01    1.672578e+00   3.039782e-02
  6.554003e-01    1.612659e+00   2.979225e-02
  6.576108e-01    1.612567e+00   2.973591e-02
  6.598212e-01    1.636923e+00   2.990397e-02
  6.620317e-01    1.636276e+00   2.984264e-02
  6.642421e-01    1.630823e+00   2.973776e-02
  6.664526e-01    1.599086e+00   2.939273e-02
  6.686630e-01    1.638828e+00   2.970071e-02
  6.708735e-01    1.625486e+00   2.952532e-02
  6.730840e-01    1.630551e+00   2.951737e-02
  6.752944e-01    1.583648e+00   2.903683e-02
  6.775049e-01    1.599418e+00   2.912805e-02
  6.797153e-01    1.622630e+00   2.928554e-02
  6.819258e-01    1.604301e+00   2.906714e-02
  6.841362e-01    1.594414e+00   2.892534e-02
  6.863467e-01    1.607249e+00   2.898949e-02
  6.885572e-01    1.614889e+00   2.900626e-02
  6.907676e-01    1.613684e+00   2.894347e-02
  6.929781e-01    1.589954e+00   2.867880e-02
  6.951885e-01    1.605115e+00   2.876419e-02
  6.973990e-01    1.553036e+00   2.824368e-02
  6.996094e-01    1.574539e+00   2.838848e-02
  7.018199e-01    1.582512e+00   2.841033e-02
  7.040303e-01    1.575140e+00   2.829429e-02
  7.062408e-01    1.575472e+00   2.824769e-02
  7.084513e-01    1.568381e+00   2.813504e-02
  7.106617e-01    1.579909e+00   2.818917e-02
  7.128722e-01    1.587874e+00   2.821126e-02
  7.150826e-01    1.582199e+00   2.811225e-02
  7.172931e-01    1.550773e+00   2.778371e-02
  7.195035e-01    1.534456e+00   2.758962e-02
  7.217140e-01    1.569924e+00   2.795603e-02
  7.239245e-01    1.555598e+00   2.805356e-02
  7.261349e-01    1.550439e+00   2.811477e-02
  7.283454e-01    1.575434e+00   2.841291e-02
  7.305558e-01    1.556898e+00   2.829896e-02
  7.327663e-01    1.572244e+00   2.848054e-02
  7.349767e-01    1.566988e+00   2.844925e-02
  7.371872e-01    1.533561e+00   2.813312e-02
  7.393976e-01    1.587005e+00   2.860482e-02
  7.416081e-01    1.557855e+00   2.832483e-02
  7.438186e-01    1.542287e+00   2.804009e-02
  7.460290e-01    1.551291e+00   2.782979e-02
  7.482395e-01    1.559438e+00   2.773241e-02
  7.504499e-01    1.558255e+00   2.758635e-02
  7.526604e-01    1.604817e+00   2.787779e-02
  7.548708e-01    1.589533e+00   2.765490e-02
  7.570813e-01    1.577617e+00   2.750001e-02
  7.592918e-01    1.574775e+00   2.744007e-02
  7.615022e-01    1.543510e+00   2.713283e-02
  7.637127e-01    1.556142e+00   2.721106e-02
  7.659231e-01    1.591686e+00   2.748787e-02
  7.681336e-01    1.586784e+00   2.741381e-02
  7.703440e-01    1.538472e+00   2.696240e-02
  7.725545e-01    1.532622e+00   2.688058e-02
  7.747650e-01    1.656284e+00   2.790485e-02
  7.769754e-01    1.583846e+00   2.723499e-02
  7.791859e-01    1.576206e+00   2.711570e-02
  7.813963e-01    1.572634e+00   2.703249e-02
  7.836068e-01    1.585454e+00   2.709041e-02
  7.858172e-01    1.614424e+00   2.728570e-02
  7.880277e-01    1.624743e+00   2.732068e-02
  7.902381e-01    1.623408e+00   2.725985e-02
  7.924486e-01    1.610624e+00   2.710200e-02
  7.946591e-01    1.650201e+00   2.738392e-02
  7.968695e-01    1.628725e+00   2.715648e-02
  7.990800e-01    1.621610e+00   2.704867e-02
  8.012904e-01    1.634022e+00   2.710501e-02
  8.035009e-01    1.661930e+00   2.728686e-02
  8.057113e-01    1.688942e+00   2.746015e-02
  8.079218e-01    1.766542e+00   2.803542e-02
  8.101323e-01    1.794982e+00   2.821226e-02
  8.123427e-01    1.728817e+00   2.764019e-02
  8.145532e-01    1.715873e+00   2.748941e-02
  8.167636e-01    1.693549e+00   2.726409e-02
  8.189741e-01    1.638619e+00   2.677358e-02
  8.211845e-01    1.663632e+00   2.693191e-02
  8.233950e-01    1.668849e+00   2.693027e-02
  8.256054e-01    1.617947e+00   2.647244e-02
  8.278159e-01    1.628452e+00   2.651438e-02
  8.300264e-01    1.652475e+00   2.666597e-02
  8.322368e-01    1.659956e+00   2.668286e-02
  8.344473e-01    1.644218e+00   2.651263e-02
  8.366577e-01    1.630603e+00   2.636015e-02
  8.388682e-01    1.675868e+00   2.668080e-02
  8.410786e-01    1.735264e+00   2.710621e-02
  8.432891e-01    1.820194e+00   2.771750e-02
  8.454996e-01    1.953798e+00   2.867133e-02
  8.477100e-01    1.793374e+00   2.742549e-02
  8.499205e-01    1.665755e+00   2.639012e-02
  8.521309e-01    1.641392e+00   2.615556e-02
  8.543414e-01    1.661320e+00   2.627281e-02
  8.565518e-01    1.604500e+00   2.577942e-02
  8.587623e-01    1.619868e+00   2.586224e-02
  8.609727e-01    1.629917e+00   2.590211e-02
  8.631832e-01    1.626297e+00   2.583346e-02
  8.653937e-01    1.583121e+00   2.544905e-02
  8.676041e-01    1.600618e+00   2.555069e-02
  8.698146e-01    1.606073e+00   2.555506e-02
  8.720250e-01    1.594068e+00   2.542059e-02
  8.742355e-01    1.596109e+00   2.539812e-02
  8.764459e-01    1.614113e+00   2.550200e-02
  8.786564e-01    1.593308e+00   2.529936e-02
  8.808669e-01    1.597812e+00   2.529666e-02
  8.830773e-01    1.591983e+00   2.521248e-02
  8.852878e-01    1.583838e+00   2.511019e-02
  8.874982e-01    1.598429e+00   2.518898e-02
  8.897087e-01    1.587975e+00   2.506894e-02
  8.919191e-01    1.580430e+00   2.497181e-02
  8.941296e-01    1.591646e+00   2.502305e-02
  8.963401e-01    1.617607e+00   2.518969e-02
  8.985505e-01    1.570422e+00   2.478298e-02
  9.007610e-01    1.585057e+00   2.486160e-02
  9.029714e-01    1.604791e+00   2.498000e-02
  9.051819e-01    1.594895e+00   2.486570e-02
  9.073923e-01    1.606277e+00   2.491763e-02
  9.096028e-01    1.586113e+00   2.472596e-02
  9.118132e-01    1.606118e+00   2.484512e-02
  9.140237e-01    1.577558e+00   2.458687e-02
  9.162342e-01    1.592418e+00   2.466791e-02
  9.184446e-01    1.559017e+00   2.437255e-02
  9.206551e-01    1.583314e+00   2.452632e-02
  9.228655e-01    1.589469e+00   2.453883e-02
  9.250760e-01    1.588118e+00   2.449318e-02
  9.272864e-01    1.614251e+00   2.465951e-02
  9.294969e-01    1.614521e+00   2.462563e-02
  9.317074e-01    1.635816e+00   2.475246e-02
  9.339178e-01    1.613593e+00   2.455021e-02
  9.361283e-01    1.596398e+00   2.438302e-02
  9.383387e-01    1.618427e+00   2.451728e-02
  9.405492e-01    1.627811e+00   2.455394e-02
  9.427596e-01    1.642144e+00   2.462628e-02
  9.449701e-01    1.684294e+00   2.490645e-02
  9.471805e-01    1.681847e+00   2.485310e-02
  9.493910e-01    1.701315e+00   2.496222e-02
  9.516015e-01    1.707530e+00   2.497286e-02
  9.538119e-01    1.702723e+00   2.490352e-02
  9.560224e-01    1.724291e+00   2.502546e-02
  9.582328e-01    1.766105e+00   2.529310e-02
  9.604433e-01    1.766974e+00   2.526350e-02
  9.626537e-01    1.765349e+00   2.521793e-02
  9.648642e-01    1.799291e+00   2.542432e-02
  9.670747e-01    1.773456e+00   2.520634e-02
  9.692851e-01    1.776263e+00   2.519275e-02
  9.714956e-01    1.791549e+00   2.526523e-02
  9.737060e-01    1.840224e+00   2.557251e-02
  9.759165e-01    1.824097e+00   2.542433e-02
  9.781269e-01    1.796403e+00   2.519758e-02
  9.803374e-01    1.798171e+00   2.517510e-02
  9.825478e-01    1.808570e+00   2.521450e-02
  9.847583e-01    1.773682e+00   2.493621e-02
  9.869688e-01    1.773235e+00   2.489969e-02
  9.891792e-01    1.745781e+00   2.467335e-02
  9.913897e-01    1.755073e+00   2.470554e-02
  9.936001e-01    1.730508e+00   2.449992e-02
  9.958106e-01    1.712295e+00   2.433753e-02
  9.980210e-01    1.658573e+00   2.392163e-02
  1.000231e+00    1.599668e+00   2.362167e-02
  1.002442e+00    1.619375e+00   2.389301e-02
  1.004652e+00    1.610335e+00   2.389269e-02
  1.006863e+00    1.604333e+00   2.389763e-02
  1.009073e+00    1.600537e+00   2.390585e-02
  1.011284e+00    1.600175e+00   2.393511e-02
  1.013494e+00    1.570694e+00   2.373712e-02
  1.015705e+00    1.557269e+00   2.365779e-02
  1.017915e+00    1.541364e+00   2.355290e-02
  1.020126e+00    1.539884e+00   2.355749e-02
  1.022336e+00    1.536429e+00   2.354265e-02
  1.024547e+00    1.522803e+00   2.344913e-02
  1.026757e+00    1.537619e+00   2.357127e-02
  1.028967e+00    1.514727e+00   2.340275e-02
  1.031178e+00    1.500447e+00   2.329828e-02
  1.033388e+00    1.485727e+00   2.318868e-02
  1.035599e+00    1.494246e+00   2.325846e-02
  1.037809e+00    1.493025e+00   2.325219e-02
  1.040020e+00    1.473584e+00   2.310155e-02
  1.042230e+00    1.466887e+00   2.305090e-02
  1.044441e+00    1.494692e+00   2.326812e-02
  1.046651e+00    1.479002e+00   2.314585e-02
  1.048862e+00    1.478904e+00   2.314427e-02
  1.051072e+00    1.470589e+00   2.307682e-02
  1.053282e+00    1.460048e+00   2.299301e-02
  1.055493e+00    1.456304e+00   2.295927e-02
  1.057703e+00    1.462164e+00   2.300389e-02
  1.059914e+00    1.476852e+00   2.311492e-02
  1.062124e+00    1.472355e+00   2.307568e-02
  1.064335e+00    1.431352e+00   2.274872e-02
  1.066545e+00    1.427146e+00   2.270938e-02
  1.068756e+00    1.441778e+00   2.282181e-02
  1.070966e+00    1.444554e+00   2.283732e-02
  1.073177e+00    1.413159e+00   2.258185e-02
  1.075387e+00    1.466484e+00   2.299872e-02
  1.077597e+00    1.469250e+00   2.301318e-02
  1.079808e+00    1.423695e+00   2.252270e-02
  1.082018e+00    1.404338e+00   2.218382e-02
  1.084229e+00    1.406974e+00   2.209659e-02
  1.086439e+00    1.424071e+00   2.214397e-02
  1.088650e+00    1.439523e+00   2.218849e-02
  1.090860e+00    1.405555e+00   2.185867e-02
  1.093071e+00    1.425456e+00   2.195121e-02
  1.095281e+00    1.440855e+00   2.201231e-02
  1.097492e+00    1.428350e+00   2.186201e-02
  1.099702e+00    1.414790e+00   2.170704e-02
  1.101912e+00    1.395863e+00   2.151327e-02
  1.104123e+00    1.400275e+00   2.149959e-02
  1.106333e+00    1.411508e+00   2.154159e-02
  1.108544e+00    1.404998e+00   2.144797e-02
  1.110754e+00    1.398554e+00   2.135614e-02
  1.112965e+00    1.379451e+00   2.116986e-02
  1.115175e+00    1.415931e+00   2.140683e-02
  1.117386e+00    1.410526e+00   2.132674e-02
  1.119596e+00    1.453712e+00   2.161232e-02
  1.121807e+00    1.483634e+00   2.179380e-02
  1.124017e+00    1.505695e+00   2.191732e-02
  1.126228e+00    1.494815e+00   2.180112e-02
  1.128438e+00    1.468239e+00   2.156882e-02
  1.130648e+00    1.526707e+00   2.195818e-02
  1.132859e+00    1.848087e+00   2.411944e-02
  1.135069e+00    2.094449e+00   2.563436e-02
  1.137280e+00    1.828942e+00   2.391677e-02
  1.139490e+00    1.537955e+00   2.189695e-02
  1.141701e+00    1.441160e+00   2.116284e-02
  1.143911e+00    1.406920e+00   2.087781e-02
  1.146122e+00    1.390231e+00   2.072147e-02
  1.148332e+00    1.407358e+00   2.081652e-02
  1.150543e+00    1.394699e+00   2.069167e-02
  1.152753e+00    1.386642e+00   2.060085e-02
  1.154963e+00    1.391517e+00   2.060579e-02
  1.157174e+00    1.400695e+00   2.064318e-02
  1.159384e+00    1.387388e+00   2.051487e-02
  1.161595e+00    1.411246e+00   2.066020e-02
  1.163805e+00    1.464202e+00   2.101400e-02
  1.166016e+00    1.496427e+00   2.121321e-02
  1.168226e+00    1.537017e+00   2.146825e-02
  1.170437e+00    1.665655e+00   2.231694e-02
  1.172647e+00    1.777945e+00   2.302402e-02
  1.174858e+00    1.612793e+00   2.189813e-02
  1.177068e+00    1.428844e+00   2.058257e-02
  1.179278e+00    1.384150e+00   2.022926e-02
  1.181489e+00    1.348797e+00   1.994234e-02
  1.183699e+00    1.328723e+00   1.976612e-02
  1.185910e+00    1.365117e+00   2.000712e-02
  1.188120e+00    1.374184e+00   2.004663e-02
  1.190331e+00    1.376353e+00   2.003544e-02
  1.192541e+00    1.447250e+00   2.051667e-02
  1.194752e+00    1.684178e+00   2.210229e-02
  1.196962e+00    1.520030e+00   2.097030e-02
  1.199173e+00    1.373592e+00   1.990786e-02
  1.201383e+00    1.348382e+00   1.969716e-02
  1.203593e+00    1.354697e+00   1.971838e-02
  1.205804e+00    1.372352e+00   1.982032e-02
  1.208014e+00    1.362213e+00   1.972000e-02
  1.210225e+00    1.347247e+00   1.958607e-02
  1.212435e+00    1.357545e+00   1.963592e-02
  1.214646e+00    1.341621e+00   1.949440e-02
  1.216856e+00    1.342231e+00   1.947342e-02
  1.219067e+00    1.337875e+00   1.941744e-02
  1.221277e+00    1.329898e+00   1.933463e-02
  1.223488e+00    1.343892e+00   1.941039e-02
  1.225698e+00    1.344111e+00   1.938515e-02
  1.227909e+00    1.350026e+00   1.939756e-02
  1.230119e+00    1.370202e+00   1.950990e-02
  1.232329e+00    1.347938e+00   1.932005e-02
  1.234540e+00    1.364090e+00   1.940501e-02
  1.236750e+00    1.340126e+00   1.920365e-02
  1.238961e+00    1.348734e+00   1.923827e-02
  1.241171e+00    1.324471e+00   1.904049e-02
  1.243382e+00    1.311285e+00   1.892229e-02
  1.245592e+00    1.323477e+00   1.898620e-02
  1.247803e+00    1.336554e+00   1.905623e-02
  1.250013e+00    1.341735e+00   1.906965e-02
  1.252224e+00    1.340190e+00   1.903551e-02
  1.254434e+00    1.345669e+00   1.905067e-02
  1.256644e+00    1.379573e+00   1.926571e-02
  1.258855e+00    1.368440e+00   1.916440e-02
  1.261065e+00    1.338056e+00   1.892718e-02
  1.263276e+00    1.316652e+00   1.875253e-02
  1.265486e+00    1.351226e+00   1.897425e-02
  1.267697e+00    1.347972e+00   1.892840e-02
  1.269907e+00    1.348050e+00   1.890626e-02
  1.272118e+00    1.331608e+00   1.876820e-02
  1.274328e+00    1.327100e+00   1.871385e-02
  1.276539e+00    1.359606e+00   1.891877e-02
  1.278749e+00    1.365903e+00   1.894014e-02
  1.280959e+00    1.365449e+00   1.891433e-02
  1.283170e+00    1.346084e+00   1.875732e-02
  1.285380e+00    1.343140e+00   1.871440e-02
  1.287591e+00    1.336749e+00   1.864790e-02
  1.289801e+00    1.337314e+00   1.863072e-02
  1.292012e+00    1.315505e+00   1.846131e-02
  1.294222e+00    1.318324e+00   1.846503e-02
  1.296433e+00    1.318204e+00   1.844877e-02
  1.298643e+00    1.325765e+00   1.848529e-02
  1.300854e+00    1.361832e+00   1.871854e-02
  1.303064e+00    1.364593e+00   1.871821e-02
  1.305274e+00    1.353523e+00   1.862064e-02
  1.307485e+00    1.374120e+00   1.874006e-02
  1.309695e+00    1.353297e+00   1.857526e-02
  1.311906e+00    1.343168e+00   1.848396e-02
  1.314116e+00    1.316770e+00   1.828088e-02
  1.316327e+00    1.353818e+00   1.851454e-02
  1.318537e+00    1.362372e+00   1.855097e-02
  1.320748e+00    1.329910e+00   1.830723e-02
  1.322958e+00    1.338014e+00   1.834249e-02
  1.325169e+00    1.361317e+00   1.848041e-02
  1.327379e+00    1.390865e+00   1.865778e-02
  1.329589e+00    1.360811e+00   1.843394e-02
  1.331800e+00    1.363917e+00   1.843416e-02
  1.334010e+00    1.355833e+00   1.835875e-02
  1.336221e+00    1.350985e+00   1.830415e-02
  1.338431e+00    1.347968e+00   1.826283e-02
  1.340642e+00    1.356345e+00   1.838382e-02
  1.342852e+00    1.338486e+00   1.836263e-02
  1.345063e+00    1.363945e+00   1.858617e-02
  1.347273e+00    1.358614e+00   1.858518e-02
  1.349484e+00    1.343103e+00   1.850639e-02
  1.351694e+00    1.347981e+00   1.856265e-02
  1.353905e+00    1.342052e+00   1.853973e-02
  1.356115e+00    1.314660e+00   1.836441e-02
  1.358325e+00    1.316167e+00   1.838807e-02
  1.360536e+00    1.333011e+00   1.851691e-02
  1.362746e+00    1.311394e+00   1.837559e-02
  1.364957e+00    1.298364e+00   1.829159e-02
  1.367167e+00    1.316365e+00   1.842499e-02
  1.369378e+00    1.307375e+00   1.836794e-02
  1.371588e+00    1.310673e+00   1.839615e-02
  1.373799e+00    1.296733e+00   1.830167e-02
  1.376009e+00    1.331318e+00   1.854750e-02
  1.378220e+00    1.314654e+00   1.843358e-02
  1.380430e+00    1.285665e+00   1.823188e-02
  1.382640e+00    1.291859e+00   1.827661e-02
  1.384851e+00    1.302773e+00   1.835454e-02
  1.387061e+00    1.296101e+00   1.830777e-02
  1.389272e+00    1.280942e+00   1.820060e-02
  1.391482e+00    1.293119e+00   1.828624e-02
  1.393693e+00    1.274780e+00   1.815524e-02
  1.395903e+00    1.254911e+00   1.801171e-02
  1.398114e+00    1.265490e+00   1.808610e-02
  1.400324e+00    1.262180e+00   1.806032e-02
  1.402535e+00    1.248215e+00   1.795783e-02
  1.404745e+00    1.288206e+00   1.824086e-02
  1.406955e+00    1.305552e+00   1.836054e-02
  1.409166e+00    1.275138e+00   1.814210e-02
  1.411376e+00    1.303197e+00   1.833747e-02
  1.413587e+00    1.277265e+00   1.815029e-02
  1.415797e+00    1.274307e+00   1.812570e-02
  1.418008e+00    1.267825e+00   1.803773e-02
  1.420218e+00    1.245840e+00   1.773234e-02
  1.422429e+00    1.229870e+00   1.753436e-02
  1.424639e+00    1.274925e+00   1.778782e-02
  1.426850e+00    1.278500e+00   1.775789e-02
  1.429060e+00    1.273749e+00   1.767579e-02
  1.431270e+00    1.270476e+00   1.760875e-02
  1.433481e+00    1.252274e+00   1.744150e-02
  1.435691e+00    1.246969e+00   1.736640e-02
  1.437902e+00    1.301201e+00   1.770314e-02
  1.440112e+00    1.285836e+00   1.756275e-02
  1.442323e+00    1.256730e+00   1.732997e-02
  1.444533e+00    1.268912e+00   1.738121e-02
  1.446744e+00    1.263023e+00   1.730980e-02
  1.448954e+00    1.249940e+00   1.718996e-02
  1.451165e+00    1.248818e+00   1.715272e-02
  1.453375e+00    1.262983e+00   1.722176e-02
  1.455586e+00    1.279719e+00   1.730722e-02
  1.457796e+00    1.261597e+00   1.715684e-02
  1.460006e+00    1.256405e+00   1.709436e-02
  1.462217e+00    1.283638e+00   1.725229e-02
  1.464427e+00    1.281735e+00   1.721375e-02
  1.466638e+00    1.280216e+00   1.717813e-02
  1.468848e+00    1.276545e+00   1.712807e-02
  1.471059e+00    1.264697e+00   1.702336e-02
  1.473269e+00    1.277335e+00   1.708373e-02
  1.475480e+00    1.280883e+00   1.708358e-02
  1.477690e+00    1.264373e+00   1.694932e-02
  1.479901e+00    1.276028e+00   1.700334e-02
  1.482111e+00    1.295148e+00   1.710667e-02
  1.484321e+00    1.309673e+00   1.717884e-02
  1.486532e+00    1.317822e+00   1.720943e-02
  1.488742e+00    1.274864e+00   1.690386e-02
  1.490953e+00    1.290424e+00   1.698388e-02
  1.493163e+00    1.277366e+00   1.687532e-02
  1.495374e+00    1.270959e+00   1.681140e-02
  1.497584e+00    1.241113e+00   1.659135e-02
  1.499795e+00    1.248314e+00   1.661787e-02
  1.502005e+00    1.263972e+00   1.670004e-02
  1.504216e+00    1.255064e+00   1.662010e-02
  1.506426e+00    1.262752e+00   1.665006e-02
  1.508636e+00    1.251812e+00   1.655739e-02
  1.510847e+00    1.238440e+00   1.644706e-02
  1.513057e+00    1.250051e+00   1.649891e-02
  1.515268e+00    1.270096e+00   1.660483e-02
  1.517478e+00    1.225742e+00   1.628745e-02
  1.519689e+00    1.234361e+00   1.631984e-02
  1.521899e+00    1.262620e+00   1.648240e-02
  1.524110e+00    1.279196e+00   1.656971e-02
  1.526320e+00    1.250647e+00   1.636420e-02
  1.528531e+00    1.244778e+00   1.630603e-02
  1.530741e+00    1.261073e+00   1.639318e-02
  1.532951e+00    1.263286e+00   1.638787e-02
  1.535162e+00    1.240573e+00   1.632616e-02
  1.537372e+00    1.242835e+00   1.640778e-02
  1.539583e+00    1.240060e+00   1.642358e-02
  1.541793e+00    1.226908e+00   1.634314e-02
  1.544004e+00    1.223617e+00   1.632146e-02
  1.546214e+00    1.227367e+00   1.634495e-02
  1.548425e+00    1.233585e+00   1.638657e-02
  1.550635e+00    1.209692e+00   1.623663e-02
  1.552846e+00    1.234479e+00   1.641175e-02
  1.555056e+00    1.226624e+00   1.631828e-02
  1.557266e+00    1.220363e+00   1.616720e-02
  1.559477e+00    1.215027e+00   1.607341e-02
  1.561687e+00    1.197298e+00   1.592563e-02
  1.563898e+00    1.225134e+00   1.609265e-02
  1.566108e+00    1.232600e+00   1.612575e-02
  1.568319e+00    1.235235e+00   1.612740e-02
  1.570529e+00    1.248800e+00   1.619054e-02
  1.572740e+00    1.248650e+00   1.616191e-02
  1.574950e+00    1.229985e+00   1.601450e-02
  1.577161e+00    1.246980e+00   1.609925e-02
  1.579371e+00    1.241763e+00   1.604191e-02
  1.581582e+00    1.230160e+00   1.594712e-02
  1.583792e+00    1.225964e+00   1.590202e-02
  1.586002e+00    1.226042e+00   1.588503e-02
  1.588213e+00    1.240347e+00   1.596021e-02
  1.590423e+00    1.221140e+00   1.581630e-02
  1.592634e+00    1.202256e+00   1.567225e-02
  1.594844e+00    1.204543e+00   1.566608e-02
  1.597055e+00    1.220833e+00   1.575135e-02
  1.599265e+00    1.201566e+00   1.560618e-02
  1.601476e+00    1.232072e+00   1.578279e-02
  1.603686e+00    1.225266e+00   1.571952e-02
  1.605897e+00    1.207558e+00   1.558561e-02
  1.608107e+00    1.192384e+00   1.546817e-02
  1.610317e+00    1.219044e+00   1.562097e-02
  1.612528e+00    1.210086e+00   1.554450e-02
  1.614738e+00    1.210915e+00   1.553103e-02
  1.616949e+00    1.209462e+00   1.550284e-02
  1.619159e+00    1.211988e+00   1.550042e-02
  1.621370e+00    1.188079e+00   1.532854e-02
  1.623580e+00    1.178310e+00   1.524732e-02
  1.625791e+00    1.178458e+00   1.523025e-02
  1.628001e+00    1.160011e+00   1.509264e-02
  1.630212e+00    1.169005e+00   1.513346e-02
  1.632422e+00    1.165040e+00   1.509004e-02
  1.634632e+00    1.153440e+00   1.499764e-02
  1.636843e+00    1.152407e+00   1.497355e-02
  1.639053e+00    1.164053e+00   1.503183e-02
  1.641264e+00    1.150806e+00   1.492908e-02
  1.643474e+00    1.150768e+00   1.491153e-02
  1.645685e+00    1.161592e+00   1.496481e-02
  1.647895e+00    1.151079e+00   1.488038e-02
  1.650106e+00    1.129017e+00   1.472024e-02
  1.652316e+00    1.130489e+00   1.471349e-02
  1.654527e+00    1.101828e+00   1.450940e-02
  1.656737e+00    1.097998e+00   1.446787e-02
  1.658947e+00    1.116759e+00   1.457479e-02
  1.661158e+00    1.090493e+00   1.438637e-02
  1.663368e+00    1.108960e+00   1.449175e-02
  1.665579e+00    1.078827e+00   1.427766e-02
  1.667789e+00    1.081597e+00   1.427997e-02
  1.670000e+00    1.079306e+00   1.424962e-02
  1.672210e+00    1.048238e+00   1.402757e-02
  1.674421e+00    1.072611e+00   1.417461e-02
  1.676631e+00    1.086241e+00   1.424863e-02
  1.678842e+00    1.086590e+00   1.423525e-02
  1.681052e+00    1.069157e+00   1.410537e-02
  1.683263e+00    1.059480e+00   1.402648e-02
  1.685473e+00    1.052392e+00   1.396454e-02
  1.687683e+00    1.064882e+00   1.403188e-02
  1.689894e+00    1.045978e+00   1.389127e-02
  1.692104e+00    1.028582e+00   1.376067e-02
  1.694315e+00    1.059109e+00   1.394897e-02
  1.696525e+00    1.039461e+00   1.380404e-02
  1.698736e+00    1.049365e+00   1.385493e-02
  1.700946e+00    1.044866e+00   1.381019e-02
  1.703157e+00    1.043582e+00   1.378714e-02
  1.705367e+00    1.037991e+00   1.373578e-02
  1.707578e+00    1.033501e+00   1.369157e-02
  1.709788e+00    1.018769e+00   1.357969e-02
  1.711998e+00    1.021861e+00   1.358544e-02
  1.714209e+00    9.969249e-01   1.340450e-02
  1.716419e+00    1.005218e+00   1.344608e-02
  1.718630e+00    1.005691e+00   1.343515e-02
  1.720840e+00    1.002168e+00   1.339760e-02
  1.723051e+00    9.826019e-01   1.325259e-02
  1.725261e+00    9.925519e-01   1.330504e-02
  1.727472e+00    1.002840e+00   1.335976e-02
  1.729682e+00    1.004641e+00   1.335836e-02
  1.731893e+00    9.844214e-01   1.320954e-02
  1.734103e+00    9.930235e-01   1.325344e-02
  1.736313e+00    9.927589e-01   1.323775e-02
  1.738524e+00    9.843269e-01   1.316772e-02
  1.740734e+00    9.768510e-01   1.310406e-02
  1.742945e+00    9.871069e-01   1.315928e-02
  1.745155e+00    9.830637e-01   1.311893e-02
  1.747366e+00    9.843164e-01   1.311349e-02
  1.749576e+00    9.965717e-01   1.318115e-02
  1.751787e+00    9.849878e-01   1.309094e-02
  1.753997e+00    9.764180e-01   1.302053e-02
  1.756208e+00    9.548246e-01   1.286269e-02
  1.758418e+00    9.256654e-01   1.265195e-02
  1.760628e+00    9.340206e-01   1.269581e-02
  1.762839e+00    9.416775e-01   1.273468e-02
  1.765049e+00    9.547104e-01   1.280944e-02
  1.767260e+00    9.467425e-01   1.274317e-02
  1.769470e+00    9.277833e-01   1.260212e-02
  1.771681e+00    9.470719e-01   1.271932e-02
  1.773891e+00    9.696005e-01   1.285656e-02
  1.776102e+00    9.349087e-01   1.261167e-02
  1.778312e+00    9.314516e-01   1.257568e-02
  1.780523e+00    9.457198e-01   1.265887e-02
  1.782733e+00    9.740678e-01   1.283427e-02
  1.784944e+00    9.782050e-01   1.284834e-02
  1.787154e+00    9.796735e-01   1.284512e-02
  1.789364e+00    9.637058e-01   1.272733e-02
  1.791575e+00    9.394801e-01   1.255371e-02
  1.793785e+00    9.282451e-01   1.246597e-02
  1.795996e+00    9.260759e-01   1.243885e-02
  1.798206e+00    9.113055e-01   1.232680e-02
  1.800417e+00    8.962501e-01   1.221199e-02
  1.802627e+00    8.922181e-01   1.217271e-02
  1.804838e+00    9.113168e-01   1.229018e-02
  1.807048e+00    9.018219e-01   1.221323e-02
  1.809259e+00    9.168766e-01   1.230105e-02
  1.811469e+00    9.071892e-01   1.222094e-02
  1.813679e+00    8.843280e-01   1.205110e-02
  1.815890e+00    8.983237e-01   1.213137e-02
  1.818100e+00    9.236291e-01   1.228570e-02
  1.820311e+00    9.838783e-01   1.266458e-02
  1.822521e+00    1.000946e+00   1.275823e-02
  1.824732e+00    9.201487e-01   1.221742e-02
  1.826942e+00    8.942355e-01   1.203176e-02
  1.829153e+00    8.817362e-01   1.193571e-02
  1.831363e+00    8.815042e-01   1.192211e-02
  1.833574e+00    9.044208e-01   1.206425e-02
  1.835784e+00    8.946387e-01   1.198732e-02
  1.837994e+00    9.153428e-01   1.211326e-02
  1.840205e+00    9.021400e-01   1.201427e-02
  1.842415e+00    8.815982e-01   1.186485e-02
  1.844626e+00    8.893943e-01   1.190550e-02
  1.846836e+00    9.128740e-01   1.204991e-02
  1.849047e+00    9.106971e-01   1.202364e-02
  1.851257e+00    8.744839e-01   1.177255e-02
  1.853468e+00    8.415360e-01   1.153992e-02
  1.855678e+00    8.587668e-01   1.164859e-02
  1.857889e+00    8.615116e-01   1.165868e-02
  1.860099e+00    8.614473e-01   1.164959e-02
  1.862309e+00    8.674021e-01   1.168123e-02
  1.864520e+00    8.517929e-01   1.156710e-02
  1.866730e+00    8.418667e-01   1.149018e-02
  1.868941e+00    8.444662e-01   1.149702e-02
  1.871151e+00    8.625647e-01   1.160809e-02
  1.873362e+00    8.696768e-01   1.164439e-02
  1.875572e+00    8.605185e-01   1.157191e-02
  1.877783e+00    8.475013e-01   1.147262e-02
  1.879993e+00    8.278432e-01   1.132776e-02
  1.882204e+00    8.255382e-01   1.130119e-02
  1.884414e+00    8.233106e-01   1.127501e-02
  1.886624e+00    8.266055e-01   1.128658e-02
  1.888835e+00    8.403415e-01   1.136900e-02
  1.891045e+00    8.396440e-01   1.135342e-02
  1.893256e+00    8.244600e-01   1.123929e-02
  1.895466e+00    8.288214e-01   1.125786e-02
  1.897677e+00    8.217944e-01   1.119921e-02
  1.899887e+00    8.051961e-01   1.107474e-02
  1.902098e+00    8.156020e-01   1.113533e-02
  1.904308e+00    8.226447e-01   1.117277e-02
  1.906519e+00    8.337102e-01   1.123681e-02
  1.908729e+00    8.350390e-01   1.123512e-02
  1.910940e+00    8.243099e-01   1.115160e-02
  1.913150e+00    8.119509e-01   1.105719e-02
  1.915360e+00    8.118863e-01   1.104621e-02
  1.917571e+00    7.984811e-01   1.094392e-02
  1.919781e+00    8.246323e-01   1.111098e-02
  1.921992e+00    8.219853e-01   1.108252e-02
  1.924202e+00    8.052899e-01   1.095869e-02
  1.926413e+00    8.059744e-01   1.095313e-02
  1.928623e+00    7.949839e-01   1.086776e-02
  1.930834e+00    8.112388e-01   1.096788e-02
  1.933044e+00    8.372726e-01   1.113165e-02
  1.935255e+00    8.074894e-01   1.092158e-02
  1.937465e+00    8.128330e-01   1.094721e-02
  1.939675e+00    8.012218e-01   1.085794e-02
  1.941886e+00    7.980203e-01   1.082598e-02
  1.944096e+00    7.971777e-01   1.081012e-02
  1.946307e+00    8.001536e-01   1.081995e-02
  1.948517e+00    7.850116e-01   1.070675e-02
  1.950728e+00    7.853875e-01   1.069914e-02
  1.952938e+00    7.922834e-01   1.073595e-02
  1.955149e+00    8.008376e-01   1.078350e-02
  1.957359e+00    7.945395e-01   1.073098e-02
  1.959570e+00    7.977808e-01   1.074195e-02
  1.961780e+00    7.928702e-01   1.069893e-02
  1.963990e+00    7.908289e-01   1.067503e-02
  1.966201e+00    7.933483e-01   1.068194e-02
  1.968411e+00    7.943089e-01   1.067823e-02
  1.970622e+00    7.859069e-01   1.061153e-02
  1.972832e+00    7.823217e-01   1.057735e-02
  1.975043e+00    7.863337e-01   1.059439e-02
  1.977253e+00    7.994965e-01   1.067265e-02
  1.979464e+00    7.914562e-01   1.060878e-02
  1.981674e+00    7.740254e-01   1.048110e-02
  1.983885e+00    7.784320e-01   1.050088e-02
  1.986095e+00    7.839244e-01   1.052815e-02
  1.988305e+00    7.719239e-01   1.043742e-02
  1.990516e+00    7.540932e-01   1.030639e-02
  1.992726e+00    7.668988e-01   1.038392e-02
  1.994937e+00    7.537700e-01   1.028469e-02
  1.997147e+00    7.623432e-01   1.033336e-02
  1.999358e+00    7.676428e-01   1.035942e-02
  2.001568e+00    7.782550e-01   1.041992e-02
  2.003779e+00    7.616919e-01   1.029662e-02
  2.005989e+00    7.616035e-01   1.028408e-02
  2.008200e+00    7.646222e-01   1.029295e-02
  2.010410e+00    7.517699e-01   1.019448e-02
  2.012621e+00    7.529127e-01   1.019063e-02
  2.014831e+00    7.506514e-01   1.016397e-02
  2.017041e+00    7.452797e-01   1.011731e-02
  2.019252e+00    7.555717e-01   1.017701e-02
  2.021462e+00    7.566583e-01   1.017489e-02
  2.023673e+00    7.529449e-01   1.014057e-02
  2.025883e+00    7.533029e-01   1.013353e-02
  2.028094e+00    7.429867e-01   1.005438e-02
  2.030304e+00    7.575175e-01   1.014271e-02
  2.032515e+00    7.469825e-01   1.006272e-02
  2.034725e+00    7.490976e-01   1.006758e-02
  2.036936e+00    7.376770e-01   9.981341e-03
  2.039146e+00    7.417621e-01   9.999444e-03
  2.041356e+00    7.600307e-01   1.011217e-02
  2.043567e+00    7.533792e-01   1.005855e-02
  2.045777e+00    7.535391e-01   1.005037e-02
  2.047988e+00    7.377969e-01   9.935578e-03
  2.050198e+00    7.496224e-01   1.000646e-02
  2.052409e+00    7.604160e-01   1.007057e-02
  2.054619e+00    7.404749e-01   9.930319e-03
  2.056830e+00    7.478796e-01   9.972675e-03
  2.059040e+00    7.667289e-01   1.008999e-02
  2.061251e+00    7.526968e-01   9.989971e-03
  2.063461e+00    7.544925e-01   9.994251e-03
  2.065671e+00    7.540264e-01   9.982428e-03
  2.067882e+00    7.342729e-01   9.841880e-03
  2.070092e+00    7.350620e-01   9.838047e-03
  2.072303e+00    7.209344e-01   9.734065e-03
  2.074513e+00    7.285003e-01   9.775796e-03
  2.076724e+00    7.293737e-01   9.772276e-03
  2.078934e+00    7.337859e-01   9.792855e-03
  2.081145e+00    7.376180e-01   9.809343e-03
  2.083355e+00    7.299864e-01   9.749370e-03
  2.085566e+00    7.320762e-01   9.754444e-03
  2.087776e+00    7.374966e-01   9.781012e-03
  2.089986e+00    7.274887e-01   9.705691e-03
  2.092197e+00    7.375771e-01   9.763802e-03
  2.094407e+00    7.201356e-01   9.638551e-03
  2.096618e+00    7.169825e-01   9.608634e-03
  2.098828e+00    7.197686e-01   9.618065e-03
  2.101039e+00    7.215146e-01   9.620809e-03
  2.103249e+00    7.361501e-01   9.709200e-03
  2.105460e+00    7.209029e-01   9.599184e-03
  2.107670e+00    7.060481e-01   9.491150e-03
  2.109881e+00    7.201182e-01   9.576138e-03
  2.112091e+00    7.227799e-01   9.584861e-03
  2.114301e+00    7.274644e-01   9.607055e-03
  2.116512e+00    6.991898e-01   9.409892e-03
  2.118722e+00    6.980101e-01   9.393244e-03
  2.120933e+00    6.930209e-01   9.350934e-03
  2.123143e+00    6.926377e-01   9.339587e-03
  2.125354e+00    7.058899e-01   9.420066e-03
  2.127564e+00    6.955248e-01   9.342048e-03
  2.129775e+00    6.927353e-01   9.314704e-03
  2.131985e+00    6.972306e-01   9.335937e-03
  2.134196e+00    6.962085e-01   9.320595e-03
  2.136406e+00    6.781130e-01   9.190148e-03
  2.138617e+00    7.001415e-01   9.329825e-03
  2.140827e+00    6.937119e-01   9.302775e-03
  2.143037e+00    7.009836e-01   9.396684e-03
  2.145248e+00    7.130403e-01   9.499256e-03
  2.147458e+00    7.129183e-01   9.513687e-03
  2.149669e+00    6.968467e-01   9.417643e-03
  2.151879e+00    6.942236e-01   9.409054e-03
  2.154090e+00    6.967813e-01   9.433689e-03
  2.156300e+00    6.718047e-01   9.269519e-03
  2.158511e+00    6.819232e-01   9.344299e-03
  2.160721e+00    6.902333e-01   9.405849e-03
  2.162932e+00    6.839207e-01   9.366458e-03
  2.165142e+00    6.833879e-01   9.365770e-03
  2.167352e+00    6.961315e-01   9.455627e-03
  2.169563e+00    7.016381e-01   9.494909e-03
  2.171773e+00    7.020543e-01   9.500196e-03
  2.173984e+00    6.819028e-01   9.364250e-03
  2.176194e+00    6.850635e-01   9.387134e-03
  2.178405e+00    6.662279e-01   9.257849e-03
  2.180615e+00    6.790040e-01   9.346881e-03
  2.182826e+00    6.887274e-01   9.414233e-03
  2.185036e+00    6.936759e-01   9.448064e-03
  2.187247e+00    6.950052e-01   9.457037e-03
  2.189457e+00    6.930818e-01   9.443567e-03
  2.191667e+00    6.782960e-01   9.342095e-03
  2.193878e+00    6.822984e-01   9.369072e-03
  2.196088e+00    6.638408e-01   9.240786e-03
  2.198299e+00    6.769933e-01   9.330802e-03
  2.200509e+00    6.830779e-01   9.371576e-03
  2.202720e+00    6.847448e-01   9.381854e-03
  2.204930e+00    6.859202e-01   9.388655e-03
  2.207141e+00    6.890913e-01   9.409210e-03
  2.209351e+00    6.913348e-01   9.422628e-03
  2.211562e+00    6.888630e-01   9.404123e-03
  2.213772e+00    6.724892e-01   9.236399e-03
  2.215982e+00    6.740370e-01   9.202861e-03
  2.218193e+00    6.648902e-01   9.110809e-03
  2.220403e+00    6.864297e-01   9.232424e-03
  2.222614e+00    6.597759e-01   9.030672e-03
  2.224824e+00    6.495358e-01   8.941272e-03
  2.227035e+00    6.679194e-01   9.049535e-03
  2.229245e+00    6.743216e-01   9.075802e-03
  2.231456e+00    6.796973e-01   9.096207e-03
  2.233666e+00    6.773773e-01   9.065492e-03
  2.235877e+00    6.816092e-01   9.079391e-03
  2.238087e+00    6.705839e-01   8.992176e-03
  2.240298e+00    6.674919e-01   8.957665e-03
  2.242508e+00    6.713067e-01   8.968066e-03
  2.244718e+00    6.617849e-01   8.888531e-03
  2.246929e+00    6.598961e-01   8.861482e-03
  2.249139e+00    6.540722e-01   8.810046e-03
  2.251350e+00    6.735682e-01   8.928607e-03
  2.253560e+00    6.635609e-01   8.850518e-03
  2.255771e+00    6.562050e-01   8.789977e-03
  2.257981e+00    6.700035e-01   8.870689e-03
  2.260192e+00    6.783891e-01   8.914818e-03
  2.262402e+00    6.643644e-01   8.811329e-03
  2.264613e+00    6.782064e-01   8.891694e-03
  2.266823e+00    6.438096e-01   8.653050e-03
  2.269033e+00    6.486856e-01   8.675455e-03
  2.271244e+00    6.618906e-01   8.752951e-03
  2.273454e+00    6.569743e-01   8.710140e-03
  2.275665e+00    6.615945e-01   8.730438e-03
  2.277875e+00    6.609555e-01   8.716284e-03
  2.280086e+00    6.559660e-01   8.673307e-03
  2.282296e+00    6.561627e-01   8.665234e-03
  2.284507e+00    6.471025e-01   8.595156e-03
  2.286717e+00    6.500865e-01   8.605540e-03
  2.288928e+00    6.393619e-01   8.524518e-03
  2.291138e+00    6.450435e-01   8.552991e-03
  2.293348e+00    6.402722e-01   8.511856e-03
  2.295559e+00    6.408923e-01   8.506782e-03
  2.297769e+00    6.337459e-01   8.450114e-03
  2.299980e+00    6.338157e-01   8.441377e-03
  2.302190e+00    6.465889e-01   8.516939e-03
  2.304401e+00    6.523095e-01   8.545211e-03
  2.306611e+00    6.566393e-01   8.564295e-03
  2.308822e+00    6.508532e-01   8.518101e-03
  2.311032e+00    6.392805e-01   8.435633e-03
  2.313243e+00    6.294330e-01   8.364248e-03
  2.315453e+00    6.403132e-01   8.428683e-03
  2.317663e+00    6.417922e-01   8.429342e-03
  2.319874e+00    6.280699e-01   8.330137e-03
  2.322084e+00    6.277543e-01   8.319196e-03
  2.324295e+00    6.389990e-01   8.385196e-03
  2.326505e+00    6.373326e-01   8.365241e-03
  2.328716e+00    6.589745e-01   8.497448e-03
  2.330926e+00    6.446722e-01   8.395921e-03
  2.333137e+00    6.431665e-01   8.377723e-03
  2.335347e+00    6.457378e-01   8.385555e-03
  2.337558e+00    6.424124e-01   8.355697e-03
  2.339768e+00    6.380903e-01   8.318971e-03
  2.341979e+00    6.359146e-01   8.296441e-03
  2.344189e+00    6.317921e-01   8.261129e-03
  2.346399e+00    6.502316e-01   8.372243e-03
  2.348610e+00    6.354027e-01   8.267774e-03
  2.350820e+00    6.197008e-01   8.156893e-03
  2.353031e+00    6.220027e-01   8.163818e-03
  2.355241e+00    6.189823e-01   8.136013e-03
  2.357452e+00    6.233460e-01   8.156277e-03
  2.359662e+00    6.353585e-01   8.226253e-03
  2.361873e+00    6.210504e-01   8.124918e-03
  2.364083e+00    6.215642e-01   8.120350e-03
  2.366294e+00    6.191745e-01   8.096660e-03
  2.368504e+00    6.214954e-01   8.103787e-03
  2.370714e+00    6.260014e-01   8.125039e-03
  2.372925e+00    6.386685e-01   8.198704e-03
  2.375135e+00    6.274259e-01   8.118147e-03
  2.377346e+00    6.275327e-01   8.110866e-03
  2.379556e+00    6.346056e-01   8.148471e-03
  2.381767e+00    6.164203e-01   8.023055e-03
  2.383977e+00    6.154198e-01   8.008626e-03
  2.386188e+00    6.173131e-01   8.013031e-03
  2.388398e+00    6.211044e-01   8.029643e-03
  2.390609e+00    6.103671e-01   7.952239e-03
  2.392819e+00    6.153282e-01   7.976725e-03
  2.395029e+00    5.975274e-01   7.852968e-03
  2.397240e+00    5.905138e-01   7.799013e-03
  2.399450e+00    6.014814e-01   7.863367e-03
  2.401661e+00    6.091478e-01   7.905670e-03
  2.403871e+00    6.107658e-01   7.908408e-03
  2.406082e+00    6.099390e-01   7.895621e-03
  2.408292e+00    6.060569e-01   7.862676e-03
  2.410503e+00    6.032992e-01   7.837329e-03
  2.412713e+00    5.979162e-01   7.794522e-03
  2.414924e+00    6.051426e-01   7.834033e-03
  2.417134e+00    5.873018e-01   7.710143e-03
  2.419344e+00    5.817745e-01   7.666505e-03
  2.421555e+00    5.855643e-01   7.684031e-03
  2.423765e+00    5.873640e-01   7.688503e-03
  2.425976e+00    6.065454e-01   7.805174e-03
  2.428186e+00    5.928118e-01   7.709148e-03
  2.430397e+00    5.842327e-01   7.645743e-03
  2.432607e+00    6.032797e-01   7.762050e-03
  2.434818e+00    6.063398e-01   7.774108e-03
  2.437028e+00    6.070324e-01   7.771332e-03
  2.439239e+00    5.918995e-01   7.666185e-03
  2.441449e+00    6.012089e-01   7.719015e-03
  2.443659e+00    5.839100e-01   7.599832e-03
  2.445870e+00    5.837850e-01   7.611203e-03
  2.448080e+00    5.818347e-01   7.633264e-03
  2.450291e+00    5.757039e-01   7.609506e-03
  2.452501e+00    5.639175e-01   7.542271e-03
  2.454712e+00    5.644459e-01   7.554152e-03
  2.456922e+00    5.694758e-01   7.594356e-03
  2.459133e+00    5.551408e-01   7.503540e-03
  2.461343e+00    5.587137e-01   7.531950e-03
  2.463554e+00    5.685577e-01   7.601513e-03
  2.465764e+00    5.506691e-01   7.484076e-03
  2.467975e+00    5.493557e-01   7.477407e-03
  2.470185e+00    5.613119e-01   7.560585e-03
  2.472395e+00    5.437340e-01   7.442491e-03
  2.474606e+00    5.361186e-01   7.391711e-03
  2.476816e+00    5.396987e-01   7.417077e-03
  2.479027e+00    5.421242e-01   7.434571e-03
  2.481237e+00    5.422468e-01   7.435679e-03
  2.483448e+00    5.412285e-01   7.429008e-03
  2.485658e+00    5.447326e-01   7.452859e-03
  2.487869e+00    5.449578e-01   7.454459e-03
  2.490079e+00    5.322382e-01   7.366428e-03
  2.492290e+00    5.352777e-01   7.386999e-03
  2.494500e+00    5.454198e-01   7.455902e-03
  2.496710e+00    5.468793e-01   7.465188e-03
  2.498921e+00    5.285837e-01   7.338272e-03
  2.501131e+00    5.265179e-01   7.322950e-03
  2.503342e+00    5.356224e-01   7.384748e-03
  2.505552e+00    5.230024e-01   7.296106e-03
  2.507763e+00    5.153416e-01   7.241071e-03
  2.509973e+00    5.264898e-01   7.317577e-03
  2.512184e+00    5.299634e-01   7.340079e-03
  2.514394e+00    5.152870e-01   7.228457e-03
  2.516605e+00    5.164866e-01   7.190265e-03
  2.518815e+00    5.188560e-01   7.178585e-03
  2.521025e+00    5.271465e-01   7.214730e-03
  2.523236e+00    5.145499e-01   7.110211e-03
  2.525446e+00    5.240694e-01   7.160088e-03
  2.527657e+00    5.281147e-01   7.173047e-03
  2.529867e+00    5.178861e-01   7.089148e-03
  2.532078e+00    5.193377e-01   7.084128e-03
  2.534288e+00    5.113311e-01   7.015591e-03
  2.536499e+00    5.213473e-01   7.072072e-03
  2.538709e+00    5.239748e-01   7.078874e-03
  2.540920e+00    5.118704e-01   6.986125e-03
  2.543130e+00    5.147969e-01   6.995785e-03
  2.545340e+00    5.193710e-01   7.016780e-03
  2.547551e+00    5.105423e-01   6.947059e-03
  2.549761e+00    5.147670e-01   6.966232e-03
  2.551972e+00    5.070130e-01   6.904341e-03
  2.554182e+00    5.327403e-01   7.068063e-03
  2.556393e+00    5.245290e-01   7.004268e-03
  2.558603e+00    5.247918e-01   6.996911e-03
  2.560814e+00    5.106243e-01   6.893202e-03
  2.563024e+00    5.052470e-01   6.848322e-03
  2.565235e+00    5.250302e-01   6.971560e-03
  2.567445e+00    5.268020e-01   6.973694e-03
  2.569656e+00    5.244129e-01   6.948059e-03
  2.571866e+00    5.183308e-01   6.898289e-03
  2.574076e+00    5.185851e-01   6.890692e-03
  2.576287e+00    5.114980e-01   6.835158e-03
  2.578497e+00    5.292016e-01   6.944480e-03
  2.580708e+00    5.452820e-01   7.040894e-03
  2.582918e+00    5.406351e-01   7.002886e-03
  2.585129e+00    5.194128e-01   6.856276e-03
  2.587339e+00    5.179823e-01   6.839105e-03
  2.589550e+00    4.951112e-01   6.679021e-03
  2.591760e+00    4.957324e-01   6.675563e-03
  2.593971e+00    4.993411e-01   6.692395e-03
  2.596181e+00    5.077486e-01   6.742296e-03
  2.598391e+00    5.122299e-01   6.766791e-03
  2.600602e+00    5.081277e-01   6.733732e-03
  2.602812e+00    5.180365e-01   6.791468e-03
  2.605023e+00    5.293692e-01   6.858047e-03
  2.607233e+00    5.023250e-01   6.673482e-03
  2.609444e+00    5.090527e-01   6.710768e-03
  2.611654e+00    5.030648e-01   6.663885e-03
  2.613865e+00    4.948723e-01   6.602453e-03
  2.616075e+00    5.052634e-01   6.664266e-03
  2.618286e+00    5.118297e-01   6.700395e-03
  2.620496e+00    5.063067e-01   6.657452e-03
  2.622706e+00    5.051294e-01   6.643952e-03
  2.624917e+00    5.067375e-01   6.648657e-03
  2.627127e+00    5.010709e-01   6.605660e-03
  2.629338e+00    5.126166e-01   6.675300e-03
  2.631548e+00    4.991419e-01   6.580836e-03
  2.633759e+00    4.940099e-01   6.539844e-03
  2.635969e+00    4.882396e-01   6.494923e-03
  2.638180e+00    4.960689e-01   6.539850e-03
  2.640390e+00    4.938798e-01   6.518850e-03
  2.642601e+00    4.908396e-01   6.492160e-03
  2.644811e+00    5.075111e-01   6.594358e-03
  2.647021e+00    4.917808e-01   6.484859e-03
  2.649232e+00    4.904555e-01   6.469456e-03
  2.651442e+00    4.803578e-01   6.396136e-03
  2.653653e+00    4.931053e-01   6.473679e-03
  2.655863e+00    4.982508e-01   6.500706e-03
  2.658074e+00    4.839458e-01   6.400177e-03
  2.660284e+00    4.913905e-01   6.442896e-03
  2.662495e+00    5.054402e-01   6.527548e-03
  2.664705e+00    4.945797e-01   6.450495e-03
  2.666916e+00    5.087826e-01   6.535903e-03
  2.669126e+00    4.961581e-01   6.447868e-03
  2.671337e+00    4.826065e-01   6.352686e-03
  2.673547e+00    4.976193e-01   6.444348e-03
  2.675757e+00    4.894913e-01   6.385094e-03
  2.677968e+00    4.928783e-01   6.400619e-03
  2.680178e+00    4.930460e-01   6.395326e-03
  2.682389e+00    4.842534e-01   6.331701e-03
  2.684599e+00    4.865486e-01   6.340541e-03
  2.686810e+00    4.907357e-01   6.361173e-03
  2.689020e+00    4.906110e-01   6.354070e-03
  2.691231e+00    4.941729e-01   6.370801e-03
  2.693441e+00    4.804229e-01   6.275459e-03
  2.695652e+00    4.730377e-01   6.220625e-03
  2.697862e+00    4.865621e-01   6.302612e-03
  2.700072e+00    4.764901e-01   6.231038e-03
  2.702283e+00    4.843262e-01   6.275880e-03
  2.704493e+00    4.835284e-01   6.264458e-03
  2.706704e+00    4.719630e-01   6.182787e-03
  2.708914e+00    4.690323e-01   6.157713e-03
  2.711125e+00    4.749174e-01   6.190048e-03
  2.713335e+00    4.904408e-01   6.284306e-03
  2.715546e+00    4.768701e-01   6.190366e-03
  2.717756e+00    4.752405e-01   6.173938e-03
  2.719967e+00    4.819256e-01   6.211043e-03
  2.722177e+00    4.786112e-01   6.183565e-03
  2.724387e+00    4.719685e-01   6.134480e-03
  2.726598e+00    4.924806e-01   6.260267e-03
  2.728808e+00    4.832589e-01   6.195237e-03
  2.731019e+00    4.743414e-01   6.131762e-03
  2.733229e+00    4.793685e-01   6.158383e-03
  2.735440e+00    4.722097e-01   6.106045e-03
  2.737650e+00    4.859588e-01   6.188248e-03
  2.739861e+00    4.821501e-01   6.157914e-03
  2.742071e+00    4.678143e-01   6.060018e-03
  2.744282e+00    4.810357e-01   6.138800e-03
  2.746492e+00    4.810604e-01   6.132963e-03
  2.748702e+00    4.713651e-01   6.064988e-03
  2.750913e+00    4.644709e-01   6.014786e-03
  2.753123e+00    4.764901e-01   6.086012e-03
  2.755334e+00    5.017797e-01   6.239229e-03
  2.757544e+00    4.744022e-01   6.060962e-03
  2.759755e+00    4.811665e-01   6.098093e-03
  2.761965e+00    4.939864e-01   6.172753e-03
  2.764176e+00    4.829927e-01   6.097666e-03
  2.766386e+00    4.766425e-01   6.051685e-03
  2.768597e+00    4.641049e-01   5.965795e-03
  2.770807e+00    4.596257e-01   5.931169e-03
  2.773017e+00    4.779395e-01   6.042214e-03
  2.775228e+00    4.876225e-01   6.097275e-03
  2.777438e+00    4.809746e-01   6.049766e-03
  2.779649e+00    4.832374e-01   6.058047e-03
  2.781859e+00    4.723381e-01   5.983616e-03
  2.784070e+00    4.701903e-01   5.964159e-03
  2.786280e+00    4.747228e-01   5.987098e-03
  2.788491e+00    4.842092e-01   6.040733e-03
  2.790701e+00    4.750642e-01   5.977795e-03
  2.792912e+00    4.822387e-01   6.016747e-03
  2.795122e+00    4.687430e-01   5.926280e-03
  2.797333e+00    4.770346e-01   5.972888e-03
  2.799543e+00    4.657246e-01   5.895866e-03
  2.801753e+00    4.716878e-01   5.927649e-03
  2.803964e+00    4.763729e-01   5.951356e-03
  2.806174e+00    4.719949e-01   5.917809e-03
  2.808385e+00    4.747084e-01   5.928008e-03
  2.810595e+00    4.806829e-01   5.958282e-03
  2.812806e+00    4.763733e-01   5.924900e-03
  2.815016e+00    4.586379e-01   5.808885e-03
  2.817227e+00    4.726967e-01   5.923136e-03
  2.819437e+00    4.656153e-01   5.889586e-03
  2.821648e+00    4.703202e-01   5.921561e-03
  2.823858e+00    4.644177e-01   5.889561e-03
  2.826068e+00    4.605397e-01   5.869833e-03
  2.828279e+00    4.710855e-01   5.940695e-03
  2.830489e+00    4.650944e-01   5.906116e-03
  2.832700e+00    4.546514e-01   5.841936e-03
  2.834910e+00    4.580893e-01   5.866015e-03
  2.837121e+00    4.559122e-01   5.853739e-03
  2.839331e+00    4.677109e-01   5.930227e-03
  2.841542e+00    4.670486e-01   5.927043e-03
  2.843752e+00    4.663859e-01   5.923620e-03
  2.845963e+00    4.632318e-01   5.903948e-03
  2.848173e+00    4.640169e-01   5.909030e-03
  2.850383e+00    4.642043e-01   5.910527e-03
  2.852594e+00    4.647345e-01   5.913809e-03
  2.854804e+00    4.667020e-01   5.925809e-03
  2.857015e+00    4.763841e-01   5.986541e-03
  2.859225e+00    4.739067e-01   5.970689e-03
  2.861436e+00    4.663672e-01   5.922355e-03
  2.863646e+00    4.726880e-01   5.962390e-03
  2.865857e+00    4.649538e-01   5.913758e-03
  2.868067e+00    4.573142e-01   5.865183e-03
  2.870278e+00    4.538818e-01   5.842785e-03
  2.872488e+00    4.609368e-01   5.886857e-03
  2.874698e+00    4.634939e-01   5.902131e-03
  2.876909e+00    4.625888e-01   5.895021e-03
  2.879119e+00    4.561133e-01   5.852024e-03
  2.881330e+00    4.632529e-01   5.896159e-03
  2.883540e+00    4.502825e-01   5.811686e-03
  2.885751e+00    4.554703e-01   5.843407e-03
  2.887961e+00    4.674619e-01   5.917937e-03
  2.890172e+00    4.685299e-01   5.923096e-03
  2.892382e+00    4.606131e-01   5.871021e-03
  2.894593e+00    4.616175e-01   5.875620e-03
  2.896803e+00    4.461922e-01   5.774643e-03
  2.899014e+00    4.657774e-01   5.898112e-03
  2.901224e+00    4.556590e-01   5.831712e-03
  2.903434e+00    4.504305e-01   5.796237e-03
  2.905645e+00    4.596586e-01   5.853075e-03
  2.907855e+00    4.647147e-01   5.883069e-03
  2.910066e+00    4.417250e-01   5.733676e-03
  2.912276e+00    4.578660e-01   5.835357e-03
  2.914487e+00    4.689385e-01   5.903023e-03
  2.916697e+00    4.615887e-01   5.854347e-03
  2.918908e+00    4.553549e-01   5.812683e-03
  2.921118e+00    4.599764e-01   5.839400e-03
  2.923329e+00    4.671403e-01   5.882367e-03
  2.925539e+00    4.446851e-01   5.737007e-03
  2.927749e+00    4.467674e-01   5.748107e-03
  2.929960e+00    4.666982e-01   5.872134e-03
  2.932170e+00    4.555851e-01   5.799482e-03
  2.934381e+00    4.626904e-01   5.842058e-03
  2.936591e+00    4.635943e-01   5.845176e-03
  2.938802e+00    4.590140e-01   5.813503e-03
  2.941012e+00    4.486618e-01   5.745264e-03
  2.943223e+00    4.575469e-01   5.799162e-03
  2.945433e+00    4.560672e-01   5.786045e-03
  2.947644e+00    4.554738e-01   5.778150e-03
  2.949854e+00    4.390287e-01   5.668694e-03
  2.952064e+00    4.397744e-01   5.669331e-03
  2.954275e+00    4.452641e-01   5.700264e-03
  2.956485e+00    4.529821e-01   5.745248e-03
  2.958696e+00    4.621515e-01   5.798733e-03
  2.960906e+00    4.539410e-01   5.742791e-03
  2.963117e+00    4.557860e-01   5.749971e-03
  2.965327e+00    4.615143e-01   5.782047e-03
  2.967538e+00    4.515701e-01   5.716532e-03
  2.969748e+00    4.541968e-01   5.730298e-03
  2.971959e+00    4.754292e-01   5.859503e-03
  2.974169e+00    4.656689e-01   5.796445e-03
  2.976379e+00    4.460378e-01   5.670050e-03
  2.978590e+00    4.485290e-01   5.682744e-03
  2.980800e+00    4.518059e-01   5.700676e-03
  2.983011e+00    4.478086e-01   5.672614e-03
  2.985221e+00    4.445733e-01   5.648977e-03
  2.987432e+00    4.491560e-01   5.674910e-03
  2.989642e+00    4.493593e-01   5.673591e-03
  2.991853e+00    4.529658e-01   5.693038e-03
  2.994063e+00    4.589909e-01   5.727843e-03
  2.996274e+00    4.549808e-01   5.699590e-03
  2.998484e+00    4.505396e-01   5.669019e-03
  3.000694e+00    4.458567e-01   5.636042e-03
  3.002905e+00    4.486866e-01   5.650983e-03
  3.005115e+00    4.419818e-01   5.605670e-03
  3.007326e+00    4.439392e-01   5.614928e-03
  3.009536e+00    4.616077e-01   5.722299e-03
  3.011747e+00    4.468400e-01   5.627140e-03
  3.013957e+00    4.486689e-01   5.635459e-03
  3.016168e+00    4.519600e-01   5.652848e-03
  3.018378e+00    4.543755e-01   5.664878e-03
  3.020589e+00    4.495927e-01   5.631799e-03
  3.022799e+00    4.453360e-01   5.601919e-03
  3.025010e+00    4.682665e-01   5.741036e-03
  3.027220e+00    4.523854e-01   5.639756e-03
  3.029430e+00    4.654481e-01   5.717289e-03
  3.031641e+00    4.505601e-01   5.621985e-03
  3.033851e+00    4.501658e-01   5.616010e-03
  3.036062e+00    4.638489e-01   5.697893e-03
  3.038272e+00    4.549870e-01   5.639639e-03
  3.040483e+00    4.516942e-01   5.615949e-03
  3.042693e+00    4.454007e-01   5.573454e-03
  3.044904e+00    4.555070e-01   5.632285e-03
  3.047114e+00    4.398128e-01   5.529657e-03
  3.049325e+00    4.548490e-01   5.618975e-03
  3.051535e+00    4.529487e-01   5.602821e-03
  3.053745e+00    4.515197e-01   5.589227e-03
  3.055956e+00    4.495888e-01   5.572686e-03
  3.058166e+00    4.462482e-01   5.547702e-03
  3.060377e+00    4.603165e-01   5.629648e-03
  3.062587e+00    4.553198e-01   5.594371e-03
  3.064798e+00    4.497899e-01   5.556022e-03
  3.067008e+00    4.529252e-01   5.570607e-03
  3.069219e+00    4.540340e-01   5.572903e-03
  3.071429e+00    4.472329e-01   5.527490e-03
  3.073640e+00    4.576236e-01   5.587973e-03
  3.075850e+00    4.510491e-01   5.544110e-03
  3.078060e+00    4.408844e-01   5.478196e-03
  3.080271e+00    4.445064e-01   5.497197e-03
  3.082481e+00    4.428823e-01   5.483714e-03
  3.084692e+00    4.486983e-01   5.516224e-03
  3.086902e+00    4.553182e-01   5.553510e-03
  3.089113e+00    4.480586e-01   5.505481e-03
  3.091323e+00    4.523963e-01   5.528675e-03
  3.093534e+00    4.467677e-01   5.490812e-03
  3.095744e+00    4.439411e-01   5.470048e-03
  3.097955e+00    4.471505e-01   5.486239e-03
  3.100165e+00    4.431347e-01   5.458230e-03
  3.102375e+00    4.500173e-01   5.497022e-03
  3.104586e+00    4.456727e-01   5.466927e-03
  3.106796e+00    4.542748e-01   5.515901e-03
  3.109007e+00    4.555544e-01   5.520408e-03
  3.111217e+00    4.510722e-01   5.489465e-03
  3.113428e+00    4.432305e-01   5.438139e-03
  3.115638e+00    4.349740e-01   5.384060e-03
  3.117849e+00    4.451969e-01   5.443225e-03
  3.120059e+00    4.341830e-01   5.372055e-03
  3.122270e+00    4.474700e-01   5.450367e-03
  3.124480e+00    4.469425e-01   5.443481e-03
  3.126691e+00    4.139260e-01   5.235114e-03
  3.128901e+00    4.307290e-01   5.337220e-03
  3.131111e+00    4.483761e-01   5.441615e-03
  3.133322e+00    4.453890e-01   5.419997e-03
  3.135532e+00    4.519318e-01   5.456249e-03
  3.137743e+00    4.416428e-01   5.390301e-03
  3.139953e+00    4.464957e-01   5.416132e-03
  3.142164e+00    4.495732e-01   5.446885e-03
  3.144374e+00    4.405622e-01   5.420377e-03
  3.146585e+00    4.296896e-01   5.367407e-03
  3.148795e+00    4.476342e-01   5.489181e-03
  3.151006e+00    4.439572e-01   5.475166e-03
  3.153216e+00    4.377216e-01   5.443669e-03
  3.155426e+00    4.450930e-01   5.495666e-03
  3.157637e+00    4.376001e-01   5.454714e-03
  3.159847e+00    4.276727e-01   5.397285e-03
  3.162058e+00    4.392928e-01   5.474539e-03
  3.164268e+00    4.282924e-01   5.409598e-03
  3.166479e+00    4.243397e-01   5.388119e-03
  3.168689e+00    4.330537e-01   5.446528e-03
  3.170900e+00    4.367338e-01   5.472785e-03
  3.173110e+00    4.264392e-01   5.410731e-03
  3.175321e+00    4.281818e-01   5.424234e-03
  3.177531e+00    4.312997e-01   5.446677e-03
  3.179741e+00    4.249471e-01   5.408426e-03
  3.181952e+00    4.382802e-01   5.494759e-03
  3.184162e+00    4.366723e-01   5.486852e-03
  3.186373e+00    4.272178e-01   5.428712e-03
  3.188583e+00    4.466999e-01   5.552918e-03
  3.190794e+00    4.313704e-01   5.458549e-03
  3.193004e+00    4.265807e-01   5.429409e-03
  3.195215e+00    4.196079e-01   5.386301e-03
  3.197425e+00    4.317485e-01   5.464870e-03
  3.199636e+00    4.331398e-01   5.472913e-03
  3.201846e+00    4.355109e-01   5.487274e-03
  3.204056e+00    4.159261e-01   5.363333e-03
  3.206267e+00    4.357845e-01   5.490724e-03
  3.208477e+00    4.285566e-01   5.445926e-03
  3.210688e+00    4.212176e-01   5.399922e-03
  3.212898e+00    4.357573e-01   5.492902e-03
  3.215109e+00    4.291770e-01   5.452031e-03
  3.217319e+00    4.320949e-01   5.471164e-03
  3.219530e+00    4.424222e-01   5.536543e-03
  3.221740e+00    4.354259e-01   5.493197e-03
  3.223951e+00    4.234641e-01   5.417648e-03
  3.226161e+00    4.265497e-01   5.437544e-03
  3.228372e+00    4.312332e-01   5.467860e-03
  3.230582e+00    4.258486e-01   5.433745e-03
  3.232792e+00    4.217430e-01   5.407714e-03
  3.235003e+00    4.292903e-01   5.456116e-03
  3.237213e+00    4.173281e-01   5.379693e-03
  3.239424e+00    4.038744e-01   5.292249e-03
  3.241634e+00    4.213695e-01   5.405767e-03
  3.243845e+00    4.218905e-01   5.409202e-03
  3.246055e+00    4.286989e-01   5.452377e-03
  3.248266e+00    4.340222e-01   5.486353e-03
  3.250476e+00    4.330872e-01   5.480119e-03
  3.252687e+00    4.232260e-01   5.417312e-03
  3.254897e+00    4.074806e-01   5.315450e-03
  3.257107e+00    4.139577e-01   5.357219e-03
  3.259318e+00    4.253187e-01   5.429996e-03
  3.261528e+00    4.383157e-01   5.512210e-03
  3.263739e+00    4.246857e-01   5.425272e-03
  3.265949e+00    4.133904e-01   5.352515e-03
  3.268160e+00    4.355421e-01   5.493626e-03
  3.270370e+00    4.260857e-01   5.433171e-03
  3.272581e+00    4.159895e-01   5.368101e-03
  3.274791e+00    4.316272e-01   5.467585e-03
  3.277002e+00    4.169579e-01   5.373258e-03
  3.279212e+00    4.340366e-01   5.481864e-03
  3.281422e+00    4.235259e-01   5.414490e-03
  3.283633e+00    4.159494e-01   5.365169e-03
  3.285843e+00    4.315899e-01   5.464744e-03
  3.288054e+00    4.547720e-01   5.608642e-03
  3.290264e+00    4.227122e-01   5.407041e-03
  3.292475e+00    4.133849e-01   5.346197e-03
  3.294685e+00    4.243899e-01   5.416268e-03
  3.296896e+00    4.399736e-01   5.514038e-03
  3.299106e+00    4.329224e-01   5.469131e-03
  3.301317e+00    4.294002e-01   5.445791e-03
  3.303527e+00    4.236892e-01   5.408994e-03
  3.305737e+00    4.280808e-01   5.435894e-03
  3.307948e+00    4.319137e-01   5.459505e-03
  3.310158e+00    4.255233e-01   5.418120e-03
  3.312369e+00    4.119439e-01   5.330092e-03
  3.314579e+00    4.162713e-01   5.357099e-03
  3.316790e+00    4.140779e-01   5.342275e-03
  3.319000e+00    4.270927e-01   5.424383e-03
  3.321211e+00    4.202551e-01   5.380200e-03
  3.323421e+00    4.188063e-01   5.369706e-03
  3.325632e+00    4.124363e-01   5.327831e-03
  3.327842e+00    4.217121e-01   5.386500e-03
  3.330052e+00    4.132304e-01   5.331009e-03
  3.332263e+00    4.299913e-01   5.436992e-03
  3.334473e+00    4.235801e-01   5.395411e-03
  3.336684e+00    4.289335e-01   5.428140e-03
  3.338894e+00    4.255164e-01   5.405600e-03
  3.341105e+00    4.191676e-01   5.363947e-03
  3.343315e+00    4.166581e-01   5.346715e-03
  3.345526e+00    4.164831e-01   5.344693e-03
  3.347736e+00    4.245775e-01   5.394960e-03
  3.349947e+00    4.221281e-01   5.378471e-03
  3.352157e+00    4.132572e-01   5.320450e-03
  3.354368e+00    4.255800e-01   5.397921e-03
  3.356578e+00    4.261012e-01   5.400185e-03
  3.358788e+00    4.233903e-01   5.381650e-03
  3.360999e+00    4.111888e-01   5.302294e-03
  3.363209e+00    4.122011e-01   5.307812e-03
  3.365420e+00    4.022151e-01   5.241655e-03
  3.367630e+00    3.961350e-01   5.200854e-03
  3.369841e+00    4.100494e-01   5.290024e-03
  3.372051e+00    4.173510e-01   5.334919e-03
  3.374262e+00    4.130205e-01   5.304754e-03
  3.376472e+00    3.979149e-01   5.204451e-03
  3.378683e+00    4.146219e-01   5.310083e-03
  3.380893e+00    4.137509e-01   5.302167e-03
  3.383103e+00    4.099284e-01   5.274938e-03
  3.385314e+00    4.246637e-01   5.366644e-03
  3.387524e+00    4.160397e-01   5.309153e-03
  3.389735e+00    4.095186e-01   5.264756e-03
  3.391945e+00    4.040496e-01   5.225839e-03
  3.394156e+00    4.302967e-01   5.388601e-03
  3.396366e+00    4.071841e-01   5.238511e-03
  3.398577e+00    3.994613e-01   5.185582e-03
  3.400787e+00    4.156249e-01   5.301418e-03
  3.402998e+00    4.193658e-01   5.363761e-03
  3.405208e+00    4.032231e-01   5.280079e-03
  3.407418e+00    4.009340e-01   5.280878e-03
  3.409629e+00    4.078415e-01   5.340239e-03
  3.411839e+00    3.972428e-01   5.282148e-03
  3.414050e+00    3.944990e-01   5.274830e-03
  3.416260e+00    3.867327e-01   5.232186e-03
  3.418471e+00    3.897836e-01   5.262178e-03
  3.420681e+00    3.819407e-01   5.217310e-03
  3.422892e+00    3.849032e-01   5.245489e-03
  3.425102e+00    3.833312e-01   5.242491e-03
  3.427313e+00    3.922414e-01   5.310294e-03
  3.429523e+00    3.941874e-01   5.330584e-03
  3.431733e+00    3.899466e-01   5.308526e-03
  3.433944e+00    3.908125e-01   5.320968e-03
  3.436154e+00    3.838096e-01   5.279324e-03
  3.438365e+00    3.673226e-01   5.170497e-03
  3.440575e+00    3.701114e-01   5.195939e-03
  3.442786e+00    3.686570e-01   5.191245e-03
  3.444996e+00    3.741850e-01   5.235501e-03
  3.447207e+00    3.648485e-01   5.175005e-03
  3.449417e+00    3.582545e-01   5.168076e-03
  3.451628e+00    3.857563e-01   5.392894e-03
  3.453838e+00    3.711134e-01   5.310826e-03
  3.456049e+00    3.756500e-01   5.367367e-03
  3.458259e+00    3.600591e-01   5.276540e-03
  3.460469e+00    3.733113e-01   5.392741e-03
  3.462680e+00    3.670419e-01   5.366345e-03
  3.464890e+00    3.597106e-01   5.330121e-03
  3.467101e+00    3.691337e-01   5.416961e-03
  3.469311e+00    3.778175e-01   5.497058e-03
  3.471522e+00    3.873943e-01   5.582934e-03
  3.473732e+00    3.874345e-01   5.599369e-03
  3.475943e+00    3.739115e-01   5.516306e-03
  3.478153e+00    3.845668e-01   5.609716e-03
  3.480364e+00    3.907299e-01   5.669588e-03
  3.482574e+00    4.115641e-01   5.834256e-03
  3.484784e+00    4.324188e-01   5.995525e-03
  3.486995e+00    4.171729e-01   5.904000e-03
  3.489205e+00    4.134512e-01   5.892123e-03
  3.491416e+00    4.287376e-01   6.014947e-03
  3.493626e+00    4.402475e-01   6.109899e-03
  3.495837e+00    4.445483e-01   6.154438e-03
  3.498047e+00    4.636897e-01   6.300351e-03
  3.500258e+00    4.791586e-01   6.419618e-03
  3.502468e+00    4.508922e-01   6.241750e-03
  3.504679e+00    4.528847e-01   6.269893e-03
  3.506889e+00    4.505498e-01   6.267867e-03
  3.509099e+00    4.754666e-01   6.453332e-03
  3.511310e+00    4.686203e-01   6.421025e-03
  3.513520e+00    4.729016e-01   6.464554e-03
  3.515731e+00    4.825536e-01   6.544557e-03
  3.517941e+00    4.709634e-01   6.479536e-03
  3.520152e+00    5.035207e-01   6.714195e-03
  3.522362e+00    4.953208e-01   6.673727e-03
  3.524573e+00    5.023878e-01   6.735378e-03
  3.526783e+00    5.093582e-01   6.795280e-03
  3.528994e+00    5.195174e-01   6.874993e-03
  3.531204e+00    5.359641e-01   6.995569e-03
  3.533414e+00    5.384809e-01   7.024236e-03
  3.535625e+00    5.460452e-01   7.085987e-03
  3.537835e+00    5.377666e-01   7.044207e-03
  3.540046e+00    5.336700e-01   7.026270e-03
  3.542256e+00    5.151802e-01   6.910874e-03
  3.544467e+00    5.073922e-01   6.865840e-03
  3.546677e+00    5.309463e-01   7.030905e-03
  3.548888e+00    5.352571e-01   7.066902e-03
  3.551098e+00    5.439235e-01   7.131238e-03
  3.553309e+00    5.390902e-01   7.107665e-03
  3.555519e+00    5.493655e-01   7.186518e-03
  3.557729e+00    5.404147e-01   7.139523e-03
  3.559940e+00    5.356227e-01   7.119285e-03
  3.562150e+00    5.575036e-01   7.275258e-03
  3.564361e+00    5.207272e-01   7.044324e-03
  3.566571e+00    5.315514e-01   7.130874e-03
  3.568782e+00    5.442656e-01   7.229932e-03
  3.570992e+00    5.289313e-01   7.140989e-03
  3.573203e+00    5.582072e-01   7.350398e-03
  3.575413e+00    5.503095e-01   7.312193e-03
  3.577624e+00    5.395626e-01   7.254595e-03
  3.579834e+00    5.336846e-01   7.228816e-03
  3.582045e+00    5.399075e-01   7.284936e-03
  3.584255e+00    5.284580e-01   7.221238e-03
  3.586465e+00    5.536914e-01   7.405765e-03
  3.588676e+00    5.320734e-01   7.273929e-03
  3.590886e+00    5.316308e-01   7.284534e-03
  3.593097e+00    5.402448e-01   7.357880e-03
  3.595307e+00    5.287532e-01   7.293021e-03
  3.597518e+00    5.363669e-01   7.359591e-03
  3.599728e+00    5.497081e-01   7.464822e-03
  3.601939e+00    5.341884e-01   7.372752e-03
  3.604149e+00    5.397611e-01   7.425573e-03
  3.606360e+00    5.276711e-01   7.355980e-03
  3.608570e+00    5.226125e-01   7.334604e-03
  3.610780e+00    5.393867e-01   7.462524e-03
  3.612991e+00    5.484177e-01   7.534842e-03
  3.615201e+00    5.389612e-01   7.479458e-03
  3.617412e+00    5.510039e-01   7.569920e-03
  3.619622e+00    5.368258e-01   7.477901e-03
  3.621833e+00    5.094381e-01   7.291156e-03
  3.624043e+00    5.409018e-01   7.522509e-03
  3.626254e+00    5.433779e-01   7.549509e-03
  3.628464e+00    5.483075e-01   7.594810e-03
  3.630675e+00    5.134485e-01   7.363260e-03
  3.632885e+00    5.163894e-01   7.398525e-03
  3.635095e+00    5.201879e-01   7.439895e-03
  3.637306e+00    5.373534e-01   7.576053e-03
  3.639516e+00    5.466530e-01   7.656044e-03
  3.641727e+00    5.479199e-01   7.679716e-03
  3.643937e+00    5.245043e-01   7.528233e-03
  3.646148e+00    5.179878e-01   7.495740e-03
  3.648358e+00    5.228022e-01   7.545155e-03
  3.650569e+00    5.571324e-01   7.804043e-03
  3.652779e+00    5.252188e-01   7.591925e-03
  3.654990e+00    5.576281e-01   7.837834e-03
  3.657200e+00    5.552381e-01   7.836279e-03
  3.659410e+00    5.418511e-01   7.756304e-03
  3.661621e+00    5.382243e-01   7.745559e-03
  3.663831e+00    5.226050e-01   7.647274e-03
  3.666042e+00    5.445976e-01   7.821879e-03
  3.668252e+00    5.384003e-01   7.792581e-03
  3.670463e+00    5.460083e-01   7.862927e-03
  3.672673e+00    5.268939e-01   7.739418e-03
  3.674884e+00    5.196332e-01   7.701137e-03
  3.677094e+00    5.337372e-01   7.820511e-03
  3.679305e+00    5.157616e-01   7.703045e-03
  3.681515e+00    5.079254e-01   7.659585e-03
  3.683726e+00    5.274189e-01   7.820909e-03
  3.685936e+00    5.442227e-01   7.960507e-03
  3.688146e+00    5.278525e-01   7.855626e-03
  3.690357e+00    5.265480e-01   7.861820e-03
  3.692567e+00    5.380355e-01   7.963423e-03
  3.694778e+00    5.329634e-01   7.941949e-03
  3.696988e+00    5.226142e-01   7.880387e-03
  3.699199e+00    5.217462e-01   7.890038e-03
  3.701409e+00    5.265912e-01   7.942970e-03
  3.703620e+00    5.306895e-01   7.990193e-03
  3.705830e+00    5.478708e-01   8.135301e-03
  3.708041e+00    5.227200e-01   7.962956e-03
  3.710251e+00    5.014134e-01   7.815351e-03
  3.712461e+00    5.096422e-01   7.895683e-03
  3.714672e+00    5.444894e-01   8.178275e-03
  3.716882e+00    5.358295e-01   8.129959e-03
  3.719093e+00    5.230072e-01   8.049282e-03
  3.721303e+00    5.110648e-01   7.973645e-03
  3.723514e+00    5.087847e-01   7.972931e-03
  3.725724e+00    5.244037e-01   8.111631e-03
  3.727935e+00    5.190066e-01   8.087262e-03
  3.730145e+00    5.366307e-01   8.241094e-03
  3.732356e+00    5.013271e-01   7.982709e-03
  3.734566e+00    5.137042e-01   8.098087e-03
  3.736776e+00    5.456374e-01   8.364325e-03
  3.738987e+00    5.249290e-01   8.221984e-03
  3.741197e+00    5.075327e-01   8.102517e-03
  3.743408e+00    5.110664e-01   8.148649e-03
  3.745618e+00    5.159423e-01   8.205843e-03
  3.747829e+00    4.927059e-01   8.036680e-03
  3.750039e+00    5.074634e-01   8.174379e-03
  3.752250e+00    5.071797e-01   8.190570e-03
  3.754460e+00    5.098994e-01   8.231033e-03
  3.756671e+00    5.016468e-01   8.182817e-03
  3.758881e+00    5.001570e-01   8.189100e-03
  3.761091e+00    5.037199e-01   8.237273e-03
  3.763302e+00    4.996711e-01   8.223063e-03
  3.765512e+00    4.998857e-01   8.243877e-03
  3.767723e+00    5.140483e-01   8.379322e-03
  3.769933e+00    5.187711e-01   8.437359e-03
  3.772144e+00    5.039213e-01   8.335226e-03
  3.774354e+00    4.969889e-01   8.297371e-03
  3.776565e+00    4.985552e-01   8.330131e-03
  3.778775e+00    5.087804e-01   8.435186e-03
  3.780986e+00    5.071098e-01   8.441668e-03
  3.783196e+00    5.245182e-01   8.606013e-03
  3.785407e+00    5.214891e-01   8.601975e-03
  3.787617e+00    4.968649e-01   8.417042e-03
  3.789827e+00    4.862328e-01   8.346678e-03
  3.792038e+00    5.080205e-01   8.552598e-03
  3.794248e+00    4.932430e-01   8.448304e-03
  3.796459e+00    4.781824e-01   8.339134e-03
  3.798669e+00    5.167866e-01   8.690953e-03
  3.800880e+00    5.018026e-01   8.585515e-03
  3.803090e+00    5.010620e-01   8.600986e-03
  3.805301e+00    4.817616e-01   8.455466e-03
  3.807511e+00    4.797077e-01   8.458871e-03
  3.809722e+00    5.145019e-01   8.782897e-03
  3.811932e+00    4.898856e-01   8.592223e-03
  3.814142e+00    4.800437e-01   8.527868e-03
  3.816353e+00    4.970983e-01   8.700848e-03
  3.818563e+00    5.001814e-01   8.750954e-03
  3.820774e+00    4.801014e-01   8.596206e-03
  3.822984e+00    4.907403e-01   8.714119e-03
  3.825195e+00    4.957049e-01   8.781802e-03
  3.827405e+00    4.747316e-01   8.617310e-03
  3.829616e+00    4.841559e-01   8.726140e-03
  3.831826e+00    4.818108e-01   8.728825e-03
  3.834037e+00    4.932539e-01   8.856247e-03
  3.836247e+00    5.057415e-01   8.992531e-03
  3.838457e+00    5.163260e-01   9.111725e-03
  3.840668e+00    5.034119e-01   9.022416e-03
  3.842878e+00    5.011921e-01   9.028140e-03
  3.845089e+00    4.987484e-01   9.031764e-03
  3.847299e+00    4.977979e-01   9.049024e-03
  3.849510e+00    5.089944e-01   9.176360e-03
  3.851720e+00    5.053713e-01   9.165380e-03
  3.853931e+00    4.888631e-01   9.033269e-03
  3.856141e+00    4.898286e-01   9.061118e-03
  3.858352e+00    4.894715e-01   9.076978e-03
  3.860562e+00    4.756230e-01   8.966600e-03
  3.862772e+00    4.710019e-01   8.942000e-03
  3.864983e+00    4.802581e-01   9.048865e-03
  3.867193e+00    4.930170e-01   9.188053e-03
  3.869404e+00    4.703374e-01   8.993607e-03
  3.871614e+00    4.724815e-01   9.033553e-03
  3.873825e+00    4.903792e-01   9.223381e-03
  3.876035e+00    4.724606e-01   9.073427e-03
  3.878246e+00    4.863849e-01   9.231768e-03
  3.880456e+00    4.778472e-01   9.178976e-03
  3.882667e+00    4.736311e-01   9.167096e-03
  3.884877e+00    4.870453e-01   9.325662e-03
  3.887087e+00    5.030794e-01   9.508178e-03
  3.889298e+00    4.782786e-01   9.300894e-03
  3.891508e+00    4.782191e-01   9.330338e-03
  3.893719e+00    5.113996e-01   9.680250e-03
  3.895929e+00    4.916926e-01   9.523455e-03
  3.898140e+00    4.824780e-01   9.465202e-03
  3.900350e+00    5.027728e-01   9.694668e-03
  3.902561e+00    5.098534e-01   9.795761e-03
  3.904771e+00    5.119917e-01   9.849860e-03
  3.906982e+00    4.822756e-01   9.592658e-03
  3.909192e+00    4.714367e-01   9.517126e-03
  3.911403e+00    4.858502e-01   9.695345e-03
  3.913613e+00    4.883706e-01   9.754762e-03
  3.915823e+00    4.774799e-01   9.679808e-03
  3.918034e+00    4.554248e-01   9.487705e-03
  3.920244e+00    4.374738e-01   9.332564e-03
  3.922455e+00    4.449454e-01   9.446383e-03
  3.924665e+00    4.830716e-01   9.879019e-03
  3.926876e+00    5.139530e-01   1.022797e-02
  3.929086e+00    4.933915e-01   1.005899e-02
  3.931297e+00    4.982381e-01   1.014332e-02
  3.933507e+00    5.107228e-01   1.029931e-02
  3.935718e+00    4.865125e-01   1.008096e-02
  3.937928e+00    5.034525e-01   1.028485e-02
  3.940138e+00    5.014254e-01   1.029391e-02
  3.942349e+00    5.025942e-01   1.033619e-02
  3.944559e+00    5.143394e-01   1.048718e-02
  3.946770e+00    4.780376e-01   1.014017e-02
  3.948980e+00    4.882065e-01   1.027821e-02
  3.951191e+00    4.994287e-01   1.042695e-02
  3.953401e+00    5.042645e-01   1.050922e-02
  3.955612e+00    5.131103e-01   1.063350e-02
  3.957822e+00    4.914386e-01   1.043841e-02
  3.960033e+00    4.775882e-01   1.032263e-02
  3.962243e+00    4.777092e-01   1.035648e-02
  3.964453e+00    4.786057e-01   1.039901e-02
  3.966664e+00    4.818139e-01   1.046715e-02
  3.968874e+00    4.659755e-01   1.032146e-02
  3.971085e+00    4.761745e-01   1.045543e-02
  3.973295e+00    4.897993e-01   1.062565e-02
  3.975506e+00    4.554779e-01   1.026747e-02
  3.977716e+00    4.808653e-01   1.057169e-02
  3.979927e+00    4.391978e-01   1.012427e-02
  3.982137e+00    4.858153e-01   1.067031e-02
  3.984348e+00    4.805000e-01   1.063430e-02
  3.986558e+00    4.892014e-01   1.075250e-02
  3.988768e+00    4.640897e-01   1.049538e-02
  3.990979e+00    5.161542e-01   1.109199e-02
  3.993189e+00    4.989915e-01   1.092941e-02
  3.995400e+00    4.723742e-01   1.065713e-02
  3.997610e+00    5.018489e-01   1.101493e-02
  3.999821e+00    5.111178e-01   1.115469e-02
  4.002031e+00    5.109071e-01   1.119183e-02
  4.004242e+00    4.931405e-01   1.103432e-02
  4.006452e+00    4.893911e-01   1.103192e-02
  4.008663e+00    5.080230e-01   1.128079e-02
  4.010873e+00    4.752452e-01   1.095046e-02
  4.013084e+00    5.028986e-01   1.130622e-02
  4.015294e+00    4.835243e-01   1.112730e-02
  4.017504e+00    4.571398e-01   1.086000e-02
  4.019715e+00    4.844938e-01   1.122278e-02
  4.021925e+00    4.836349e-01   1.125587e-02
  4.024136e+00    4.762483e-01   1.121283e-02
  4.026346e+00    4.666381e-01   1.114247e-02
  4.028557e+00    4.735250e-01   1.126818e-02
  4.030767e+00    4.943708e-01   1.155973e-02
  4.032978e+00    4.691926e-01   1.130711e-02
  4.035188e+00    4.705237e-01   1.136870e-02
  4.037399e+00    4.584138e-01   1.126779e-02
  4.039609e+00    4.824402e-01   1.160692e-02
  4.041819e+00    4.560282e-01   1.133225e-02
  4.044030e+00    4.716614e-01   1.157394e-02
  4.046240e+00    4.556366e-01   1.142416e-02
  4.048451e+00    4.848117e-01   1.183523e-02
  4.050661e+00    4.685558e-01   1.168578e-02
  4.052872e+00    4.809620e-01   1.189227e-02
  4.055082e+00    4.690024e-01   1.179607e-02
  4.057293e+00    4.652089e-01   1.180106e-02
  4.059503e+00    4.813016e-01   1.205797e-02
  4.061714e+00    4.813639e-01   1.211542e-02
  4.063924e+00    4.572341e-01   1.186289e-02
  4.066134e+00    4.865160e-01   1.229454e-02
  4.068345e+00    4.876011e-01   1.236754e-02
  4.070555e+00    4.800181e-01   1.233036e-02
  4.072766e+00    5.014640e-01   1.266457e-02
  4.074976e+00    4.848799e-01   1.251576e-02
  4.077187e+00    4.768192e-01   1.247281e-02
  4.079397e+00    4.577708e-01   1.228363e-02
  4.081608e+00    5.184079e-01   1.313983e-02
  4.083818e+00    4.822085e-01   1.273872e-02
  4.086029e+00    4.873461e-01   1.287396e-02
  4.088239e+00    4.327598e-01   1.219681e-02
  4.090449e+00    4.665349e-01   1.273251e-02
  4.092660e+00    4.538554e-01   1.262740e-02
  4.094870e+00    4.576567e-01   1.275076e-02
  4.097081e+00    4.575889e-01   1.281947e-02
  4.099291e+00    4.864274e-01   1.327206e-02
  4.101502e+00    5.124643e-01   1.367352e-02
  4.103712e+00    4.810521e-01   1.329714e-02
  4.105923e+00    4.599184e-01   1.305203e-02
  4.108133e+00    4.608817e-01   1.311624e-02
  4.110344e+00    4.816547e-01   1.345963e-02
  4.112554e+00    4.648767e-01   1.327559e-02
  4.114764e+00    4.630679e-01   1.330290e-02
  4.116975e+00    4.851744e-01   1.367029e-02
  4.119185e+00    5.008835e-01   1.394637e-02
  4.121396e+00    4.627376e-01   1.346015e-02
  4.123606e+00    5.072908e-01   1.415103e-02
  4.125817e+00    4.509926e-01   1.339869e-02
  4.128027e+00    4.863322e-01   1.397221e-02
  4.130238e+00    4.943168e-01   1.414687e-02
  4.132448e+00    4.781213e-01   1.397378e-02
  4.134659e+00    4.188784e-01   1.313549e-02
  4.136869e+00    4.924571e-01   1.430605e-02
  4.139080e+00    4.821489e-01   1.421948e-02
  4.141290e+00    4.487914e-01   1.377945e-02
  4.143500e+00    4.792027e-01   1.430424e-02
  4.145711e+00    4.830775e-01   1.442921e-02
  4.147921e+00    4.775291e-01   1.441194e-02
  4.150132e+00    4.667700e-01   1.431645e-02
  4.152342e+00    4.718896e-01   1.446460e-02
  4.154553e+00    5.091729e-01   1.509664e-02
  4.156763e+00    4.951462e-01   1.496088e-02
  4.158974e+00    4.450527e-01   1.425534e-02
  4.161184e+00    4.745643e-01   1.479319e-02
  4.163395e+00    5.114291e-01   1.543556e-02
  4.165605e+00    5.097909e-01   1.549103e-02
  4.167815e+00    4.751162e-01   1.503272e-02
  4.170026e+00    5.066805e-01   1.560606e-02
  4.172236e+00    4.829358e-01   1.531833e-02
  4.174447e+00    4.818844e-01   1.538479e-02
  4.176657e+00    4.741025e-01   1.534346e-02
  4.178868e+00    5.426451e-01   1.650805e-02
  4.181078e+00    5.245245e-01   1.632185e-02
  4.183289e+00    5.112178e-01   1.620546e-02
  4.185499e+00    4.914066e-01   1.598218e-02
  4.187710e+00    5.028743e-01   1.626239e-02
  4.189920e+00    4.535304e-01   1.553659e-02
  4.192130e+00    5.024841e-01   1.645384e-02
  4.194341e+00    4.465407e-01   1.560616e-02
  4.196551e+00    4.524586e-01   1.580827e-02
  4.198762e+00    4.816847e-01   1.641446e-02
  4.200972e+00    5.960910e-01   1.837833e-02
  4.203183e+00    5.332992e-01   1.749833e-02
  4.205393e+00    4.256295e-01   1.573626e-02
  4.207604e+00    4.626872e-01   1.651899e-02
  4.209814e+00    5.292733e-01   1.778847e-02
  4.212025e+00    5.174872e-01   1.771447e-02
  4.214235e+00    5.015508e-01   1.756291e-02
  4.216445e+00    4.835933e-01   1.737039e-02
  4.218656e+00    4.391961e-01   1.667823e-02
  4.220866e+00    4.706143e-01   1.739199e-02
  4.223077e+00    4.799598e-01   1.769891e-02
  4.225287e+00    4.947234e-01   1.811031e-02
  4.227498e+00    5.067458e-01   1.847317e-02
  4.229708e+00    4.482872e-01   1.751563e-02
  4.231919e+00    5.462331e-01   1.949500e-02
  4.234129e+00    5.228577e-01   1.923352e-02
  4.236340e+00    4.962817e-01   1.889827e-02
  4.238550e+00    5.803796e-01   2.061733e-02
  4.240761e+00    5.764424e-01   2.072925e-02
  4.242971e+00    4.838499e-01   1.916527e-02
  4.245181e+00    4.590577e-01   1.884338e-02
  4.247392e+00    4.290555e-01   1.838726e-02
  4.249602e+00    4.495652e-01   1.900852e-02
  4.251813e+00    4.875423e-01   1.999027e-02
  4.254023e+00    4.113396e-01   1.854688e-02
  4.256234e+00    4.965739e-01   2.059498e-02
  4.258444e+00    5.415474e-01   2.173355e-02
  4.260655e+00    4.683154e-01   2.043265e-02
  4.262865e+00    4.483706e-01   2.021921e-02
  4.265076e+00    3.774430e-01   1.876267e-02
  4.267286e+00    5.177279e-01   2.223422e-02
  4.269496e+00    5.605691e-01   2.341899e-02
  4.271707e+00    5.343498e-01   2.314734e-02
  4.273917e+00    4.679056e-01   2.193997e-02
  4.276128e+00    4.519190e-01   2.184873e-02
  4.278338e+00    4.159642e-01   2.124128e-02
  4.280549e+00    4.435586e-01   2.224902e-02
  4.282759e+00    4.684440e-01   2.319313e-02
  4.284970e+00    4.522137e-01   2.312529e-02
  4.287180e+00    5.255592e-01   2.522921e-02
  4.289391e+00    4.947107e-01   2.466077e-02
  4.291601e+00    5.798574e-01   2.691242e-02
  4.293811e+00    5.378342e-01   2.612147e-02
  4.296022e+00    4.451262e-01   2.395487e-02
  4.298232e+00    4.316657e-01   2.378731e-02
  4.300443e+00    4.879733e-01   2.550001e-02
  4.302653e+00    4.112281e-01   2.361177e-02
  4.304864e+00    5.108122e-01   2.654347e-02
  4.307074e+00    4.609293e-01   2.544111e-02
  4.309285e+00    3.996287e-01   2.390417e-02
  4.311495e+00    4.919719e-01   2.677018e-02
  4.313706e+00    5.041496e-01   2.735498e-02
  4.315916e+00    3.675567e-01   2.358542e-02
  4.318126e+00    5.509537e-01   2.916283e-02
  4.320337e+00    5.063848e-01   2.824221e-02
  4.322547e+00    4.035198e-01   2.547746e-02
  4.324758e+00    5.822369e-01   3.092248e-02
  4.326968e+00    4.966569e-01   2.888101e-02
  4.329179e+00    5.007217e-01   2.931836e-02
  4.331389e+00    4.772193e-01   2.895233e-02
  4.333600e+00    3.950790e-01   2.665739e-02
  4.335810e+00    3.507302e-01   2.541549e-02
  4.338021e+00    5.334506e-01   3.174447e-02
  4.340231e+00    5.298298e-01   3.203566e-02
  4.342442e+00    4.788724e-01   3.086375e-02
  4.344652e+00    4.055696e-01   2.879019e-02
  4.346862e+00    3.500865e-01   2.712120e-02
  4.349073e+00    5.146987e-01   3.336482e-02
  4.351283e+00    4.938776e-01   3.317148e-02
  4.353494e+00    4.464472e-01   3.202529e-02
  4.355704e+00    5.658565e-01   3.663527e-02
  4.357915e+00    4.433267e-01   3.296700e-02
  4.360125e+00    5.296249e-01   3.664855e-02
  4.362336e+00    4.653991e-01   3.497975e-02
  4.364546e+00    5.169623e-01   3.753797e-02
  4.366757e+00    4.980376e-01   3.757770e-02
  4.368967e+00    5.177282e-01   3.907879e-02
  4.371177e+00    4.403980e-01   3.680744e-02
  4.373388e+00    5.091965e-01   4.046279e-02
  4.375598e+00    5.618834e-01   4.347506e-02
  4.377809e+00    3.350067e-01   3.441992e-02
  4.380019e+00    3.354636e-01   3.530747e-02
  4.382230e+00    4.646859e-01   4.271592e-02
  4.384440e+00    3.737775e-01   3.941263e-02
  4.386651e+00    5.364085e-01   4.867050e-02
  4.388861e+00    4.095809e-01   4.395803e-02
  4.391072e+00    4.763674e-01   4.906848e-02
  4.393282e+00    5.096718e-01   5.271860e-02
  4.395492e+00    5.138497e-01   5.513569e-02
  4.397703e+00    2.838663e-01   4.285553e-02
  4.399913e+00    3.182754e-01   4.766751e-02
  4.402124e+00    5.041149e-01   6.339785e-02
  4.404334e+00    4.969892e-01   6.691530e-02
  4.406545e+00    1.152976e-01   3.463418e-02
  4.408755e+00    2.195426e-01   5.182149e-02
  4.410966e+00    2.856618e-01   6.541719e-02
  4.413176e+00    1.394093e-01   5.174720e-02
  4.415387e+00   -4.099257e-01            nan
  4.417597e+00   -1.787158e+00            nan
  4.419807e+00   -3.766224e-01            nan
