# == pyFAI calibration ==
# Distance Sample to Detector: 0.216 m
# PONI: 1.166e-01, 1.308e-01 m
# Rotations: 0.000000 0.000000 0.000000 rad
# 
# == Fit2d calibration ==
# Distance Sample-beamCenter: 216.000 mm
# Center: x=1744.293, y=1555.000 pix
# Tilt: 0.000 deg  TiltPlanRot: 0.000 deg
# 
# Detector Eiger 9M	 PixelSize= 7.500e-05, 7.500e-05 m
#    Detector has a mask: True 
#    Detector has a dark current: False 
#    detector has a flat field: False 
# 
# Wavelength: 9.8e-11 m
# Mask applied: from detector
# Dark current applied: False
# Flat field applied: False
# Polarization factor: None
# Normalization factor: 1.0
# 
# Headers of the input frame:
# {
# "_array_data.header_convention": "SLS_1.0",
# "_array_data.header_contents": "# Detector: Dectris Eiger 9M, S/N E-18-0102\r\n# Pixel_size 75e-6 m x 75e-6 m\r\n# Silicon sensor, thickness 0.000450 m\r\n# Exposure_time 0.024997 s\r\n# Exposure_period 0.025000 s\r\n# Count_cutoff 62318 counts\r\n# Wavelength 0.980106 A\r\n# Detector_distance 0.215992 m\r\n# Beam_xy (1555, 1744) pixels\r\n# Start_angle 0.000000 deg.\r\n# Angle_increment 0.000000 deg.",
# "Content-Type": "application/octet-stream;",
# "conversions": "x-CBF_BYTE_OFFSET",
# "Content-Transfer-Encoding": "BINARY",
# "X-Binary-Size": "10166604",
# "X-Binary-ID": "1",
# "X-Binary-Element-Type": "signed 32-bit integer",
# "X-Binary-Element-Byte-Order": "LITTLE_ENDIAN",
# "Content-MD5": "EP9nZYQAfRDDuo/S6wI4NQ==",
# "X-Binary-Number-of-Elements": "10166590",
# "X-Binary-Size-Fastest-Dimension": "3110",
# "X-Binary-Size-Second-Dimension": "3269",
# "X-Binary-Size-Padding": "4095"
# }
# --> H:/Proxima2a_2019-04-05/RAW_DATA/C5_gel17_position5/C5_mesh_1_data.cbf/C5_mesh_1_data.cbf000091.dat
#        q_A^-1              I           sigma 
  1.105228e-03    1.684018e+00   7.021991e-01
  3.315685e-03    1.508989e+00   4.040996e-01
  5.526141e-03    1.444650e+00   3.057408e-01
  7.736597e-03    1.475876e+00   2.610629e-01
  9.947054e-03    1.552073e+00   2.360112e-01
  1.215751e-02    1.428266e+00   2.047261e-01
  1.436797e-02    1.605611e+00   1.996623e-01
  1.657842e-02    1.353392e+00   1.706303e-01
  1.878888e-02    1.392291e+00   1.625656e-01
  2.099934e-02    1.465171e+00   1.577779e-01
  2.320979e-02    1.513678e+00   1.525280e-01
  2.542025e-02    1.530712e+00   1.465738e-01
  2.763070e-02    1.483976e+00   1.384216e-01
  2.984116e-02    1.333800e+00   1.262763e-01
  3.205162e-02    1.370666e+00   1.235242e-01
  3.426207e-02    1.387402e+00   1.201921e-01
  3.647253e-02    1.317586e+00   1.135218e-01
  3.868299e-02    1.411616e+00   1.141048e-01
  4.089344e-02    1.356023e+00   1.087713e-01
  4.310390e-02    1.422107e+00   1.084901e-01
  4.531436e-02    1.413412e+00   1.054873e-01
  4.752481e-02    1.480816e+00   1.054313e-01
  4.973527e-02    1.441468e+00   1.016844e-01
  5.194572e-02    1.304342e+00   9.464522e-02
  5.415618e-02    1.290108e+00   9.218320e-02
  5.636664e-02    1.537561e+00   9.864642e-02
  5.857709e-02    1.517383e+00   9.613074e-02
  6.078755e-02    1.449384e+00   9.222509e-02
  6.299801e-02    1.517806e+00   9.270531e-02
  6.520846e-02    1.509038e+00   9.085750e-02
  6.741892e-02    1.500275e+00   8.909129e-02
  6.962938e-02    1.512223e+00   8.801855e-02
  7.183983e-02    1.487668e+00   8.594588e-02
  7.405029e-02    1.540479e+00   8.614083e-02
  7.626074e-02    1.531183e+00   8.462603e-02
  7.847120e-02    1.564683e+00   8.433099e-02
  8.068166e-02    1.552521e+00   8.284325e-02
  8.289211e-02    1.569608e+00   8.217929e-02
  8.510257e-02    1.501245e+00   7.931865e-02
  8.731303e-02    1.513506e+00   7.862431e-02
  8.952348e-02    1.443124e+00   7.582273e-02
  9.173394e-02    1.517123e+00   7.679698e-02
  9.394439e-02    1.568742e+00   7.716585e-02
  9.615485e-02    1.496519e+00   7.449564e-02
  9.836531e-02    1.452395e+00   7.255790e-02
  1.005758e-01    1.562316e+00   7.442243e-02
  1.027862e-01    1.614203e+00   7.482848e-02
  1.049967e-01    1.623120e+00   7.423955e-02
  1.072071e-01    1.600104e+00   7.294658e-02
  1.094176e-01    1.604184e+00   7.229687e-02
  1.116280e-01    1.545247e+00   7.024875e-02
  1.138385e-01    1.533721e+00   6.930211e-02
  1.160490e-01    1.550292e+00   6.900791e-02
  1.182594e-01    1.573046e+00   6.885826e-02
  1.204699e-01    1.610454e+00   6.902952e-02
  1.226803e-01    1.585143e+00   6.786232e-02
  1.248908e-01    1.672565e+00   6.908806e-02
  1.271012e-01    1.711926e+00   6.928445e-02
  1.293117e-01    1.699090e+00   6.843086e-02
  1.315222e-01    1.635782e+00   6.657574e-02
  1.337326e-01    1.624270e+00   6.578922e-02
  1.359431e-01    1.622260e+00   6.578702e-02
  1.381535e-01    1.576555e+00   6.572416e-02
  1.403640e-01    1.618179e+00   6.687365e-02
  1.425744e-01    1.662852e+00   6.789872e-02
  1.447849e-01    1.595080e+00   6.651603e-02
  1.469953e-01    1.532071e+00   6.514818e-02
  1.492058e-01    1.597543e+00   6.644833e-02
  1.514163e-01    1.594257e+00   6.626974e-02
  1.536267e-01    1.618574e+00   6.664287e-02
  1.558372e-01    1.583075e+00   6.576249e-02
  1.580476e-01    1.559648e+00   6.511568e-02
  1.602581e-01    1.662369e+00   6.705508e-02
  1.624685e-01    1.578752e+00   6.516798e-02
  1.646790e-01    1.627893e+00   6.598442e-02
  1.668895e-01    1.751556e+00   6.824712e-02
  1.690999e-01    1.735196e+00   6.772368e-02
  1.713104e-01    1.748767e+00   6.777700e-02
  1.735208e-01    1.927858e+00   7.094164e-02
  1.757313e-01    1.817002e+00   6.865598e-02
  1.779417e-01    1.868186e+00   6.938919e-02
  1.801522e-01    1.889400e+00   6.955981e-02
  1.823626e-01    1.867336e+00   6.892227e-02
  1.845731e-01    1.915211e+00   6.957409e-02
  1.867836e-01    2.013117e+00   7.108951e-02
  1.889940e-01    2.020978e+00   7.099544e-02
  1.912045e-01    2.018338e+00   7.071213e-02
  1.934149e-01    1.996638e+00   7.009558e-02
  1.956254e-01    1.902860e+00   6.820396e-02
  1.978358e-01    1.925202e+00   6.836810e-02
  2.000463e-01    1.938914e+00   6.838377e-02
  2.022568e-01    1.926509e+00   6.794093e-02
  2.044672e-01    2.005799e+00   6.908747e-02
  2.066777e-01    2.008952e+00   6.891226e-02
  2.088881e-01    2.020086e+00   6.887688e-02
  2.110986e-01    2.079429e+00   6.964160e-02
  2.133090e-01    1.915111e+00   6.661616e-02
  2.155195e-01    1.936075e+00   6.675758e-02
  2.177300e-01    1.995106e+00   6.723529e-02
  2.199404e-01    1.910360e+00   6.405821e-02
  2.221509e-01    1.989953e+00   6.430548e-02
  2.243613e-01    2.022961e+00   6.401468e-02
  2.265718e-01    2.054391e+00   6.379901e-02
  2.287822e-01    2.019576e+00   6.263001e-02
  2.309927e-01    2.099118e+00   6.326977e-02
  2.332031e-01    2.168526e+00   6.375690e-02
  2.354136e-01    2.162547e+00   6.315290e-02
  2.376241e-01    2.187430e+00   6.302223e-02
  2.398345e-01    2.131640e+00   6.175289e-02
  2.420450e-01    2.197080e+00   6.224558e-02
  2.442554e-01    2.168878e+00   6.141873e-02
  2.464659e-01    2.171804e+00   6.104749e-02
  2.486763e-01    2.157938e+00   6.045233e-02
  2.508868e-01    2.106157e+00   5.934586e-02
  2.530973e-01    2.110415e+00   5.903753e-02
  2.553077e-01    2.116588e+00   5.876517e-02
  2.575182e-01    2.103723e+00   5.823968e-02
  2.597286e-01    2.063765e+00   5.734862e-02
  2.619391e-01    2.126462e+00   5.787808e-02
  2.641495e-01    2.062933e+00   5.669145e-02
  2.663600e-01    2.106679e+00   5.697432e-02
  2.685704e-01    2.040743e+00   5.577168e-02
  2.707809e-01    2.041617e+00   5.548750e-02
  2.729914e-01    2.100274e+00   5.598566e-02
  2.752018e-01    2.070044e+00   5.529203e-02
  2.774123e-01    1.955536e+00   5.346646e-02
  2.796227e-01    2.014113e+00   5.399291e-02
  2.818332e-01    1.987763e+00   5.337100e-02
  2.840436e-01    1.969788e+00   5.287158e-02
  2.862541e-01    2.008614e+00   5.313348e-02
  2.884646e-01    2.005197e+00   5.283630e-02
  2.906750e-01    2.015898e+00   5.272592e-02
  2.928855e-01    1.988896e+00   5.212893e-02
  2.950959e-01    1.974179e+00   5.169714e-02
  2.973064e-01    1.980429e+00   5.154620e-02
  2.995168e-01    1.982350e+00   5.133762e-02
  3.017273e-01    2.004172e+00   5.139183e-02
  3.039377e-01    2.011029e+00   5.125424e-02
  3.061482e-01    2.017960e+00   5.112042e-02
  3.083587e-01    1.982993e+00   5.045621e-02
  3.105691e-01    1.968996e+00   5.006309e-02
  3.127796e-01    1.946599e+00   4.956825e-02
  3.149900e-01    1.954319e+00   4.945952e-02
  3.172005e-01    1.912232e+00   4.872399e-02
  3.194109e-01    1.914901e+00   4.855670e-02
  3.216214e-01    1.956969e+00   4.888688e-02
  3.238319e-01    1.921846e+00   4.825426e-02
  3.260423e-01    1.887690e+00   4.763304e-02
  3.282528e-01    1.906129e+00   4.767457e-02
  3.304632e-01    1.920287e+00   4.766593e-02
  3.326737e-01    1.890103e+00   4.710531e-02
  3.348841e-01    1.877433e+00   4.676511e-02
  3.370946e-01    1.908835e+00   4.697716e-02
  3.393050e-01    1.883009e+00   4.648157e-02
  3.415155e-01    1.815978e+00   4.547509e-02
  3.437260e-01    1.877924e+00   4.607281e-02
  3.459364e-01    1.832986e+00   4.534984e-02
  3.481469e-01    1.894243e+00   4.593311e-02
  3.503573e-01    1.854721e+00   4.528586e-02
  3.525678e-01    1.824664e+00   4.475730e-02
  3.547782e-01    1.886993e+00   4.535082e-02
  3.569887e-01    1.891110e+00   4.523942e-02
  3.591992e-01    1.837141e+00   4.443146e-02
  3.614096e-01    1.809896e+00   4.394782e-02
  3.636201e-01    1.859868e+00   4.439387e-02
  3.658305e-01    1.827188e+00   4.385202e-02
  3.680410e-01    1.756321e+00   4.284536e-02
  3.702514e-01    1.763631e+00   4.279002e-02
  3.724619e-01    1.785944e+00   4.291321e-02
  3.746724e-01    1.810010e+00   4.305724e-02
  3.768828e-01    1.820417e+00   4.303554e-02
  3.790933e-01    1.789235e+00   4.252636e-02
  3.813037e-01    1.748648e+00   4.190370e-02
  3.835142e-01    1.795053e+00   4.231664e-02
  3.857246e-01    1.785249e+00   4.206434e-02
  3.879351e-01    1.801244e+00   4.211559e-02
  3.901455e-01    1.911955e+00   4.325243e-02
  3.923560e-01    1.854948e+00   4.246737e-02
  3.945665e-01    1.849241e+00   4.226751e-02
  3.967769e-01    1.867233e+00   4.233963e-02
  3.989874e-01    1.829799e+00   4.178219e-02
  4.011978e-01    1.784121e+00   4.113051e-02
  4.034083e-01    1.835987e+00   4.159598e-02
  4.056187e-01    1.799324e+00   4.105173e-02
  4.078292e-01    1.817666e+00   4.113556e-02
  4.100397e-01    1.814976e+00   4.097961e-02
  4.122501e-01    1.820369e+00   4.091766e-02
  4.144606e-01    1.812149e+00   4.070412e-02
  4.166710e-01    1.807299e+00   4.052873e-02
  4.188815e-01    1.801612e+00   4.034540e-02
  4.210919e-01    1.816438e+00   4.039232e-02
  4.233024e-01    1.885602e+00   4.103310e-02
  4.255128e-01    1.896546e+00   4.103306e-02
  4.277233e-01    1.834664e+00   4.024213e-02
  4.299338e-01    1.790016e+00   3.963507e-02
  4.321442e-01    1.806474e+00   3.970290e-02
  4.343547e-01    1.828424e+00   3.983048e-02
  4.365651e-01    1.773034e+00   3.911107e-02
  4.387756e-01    1.768021e+00   3.894637e-02
  4.409860e-01    1.777404e+00   3.894141e-02
  4.431965e-01    1.747900e+00   3.851008e-02
  4.454070e-01    1.747646e+00   3.840014e-02
  4.476174e-01    1.724398e+00   3.803914e-02
  4.498279e-01    1.715677e+00   3.783960e-02
  4.520383e-01    1.742486e+00   3.802944e-02
  4.542488e-01    1.766057e+00   3.818256e-02
  4.564592e-01    1.698402e+00   3.734360e-02
  4.586697e-01    1.772324e+00   3.804637e-02
  4.608801e-01    1.736360e+00   3.755752e-02
  4.630906e-01    1.727848e+00   3.736613e-02
  4.653011e-01    1.737143e+00   3.736798e-02
  4.675115e-01    1.783776e+00   3.776647e-02
  4.697220e-01    1.782738e+00   3.765668e-02
  4.719324e-01    1.714417e+00   3.683251e-02
  4.741429e-01    1.725467e+00   3.685581e-02
  4.763533e-01    1.732667e+00   3.683795e-02
  4.785638e-01    1.720681e+00   3.661548e-02
  4.807743e-01    1.723189e+00   3.654896e-02
  4.829847e-01    1.732112e+00   3.655091e-02
  4.851952e-01    1.726746e+00   3.640189e-02
  4.874056e-01    1.709175e+00   3.612492e-02
  4.896161e-01    1.682249e+00   3.575033e-02
  4.918265e-01    1.686748e+00   3.570922e-02
  4.940370e-01    1.657755e+00   3.531358e-02
  4.962475e-01    1.680146e+00   3.546349e-02
  4.984579e-01    1.655438e+00   3.511499e-02
  5.006684e-01    1.697798e+00   3.547470e-02
  5.028788e-01    1.712575e+00   3.554243e-02
  5.050893e-01    1.705021e+00   3.537770e-02
  5.072997e-01    1.724040e+00   3.548855e-02
  5.095102e-01    1.737629e+00   3.554281e-02
  5.117206e-01    1.679249e+00   3.485757e-02
  5.139311e-01    1.668920e+00   3.466794e-02
  5.161416e-01    1.701978e+00   3.492687e-02
  5.183520e-01    1.712137e+00   3.494771e-02
  5.205625e-01    1.710478e+00   3.484895e-02
  5.227729e-01    1.654441e+00   3.419343e-02
  5.249834e-01    1.644193e+00   3.400820e-02
  5.271938e-01    1.723208e+00   3.473454e-02
  5.294043e-01    1.765486e+00   3.507693e-02
  5.316148e-01    1.738457e+00   3.472766e-02
  5.338252e-01    1.802931e+00   3.528494e-02
  5.360357e-01    1.821016e+00   3.538075e-02
  5.382461e-01    1.787496e+00   3.497437e-02
  5.404566e-01    1.777383e+00   3.479591e-02
  5.426670e-01    1.810241e+00   3.503695e-02
  5.448775e-01    1.773682e+00   3.460389e-02
  5.470879e-01    1.773505e+00   3.452497e-02
  5.492984e-01    1.773753e+00   3.445062e-02
  5.515089e-01    1.780398e+00   3.443854e-02
  5.537193e-01    1.782481e+00   3.438276e-02
  5.559298e-01    1.775240e+00   3.423759e-02
  5.581402e-01    1.797657e+00   3.437778e-02
  5.603507e-01    1.827898e+00   3.459032e-02
  5.625611e-01    1.801611e+00   3.426616e-02
  5.647716e-01    1.784102e+00   3.402523e-02
  5.669821e-01    1.759414e+00   3.371612e-02
  5.691925e-01    1.803217e+00   3.405999e-02
  5.714030e-01    1.801824e+00   3.397425e-02
  5.736134e-01    1.789849e+00   3.378914e-02
  5.758239e-01    1.755094e+00   3.338807e-02
  5.780343e-01    1.703900e+00   3.282791e-02
  5.802448e-01    1.701707e+00   3.273812e-02
  5.824552e-01    1.660481e+00   3.227126e-02
  5.846657e-01    1.692575e+00   3.251372e-02
  5.868762e-01    1.699160e+00   3.250909e-02
  5.890866e-01    1.666982e+00   3.213299e-02
  5.912971e-01    1.666331e+00   3.206020e-02
  5.935075e-01    1.635485e+00   3.169644e-02
  5.957180e-01    1.639915e+00   3.167420e-02
  5.979284e-01    1.666604e+00   3.186573e-02
  6.001389e-01    1.676104e+00   3.189134e-02
  6.023494e-01    1.668847e+00   3.175763e-02
  6.045598e-01    1.667219e+00   3.167749e-02
  6.067703e-01    1.678981e+00   3.172513e-02
  6.089807e-01    1.663916e+00   3.151897e-02
  6.111912e-01    1.738528e+00   3.215356e-02
  6.134016e-01    1.708166e+00   3.180799e-02
  6.156121e-01    1.714476e+00   3.180334e-02
  6.178226e-01    1.680459e+00   3.142393e-02
  6.200330e-01    1.685035e+00   3.140461e-02
  6.222435e-01    1.696461e+00   3.144847e-02
  6.244539e-01    1.703547e+00   3.145238e-02
  6.266644e-01    1.743363e+00   3.175575e-02
  6.288748e-01    1.725839e+00   3.153427e-02
  6.310853e-01    1.705380e+00   3.128592e-02
  6.332957e-01    1.716893e+00   3.133074e-02
  6.355062e-01    1.732813e+00   3.141452e-02
  6.377167e-01    1.774559e+00   3.172966e-02
  6.399271e-01    1.771273e+00   3.163956e-02
  6.421376e-01    1.691670e+00   3.086140e-02
  6.443480e-01    1.715016e+00   3.101450e-02
  6.465585e-01    1.700915e+00   3.082824e-02
  6.487689e-01    1.686160e+00   3.063627e-02
  6.509794e-01    1.671239e+00   3.044289e-02
  6.531899e-01    1.646885e+00   3.016344e-02
  6.554003e-01    1.615539e+00   2.981883e-02
  6.576108e-01    1.632650e+00   2.992050e-02
  6.598212e-01    1.648906e+00   3.001323e-02
  6.620317e-01    1.669687e+00   3.014580e-02
  6.642421e-01    1.574719e+00   2.922176e-02
  6.664526e-01    1.588969e+00   2.929959e-02
  6.686630e-01    1.630789e+00   2.962777e-02
  6.708735e-01    1.639250e+00   2.965006e-02
  6.730840e-01    1.619911e+00   2.942090e-02
  6.752944e-01    1.633658e+00   2.949172e-02
  6.775049e-01    1.652481e+00   2.960730e-02
  6.797153e-01    1.650735e+00   2.953807e-02
  6.819258e-01    1.632113e+00   2.931801e-02
  6.841362e-01    1.677534e+00   2.966971e-02
  6.863467e-01    1.638772e+00   2.927242e-02
  6.885572e-01    1.616366e+00   2.901952e-02
  6.907676e-01    1.595169e+00   2.877696e-02
  6.929781e-01    1.621043e+00   2.895782e-02
  6.951885e-01    1.622806e+00   2.892226e-02
  6.973990e-01    1.651338e+00   2.912382e-02
  6.996094e-01    1.615951e+00   2.875940e-02
  7.018199e-01    1.631567e+00   2.884730e-02
  7.040303e-01    1.611099e+00   2.861544e-02
  7.062408e-01    1.615642e+00   2.860555e-02
  7.084513e-01    1.579341e+00   2.823317e-02
  7.106617e-01    1.612291e+00   2.847660e-02
  7.128722e-01    1.596256e+00   2.828562e-02
  7.150826e-01    1.627571e+00   2.851249e-02
  7.172931e-01    1.654068e+00   2.869409e-02
  7.195035e-01    1.637109e+00   2.849754e-02
  7.217140e-01    1.611381e+00   2.832275e-02
  7.239245e-01    1.644514e+00   2.884418e-02
  7.261349e-01    1.604611e+00   2.860171e-02
  7.283454e-01    1.581082e+00   2.846381e-02
  7.305558e-01    1.533116e+00   2.808199e-02
  7.327663e-01    1.547079e+00   2.825168e-02
  7.349767e-01    1.589013e+00   2.864847e-02
  7.371872e-01    1.606258e+00   2.879221e-02
  7.393976e-01    1.599005e+00   2.871277e-02
  7.416081e-01    1.579256e+00   2.851871e-02
  7.438186e-01    1.581931e+00   2.839820e-02
  7.460290e-01    1.595225e+00   2.822111e-02
  7.482395e-01    1.616603e+00   2.823615e-02
  7.504499e-01    1.627792e+00   2.819514e-02
  7.526604e-01    1.625922e+00   2.806051e-02
  7.548708e-01    1.594632e+00   2.769923e-02
  7.570813e-01    1.577527e+00   2.749922e-02
  7.592918e-01    1.600839e+00   2.766620e-02
  7.615022e-01    1.624428e+00   2.783496e-02
  7.637127e-01    1.605661e+00   2.764062e-02
  7.659231e-01    1.600608e+00   2.756480e-02
  7.681336e-01    1.636734e+00   2.784194e-02
  7.703440e-01    1.621828e+00   2.768318e-02
  7.725545e-01    1.605379e+00   2.751125e-02
  7.747650e-01    1.670887e+00   2.802758e-02
  7.769754e-01    1.644888e+00   2.775486e-02
  7.791859e-01    1.569473e+00   2.705773e-02
  7.813963e-01    1.589933e+00   2.718075e-02
  7.836068e-01    1.604384e+00   2.725167e-02
  7.858172e-01    1.594322e+00   2.711529e-02
  7.880277e-01    1.578534e+00   2.692938e-02
  7.902381e-01    1.614676e+00   2.718640e-02
  7.924486e-01    1.646632e+00   2.740330e-02
  7.946591e-01    1.626551e+00   2.718697e-02
  7.968695e-01    1.634729e+00   2.720650e-02
  7.990800e-01    1.627585e+00   2.709845e-02
  8.012904e-01    1.617458e+00   2.696729e-02
  8.035009e-01    1.642194e+00   2.712436e-02
  8.057113e-01    1.631303e+00   2.698753e-02
  8.079218e-01    1.616689e+00   2.682001e-02
  8.101323e-01    1.625406e+00   2.684653e-02
  8.123427e-01    1.679040e+00   2.723937e-02
  8.145532e-01    1.651538e+00   2.696914e-02
  8.167636e-01    1.643006e+00   2.685416e-02
  8.189741e-01    1.618467e+00   2.660843e-02
  8.211845e-01    1.656191e+00   2.687163e-02
  8.233950e-01    1.639233e+00   2.669024e-02
  8.256054e-01    1.621642e+00   2.650264e-02
  8.278159e-01    1.617749e+00   2.642712e-02
  8.300264e-01    1.598438e+00   2.622635e-02
  8.322368e-01    1.645909e+00   2.656972e-02
  8.344473e-01    1.647769e+00   2.654123e-02
  8.366577e-01    1.630561e+00   2.635983e-02
  8.388682e-01    1.664643e+00   2.659129e-02
  8.410786e-01    1.680127e+00   2.667211e-02
  8.432891e-01    1.633948e+00   2.626124e-02
  8.454996e-01    1.657156e+00   2.640520e-02
  8.477100e-01    1.664951e+00   2.642524e-02
  8.499205e-01    1.637410e+00   2.616461e-02
  8.521309e-01    1.695717e+00   2.658487e-02
  8.543414e-01    1.707965e+00   2.663909e-02
  8.565518e-01    1.684104e+00   2.641118e-02
  8.587623e-01    1.673864e+00   2.628976e-02
  8.609727e-01    1.601274e+00   2.567353e-02
  8.631832e-01    1.622706e+00   2.580489e-02
  8.653937e-01    1.649310e+00   2.597560e-02
  8.676041e-01    1.655569e+00   2.598559e-02
  8.698146e-01    1.589263e+00   2.542098e-02
  8.720250e-01    1.600757e+00   2.547385e-02
  8.742355e-01    1.634935e+00   2.570518e-02
  8.764459e-01    1.566201e+00   2.512067e-02
  8.786564e-01    1.600027e+00   2.535262e-02
  8.808669e-01    1.630077e+00   2.555081e-02
  8.830773e-01    1.619407e+00   2.542870e-02
  8.852878e-01    1.600011e+00   2.523807e-02
  8.874982e-01    1.611385e+00   2.529086e-02
  8.897087e-01    1.564862e+00   2.488585e-02
  8.919191e-01    1.628059e+00   2.534527e-02
  8.941296e-01    1.609726e+00   2.516481e-02
  8.963401e-01    1.611997e+00   2.514597e-02
  8.985505e-01    1.606119e+00   2.506305e-02
  9.007610e-01    1.613779e+00   2.508586e-02
  9.029714e-01    1.601092e+00   2.495119e-02
  9.051819e-01    1.619551e+00   2.505716e-02
  9.073923e-01    1.602219e+00   2.488613e-02
  9.096028e-01    1.603944e+00   2.486457e-02
  9.118132e-01    1.594777e+00   2.475725e-02
  9.140237e-01    1.588812e+00   2.467440e-02
  9.162342e-01    1.600095e+00   2.472731e-02
  9.184446e-01    1.609408e+00   2.476328e-02
  9.206551e-01    1.645117e+00   2.500043e-02
  9.228655e-01    1.611232e+00   2.470626e-02
  9.250760e-01    1.590788e+00   2.451376e-02
  9.272864e-01    1.629055e+00   2.477233e-02
  9.294969e-01    1.626585e+00   2.471746e-02
  9.317074e-01    1.635325e+00   2.474876e-02
  9.339178e-01    1.595468e+00   2.441192e-02
  9.361283e-01    1.626735e+00   2.461362e-02
  9.383387e-01    1.637612e+00   2.466217e-02
  9.405492e-01    1.660670e+00   2.480052e-02
  9.427596e-01    1.673522e+00   2.486045e-02
  9.449701e-01    1.698089e+00   2.500824e-02
  9.471805e-01    1.679896e+00   2.483869e-02
  9.493910e-01    1.690885e+00   2.488558e-02
  9.516015e-01    1.701238e+00   2.492681e-02
  9.538119e-01    1.702732e+00   2.490356e-02
  9.560224e-01    1.756261e+00   2.525639e-02
  9.582328e-01    1.731790e+00   2.504619e-02
  9.604433e-01    1.765567e+00   2.525342e-02
  9.626537e-01    1.819559e+00   2.560219e-02
  9.648642e-01    1.798434e+00   2.541828e-02
  9.670747e-01    1.829248e+00   2.559974e-02
  9.692851e-01    1.896309e+00   2.603012e-02
  9.714956e-01    1.959461e+00   2.642271e-02
  9.737060e-01    1.938296e+00   2.624511e-02
  9.759165e-01    1.877406e+00   2.579318e-02
  9.781269e-01    1.836549e+00   2.547759e-02
  9.803374e-01    1.830526e+00   2.540058e-02
  9.825478e-01    1.828713e+00   2.535452e-02
  9.847583e-01    1.824009e+00   2.528750e-02
  9.869688e-01    1.819208e+00   2.522040e-02
  9.891792e-01    1.788955e+00   2.497657e-02
  9.913897e-01    1.793414e+00   2.497393e-02
  9.936001e-01    1.755886e+00   2.467892e-02
  9.958106e-01    1.716915e+00   2.437034e-02
  9.980210e-01    1.690624e+00   2.415165e-02
  1.000231e+00    1.618664e+00   2.376153e-02
  1.002442e+00    1.621888e+00   2.391152e-02
  1.004652e+00    1.641856e+00   2.412541e-02
  1.006863e+00    1.631519e+00   2.409924e-02
  1.009073e+00    1.624567e+00   2.408465e-02
  1.011284e+00    1.617969e+00   2.406782e-02
  1.013494e+00    1.589948e+00   2.388216e-02
  1.015705e+00    1.593554e+00   2.393183e-02
  1.017915e+00    1.567613e+00   2.375259e-02
  1.020126e+00    1.567412e+00   2.376713e-02
  1.022336e+00    1.539518e+00   2.356629e-02
  1.024547e+00    1.557024e+00   2.371115e-02
  1.026757e+00    1.524300e+00   2.346896e-02
  1.028967e+00    1.529725e+00   2.351833e-02
  1.031178e+00    1.544002e+00   2.363399e-02
  1.033388e+00    1.546127e+00   2.365535e-02
  1.035599e+00    1.523916e+00   2.348823e-02
  1.037809e+00    1.540780e+00   2.362111e-02
  1.040020e+00    1.531406e+00   2.355043e-02
  1.042230e+00    1.521818e+00   2.347853e-02
  1.044441e+00    1.488461e+00   2.321958e-02
  1.046651e+00    1.482500e+00   2.317319e-02
  1.048862e+00    1.488190e+00   2.321684e-02
  1.051072e+00    1.488265e+00   2.321507e-02
  1.053282e+00    1.499219e+00   2.329941e-02
  1.055493e+00    1.508439e+00   2.336661e-02
  1.057703e+00    1.519571e+00   2.345115e-02
  1.059914e+00    1.530270e+00   2.352923e-02
  1.062124e+00    1.557109e+00   2.373053e-02
  1.064335e+00    1.567000e+00   2.380224e-02
  1.066545e+00    1.615170e+00   2.415906e-02
  1.068756e+00    1.620531e+00   2.419523e-02
  1.070966e+00    1.609818e+00   2.410829e-02
  1.073177e+00    1.571445e+00   2.381299e-02
  1.075387e+00    1.529423e+00   2.348710e-02
  1.077597e+00    1.479936e+00   2.309670e-02
  1.079808e+00    1.501869e+00   2.313277e-02
  1.082018e+00    1.529204e+00   2.314903e-02
  1.084229e+00    1.653909e+00   2.395725e-02
  1.086439e+00    1.971068e+00   2.605189e-02
  1.088650e+00    1.976557e+00   2.600005e-02
  1.090860e+00    1.724749e+00   2.421385e-02
  1.093071e+00    1.558621e+00   2.295370e-02
  1.095281e+00    1.487507e+00   2.236586e-02
  1.097492e+00    1.455546e+00   2.206916e-02
  1.099702e+00    1.430308e+00   2.182576e-02
  1.101912e+00    1.468663e+00   2.206712e-02
  1.104123e+00    1.454108e+00   2.190899e-02
  1.106333e+00    1.425840e+00   2.165068e-02
  1.108544e+00    1.445987e+00   2.175857e-02
  1.110754e+00    1.416092e+00   2.148964e-02
  1.112965e+00    1.427603e+00   2.153616e-02
  1.115175e+00    1.446260e+00   2.163489e-02
  1.117386e+00    1.442338e+00   2.156591e-02
  1.119596e+00    1.420460e+00   2.136372e-02
  1.121807e+00    1.427015e+00   2.137391e-02
  1.124017e+00    1.413257e+00   2.123389e-02
  1.126228e+00    1.402962e+00   2.112069e-02
  1.128438e+00    1.380286e+00   2.091281e-02
  1.130648e+00    1.389623e+00   2.094922e-02
  1.132859e+00    1.374024e+00   2.079723e-02
  1.135069e+00    1.402728e+00   2.097845e-02
  1.137280e+00    1.435726e+00   2.119027e-02
  1.139490e+00    1.388425e+00   2.080520e-02
  1.141701e+00    1.388334e+00   2.077135e-02
  1.143911e+00    1.374855e+00   2.063852e-02
  1.146122e+00    1.372827e+00   2.059136e-02
  1.148332e+00    1.411714e+00   2.084870e-02
  1.150543e+00    1.380352e+00   2.058499e-02
  1.152753e+00    1.332650e+00   2.019579e-02
  1.154963e+00    1.351756e+00   2.030926e-02
  1.157174e+00    1.384381e+00   2.052260e-02
  1.159384e+00    1.379608e+00   2.045727e-02
  1.161595e+00    1.366131e+00   2.032730e-02
  1.163805e+00    1.370858e+00   2.033315e-02
  1.166016e+00    1.376805e+00   2.034768e-02
  1.168226e+00    1.393092e+00   2.043845e-02
  1.170437e+00    1.369925e+00   2.023913e-02
  1.172647e+00    1.363773e+00   2.016475e-02
  1.174858e+00    1.368927e+00   2.017467e-02
  1.177068e+00    1.383774e+00   2.025531e-02
  1.179278e+00    1.395157e+00   2.030951e-02
  1.181489e+00    1.373942e+00   2.012739e-02
  1.183699e+00    1.361377e+00   2.000752e-02
  1.185910e+00    1.360755e+00   1.997515e-02
  1.188120e+00    1.375472e+00   2.005600e-02
  1.190331e+00    1.350955e+00   1.984974e-02
  1.192541e+00    1.372493e+00   1.997977e-02
  1.194752e+00    1.364672e+00   1.989562e-02
  1.196962e+00    1.361340e+00   1.984546e-02
  1.199173e+00    1.375790e+00   1.992378e-02
  1.201383e+00    1.358934e+00   1.977410e-02
  1.203593e+00    1.343008e+00   1.963313e-02
  1.205804e+00    1.369377e+00   1.979881e-02
  1.208014e+00    1.376391e+00   1.982236e-02
  1.210225e+00    1.374048e+00   1.977992e-02
  1.212435e+00    1.398940e+00   1.993304e-02
  1.214646e+00    1.411109e+00   1.999286e-02
  1.216856e+00    1.417549e+00   2.001233e-02
  1.219067e+00    1.370022e+00   1.964936e-02
  1.221277e+00    1.358519e+00   1.954155e-02
  1.223488e+00    1.375369e+00   1.963641e-02
  1.225698e+00    1.366674e+00   1.954717e-02
  1.227909e+00    1.353020e+00   1.941907e-02
  1.230119e+00    1.358519e+00   1.942654e-02
  1.232329e+00    1.337447e+00   1.924472e-02
  1.234540e+00    1.369645e+00   1.944447e-02
  1.236750e+00    1.383757e+00   1.951375e-02
  1.238961e+00    1.394768e+00   1.956381e-02
  1.241171e+00    1.425371e+00   1.975243e-02
  1.243382e+00    1.456334e+00   1.994140e-02
  1.245592e+00    1.436015e+00   1.977697e-02
  1.247803e+00    1.390073e+00   1.943404e-02
  1.250013e+00    1.345926e+00   1.909942e-02
  1.252224e+00    1.356370e+00   1.915007e-02
  1.254434e+00    1.391229e+00   1.937049e-02
  1.256644e+00    1.407674e+00   1.946092e-02
  1.258855e+00    1.395179e+00   1.935074e-02
  1.261065e+00    1.385467e+00   1.925957e-02
  1.263276e+00    1.366024e+00   1.910089e-02
  1.265486e+00    1.367449e+00   1.908782e-02
  1.267697e+00    1.376023e+00   1.912433e-02
  1.269907e+00    1.378533e+00   1.911883e-02
  1.272118e+00    1.355702e+00   1.893724e-02
  1.274328e+00    1.342577e+00   1.882265e-02
  1.276539e+00    1.348015e+00   1.883798e-02
  1.278749e+00    1.338330e+00   1.874798e-02
  1.280959e+00    1.362332e+00   1.889272e-02
  1.283170e+00    1.379396e+00   1.898800e-02
  1.285380e+00    1.359920e+00   1.883094e-02
  1.287591e+00    1.399501e+00   1.908058e-02
  1.289801e+00    1.377182e+00   1.890639e-02
  1.292012e+00    1.369988e+00   1.883973e-02
  1.294222e+00    1.341571e+00   1.862712e-02
  1.296433e+00    1.365058e+00   1.877378e-02
  1.298643e+00    1.367540e+00   1.877427e-02
  1.300854e+00    1.364793e+00   1.873889e-02
  1.303064e+00    1.343003e+00   1.856954e-02
  1.305274e+00    1.342483e+00   1.854454e-02
  1.307485e+00    1.351897e+00   1.858790e-02
  1.309695e+00    1.324514e+00   1.837666e-02
  1.311906e+00    1.350385e+00   1.853352e-02
  1.314116e+00    1.398646e+00   1.884066e-02
  1.316327e+00    1.390340e+00   1.876262e-02
  1.318537e+00    1.375696e+00   1.864146e-02
  1.320748e+00    1.369996e+00   1.858110e-02
  1.322958e+00    1.348229e+00   1.841236e-02
  1.325169e+00    1.361042e+00   1.847856e-02
  1.327379e+00    1.344950e+00   1.834722e-02
  1.329589e+00    1.373781e+00   1.852157e-02
  1.331800e+00    1.344489e+00   1.830241e-02
  1.334010e+00    1.391565e+00   1.859907e-02
  1.336221e+00    1.383862e+00   1.852554e-02
  1.338431e+00    1.381511e+00   1.848867e-02
  1.340642e+00    1.360109e+00   1.840932e-02
  1.342852e+00    1.341323e+00   1.838208e-02
  1.345063e+00    1.379805e+00   1.869391e-02
  1.347273e+00    1.382859e+00   1.875028e-02
  1.349484e+00    1.379933e+00   1.875841e-02
  1.351694e+00    1.361453e+00   1.865520e-02
  1.353905e+00    1.344901e+00   1.855941e-02
  1.356115e+00    1.325002e+00   1.843649e-02
  1.358325e+00    1.353017e+00   1.864371e-02
  1.360536e+00    1.328125e+00   1.848295e-02
  1.362746e+00    1.333083e+00   1.852692e-02
  1.364957e+00    1.339480e+00   1.857895e-02
  1.367167e+00    1.335415e+00   1.855787e-02
  1.369378e+00    1.329690e+00   1.852400e-02
  1.371588e+00    1.354731e+00   1.870279e-02
  1.373799e+00    1.349386e+00   1.866954e-02
  1.376009e+00    1.334335e+00   1.856852e-02
  1.378220e+00    1.307072e+00   1.838035e-02
  1.380430e+00    1.295265e+00   1.829981e-02
  1.382640e+00    1.305673e+00   1.837408e-02
  1.384851e+00    1.299150e+00   1.832901e-02
  1.387061e+00    1.264407e+00   1.808255e-02
  1.389272e+00    1.272325e+00   1.813927e-02
  1.391482e+00    1.304256e+00   1.836480e-02
  1.393693e+00    1.308381e+00   1.839295e-02
  1.395903e+00    1.279543e+00   1.818764e-02
  1.398114e+00    1.254088e+00   1.800442e-02
  1.400324e+00    1.292701e+00   1.827738e-02
  1.402535e+00    1.289223e+00   1.825044e-02
  1.404745e+00    1.303961e+00   1.835207e-02
  1.406955e+00    1.304069e+00   1.835011e-02
  1.409166e+00    1.301629e+00   1.832960e-02
  1.411376e+00    1.280721e+00   1.817864e-02
  1.413587e+00    1.268231e+00   1.808599e-02
  1.415797e+00    1.266918e+00   1.807307e-02
  1.418008e+00    1.304193e+00   1.829459e-02
  1.420218e+00    1.283642e+00   1.799937e-02
  1.422429e+00    1.272204e+00   1.783358e-02
  1.424639e+00    1.295862e+00   1.793330e-02
  1.426850e+00    1.290161e+00   1.783868e-02
  1.429060e+00    1.288267e+00   1.777625e-02
  1.431270e+00    1.280973e+00   1.768134e-02
  1.433481e+00    1.276955e+00   1.761252e-02
  1.435691e+00    1.294324e+00   1.769311e-02
  1.437902e+00    1.288890e+00   1.761919e-02
  1.440112e+00    1.281036e+00   1.752995e-02
  1.442323e+00    1.256405e+00   1.732771e-02
  1.444533e+00    1.287443e+00   1.750767e-02
  1.446744e+00    1.271258e+00   1.736614e-02
  1.448954e+00    1.271796e+00   1.733959e-02
  1.451165e+00    1.263304e+00   1.725192e-02
  1.453375e+00    1.301860e+00   1.748481e-02
  1.455586e+00    1.291287e+00   1.738527e-02
  1.457796e+00    1.293080e+00   1.736959e-02
  1.460006e+00    1.274594e+00   1.721768e-02
  1.462217e+00    1.280979e+00   1.723439e-02
  1.464427e+00    1.283720e+00   1.722710e-02
  1.466638e+00    1.277047e+00   1.715684e-02
  1.468848e+00    1.297542e+00   1.726837e-02
  1.471059e+00    1.268847e+00   1.705126e-02
  1.473269e+00    1.281343e+00   1.711052e-02
  1.475480e+00    1.286073e+00   1.711816e-02
  1.477690e+00    1.278817e+00   1.704586e-02
  1.479901e+00    1.264225e+00   1.692452e-02
  1.482111e+00    1.273117e+00   1.696056e-02
  1.484321e+00    1.264284e+00   1.687853e-02
  1.486532e+00    1.243603e+00   1.671779e-02
  1.488742e+00    1.265416e+00   1.684109e-02
  1.490953e+00    1.258210e+00   1.677056e-02
  1.493163e+00    1.284270e+00   1.692084e-02
  1.495374e+00    1.282688e+00   1.688880e-02
  1.497584e+00    1.257289e+00   1.669912e-02
  1.499795e+00    1.258260e+00   1.668394e-02
  1.502005e+00    1.246821e+00   1.658635e-02
  1.504216e+00    1.250604e+00   1.659054e-02
  1.506426e+00    1.238801e+00   1.649140e-02
  1.508636e+00    1.238067e+00   1.646623e-02
  1.510847e+00    1.257979e+00   1.657627e-02
  1.513057e+00    1.279319e+00   1.669096e-02
  1.515268e+00    1.259571e+00   1.653589e-02
  1.517478e+00    1.257165e+00   1.649488e-02
  1.519689e+00    1.280323e+00   1.662091e-02
  1.521899e+00    1.254478e+00   1.642919e-02
  1.524110e+00    1.251457e+00   1.638906e-02
  1.526320e+00    1.285734e+00   1.659214e-02
  1.528531e+00    1.277937e+00   1.652177e-02
  1.530741e+00    1.274490e+00   1.648017e-02
  1.532951e+00    1.250818e+00   1.630680e-02
  1.535162e+00    1.230747e+00   1.626137e-02
  1.537372e+00    1.260907e+00   1.652664e-02
  1.539583e+00    1.246318e+00   1.646497e-02
  1.541793e+00    1.241654e+00   1.644105e-02
  1.544004e+00    1.232821e+00   1.638273e-02
  1.546214e+00    1.243134e+00   1.644960e-02
  1.548425e+00    1.250663e+00   1.649960e-02
  1.550635e+00    1.254821e+00   1.653673e-02
  1.552846e+00    1.241119e+00   1.645584e-02
  1.555056e+00    1.229477e+00   1.633725e-02
  1.557266e+00    1.226582e+00   1.620834e-02
  1.559477e+00    1.225903e+00   1.614518e-02
  1.561687e+00    1.248476e+00   1.626242e-02
  1.563898e+00    1.249169e+00   1.624975e-02
  1.566108e+00    1.254084e+00   1.626567e-02
  1.568319e+00    1.264468e+00   1.631712e-02
  1.570529e+00    1.236382e+00   1.610985e-02
  1.572740e+00    1.234675e+00   1.607120e-02
  1.574950e+00    1.250033e+00   1.614449e-02
  1.577161e+00    1.236826e+00   1.603356e-02
  1.579371e+00    1.264210e+00   1.618624e-02
  1.581582e+00    1.240626e+00   1.601482e-02
  1.583792e+00    1.252827e+00   1.607527e-02
  1.586002e+00    1.265240e+00   1.613698e-02
  1.588213e+00    1.249552e+00   1.601934e-02
  1.590423e+00    1.234638e+00   1.590346e-02
  1.592634e+00    1.206790e+00   1.570179e-02
  1.594844e+00    1.215988e+00   1.574033e-02
  1.597055e+00    1.241050e+00   1.588123e-02
  1.599265e+00    1.248597e+00   1.590867e-02
  1.601476e+00    1.246673e+00   1.587606e-02
  1.603686e+00    1.234228e+00   1.577689e-02
  1.605897e+00    1.240128e+00   1.579440e-02
  1.608107e+00    1.238230e+00   1.576273e-02
  1.610317e+00    1.250365e+00   1.582037e-02
  1.612528e+00    1.220297e+00   1.560996e-02
  1.614738e+00    1.211062e+00   1.553196e-02
  1.616949e+00    1.225714e+00   1.560668e-02
  1.619159e+00    1.193228e+00   1.537997e-02
  1.621370e+00    1.192558e+00   1.535741e-02
  1.623580e+00    1.173212e+00   1.521429e-02
  1.625791e+00    1.195890e+00   1.534248e-02
  1.628001e+00    1.192674e+00   1.530365e-02
  1.630212e+00    1.176588e+00   1.518248e-02
  1.632422e+00    1.136857e+00   1.490641e-02
  1.634632e+00    1.143721e+00   1.493432e-02
  1.636843e+00    1.150814e+00   1.496321e-02
  1.639053e+00    1.161399e+00   1.501466e-02
  1.641264e+00    1.140828e+00   1.486424e-02
  1.643474e+00    1.131590e+00   1.478675e-02
  1.645685e+00    1.146401e+00   1.486664e-02
  1.647895e+00    1.123454e+00   1.470073e-02
  1.650106e+00    1.126750e+00   1.470545e-02
  1.652316e+00    1.104267e+00   1.454185e-02
  1.654527e+00    1.087195e+00   1.441273e-02
  1.656737e+00    1.103451e+00   1.450375e-02
  1.658947e+00    1.130992e+00   1.466737e-02
  1.661158e+00    1.108454e+00   1.450436e-02
  1.663368e+00    1.111742e+00   1.450991e-02
  1.665579e+00    1.127588e+00   1.459674e-02
  1.667789e+00    1.133509e+00   1.461866e-02
  1.670000e+00    1.120143e+00   1.451668e-02
  1.672210e+00    1.098137e+00   1.435758e-02
  1.674421e+00    1.098832e+00   1.434682e-02
  1.676631e+00    1.097546e+00   1.432259e-02
  1.678842e+00    1.099530e+00   1.431974e-02
  1.681052e+00    1.088526e+00   1.423257e-02
  1.683263e+00    1.098307e+00   1.428117e-02
  1.685473e+00    1.086435e+00   1.418862e-02
  1.687683e+00    1.085115e+00   1.416456e-02
  1.689894e+00    1.080461e+00   1.411839e-02
  1.692104e+00    1.100095e+00   1.423099e-02
  1.694315e+00    1.124810e+00   1.437513e-02
  1.696525e+00    1.110167e+00   1.426581e-02
  1.698736e+00    1.101254e+00   1.419336e-02
  1.700946e+00    1.121078e+00   1.430496e-02
  1.703157e+00    1.110324e+00   1.422120e-02
  1.705367e+00    1.052182e+00   1.382935e-02
  1.707578e+00    1.062472e+00   1.388214e-02
  1.709788e+00    1.051570e+00   1.379657e-02
  1.711998e+00    1.039138e+00   1.369980e-02
  1.714209e+00    1.043591e+00   1.371465e-02
  1.716419e+00    1.021991e+00   1.355780e-02
  1.718630e+00    1.003609e+00   1.342123e-02
  1.720840e+00    1.030323e+00   1.358449e-02
  1.723051e+00    9.964933e-01   1.334593e-02
  1.725261e+00    1.015844e+00   1.346025e-02
  1.727472e+00    1.019179e+00   1.346817e-02
  1.729682e+00    9.786440e-01   1.318440e-02
  1.731893e+00    1.003249e+00   1.333524e-02
  1.734103e+00    1.023383e+00   1.345450e-02
  1.736313e+00    1.029210e+00   1.347860e-02
  1.738524e+00    9.947523e-01   1.323727e-02
  1.740734e+00    9.829710e-01   1.314507e-02
  1.742945e+00    9.557027e-01   1.294827e-02
  1.745155e+00    9.814711e-01   1.310828e-02
  1.747366e+00    9.709555e-01   1.302421e-02
  1.749576e+00    9.557463e-01   1.290833e-02
  1.751787e+00    9.664091e-01   1.296689e-02
  1.753997e+00    9.968092e-01   1.315577e-02
  1.756208e+00    9.995786e-01   1.316066e-02
  1.758418e+00    1.032655e+00   1.336311e-02
  1.760628e+00    1.027841e+00   1.331820e-02
  1.762839e+00    1.000695e+00   1.312769e-02
  1.765049e+00    9.820302e-01   1.299143e-02
  1.767260e+00    9.821298e-01   1.297912e-02
  1.769470e+00    9.949000e-01   1.304998e-02
  1.771681e+00    9.737747e-01   1.289743e-02
  1.773891e+00    9.775419e-01   1.290908e-02
  1.776102e+00    9.722921e-01   1.286135e-02
  1.778312e+00    9.547021e-01   1.273167e-02
  1.780523e+00    9.419117e-01   1.263337e-02
  1.782733e+00    9.603808e-01   1.274379e-02
  1.784944e+00    9.653412e-01   1.276357e-02
  1.787154e+00    9.621508e-01   1.272973e-02
  1.789364e+00    9.600179e-01   1.270293e-02
  1.791575e+00    9.797870e-01   1.282018e-02
  1.793785e+00    9.765017e-01   1.278590e-02
  1.795996e+00    9.421855e-01   1.254658e-02
  1.798206e+00    9.355091e-01   1.248941e-02
  1.800417e+00    9.381053e-01   1.249390e-02
  1.802627e+00    9.341238e-01   1.245529e-02
  1.804838e+00    9.299247e-01   1.241504e-02
  1.807048e+00    9.312671e-01   1.241100e-02
  1.809259e+00    9.267345e-01   1.236701e-02
  1.811469e+00    9.020696e-01   1.218640e-02
  1.813679e+00    8.942869e-01   1.211878e-02
  1.815890e+00    9.018888e-01   1.215542e-02
  1.818100e+00    8.635609e-01   1.187951e-02
  1.820311e+00    8.603601e-01   1.184297e-02
  1.822521e+00    8.669229e-01   1.187339e-02
  1.824732e+00    8.811589e-01   1.195576e-02
  1.826942e+00    8.813311e-01   1.194462e-02
  1.829153e+00    8.855132e-01   1.196125e-02
  1.831363e+00    8.786423e-01   1.190274e-02
  1.833574e+00    8.747562e-01   1.186477e-02
  1.835784e+00    8.649864e-01   1.178698e-02
  1.837994e+00    8.849566e-01   1.191052e-02
  1.840205e+00    8.746526e-01   1.182979e-02
  1.842415e+00    9.014407e-01   1.199762e-02
  1.844626e+00    9.136825e-01   1.206698e-02
  1.846836e+00    8.767568e-01   1.180915e-02
  1.849047e+00    8.569678e-01   1.166356e-02
  1.851257e+00    8.550729e-01   1.164113e-02
  1.853468e+00    8.539816e-01   1.162494e-02
  1.855678e+00    8.441415e-01   1.154898e-02
  1.857889e+00    8.428445e-01   1.153168e-02
  1.860099e+00    8.755336e-01   1.174444e-02
  1.862309e+00    8.735753e-01   1.172273e-02
  1.864520e+00    8.487033e-01   1.154610e-02
  1.866730e+00    8.332903e-01   1.143150e-02
  1.868941e+00    8.589099e-01   1.159491e-02
  1.871151e+00    8.436170e-01   1.147990e-02
  1.873362e+00    8.485714e-01   1.150222e-02
  1.875572e+00    8.455197e-01   1.147061e-02
  1.877783e+00    8.391130e-01   1.141570e-02
  1.879993e+00    8.473967e-01   1.146075e-02
  1.882204e+00    8.438376e-01   1.142577e-02
  1.884414e+00    8.279951e-01   1.130704e-02
  1.886624e+00    8.390394e-01   1.137116e-02
  1.888835e+00    8.331636e-01   1.132035e-02
  1.891045e+00    8.432055e-01   1.137746e-02
  1.893256e+00    8.397642e-01   1.134312e-02
  1.895466e+00    8.439544e-01   1.136018e-02
  1.897677e+00    8.258131e-01   1.122657e-02
  1.899887e+00    8.274176e-01   1.122651e-02
  1.902098e+00    8.382622e-01   1.128897e-02
  1.904308e+00    8.184835e-01   1.114449e-02
  1.906519e+00    8.152528e-01   1.111173e-02
  1.908729e+00    8.243337e-01   1.116285e-02
  1.910940e+00    8.260350e-01   1.116327e-02
  1.913150e+00    8.156473e-01   1.108232e-02
  1.915360e+00    8.192010e-01   1.109586e-02
  1.917571e+00    8.172578e-01   1.107184e-02
  1.919781e+00    8.246343e-01   1.111101e-02
  1.921992e+00    8.028293e-01   1.095261e-02
  1.924202e+00    8.174556e-01   1.104116e-02
  1.926413e+00    8.102449e-01   1.098211e-02
  1.928623e+00    7.939032e-01   1.086037e-02
  1.930834e+00    8.199440e-01   1.102657e-02
  1.933044e+00    8.149594e-01   1.098235e-02
  1.935255e+00    8.016974e-01   1.088231e-02
  1.937465e+00    8.047876e-01   1.089290e-02
  1.939675e+00    8.186520e-01   1.097540e-02
  1.941886e+00    7.967558e-01   1.081741e-02
  1.944096e+00    8.039464e-01   1.085592e-02
  1.946307e+00    8.003120e-01   1.082102e-02
  1.948517e+00    8.011186e-01   1.081602e-02
  1.950728e+00    8.002958e-01   1.080021e-02
  1.952938e+00    8.074168e-01   1.083801e-02
  1.955149e+00    7.940088e-01   1.073742e-02
  1.957359e+00    7.878009e-01   1.068538e-02
  1.959570e+00    7.878614e-01   1.067496e-02
  1.961780e+00    7.820910e-01   1.062595e-02
  1.963990e+00    8.000736e-01   1.073724e-02
  1.966201e+00    8.063890e-01   1.076939e-02
  1.968411e+00    7.906651e-01   1.065371e-02
  1.970622e+00    7.975094e-01   1.068956e-02
  1.972832e+00    7.877235e-01   1.061382e-02
  1.975043e+00    7.885457e-01   1.060928e-02
  1.977253e+00    7.961027e-01   1.064998e-02
  1.979464e+00    7.983440e-01   1.065483e-02
  1.981674e+00    8.028590e-01   1.067453e-02
  1.983885e+00    7.702926e-01   1.044586e-02
  1.986095e+00    7.881631e-01   1.055656e-02
  1.988305e+00    7.949898e-01   1.059220e-02
  1.990516e+00    7.886003e-01   1.053957e-02
  1.992726e+00    7.829833e-01   1.049225e-02
  1.994937e+00    7.853315e-01   1.049780e-02
  1.997147e+00    7.631745e-01   1.033900e-02
  1.999358e+00    7.727205e-01   1.039361e-02
  2.001568e+00    7.779253e-01   1.041772e-02
  2.003779e+00    7.980713e-01   1.053963e-02
  2.005989e+00    8.040115e-01   1.056652e-02
  2.008200e+00    7.955446e-01   1.049903e-02
  2.010410e+00    7.745301e-01   1.034765e-02
  2.012621e+00    7.582757e-01   1.022686e-02
  2.014831e+00    7.591533e-01   1.022136e-02
  2.017041e+00    7.807854e-01   1.035550e-02
  2.019252e+00    7.755405e-01   1.031063e-02
  2.021462e+00    7.739005e-01   1.029016e-02
  2.023673e+00    7.775040e-01   1.030463e-02
  2.025883e+00    7.761481e-01   1.028603e-02
  2.028094e+00    7.774467e-01   1.028490e-02
  2.030304e+00    7.702019e-01   1.022729e-02
  2.032515e+00    7.634626e-01   1.017310e-02
  2.034725e+00    7.762381e-01   1.024834e-02
  2.036936e+00    7.532507e-01   1.008615e-02
  2.039146e+00    7.359146e-01   9.959960e-03
  2.041356e+00    7.635854e-01   1.013579e-02
  2.043567e+00    7.608159e-01   1.010808e-02
  2.045777e+00    7.435057e-01   9.983222e-03
  2.047988e+00    7.577174e-01   1.006881e-02
  2.050198e+00    7.415069e-01   9.952166e-03
  2.052409e+00    7.471114e-01   9.982062e-03
  2.054619e+00    7.490674e-01   9.987770e-03
  2.056830e+00    7.498798e-01   9.986007e-03
  2.059040e+00    7.554492e-01   1.001549e-02
  2.061251e+00    7.589029e-01   1.003106e-02
  2.063461e+00    7.515363e-01   9.974662e-03
  2.065671e+00    7.411857e-01   9.897054e-03
  2.067882e+00    7.298702e-01   9.812333e-03
  2.070092e+00    7.349679e-01   9.837413e-03
  2.072303e+00    7.480828e-01   9.915643e-03
  2.074513e+00    7.552496e-01   9.953645e-03
  2.076724e+00    7.608402e-01   9.980856e-03
  2.078934e+00    7.675834e-01   1.001584e-02
  2.081145e+00    7.577896e-01   9.942575e-03
  2.083355e+00    7.539598e-01   9.908148e-03
  2.085566e+00    7.505983e-01   9.877092e-03
  2.087776e+00    7.462412e-01   9.838815e-03
  2.089986e+00    7.556412e-01   9.891710e-03
  2.092197e+00    7.511825e-01   9.853446e-03
  2.094407e+00    7.573190e-01   9.884246e-03
  2.096618e+00    7.593948e-01   9.888745e-03
  2.098828e+00    7.533699e-01   9.840011e-03
  2.101039e+00    7.360383e-01   9.717174e-03
  2.103249e+00    7.384952e-01   9.724660e-03
  2.105460e+00    7.270475e-01   9.639986e-03
  2.107670e+00    7.389363e-01   9.709699e-03
  2.109881e+00    7.256083e-01   9.612566e-03
  2.112091e+00    7.500005e-01   9.763675e-03
  2.114301e+00    7.361725e-01   9.664403e-03
  2.116512e+00    7.162022e-01   9.523669e-03
  2.118722e+00    7.175444e-01   9.523768e-03
  2.120933e+00    7.367845e-01   9.641659e-03
  2.123143e+00    7.166602e-01   9.500193e-03
  2.125354e+00    7.126642e-01   9.465152e-03
  2.127564e+00    7.189268e-01   9.497907e-03
  2.129775e+00    7.210665e-01   9.503274e-03
  2.131985e+00    7.171396e-01   9.468291e-03
  2.134196e+00    7.164714e-01   9.455255e-03
  2.136406e+00    7.345296e-01   9.564797e-03
  2.138617e+00    7.390692e-01   9.585698e-03
  2.140827e+00    7.051834e-01   9.379378e-03
  2.143037e+00    7.147870e-01   9.488752e-03
  2.145248e+00    6.992860e-01   9.407208e-03
  2.147458e+00    7.146937e-01   9.525505e-03
  2.149669e+00    7.181290e-01   9.560375e-03
  2.151879e+00    7.092969e-01   9.510661e-03
  2.154090e+00    6.933178e-01   9.410211e-03
  2.156300e+00    6.929004e-01   9.413931e-03
  2.158511e+00    6.902714e-01   9.401318e-03
  2.160721e+00    7.011104e-01   9.479675e-03
  2.162932e+00    7.044579e-01   9.506033e-03
  2.165142e+00    7.107291e-01   9.551308e-03
  2.167352e+00    7.032775e-01   9.504035e-03
  2.169563e+00    7.111666e-01   9.559160e-03
  2.171773e+00    6.983309e-01   9.474974e-03
  2.173984e+00    6.930178e-01   9.440256e-03
  2.176194e+00    6.997613e-01   9.487289e-03
  2.178405e+00    6.869639e-01   9.400831e-03
  2.180615e+00    6.954761e-01   9.459572e-03
  2.182826e+00    6.954446e-01   9.460028e-03
  2.185036e+00    6.967118e-01   9.468718e-03
  2.187247e+00    6.838821e-01   9.381080e-03
  2.189457e+00    6.922969e-01   9.438189e-03
  2.191667e+00    6.975764e-01   9.473946e-03
  2.193878e+00    6.996120e-01   9.487185e-03
  2.196088e+00    6.687381e-01   9.274831e-03
  2.198299e+00    6.903979e-01   9.422698e-03
  2.200509e+00    6.805958e-01   9.354557e-03
  2.202720e+00    6.896356e-01   9.415281e-03
  2.204930e+00    6.967598e-01   9.462564e-03
  2.207141e+00    6.737770e-01   9.304081e-03
  2.209351e+00    6.864901e-01   9.389529e-03
  2.211562e+00    6.961016e-01   9.453419e-03
  2.213772e+00    6.762437e-01   9.262139e-03
  2.215982e+00    6.898518e-01   9.310185e-03
  2.218193e+00    6.864633e-01   9.257454e-03
  2.220403e+00    6.842906e-01   9.218011e-03
  2.222614e+00    6.746512e-01   9.131917e-03
  2.224824e+00    6.630536e-01   9.033831e-03
  2.227035e+00    6.681733e-01   9.051261e-03
  2.229245e+00    6.707033e-01   9.051429e-03
  2.231456e+00    6.654083e-01   9.000082e-03
  2.233666e+00    6.689897e-01   9.009190e-03
  2.235877e+00    6.560245e-01   8.907374e-03
  2.238087e+00    6.553649e-01   8.889525e-03
  2.240298e+00    6.648078e-01   8.939656e-03
  2.242508e+00    6.517159e-01   8.836234e-03
  2.244718e+00    6.628219e-01   8.895476e-03
  2.246929e+00    6.719238e-01   8.941877e-03
  2.249139e+00    6.631494e-01   8.870979e-03
  2.251350e+00    6.662343e-01   8.879863e-03
  2.253560e+00    6.765534e-01   8.936731e-03
  2.255771e+00    6.659245e-01   8.854850e-03
  2.257981e+00    6.670518e-01   8.851128e-03
  2.260192e+00    6.759067e-01   8.898493e-03
  2.262402e+00    6.696609e-01   8.846382e-03
  2.264613e+00    6.689840e-01   8.831033e-03
  2.266823e+00    6.606324e-01   8.765350e-03
  2.269033e+00    6.759850e-01   8.856137e-03
  2.271244e+00    6.817272e-01   8.883131e-03
  2.273454e+00    6.845707e-01   8.891207e-03
  2.275665e+00    6.566703e-01   8.697890e-03
  2.277875e+00    6.506143e-01   8.647814e-03
  2.280086e+00    6.688902e-01   8.758338e-03
  2.282296e+00    6.577838e-01   8.675927e-03
  2.284507e+00    6.694624e-01   8.742388e-03
  2.286717e+00    6.599853e-01   8.670816e-03
  2.288928e+00    6.476092e-01   8.579323e-03
  2.291138e+00    6.644679e-01   8.680813e-03
  2.293348e+00    6.563533e-01   8.618082e-03
  2.295559e+00    6.548660e-01   8.599017e-03
  2.297769e+00    6.663091e-01   8.664494e-03
  2.299980e+00    6.409299e-01   8.488634e-03
  2.302190e+00    6.604208e-01   8.607551e-03
  2.304401e+00    6.448984e-01   8.496528e-03
  2.306611e+00    6.634205e-01   8.608411e-03
  2.308822e+00    6.394426e-01   8.443104e-03
  2.311032e+00    6.464111e-01   8.482549e-03
  2.313243e+00    6.366474e-01   8.412029e-03
  2.315453e+00    6.418500e-01   8.438808e-03
  2.317663e+00    6.468694e-01   8.462613e-03
  2.319874e+00    6.492761e-01   8.469597e-03
  2.322084e+00    6.429068e-01   8.418998e-03
  2.324295e+00    6.517925e-01   8.468732e-03
  2.326505e+00    6.457978e-01   8.420609e-03
  2.328716e+00    6.529436e-01   8.458482e-03
  2.330926e+00    6.416230e-01   8.376039e-03
  2.333137e+00    6.310340e-01   8.298331e-03
  2.335347e+00    6.430511e-01   8.368078e-03
  2.337558e+00    6.472037e-01   8.386796e-03
  2.339768e+00    6.339705e-01   8.292085e-03
  2.341979e+00    6.385285e-01   8.313457e-03
  2.344189e+00    6.456158e-01   8.351030e-03
  2.346399e+00    6.292049e-01   8.235770e-03
  2.348610e+00    6.194048e-01   8.163017e-03
  2.350820e+00    6.349300e-01   8.256515e-03
  2.353031e+00    6.321865e-01   8.230372e-03
  2.355241e+00    6.365151e-01   8.250433e-03
  2.357452e+00    6.475829e-01   8.313333e-03
  2.359662e+00    6.360310e-01   8.230612e-03
  2.361873e+00    6.287164e-01   8.174912e-03
  2.364083e+00    6.276747e-01   8.160162e-03
  2.366294e+00    6.253431e-01   8.136897e-03
  2.368504e+00    6.196630e-01   8.091837e-03
  2.370714e+00    6.110657e-01   8.027528e-03
  2.372925e+00    6.265969e-01   8.120850e-03
  2.375135e+00    6.243088e-01   8.097954e-03
  2.377346e+00    6.188033e-01   8.054252e-03
  2.379556e+00    6.264753e-01   8.096117e-03
  2.381767e+00    6.203509e-01   8.048575e-03
  2.383977e+00    6.148261e-01   8.004776e-03
  2.386188e+00    6.190968e-01   8.024602e-03
  2.388398e+00    6.173071e-01   8.005052e-03
  2.390609e+00    6.129775e-01   7.969228e-03
  2.392819e+00    6.246794e-01   8.037109e-03
  2.395029e+00    6.183873e-01   7.988858e-03
  2.397240e+00    6.149648e-01   7.958831e-03
  2.399450e+00    6.095902e-01   7.916217e-03
  2.401661e+00    6.029789e-01   7.865538e-03
  2.403871e+00    6.068999e-01   7.883342e-03
  2.406082e+00    6.015154e-01   7.840905e-03
  2.408292e+00    6.090347e-01   7.881976e-03
  2.410503e+00    6.050296e-01   7.848537e-03
  2.412713e+00    6.136506e-01   7.896434e-03
  2.414924e+00    5.999321e-01   7.800217e-03
  2.417134e+00    6.042806e-01   7.820805e-03
  2.419344e+00    5.986534e-01   7.776928e-03
  2.421555e+00    6.068895e-01   7.822683e-03
  2.423765e+00    6.177825e-01   7.885078e-03
  2.425976e+00    6.091105e-01   7.821676e-03
  2.428186e+00    5.914248e-01   7.700131e-03
  2.430397e+00    5.858315e-01   7.656191e-03
  2.432607e+00    5.990341e-01   7.734698e-03
  2.434818e+00    5.976468e-01   7.718169e-03
  2.437028e+00    6.052520e-01   7.759928e-03
  2.439239e+00    6.050503e-01   7.750886e-03
  2.441449e+00    6.099725e-01   7.775064e-03
  2.443659e+00    5.892959e-01   7.634803e-03
  2.445870e+00    5.922089e-01   7.665928e-03
  2.448080e+00    5.828036e-01   7.639601e-03
  2.450291e+00    5.701518e-01   7.572746e-03
  2.452501e+00    5.741953e-01   7.610665e-03
  2.454712e+00    5.930486e-01   7.743196e-03
  2.456922e+00    5.716434e-01   7.608801e-03
  2.459133e+00    5.666596e-01   7.580970e-03
  2.461343e+00    5.742695e-01   7.636098e-03
  2.463554e+00    5.733012e-01   7.633158e-03
  2.465764e+00    5.540046e-01   7.506711e-03
  2.467975e+00    5.474637e-01   7.464507e-03
  2.470185e+00    5.597427e-01   7.550014e-03
  2.472395e+00    5.621982e-01   7.567787e-03
  2.474606e+00    5.586873e-01   7.545698e-03
  2.476816e+00    5.642301e-01   7.583776e-03
  2.479027e+00    5.388032e-01   7.411771e-03
  2.481237e+00    5.364134e-01   7.395573e-03
  2.483448e+00    5.413796e-01   7.430045e-03
  2.485658e+00    5.546201e-01   7.520189e-03
  2.487869e+00    5.464442e-01   7.464624e-03
  2.490079e+00    5.316032e-01   7.362026e-03
  2.492290e+00    5.418524e-01   7.432227e-03
  2.494500e+00    5.363286e-01   7.393516e-03
  2.496710e+00    5.394711e-01   7.414430e-03
  2.498921e+00    5.429752e-01   7.437506e-03
  2.501131e+00    5.253116e-01   7.314577e-03
  2.503342e+00    5.156032e-01   7.245420e-03
  2.505552e+00    5.263643e-01   7.319505e-03
  2.507763e+00    5.275201e-01   7.326141e-03
  2.509973e+00    5.216494e-01   7.283865e-03
  2.512184e+00    5.321534e-01   7.355211e-03
  2.514394e+00    5.256952e-01   7.301104e-03
  2.516605e+00    5.209827e-01   7.221487e-03
  2.518815e+00    5.181939e-01   7.174010e-03
  2.521025e+00    5.354309e-01   7.271187e-03
  2.523236e+00    5.440066e-01   7.310900e-03
  2.525446e+00    5.474829e-01   7.318289e-03
  2.527657e+00    5.283129e-01   7.174401e-03
  2.529867e+00    5.213454e-01   7.112785e-03
  2.532078e+00    5.217710e-01   7.100692e-03
  2.534288e+00    5.347764e-01   7.174624e-03
  2.536499e+00    5.319452e-01   7.143596e-03
  2.538709e+00    5.239961e-01   7.079032e-03
  2.540920e+00    5.231064e-01   7.062367e-03
  2.543130e+00    5.241405e-01   7.058992e-03
  2.545340e+00    5.260218e-01   7.061566e-03
  2.547551e+00    5.303082e-01   7.080252e-03
  2.549761e+00    5.387401e-01   7.126597e-03
  2.551972e+00    5.186871e-01   6.983386e-03
  2.554182e+00    5.271953e-01   7.031188e-03
  2.556393e+00    5.368334e-01   7.085938e-03
  2.558603e+00    5.372161e-01   7.079249e-03
  2.560814e+00    5.317345e-01   7.034240e-03
  2.563024e+00    5.094629e-01   6.876874e-03
  2.565235e+00    5.056858e-01   6.841907e-03
  2.567445e+00    5.185546e-01   6.918896e-03
  2.569656e+00    5.253636e-01   6.954343e-03
  2.571866e+00    5.096385e-01   6.840204e-03
  2.574076e+00    5.083413e-01   6.822302e-03
  2.576287e+00    5.221384e-01   6.905868e-03
  2.578497e+00    5.191340e-01   6.878131e-03
  2.580708e+00    5.058260e-01   6.781378e-03
  2.582918e+00    5.237300e-01   6.892509e-03
  2.585129e+00    5.268606e-01   6.905247e-03
  2.587339e+00    5.169383e-01   6.832232e-03
  2.589550e+00    5.039032e-01   6.738044e-03
  2.591760e+00    5.027907e-01   6.722925e-03
  2.593971e+00    5.030546e-01   6.717238e-03
  2.596181e+00    5.036708e-01   6.715162e-03
  2.598391e+00    5.082614e-01   6.740523e-03
  2.600602e+00    5.091446e-01   6.740474e-03
  2.602812e+00    5.195957e-01   6.801677e-03
  2.605023e+00    5.192273e-01   6.792026e-03
  2.607233e+00    5.288934e-01   6.847684e-03
  2.609444e+00    5.156552e-01   6.754158e-03
  2.611654e+00    4.962580e-01   6.618659e-03
  2.613865e+00    5.019051e-01   6.649192e-03
  2.616075e+00    5.058118e-01   6.667880e-03
  2.618286e+00    5.106553e-01   6.692714e-03
  2.620496e+00    5.066125e-01   6.659446e-03
  2.622706e+00    5.142370e-01   6.703576e-03
  2.624917e+00    5.202453e-01   6.736703e-03
  2.627127e+00    5.077827e-01   6.649754e-03
  2.629338e+00    5.074184e-01   6.641366e-03
  2.631548e+00    5.039125e-01   6.612216e-03
  2.633759e+00    4.951992e-01   6.547701e-03
  2.635969e+00    5.026176e-01   6.589865e-03
  2.638180e+00    5.199731e-01   6.695554e-03
  2.640390e+00    5.019231e-01   6.571733e-03
  2.642601e+00    4.891059e-01   6.480685e-03
  2.644811e+00    4.972483e-01   6.527345e-03
  2.647021e+00    5.023726e-01   6.554313e-03
  2.649232e+00    5.038606e-01   6.557274e-03
  2.651442e+00    4.927084e-01   6.477830e-03
  2.653653e+00    5.133745e-01   6.605398e-03
  2.655863e+00    5.107717e-01   6.581867e-03
  2.658074e+00    5.082963e-01   6.559224e-03
  2.660284e+00    4.924854e-01   6.450082e-03
  2.662495e+00    5.001823e-01   6.493508e-03
  2.664705e+00    5.010579e-01   6.492599e-03
  2.666916e+00    4.913508e-01   6.422970e-03
  2.669126e+00    4.981911e-01   6.461050e-03
  2.671337e+00    5.109885e-01   6.536812e-03
  2.673547e+00    4.992833e-01   6.455136e-03
  2.675757e+00    4.891514e-01   6.382866e-03
  2.677968e+00    4.996423e-01   6.444398e-03
  2.680178e+00    4.895952e-01   6.372901e-03
  2.682389e+00    4.890442e-01   6.362949e-03
  2.684599e+00    4.881476e-01   6.350953e-03
  2.686810e+00    4.854375e-01   6.326728e-03
  2.689020e+00    4.911393e-01   6.357505e-03
  2.691231e+00    5.030524e-01   6.427763e-03
  2.693441e+00    5.007970e-01   6.407139e-03
  2.695652e+00    5.056961e-01   6.431790e-03
  2.697862e+00    4.972089e-01   6.371185e-03
  2.700072e+00    5.037507e-01   6.406812e-03
  2.702283e+00    4.953593e-01   6.346961e-03
  2.704493e+00    4.887051e-01   6.297900e-03
  2.706704e+00    4.804703e-01   6.238264e-03
  2.708914e+00    4.944077e-01   6.322085e-03
  2.711125e+00    4.908462e-01   6.293011e-03
  2.713335e+00    4.938938e-01   6.306395e-03
  2.715546e+00    4.831734e-01   6.231130e-03
  2.717756e+00    4.919487e-01   6.281533e-03
  2.719967e+00    4.911390e-01   6.270144e-03
  2.722177e+00    4.809897e-01   6.198897e-03
  2.724387e+00    4.923356e-01   6.265454e-03
  2.726598e+00    4.828782e-01   6.198935e-03
  2.728808e+00    4.886315e-01   6.229578e-03
  2.731019e+00    4.822966e-01   6.182969e-03
  2.733229e+00    4.827622e-01   6.180144e-03
  2.735440e+00    4.911609e-01   6.227355e-03
  2.737650e+00    4.868728e-01   6.194085e-03
  2.739861e+00    4.820017e-01   6.156953e-03
  2.742071e+00    4.751290e-01   6.107218e-03
  2.744282e+00    4.734262e-01   6.090055e-03
  2.746492e+00    4.772317e-01   6.108489e-03
  2.748702e+00    4.930815e-01   6.203113e-03
  2.750913e+00    5.059947e-01   6.277897e-03
  2.753123e+00    4.828323e-01   6.126398e-03
  2.755334e+00    4.855534e-01   6.137534e-03
  2.757544e+00    4.801264e-01   6.097392e-03
  2.759755e+00    4.907615e-01   6.158611e-03
  2.761965e+00    4.939074e-01   6.172255e-03
  2.764176e+00    4.853615e-01   6.112603e-03
  2.766386e+00    4.849769e-01   6.104351e-03
  2.768597e+00    4.854335e-01   6.101337e-03
  2.770807e+00    4.740469e-01   6.023506e-03
  2.773017e+00    4.739379e-01   6.016875e-03
  2.775228e+00    4.816670e-01   6.059929e-03
  2.777438e+00    4.798877e-01   6.042914e-03
  2.779649e+00    4.951431e-01   6.132223e-03
  2.781859e+00    4.824725e-01   6.047452e-03
  2.784070e+00    4.867992e-01   6.068598e-03
  2.786280e+00    4.767465e-01   5.999847e-03
  2.788491e+00    4.669103e-01   5.931851e-03
  2.790701e+00    4.702131e-01   5.947186e-03
  2.792912e+00    4.730611e-01   5.959221e-03
  2.795122e+00    4.884736e-01   6.049718e-03
  2.797333e+00    4.744132e-01   5.956457e-03
  2.799543e+00    4.740218e-01   5.948158e-03
  2.801753e+00    4.798048e-01   5.978425e-03
  2.803964e+00    4.803579e-01   5.976201e-03
  2.806174e+00    4.756375e-01   5.940604e-03
  2.808385e+00    4.793855e-01   5.957133e-03
  2.810595e+00    4.760562e-01   5.929537e-03
  2.812806e+00    4.697488e-01   5.883562e-03
  2.815016e+00    4.683467e-01   5.870041e-03
  2.817227e+00    4.713962e-01   5.914986e-03
  2.819437e+00    4.713097e-01   5.925496e-03
  2.821648e+00    4.605145e-01   5.859499e-03
  2.823858e+00    4.606919e-01   5.865892e-03
  2.826068e+00    4.667352e-01   5.909188e-03
  2.828279e+00    4.702355e-01   5.935325e-03
  2.830489e+00    4.716555e-01   5.947627e-03
  2.832700e+00    4.665813e-01   5.918095e-03
  2.834910e+00    4.576860e-01   5.863423e-03
  2.837121e+00    4.700072e-01   5.943545e-03
  2.839331e+00    4.704051e-01   5.947293e-03
  2.841542e+00    4.675290e-01   5.930088e-03
  2.843752e+00    4.624148e-01   5.898343e-03
  2.845963e+00    4.754621e-01   5.981372e-03
  2.848173e+00    4.903058e-01   6.074107e-03
  2.850383e+00    4.727571e-01   5.964742e-03
  2.852594e+00    4.575205e-01   5.867741e-03
  2.854804e+00    4.607306e-01   5.887783e-03
  2.857015e+00    4.622629e-01   5.897131e-03
  2.859225e+00    4.640859e-01   5.908499e-03
  2.861436e+00    4.744535e-01   5.973481e-03
  2.863646e+00    4.657725e-01   5.918620e-03
  2.865857e+00    4.608605e-01   5.887657e-03
  2.868067e+00    4.661498e-01   5.921568e-03
  2.870278e+00    4.792993e-01   6.004149e-03
  2.872488e+00    4.749290e-01   5.975549e-03
  2.874698e+00    4.495577e-01   5.812735e-03
  2.876909e+00    4.430006e-01   5.768861e-03
  2.879119e+00    4.645325e-01   5.905767e-03
  2.881330e+00    4.699093e-01   5.938378e-03
  2.883540e+00    4.707047e-01   5.942002e-03
  2.885751e+00    4.669598e-01   5.916646e-03
  2.887961e+00    4.774226e-01   5.980673e-03
  2.890172e+00    4.677511e-01   5.918160e-03
  2.892382e+00    4.657332e-01   5.903577e-03
  2.894593e+00    4.725103e-01   5.944519e-03
  2.896803e+00    4.605478e-01   5.866823e-03
  2.899014e+00    4.565730e-01   5.839534e-03
  2.901224e+00    4.610673e-01   5.866214e-03
  2.903434e+00    4.674535e-01   5.904749e-03
  2.905645e+00    4.598995e-01   5.854608e-03
  2.907855e+00    4.695834e-01   5.913814e-03
  2.910066e+00    4.635010e-01   5.873299e-03
  2.912276e+00    4.591004e-01   5.843235e-03
  2.914487e+00    4.489810e-01   5.776031e-03
  2.916697e+00    4.724157e-01   5.922607e-03
  2.918908e+00    4.542848e-01   5.805847e-03
  2.921118e+00    4.693096e-01   5.898348e-03
  2.923329e+00    4.566200e-01   5.815760e-03
  2.925539e+00    4.553111e-01   5.805126e-03
  2.927749e+00    4.612236e-01   5.840378e-03
  2.929960e+00    4.534679e-01   5.788298e-03
  2.932170e+00    4.677279e-01   5.876251e-03
  2.934381e+00    4.594629e-01   5.821662e-03
  2.936591e+00    4.657626e-01   5.858810e-03
  2.938802e+00    4.535313e-01   5.778695e-03
  2.941012e+00    4.753205e-01   5.913472e-03
  2.943223e+00    4.672971e-01   5.860629e-03
  2.945433e+00    4.530470e-01   5.766868e-03
  2.947644e+00    4.605728e-01   5.810384e-03
  2.949854e+00    4.596278e-01   5.800155e-03
  2.952064e+00    4.571279e-01   5.780115e-03
  2.954275e+00    4.586810e-01   5.785497e-03
  2.956485e+00    4.507477e-01   5.731088e-03
  2.958696e+00    4.603634e-01   5.787484e-03
  2.960906e+00    4.565431e-01   5.759239e-03
  2.963117e+00    4.561709e-01   5.752393e-03
  2.965327e+00    4.609148e-01   5.778302e-03
  2.967538e+00    4.651248e-01   5.801678e-03
  2.969748e+00    4.646857e-01   5.796090e-03
  2.971959e+00    4.605600e-01   5.767157e-03
  2.974169e+00    4.583158e-01   5.750483e-03
  2.976379e+00    4.608826e-01   5.763635e-03
  2.978590e+00    4.437920e-01   5.652654e-03
  2.980800e+00    4.628578e-01   5.769962e-03
  2.983011e+00    4.625931e-01   5.765513e-03
  2.985221e+00    4.575102e-01   5.730567e-03
  2.987432e+00    4.633546e-01   5.763920e-03
  2.989642e+00    4.463544e-01   5.654600e-03
  2.991853e+00    4.577942e-01   5.723284e-03
  2.994063e+00    4.507557e-01   5.676235e-03
  2.996274e+00    4.432525e-01   5.625654e-03
  2.998484e+00    4.482110e-01   5.654335e-03
  3.000694e+00    4.606911e-01   5.729032e-03
  3.002905e+00    4.559855e-01   5.696772e-03
  3.005115e+00    4.505948e-01   5.660022e-03
  3.007326e+00    4.565671e-01   5.694224e-03
  3.009536e+00    4.633016e-01   5.732795e-03
  3.011747e+00    4.540542e-01   5.672385e-03
  3.013957e+00    4.509039e-01   5.649477e-03
  3.016168e+00    4.463937e-01   5.617940e-03
  3.018378e+00    4.539057e-01   5.661941e-03
  3.020589e+00    4.603512e-01   5.698768e-03
  3.022799e+00    4.498300e-01   5.630132e-03
  3.025010e+00    4.549980e-01   5.659116e-03
  3.027220e+00    4.567450e-01   5.666853e-03
  3.029430e+00    4.581287e-01   5.672164e-03
  3.031641e+00    4.620266e-01   5.693069e-03
  3.033851e+00    4.492085e-01   5.610044e-03
  3.036062e+00    4.554204e-01   5.645889e-03
  3.038272e+00    4.416910e-01   5.556617e-03
  3.040483e+00    4.466621e-01   5.584583e-03
  3.042693e+00    4.518811e-01   5.613852e-03
  3.044904e+00    4.576219e-01   5.645335e-03
  3.047114e+00    4.587031e-01   5.647171e-03
  3.049325e+00    4.501146e-01   5.589661e-03
  3.051535e+00    4.540374e-01   5.609551e-03
  3.053745e+00    4.413979e-01   5.526219e-03
  3.055956e+00    4.478144e-01   5.561694e-03
  3.058166e+00    4.436723e-01   5.531657e-03
  3.060377e+00    4.545113e-01   5.594048e-03
  3.062587e+00    4.438890e-01   5.523678e-03
  3.064798e+00    4.609393e-01   5.624471e-03
  3.067008e+00    4.417503e-01   5.501453e-03
  3.069219e+00    4.648547e-01   5.638915e-03
  3.071429e+00    4.585601e-01   5.597050e-03
  3.073640e+00    4.607686e-01   5.607150e-03
  3.075850e+00    4.525816e-01   5.553515e-03
  3.078060e+00    4.540524e-01   5.559398e-03
  3.080271e+00    4.578952e-01   5.579371e-03
  3.082481e+00    4.529424e-01   5.545653e-03
  3.084692e+00    4.458288e-01   5.498563e-03
  3.086902e+00    4.645396e-01   5.609448e-03
  3.089113e+00    4.530040e-01   5.535788e-03
  3.091323e+00    4.549964e-01   5.544540e-03
  3.093534e+00    4.506996e-01   5.514920e-03
  3.095744e+00    4.430457e-01   5.464530e-03
  3.097955e+00    4.522218e-01   5.517259e-03
  3.100165e+00    4.438988e-01   5.462940e-03
  3.102375e+00    4.440817e-01   5.460647e-03
  3.104586e+00    4.463853e-01   5.471302e-03
  3.106796e+00    4.400703e-01   5.428978e-03
  3.109007e+00    4.554938e-01   5.520016e-03
  3.111217e+00    4.554470e-01   5.516036e-03
  3.113428e+00    4.555275e-01   5.513054e-03
  3.115638e+00    4.537742e-01   5.499179e-03
  3.117849e+00    4.537610e-01   5.495344e-03
  3.120059e+00    4.489227e-01   5.462476e-03
  3.122270e+00    4.523976e-01   5.480292e-03
  3.124480e+00    4.422638e-01   5.414914e-03
  3.126691e+00    4.393468e-01   5.393450e-03
  3.128901e+00    4.428601e-01   5.411874e-03
  3.131111e+00    4.574779e-01   5.496562e-03
  3.133322e+00    4.482006e-01   5.437100e-03
  3.135532e+00    4.461986e-01   5.421524e-03
  3.137743e+00    4.376552e-01   5.365912e-03
  3.139953e+00    4.421888e-01   5.389949e-03
  3.142164e+00    4.606408e-01   5.513509e-03
  3.144374e+00    4.469043e-01   5.459249e-03
  3.146585e+00    4.479181e-01   5.480078e-03
  3.148795e+00    4.512543e-01   5.511332e-03
  3.151006e+00    4.489151e-01   5.505659e-03
  3.153216e+00    4.399385e-01   5.457442e-03
  3.155426e+00    4.385744e-01   5.455268e-03
  3.157637e+00    4.406594e-01   5.473745e-03
  3.159847e+00    4.451715e-01   5.506596e-03
  3.162058e+00    4.484797e-01   5.531478e-03
  3.164268e+00    4.568512e-01   5.587027e-03
  3.166479e+00    4.613076e-01   5.617948e-03
  3.168689e+00    4.470493e-01   5.533835e-03
  3.170900e+00    4.658013e-01   5.651962e-03
  3.173110e+00    4.644376e-01   5.646663e-03
  3.175321e+00    4.467414e-01   5.540546e-03
  3.177531e+00    4.399601e-01   5.501084e-03
  3.179741e+00    4.377758e-01   5.489481e-03
  3.181952e+00    4.269710e-01   5.423401e-03
  3.184162e+00    4.342463e-01   5.471586e-03
  3.186373e+00    4.487030e-01   5.563532e-03
  3.188583e+00    4.458839e-01   5.547853e-03
  3.190794e+00    4.394750e-01   5.509596e-03
  3.193004e+00    4.361268e-01   5.489797e-03
  3.195215e+00    4.458701e-01   5.552304e-03
  3.197425e+00    4.344323e-01   5.481856e-03
  3.199636e+00    4.313109e-01   5.461332e-03
  3.201846e+00    4.331685e-01   5.472494e-03
  3.204056e+00    4.285821e-01   5.444331e-03
  3.206267e+00    4.177889e-01   5.376160e-03
  3.208477e+00    4.226268e-01   5.408118e-03
  3.210688e+00    4.189447e-01   5.385331e-03
  3.212898e+00    4.200512e-01   5.393007e-03
  3.215109e+00    4.186515e-01   5.384752e-03
  3.217319e+00    4.269309e-01   5.438377e-03
  3.219530e+00    4.261805e-01   5.433978e-03
  3.221740e+00    4.249828e-01   5.426894e-03
  3.223951e+00    4.463154e-01   5.561905e-03
  3.226161e+00    4.308185e-01   5.464714e-03
  3.228372e+00    4.290329e-01   5.453858e-03
  3.230582e+00    4.308257e-01   5.465427e-03
  3.232792e+00    4.254072e-01   5.431147e-03
  3.235003e+00    4.260286e-01   5.435364e-03
  3.237213e+00    4.247836e-01   5.427502e-03
  3.239424e+00    4.286286e-01   5.452031e-03
  3.241634e+00    4.293520e-01   5.456748e-03
  3.243845e+00    4.293689e-01   5.456916e-03
  3.246055e+00    4.287025e-01   5.452417e-03
  3.248266e+00    4.391484e-01   5.518651e-03
  3.250476e+00    4.373297e-01   5.506890e-03
  3.252687e+00    4.346943e-01   5.490215e-03
  3.254897e+00    4.369303e-01   5.504171e-03
  3.257107e+00    4.293356e-01   5.455835e-03
  3.259318e+00    4.274680e-01   5.443713e-03
  3.261528e+00    4.274816e-01   5.443660e-03
  3.263739e+00    4.235700e-01   5.418143e-03
  3.265949e+00    4.265960e-01   5.437315e-03
  3.268160e+00    4.424165e-01   5.536838e-03
  3.270370e+00    4.122978e-01   5.344514e-03
  3.272581e+00    4.290302e-01   5.451606e-03
  3.274791e+00    4.476640e-01   5.568206e-03
  3.277002e+00    4.230995e-01   5.412726e-03
  3.279212e+00    4.194566e-01   5.388993e-03
  3.281422e+00    4.219226e-01   5.404231e-03
  3.283633e+00    4.264829e-01   5.432660e-03
  3.285843e+00    4.328115e-01   5.472496e-03
  3.288054e+00    4.385867e-01   5.507938e-03
  3.290264e+00    4.269914e-01   5.434318e-03
  3.292475e+00    4.193507e-01   5.384645e-03
  3.294685e+00    4.253857e-01   5.422616e-03
  3.296896e+00    4.266239e-01   5.429736e-03
  3.299106e+00    4.323296e-01   5.465382e-03
  3.301317e+00    4.168563e-01   5.365668e-03
  3.303527e+00    4.170725e-01   5.366578e-03
  3.305737e+00    4.300385e-01   5.448304e-03
  3.307948e+00    4.343024e-01   5.474594e-03
  3.310158e+00    4.363008e-01   5.486290e-03
  3.312369e+00    4.241312e-01   5.408370e-03
  3.314579e+00    4.129918e-01   5.335961e-03
  3.316790e+00    4.221472e-01   5.394067e-03
  3.319000e+00    4.214490e-01   5.388434e-03
  3.321211e+00    4.323996e-01   5.457363e-03
  3.323421e+00    4.307719e-01   5.445870e-03
  3.325632e+00    4.352622e-01   5.473300e-03
  3.327842e+00    4.157004e-01   5.347964e-03
  3.330052e+00    4.219964e-01   5.387244e-03
  3.332263e+00    4.320266e-01   5.449872e-03
  3.334473e+00    4.264864e-01   5.413882e-03
  3.336684e+00    4.275914e-01   5.419625e-03
  3.338894e+00    4.158706e-01   5.344018e-03
  3.341105e+00    4.095738e-01   5.302182e-03
  3.343315e+00    4.147779e-01   5.334644e-03
  3.345526e+00    4.198729e-01   5.366397e-03
  3.347736e+00    4.195895e-01   5.363188e-03
  3.349947e+00    4.139617e-01   5.326176e-03
  3.352157e+00    4.218375e-01   5.375408e-03
  3.354368e+00    4.225025e-01   5.378360e-03
  3.356578e+00    4.364371e-01   5.465288e-03
  3.358788e+00    4.227884e-01   5.377817e-03
  3.360999e+00    4.303244e-01   5.424263e-03
  3.363209e+00    4.230172e-01   5.377011e-03
  3.365420e+00    4.280518e-01   5.407364e-03
  3.367630e+00    4.238161e-01   5.379530e-03
  3.369841e+00    4.287505e-01   5.409299e-03
  3.372051e+00    4.194955e-01   5.348630e-03
  3.374262e+00    4.052128e-01   5.254370e-03
  3.376472e+00    4.158804e-01   5.320633e-03
  3.378683e+00    4.159718e-01   5.318712e-03
  3.380893e+00    4.235627e-01   5.364691e-03
  3.383103e+00    4.065075e-01   5.252867e-03
  3.385314e+00    4.166710e-01   5.315906e-03
  3.387524e+00    4.196843e-01   5.332348e-03
  3.389735e+00    4.191297e-01   5.326180e-03
  3.391945e+00    4.103962e-01   5.266739e-03
  3.394156e+00    3.991922e-01   5.190193e-03
  3.396366e+00    4.110368e-01   5.263218e-03
  3.398577e+00    4.071805e-01   5.235441e-03
  3.400787e+00    4.147213e-01   5.295672e-03
  3.402998e+00    4.057363e-01   5.275861e-03
  3.405208e+00    4.055545e-01   5.295335e-03
  3.407418e+00    3.895479e-01   5.205351e-03
  3.409629e+00    3.943073e-01   5.250878e-03
  3.411839e+00    4.087248e-01   5.357940e-03
  3.414050e+00    4.095115e-01   5.374242e-03
  3.416260e+00    4.069448e-01   5.367181e-03
  3.418471e+00    4.008728e-01   5.336494e-03
  3.420681e+00    3.930656e-01   5.292795e-03
  3.422892e+00    3.858620e-01   5.251987e-03
  3.425102e+00    3.780051e-01   5.205960e-03
  3.427313e+00    3.855945e-01   5.265098e-03
  3.429523e+00    3.901823e-01   5.303428e-03
  3.431733e+00    3.763530e-01   5.215195e-03
  3.433944e+00    3.815127e-01   5.257261e-03
  3.436154e+00    3.866233e-01   5.298635e-03
  3.438365e+00    3.886499e-01   5.318470e-03
  3.440575e+00    3.935045e-01   5.357645e-03
  3.442786e+00    3.802210e-01   5.272053e-03
  3.444996e+00    3.695273e-01   5.202807e-03
  3.447207e+00    3.551536e-01   5.105778e-03
  3.449417e+00    3.688801e-01   5.244165e-03
  3.451628e+00    3.704307e-01   5.284692e-03
  3.453838e+00    3.804888e-01   5.377466e-03
  3.456049e+00    3.690877e-01   5.320283e-03
  3.458259e+00    3.696138e-01   5.346108e-03
  3.460469e+00    3.677554e-01   5.352445e-03
  3.462680e+00    3.689941e-01   5.380591e-03
  3.464890e+00    3.761060e-01   5.450247e-03
  3.467101e+00    3.710565e-01   5.431060e-03
  3.469311e+00    3.902674e-01   5.586865e-03
  3.471522e+00    3.953848e-01   5.640242e-03
  3.473732e+00    4.002380e-01   5.691126e-03
  3.475943e+00    4.142630e-01   5.806326e-03
  3.478153e+00    3.960146e-01   5.692627e-03
  3.480364e+00    4.074516e-01   5.789609e-03
  3.482574e+00    4.257056e-01   5.933642e-03
  3.484784e+00    4.453422e-01   6.084457e-03
  3.486995e+00    4.384014e-01   6.052367e-03
  3.489205e+00    4.380028e-01   6.064509e-03
  3.491416e+00    4.394539e-01   6.089715e-03
  3.493626e+00    4.426404e-01   6.126428e-03
  3.495837e+00    4.467456e-01   6.169667e-03
  3.498047e+00    4.524969e-01   6.223841e-03
  3.500258e+00    4.731123e-01   6.378965e-03
  3.502468e+00    4.675558e-01   6.356038e-03
  3.504679e+00    4.729934e-01   6.407573e-03
  3.506889e+00    4.682926e-01   6.390137e-03
  3.509099e+00    4.652222e-01   6.383394e-03
  3.511310e+00    4.826590e-01   6.516495e-03
  3.513520e+00    4.770702e-01   6.493003e-03
  3.515731e+00    5.038912e-01   6.687644e-03
  3.517941e+00    4.851432e-01   6.576393e-03
  3.520152e+00    5.005903e-01   6.694623e-03
  3.522362e+00    5.119359e-01   6.784726e-03
  3.524573e+00    4.952725e-01   6.687535e-03
  3.526783e+00    5.125658e-01   6.816611e-03
  3.528994e+00    5.330582e-01   6.964010e-03
  3.531204e+00    5.382589e-01   7.010559e-03
  3.533414e+00    5.304376e-01   6.971569e-03
  3.535625e+00    5.472466e-01   7.093757e-03
  3.537835e+00    5.436020e-01   7.082330e-03
  3.540046e+00    5.646278e-01   7.227193e-03
  3.542256e+00    5.506628e-01   7.144864e-03
  3.544467e+00    5.627069e-01   7.230421e-03
  3.546677e+00    5.387433e-01   7.082365e-03
  3.548888e+00    5.425443e-01   7.114884e-03
  3.551098e+00    5.311863e-01   7.047202e-03
  3.553309e+00    5.474328e-01   7.162462e-03
  3.555519e+00    5.456609e-01   7.162242e-03
  3.557729e+00    5.503083e-01   7.204557e-03
  3.559940e+00    5.506897e-01   7.218782e-03
  3.562150e+00    5.438851e-01   7.185802e-03
  3.564361e+00    5.543067e-01   7.267900e-03
  3.566571e+00    5.467058e-01   7.231837e-03
  3.568782e+00    5.412818e-01   7.210081e-03
  3.570992e+00    5.446715e-01   7.246486e-03
  3.573203e+00    5.302274e-01   7.163816e-03
  3.575413e+00    5.438573e-01   7.269173e-03
  3.577624e+00    5.419904e-01   7.270902e-03
  3.579834e+00    5.352683e-01   7.239549e-03
  3.582045e+00    5.306343e-01   7.222108e-03
  3.584255e+00    5.357648e-01   7.270957e-03
  3.586465e+00    5.490524e-01   7.374705e-03
  3.588676e+00    5.422475e-01   7.343119e-03
  3.590886e+00    5.448366e-01   7.374458e-03
  3.593097e+00    5.435012e-01   7.380008e-03
  3.595307e+00    5.548308e-01   7.470714e-03
  3.597518e+00    5.430901e-01   7.405596e-03
  3.599728e+00    5.365534e-01   7.374951e-03
  3.601939e+00    5.373554e-01   7.394569e-03
  3.604149e+00    5.302362e-01   7.359760e-03
  3.606360e+00    5.318466e-01   7.385029e-03
  3.608570e+00    5.424799e-01   7.472720e-03
  3.610780e+00    5.302709e-01   7.399187e-03
  3.612991e+00    5.390956e-01   7.470527e-03
  3.615201e+00    5.530220e-01   7.576408e-03
  3.617412e+00    5.367565e-01   7.471412e-03
  3.619622e+00    5.599554e-01   7.637261e-03
  3.621833e+00    5.356907e-01   7.476710e-03
  3.624043e+00    5.268786e-01   7.424364e-03
  3.626254e+00    5.316216e-01   7.467369e-03
  3.628464e+00    5.510160e-01   7.613541e-03
  3.630675e+00    5.547925e-01   7.653949e-03
  3.632885e+00    5.339817e-01   7.523525e-03
  3.635095e+00    5.241863e-01   7.468424e-03
  3.637306e+00    5.529236e-01   7.685041e-03
  3.639516e+00    5.601318e-01   7.749863e-03
  3.641727e+00    5.421291e-01   7.639004e-03
  3.643937e+00    5.390484e-01   7.631897e-03
  3.646148e+00    5.487054e-01   7.714794e-03
  3.648358e+00    5.399663e-01   7.668034e-03
  3.650569e+00    5.312390e-01   7.620560e-03
  3.652779e+00    5.465287e-01   7.744360e-03
  3.654990e+00    5.358792e-01   7.683505e-03
  3.657200e+00    5.408012e-01   7.733707e-03
  3.659410e+00    5.251418e-01   7.635812e-03
  3.661621e+00    5.283407e-01   7.674050e-03
  3.663831e+00    5.296874e-01   7.698961e-03
  3.666042e+00    5.193648e-01   7.638508e-03
  3.668252e+00    5.499668e-01   7.875844e-03
  3.670463e+00    5.245917e-01   7.707189e-03
  3.672673e+00    5.223595e-01   7.706014e-03
  3.674884e+00    5.363361e-01   7.823929e-03
  3.677094e+00    5.413159e-01   7.875853e-03
  3.679305e+00    5.217780e-01   7.747823e-03
  3.681515e+00    5.491417e-01   7.964269e-03
  3.683726e+00    5.527176e-01   8.006334e-03
  3.685936e+00    5.257188e-01   7.823993e-03
  3.688146e+00    5.150777e-01   7.759996e-03
  3.690357e+00    5.269313e-01   7.864679e-03
  3.692567e+00    5.517480e-01   8.064241e-03
  3.694778e+00    5.395728e-01   7.991050e-03
  3.696988e+00    5.192901e-01   7.855301e-03
  3.699199e+00    5.242256e-01   7.908741e-03
  3.701409e+00    5.232533e-01   7.917766e-03
  3.703620e+00    5.329446e-01   8.007179e-03
  3.705830e+00    5.154816e-01   7.891163e-03
  3.708041e+00    5.046762e-01   7.824305e-03
  3.710251e+00    5.324025e-01   8.053202e-03
  3.712461e+00    5.209422e-01   7.982769e-03
  3.714672e+00    5.260071e-01   8.038295e-03
  3.716882e+00    5.345308e-01   8.120070e-03
  3.719093e+00    5.277289e-01   8.085529e-03
  3.721303e+00    5.230438e-01   8.066526e-03
  3.723514e+00    5.270854e-01   8.115075e-03
  3.725724e+00    5.137275e-01   8.028637e-03
  3.727935e+00    5.044530e-01   7.973113e-03
  3.730145e+00    5.124572e-01   8.053281e-03
  3.732356e+00    5.162114e-01   8.100342e-03
  3.734566e+00    5.510737e-01   8.387445e-03
  3.736776e+00    5.291480e-01   8.237020e-03
  3.738987e+00    5.127331e-01   8.125894e-03
  3.741197e+00    5.243590e-01   8.235739e-03
  3.743408e+00    4.994298e-01   8.055381e-03
  3.745618e+00    5.015332e-01   8.090407e-03
  3.747829e+00    4.933957e-01   8.042276e-03
  3.750039e+00    5.112714e-01   8.205041e-03
  3.752250e+00    5.025868e-01   8.153390e-03
  3.754460e+00    5.052901e-01   8.193715e-03
  3.756671e+00    5.131551e-01   8.276147e-03
  3.758881e+00    5.206442e-01   8.355108e-03
  3.761091e+00    5.111399e-01   8.297762e-03
  3.763302e+00    5.141414e-01   8.341233e-03
  3.765512e+00    5.192888e-01   8.402378e-03
  3.767723e+00    5.169424e-01   8.402918e-03
  3.769933e+00    5.250455e-01   8.488179e-03
  3.772144e+00    5.025794e-01   8.324143e-03
  3.774354e+00    4.985310e-01   8.310247e-03
  3.776565e+00    4.928764e-01   8.282550e-03
  3.778775e+00    5.084845e-01   8.432733e-03
  3.780986e+00    4.978681e-01   8.364398e-03
  3.783196e+00    5.148859e-01   8.526633e-03
  3.785407e+00    5.134017e-01   8.534995e-03
  3.787617e+00    5.116208e-01   8.541103e-03
  3.789827e+00    4.998480e-01   8.462723e-03
  3.792038e+00    5.067943e-01   8.542287e-03
  3.794248e+00    4.881845e-01   8.404850e-03
  3.796459e+00    4.913420e-01   8.453105e-03
  3.798669e+00    4.975438e-01   8.527627e-03
  3.800880e+00    4.965373e-01   8.540334e-03
  3.803090e+00    4.947100e-01   8.546330e-03
  3.805301e+00    4.801260e-01   8.441073e-03
  3.807511e+00    4.915468e-01   8.562629e-03
  3.809722e+00    4.967781e-01   8.630318e-03
  3.811932e+00    4.964502e-01   8.649561e-03
  3.814142e+00    4.826916e-01   8.551384e-03
  3.816353e+00    5.121928e-01   8.831967e-03
  3.818563e+00    4.975491e-01   8.727841e-03
  3.820774e+00    5.068160e-01   8.832119e-03
  3.822984e+00    5.144364e-01   8.922060e-03
  3.825195e+00    5.003905e-01   8.823168e-03
  3.827405e+00    4.956414e-01   8.805083e-03
  3.829616e+00    4.771737e-01   8.663004e-03
  3.831826e+00    5.120332e-01   8.998380e-03
  3.834037e+00    4.964971e-01   8.885330e-03
  3.836247e+00    4.850791e-01   8.807003e-03
  3.838457e+00    4.721857e-01   8.713490e-03
  3.840668e+00    5.088463e-01   9.070965e-03
  3.842878e+00    4.947387e-01   8.969867e-03
  3.845089e+00    4.933092e-01   8.982334e-03
  3.847299e+00    5.091393e-01   9.151535e-03
  3.849510e+00    4.901448e-01   9.004909e-03
  3.851720e+00    5.197259e-01   9.294539e-03
  3.853931e+00    4.966623e-01   9.105081e-03
  3.856141e+00    4.925745e-01   9.086451e-03
  3.858352e+00    4.887992e-01   9.070748e-03
  3.860562e+00    4.887277e-01   9.089256e-03
  3.862772e+00    5.155295e-01   9.355179e-03
  3.864983e+00    5.079194e-01   9.305791e-03
  3.867193e+00    4.943770e-01   9.200796e-03
  3.869404e+00    4.784312e-01   9.070585e-03
  3.871614e+00    4.899479e-01   9.199037e-03
  3.873825e+00    5.023965e-01   9.335700e-03
  3.876035e+00    4.914351e-01   9.253816e-03
  3.878246e+00    4.990760e-01   9.351428e-03
  3.880456e+00    4.938757e-01   9.331611e-03
  3.882667e+00    4.981301e-01   9.401265e-03
  3.884877e+00    4.992518e-01   9.441784e-03
  3.887087e+00    5.124540e-01   9.596377e-03
  3.889298e+00    4.767869e-01   9.286335e-03
  3.891508e+00    5.134258e-01   9.667738e-03
  3.893719e+00    4.855529e-01   9.432508e-03
  3.895929e+00    4.785740e-01   9.395472e-03
  3.898140e+00    5.080677e-01   9.712957e-03
  3.900350e+00    5.114673e-01   9.778227e-03
  3.902561e+00    4.672303e-01   9.377361e-03
  3.904771e+00    4.833217e-01   9.570060e-03
  3.906982e+00    5.111586e-01   9.875718e-03
  3.909192e+00    4.942234e-01   9.744369e-03
  3.911403e+00    4.843195e-01   9.680149e-03
  3.913613e+00    4.994385e-01   9.864635e-03
  3.915823e+00    5.082775e-01   9.987054e-03
  3.918034e+00    4.991615e-01   9.932831e-03
  3.920244e+00    4.904569e-01   9.881514e-03
  3.922455e+00    4.858511e-01   9.871163e-03
  3.924665e+00    4.817272e-01   9.865277e-03
  3.926876e+00    4.832608e-01   9.917899e-03
  3.929086e+00    4.960037e-01   1.008547e-02
  3.931297e+00    5.031953e-01   1.019369e-02
  3.933507e+00    5.117293e-01   1.030951e-02
  3.935718e+00    4.875241e-01   1.009135e-02
  3.937928e+00    5.139428e-01   1.039148e-02
  3.940138e+00    4.945521e-01   1.022312e-02
  3.942349e+00    5.085924e-01   1.039768e-02
  3.944559e+00    5.019925e-01   1.036053e-02
  3.946770e+00    4.875135e-01   1.024018e-02
  3.948980e+00    5.036384e-01   1.043941e-02
  3.951191e+00    4.900086e-01   1.032811e-02
  3.953401e+00    5.033857e-01   1.050008e-02
  3.955612e+00    5.130817e-01   1.063324e-02
  3.957822e+00    4.885482e-01   1.040767e-02
  3.960033e+00    4.969559e-01   1.052975e-02
  3.962243e+00    5.133924e-01   1.073634e-02
  3.964453e+00    4.910938e-01   1.053383e-02
  3.966664e+00    4.781440e-01   1.042719e-02
  3.968874e+00    4.826805e-01   1.050483e-02
  3.971085e+00    4.730836e-01   1.042152e-02
  3.973295e+00    4.918464e-01   1.064774e-02
  3.975506e+00    5.006385e-01   1.076449e-02
  3.977716e+00    4.949189e-01   1.072494e-02
  3.979927e+00    4.882804e-01   1.067508e-02
  3.982137e+00    4.917942e-01   1.073582e-02
  3.984348e+00    4.769291e-01   1.059471e-02
  3.986558e+00    4.810102e-01   1.066213e-02
  3.988768e+00    4.432291e-01   1.025679e-02
  3.990979e+00    4.754862e-01   1.064603e-02
  3.993189e+00    4.769893e-01   1.068571e-02
  3.995400e+00    4.633234e-01   1.055457e-02
  3.997610e+00    4.859653e-01   1.083917e-02
  3.999821e+00    5.059965e-01   1.109864e-02
  4.002031e+00    5.093994e-01   1.117526e-02
  4.004242e+00    4.976894e-01   1.108513e-02
  4.006452e+00    4.647883e-01   1.075096e-02
  4.008663e+00    5.018958e-01   1.121262e-02
  4.010873e+00    4.723933e-01   1.091753e-02
  4.013084e+00    5.044774e-01   1.132387e-02
  4.015294e+00    4.867724e-01   1.116463e-02
  4.017504e+00    4.888018e-01   1.122983e-02
  4.019715e+00    5.002836e-01   1.140422e-02
  4.021925e+00    4.885501e-01   1.131280e-02
  4.024136e+00    5.096362e-01   1.159928e-02
  4.026346e+00    4.803443e-01   1.130489e-02
  4.028557e+00    4.912143e-01   1.147678e-02
  4.030767e+00    4.919498e-01   1.153133e-02
  4.032978e+00    4.847897e-01   1.149363e-02
  4.035188e+00    4.879280e-01   1.157702e-02
  4.037399e+00    4.590368e-01   1.127538e-02
  4.039609e+00    5.092980e-01   1.192568e-02
  4.041819e+00    5.024090e-01   1.189438e-02
  4.044030e+00    5.212569e-01   1.216738e-02
  4.046240e+00    4.834681e-01   1.176790e-02
  4.048451e+00    4.639726e-01   1.157812e-02
  4.050661e+00    4.940683e-01   1.199968e-02
  4.052872e+00    5.179334e-01   1.234077e-02
  4.055082e+00    4.957534e-01   1.212792e-02
  4.057293e+00    4.641007e-01   1.178700e-02
  4.059503e+00    5.055686e-01   1.235826e-02
  4.061714e+00    4.827994e-01   1.213336e-02
  4.063924e+00    4.722739e-01   1.205651e-02
  4.066134e+00    4.760868e-01   1.216202e-02
  4.068345e+00    4.995051e-01   1.251759e-02
  4.070555e+00    5.414169e-01   1.309510e-02
  4.072766e+00    4.842030e-01   1.244493e-02
  4.074976e+00    4.710677e-01   1.233610e-02
  4.077187e+00    4.476872e-01   1.208584e-02
  4.079397e+00    4.923041e-01   1.273847e-02
  4.081608e+00    5.063971e-01   1.298677e-02
  4.083818e+00    5.052822e-01   1.303990e-02
  4.086029e+00    5.041897e-01   1.309441e-02
  4.088239e+00    4.694558e-01   1.270363e-02
  4.090449e+00    4.735427e-01   1.282752e-02
  4.092660e+00    5.273896e-01   1.361214e-02
  4.094870e+00    4.912462e-01   1.321023e-02
  4.097081e+00    5.099801e-01   1.353365e-02
  4.099291e+00    4.835302e-01   1.323249e-02
  4.101502e+00    4.552280e-01   1.288738e-02
  4.103712e+00    4.648899e-01   1.307169e-02
  4.105923e+00    5.024300e-01   1.364207e-02
  4.108133e+00    4.808710e-01   1.339752e-02
  4.110344e+00    4.768168e-01   1.339197e-02
  4.112554e+00    4.574790e-01   1.316956e-02
  4.114764e+00    4.747595e-01   1.346964e-02
  4.116975e+00    4.884441e-01   1.371646e-02
  4.119185e+00    4.666973e-01   1.346195e-02
  4.121396e+00    5.114257e-01   1.415053e-02
  4.123606e+00    5.477945e-01   1.470505e-02
  4.125817e+00    4.951460e-01   1.403930e-02
  4.128027e+00    5.637138e-01   1.504279e-02
  4.130238e+00    4.920857e-01   1.411503e-02
  4.132448e+00    4.972218e-01   1.425013e-02
  4.134659e+00    5.023671e-01   1.438501e-02
  4.136869e+00    4.937304e-01   1.432467e-02
  4.139080e+00    4.597664e-01   1.388548e-02
  4.141290e+00    4.728690e-01   1.414413e-02
  4.143500e+00    4.851277e-01   1.439259e-02
  4.145711e+00    5.217752e-01   1.499594e-02
  4.147921e+00    4.965952e-01   1.469667e-02
  4.150132e+00    4.970317e-01   1.477349e-02
  4.152342e+00    4.867081e-01   1.468983e-02
  4.154553e+00    4.958937e-01   1.489856e-02
  4.156763e+00    5.100105e-01   1.518359e-02
  4.158974e+00    5.411282e-01   1.571894e-02
  4.161184e+00    5.252367e-01   1.556298e-02
  4.163395e+00    5.364385e-01   1.580844e-02
  4.165605e+00    5.132319e-01   1.554327e-02
  4.167815e+00    5.382893e-01   1.600102e-02
  4.170026e+00    4.751600e-01   1.511276e-02
  4.172236e+00    5.495321e-01   1.634043e-02
  4.174447e+00    5.075910e-01   1.578990e-02
  4.176657e+00    4.866720e-01   1.554545e-02
  4.178868e+00    4.977220e-01   1.581009e-02
  4.181078e+00    5.191292e-01   1.623757e-02
  4.183289e+00    4.809937e-01   1.571912e-02
  4.185499e+00    4.989629e-01   1.610459e-02
  4.187710e+00    4.798864e-01   1.588609e-02
  4.189920e+00    4.755814e-01   1.591004e-02
  4.192130e+00    4.865041e-01   1.619016e-02
  4.194341e+00    4.893713e-01   1.633719e-02
  4.196551e+00    5.150066e-01   1.686569e-02
  4.198762e+00    5.068484e-01   1.683801e-02
  4.200972e+00    5.263996e-01   1.727065e-02
  4.203183e+00    4.891469e-01   1.675813e-02
  4.205393e+00    4.376582e-01   1.595698e-02
  4.207604e+00    5.389306e-01   1.782812e-02
  4.209814e+00    5.215093e-01   1.765790e-02
  4.212025e+00    5.259629e-01   1.785883e-02
  4.214235e+00    4.689089e-01   1.698181e-02
  4.216445e+00    4.909300e-01   1.750187e-02
  4.218656e+00    4.329993e-01   1.655966e-02
  4.220866e+00    5.412688e-01   1.865188e-02
  4.223077e+00    5.290834e-01   1.858297e-02
  4.225287e+00    4.474119e-01   1.722257e-02
  4.227498e+00    4.332281e-01   1.708082e-02
  4.229708e+00    4.523300e-01   1.759450e-02
  4.231919e+00    4.739753e-01   1.815976e-02
  4.234129e+00    4.891130e-01   1.860243e-02
  4.236340e+00    5.230761e-01   1.940186e-02
  4.238550e+00    5.529416e-01   2.012428e-02
  4.240761e+00    4.979565e-01   1.926614e-02
  4.242971e+00    4.742708e-01   1.897463e-02
  4.245181e+00    5.319220e-01   2.028358e-02
  4.247392e+00    4.746945e-01   1.934065e-02
  4.249602e+00    4.835644e-01   1.971404e-02
  4.251813e+00    4.905635e-01   2.005231e-02
  4.254023e+00    4.575456e-01   1.956066e-02
  4.256234e+00    4.876446e-01   2.040963e-02
  4.258444e+00    4.535647e-01   1.988930e-02
  4.260655e+00    4.629092e-01   2.031421e-02
  4.262865e+00    4.944022e-01   2.123207e-02
  4.265076e+00    4.892599e-01   2.136169e-02
  4.267286e+00    5.603454e-01   2.313160e-02
  4.269496e+00    4.684946e-01   2.140953e-02
  4.271707e+00    4.564445e-01   2.139303e-02
  4.273917e+00    4.856135e-01   2.235170e-02
  4.276128e+00    4.234698e-01   2.114964e-02
  4.278338e+00    5.414087e-01   2.423301e-02
  4.280549e+00    5.287961e-01   2.429302e-02
  4.282759e+00    5.029724e-01   2.403338e-02
  4.284970e+00    4.862526e-01   2.397971e-02
  4.287180e+00    5.340099e-01   2.543089e-02
  4.289391e+00    4.593213e-01   2.376260e-02
  4.291601e+00    5.074893e-01   2.517680e-02
  4.293811e+00    5.164459e-01   2.559745e-02
  4.296022e+00    4.761209e-01   2.477394e-02
  4.298232e+00    5.567358e-01   2.701439e-02
  4.300443e+00    4.824000e-01   2.535467e-02
  4.302653e+00    4.389055e-01   2.439258e-02
  4.304864e+00    5.367578e-01   2.720970e-02
  4.307074e+00    4.787023e-01   2.592667e-02
  4.309285e+00    4.326427e-01   2.487154e-02
  4.311495e+00    3.988972e-01   2.410546e-02
  4.313706e+00    4.939839e-01   2.707742e-02
  4.315916e+00    5.435434e-01   2.868268e-02
  4.318126e+00    5.193565e-01   2.831405e-02
  4.320337e+00    4.800359e-01   2.749782e-02
  4.322547e+00    4.596078e-01   2.718980e-02
  4.324758e+00    5.388248e-01   2.974783e-02
  4.326968e+00    5.233555e-01   2.964694e-02
  4.329179e+00    5.162702e-01   2.977034e-02
  4.331389e+00    4.694906e-01   2.871661e-02
  4.333600e+00    3.757113e-01   2.599662e-02
  4.335810e+00    4.459750e-01   2.865872e-02
  4.338021e+00    5.297724e-01   3.163601e-02
  4.340231e+00    4.691856e-01   3.014570e-02
  4.342442e+00    5.807565e-01   3.398856e-02
  4.344652e+00    3.946812e-01   2.840107e-02
  4.346862e+00    3.084468e-01   2.545835e-02
  4.349073e+00    4.138559e-01   2.991798e-02
  4.351283e+00    5.343382e-01   3.450263e-02
  4.353494e+00    4.197672e-01   3.105454e-02
  4.355704e+00    4.763412e-01   3.361201e-02
  4.357915e+00    5.097302e-01   3.534979e-02
  4.360125e+00    5.596941e-01   3.767335e-02
  4.362336e+00    4.962744e-01   3.612367e-02
  4.364546e+00    3.937277e-01   3.275957e-02
  4.366757e+00    3.765129e-01   3.267279e-02
  4.368967e+00    4.198683e-01   3.519224e-02
  4.371177e+00    4.031937e-01   3.521912e-02
  4.373388e+00    3.616895e-01   3.410217e-02
  4.375598e+00    5.332960e-01   4.235400e-02
  4.377809e+00    4.719927e-01   4.085338e-02
  4.380019e+00    3.796927e-01   3.756531e-02
  4.382230e+00    3.985642e-01   3.956057e-02
  4.384440e+00    2.776383e-01   3.396599e-02
  4.386651e+00    5.357269e-01   4.863918e-02
  4.388861e+00    6.622453e-01   5.589221e-02
  4.391072e+00    6.421776e-01   5.697537e-02
  4.393282e+00    4.835560e-01   5.135009e-02
  4.395492e+00    3.793640e-01   4.737519e-02
  4.397703e+00    3.618971e-01   4.838490e-02
  4.399913e+00    2.713667e-01   4.401780e-02
  4.402124e+00    3.707533e-01   5.436727e-02
  4.404334e+00    6.081675e-01   7.402098e-02
  4.406545e+00    4.270280e-01   6.663346e-02
  4.408755e+00    3.901330e-01   6.908705e-02
  4.410966e+00    2.628990e-01   6.276274e-02
  4.413176e+00    4.852139e-01   9.651518e-02
  4.415387e+00   -7.739387e-01            nan
  4.417597e+00   -1.607818e+00            nan
  4.419807e+00    3.372853e-01   2.086502e-01
