# == pyFAI calibration ==
# Distance Sample to Detector: 0.216 m
# PONI: 1.166e-01, 1.308e-01 m
# Rotations: 0.000000 0.000000 0.000000 rad
# 
# == Fit2d calibration ==
# Distance Sample-beamCenter: 216.000 mm
# Center: x=1744.293, y=1555.000 pix
# Tilt: 0.000 deg  TiltPlanRot: 0.000 deg
# 
# Detector Eiger 9M	 PixelSize= 7.500e-05, 7.500e-05 m
#    Detector has a mask: True 
#    Detector has a dark current: False 
#    detector has a flat field: False 
# 
# Wavelength: 9.8e-11 m
# Mask applied: from detector
# Dark current applied: False
# Flat field applied: False
# Polarization factor: None
# Normalization factor: 1.0
# 
# Headers of the input frame:
# {
# "_array_data.header_convention": "SLS_1.0",
# "_array_data.header_contents": "# Detector: Dectris Eiger 9M, S/N E-18-0102\r\n# Pixel_size 75e-6 m x 75e-6 m\r\n# Silicon sensor, thickness 0.000450 m\r\n# Exposure_time 0.024997 s\r\n# Exposure_period 0.025000 s\r\n# Count_cutoff 62318 counts\r\n# Wavelength 0.980106 A\r\n# Detector_distance 0.215992 m\r\n# Beam_xy (1555, 1744) pixels\r\n# Start_angle 0.000000 deg.\r\n# Angle_increment 0.000000 deg.",
# "Content-Type": "application/octet-stream;",
# "conversions": "x-CBF_BYTE_OFFSET",
# "Content-Transfer-Encoding": "BINARY",
# "X-Binary-Size": "10166594",
# "X-Binary-ID": "1",
# "X-Binary-Element-Type": "signed 32-bit integer",
# "X-Binary-Element-Byte-Order": "LITTLE_ENDIAN",
# "Content-MD5": "luBe+Y9QXXqBwZV0+k0S2g==",
# "X-Binary-Number-of-Elements": "10166590",
# "X-Binary-Size-Fastest-Dimension": "3110",
# "X-Binary-Size-Second-Dimension": "3269",
# "X-Binary-Size-Padding": "4095"
# }
# --> H:/Proxima2a_2019-04-05/RAW_DATA/C5_gel17_position5/C5_mesh_1_data.cbf/C5_mesh_1_data.cbf000080.dat
#        q_A^-1              I           sigma 
  1.105228e-03    2.920763e+00   9.247730e-01
  3.315685e-03    1.883592e+00   4.514804e-01
  5.526141e-03    1.462261e+00   3.075987e-01
  7.736597e-03    1.382243e+00   2.526460e-01
  9.947054e-03    1.526234e+00   2.340384e-01
  1.215751e-02    1.319282e+00   1.967603e-01
  1.436797e-02    1.434457e+00   1.887207e-01
  1.657842e-02    1.310443e+00   1.679011e-01
  1.878888e-02    1.163408e+00   1.486037e-01
  2.099934e-02    1.336925e+00   1.507147e-01
  2.320979e-02    1.476717e+00   1.506543e-01
  2.542025e-02    1.399371e+00   1.401444e-01
  2.763070e-02    1.517905e+00   1.399950e-01
  2.984116e-02    1.444675e+00   1.314200e-01
  3.205162e-02    1.396609e+00   1.246877e-01
  3.426207e-02    1.443178e+00   1.225843e-01
  3.647253e-02    1.403584e+00   1.171680e-01
  3.868299e-02    1.436257e+00   1.150964e-01
  4.089344e-02    1.415573e+00   1.111340e-01
  4.310390e-02    1.446520e+00   1.094173e-01
  4.531436e-02    1.457054e+00   1.071035e-01
  4.752481e-02    1.409778e+00   1.028714e-01
  4.973527e-02    1.436618e+00   1.015132e-01
  5.194572e-02    1.419426e+00   9.873233e-02
  5.415618e-02    1.314742e+00   9.305912e-02
  5.636664e-02    1.479717e+00   9.677306e-02
  5.857709e-02    1.436036e+00   9.351843e-02
  6.078755e-02    1.467160e+00   9.278891e-02
  6.299801e-02    1.484942e+00   9.169617e-02
  6.520846e-02    1.412539e+00   8.790448e-02
  6.741892e-02    1.492478e+00   8.885947e-02
  6.962938e-02    1.545876e+00   8.899254e-02
  7.183983e-02    1.560592e+00   8.802717e-02
  7.405029e-02    1.479582e+00   8.442106e-02
  7.626074e-02    1.483353e+00   8.329377e-02
  7.847120e-02    1.412247e+00   8.011787e-02
  8.068166e-02    1.514980e+00   8.183549e-02
  8.289211e-02    1.472350e+00   7.959251e-02
  8.510257e-02    1.463065e+00   7.830351e-02
  8.731303e-02    1.486939e+00   7.793119e-02
  8.952348e-02    1.509311e+00   7.754201e-02
  9.173394e-02    1.408105e+00   7.398632e-02
  9.394439e-02    1.431402e+00   7.371062e-02
  9.615485e-02    1.513807e+00   7.492469e-02
  9.836531e-02    1.495780e+00   7.363366e-02
  1.005758e-01    1.515199e+00   7.329161e-02
  1.027862e-01    1.503893e+00   7.222648e-02
  1.049967e-01    1.522626e+00   7.190457e-02
  1.072071e-01    1.486990e+00   7.032097e-02
  1.094176e-01    1.476960e+00   6.937082e-02
  1.116280e-01    1.462127e+00   6.833328e-02
  1.138385e-01    1.551140e+00   6.969456e-02
  1.160490e-01    1.513728e+00   6.818927e-02
  1.182594e-01    1.506619e+00   6.738869e-02
  1.204699e-01    1.593416e+00   6.866340e-02
  1.226803e-01    1.542795e+00   6.694968e-02
  1.248908e-01    1.594955e+00   6.746612e-02
  1.271012e-01    1.533911e+00   6.558331e-02
  1.293117e-01    1.499429e+00   6.428456e-02
  1.315222e-01    1.593058e+00   6.570054e-02
  1.337326e-01    1.580039e+00   6.488726e-02
  1.359431e-01    1.522919e+00   6.374091e-02
  1.381535e-01    1.537373e+00   6.490231e-02
  1.403640e-01    1.514741e+00   6.470100e-02
  1.425744e-01    1.501629e+00   6.452324e-02
  1.447849e-01    1.566008e+00   6.590708e-02
  1.469953e-01    1.482500e+00   6.408557e-02
  1.492058e-01    1.520034e+00   6.481633e-02
  1.514163e-01    1.549671e+00   6.533650e-02
  1.536267e-01    1.619839e+00   6.666890e-02
  1.558372e-01    1.640110e+00   6.693666e-02
  1.580476e-01    1.661971e+00   6.721777e-02
  1.602581e-01    1.714510e+00   6.809857e-02
  1.624685e-01    1.610340e+00   6.581669e-02
  1.646790e-01    1.684776e+00   6.712734e-02
  1.668895e-01    1.735680e+00   6.793713e-02
  1.690999e-01    1.636276e+00   6.576498e-02
  1.713104e-01    1.691509e+00   6.665818e-02
  1.735208e-01    1.746504e+00   6.752250e-02
  1.757313e-01    1.843871e+00   6.916172e-02
  1.779417e-01    1.815695e+00   6.840744e-02
  1.801522e-01    1.808625e+00   6.805667e-02
  1.823626e-01    1.851867e+00   6.863619e-02
  1.845731e-01    1.922264e+00   6.970208e-02
  1.867836e-01    1.959132e+00   7.012986e-02
  1.889940e-01    1.969057e+00   7.007752e-02
  1.912045e-01    1.931120e+00   6.916740e-02
  1.934149e-01    2.010983e+00   7.034692e-02
  1.956254e-01    2.044456e+00   7.069603e-02
  1.978358e-01    2.156227e+00   7.235401e-02
  2.000463e-01    2.039195e+00   7.012989e-02
  2.022568e-01    2.053478e+00   7.014406e-02
  2.044672e-01    1.919832e+00   6.759076e-02
  2.066777e-01    1.961186e+00   6.808808e-02
  2.088881e-01    1.938838e+00   6.747756e-02
  2.110986e-01    1.919145e+00   6.690377e-02
  2.133090e-01    1.886127e+00   6.611013e-02
  2.155195e-01    1.997267e+00   6.780434e-02
  2.177300e-01    1.980361e+00   6.698638e-02
  2.199404e-01    1.913490e+00   6.411065e-02
  2.221509e-01    2.026078e+00   6.488654e-02
  2.243613e-01    1.985949e+00   6.342638e-02
  2.265718e-01    2.035226e+00   6.350072e-02
  2.287822e-01    2.127455e+00   6.428099e-02
  2.309927e-01    2.096520e+00   6.323063e-02
  2.332031e-01    2.133646e+00   6.324206e-02
  2.354136e-01    2.156264e+00   6.306110e-02
  2.376241e-01    2.111341e+00   6.191642e-02
  2.398345e-01    2.091389e+00   6.116710e-02
  2.420450e-01    2.139619e+00   6.142621e-02
  2.442554e-01    2.161457e+00   6.131357e-02
  2.464659e-01    2.125410e+00   6.039195e-02
  2.486763e-01    2.097596e+00   5.960112e-02
  2.508868e-01    2.134618e+00   5.974549e-02
  2.530973e-01    2.228706e+00   6.066954e-02
  2.553077e-01    2.139074e+00   5.907651e-02
  2.575182e-01    2.090961e+00   5.806277e-02
  2.597286e-01    2.062286e+00   5.732806e-02
  2.619391e-01    2.082510e+00   5.727681e-02
  2.641495e-01    2.024685e+00   5.616343e-02
  2.663600e-01    2.059526e+00   5.633310e-02
  2.685704e-01    2.073972e+00   5.622388e-02
  2.707809e-01    2.067563e+00   5.583899e-02
  2.729914e-01    2.023840e+00   5.495751e-02
  2.752018e-01    2.032562e+00   5.478913e-02
  2.774123e-01    2.009449e+00   5.419846e-02
  2.796227e-01    1.980570e+00   5.354143e-02
  2.818332e-01    2.028660e+00   5.391721e-02
  2.840436e-01    2.007101e+00   5.337003e-02
  2.862541e-01    2.022045e+00   5.331079e-02
  2.884646e-01    2.004261e+00   5.282401e-02
  2.906750e-01    1.933449e+00   5.163642e-02
  2.928855e-01    1.951124e+00   5.163158e-02
  2.950959e-01    1.933178e+00   5.115748e-02
  2.973064e-01    1.942096e+00   5.104490e-02
  2.995168e-01    1.859027e+00   4.971513e-02
  3.017273e-01    1.882089e+00   4.980197e-02
  3.039377e-01    1.939831e+00   5.033880e-02
  3.061482e-01    1.855420e+00   4.901842e-02
  3.083587e-01    1.881878e+00   4.915296e-02
  3.105691e-01    1.863552e+00   4.870415e-02
  3.127796e-01    1.921377e+00   4.924608e-02
  3.149900e-01    1.844277e+00   4.804689e-02
  3.172005e-01    1.857656e+00   4.802365e-02
  3.194109e-01    1.899900e+00   4.836614e-02
  3.216214e-01    1.847351e+00   4.749799e-02
  3.238319e-01    1.869137e+00   4.758792e-02
  3.260423e-01    1.870054e+00   4.741002e-02
  3.282528e-01    1.848844e+00   4.695271e-02
  3.304632e-01    1.861188e+00   4.692671e-02
  3.326737e-01    1.866006e+00   4.680407e-02
  3.348841e-01    1.861105e+00   4.656130e-02
  3.370946e-01    1.892771e+00   4.677908e-02
  3.393050e-01    1.878992e+00   4.643194e-02
  3.415155e-01    1.824031e+00   4.557582e-02
  3.437260e-01    1.815896e+00   4.530552e-02
  3.459364e-01    1.870918e+00   4.581669e-02
  3.481469e-01    1.817925e+00   4.499830e-02
  3.503573e-01    1.788442e+00   4.446933e-02
  3.525678e-01    1.807474e+00   4.454600e-02
  3.547782e-01    1.792424e+00   4.419981e-02
  3.569887e-01    1.796684e+00   4.409552e-02
  3.591992e-01    1.800099e+00   4.398122e-02
  3.614096e-01    1.777214e+00   4.354924e-02
  3.636201e-01    1.828949e+00   4.402330e-02
  3.658305e-01    1.800453e+00   4.353002e-02
  3.680410e-01    1.760631e+00   4.289788e-02
  3.702514e-01    1.782002e+00   4.301230e-02
  3.724619e-01    1.780644e+00   4.284950e-02
  3.746724e-01    1.819503e+00   4.317000e-02
  3.768828e-01    1.769752e+00   4.243245e-02
  3.790933e-01    1.771914e+00   4.232001e-02
  3.813037e-01    1.780596e+00   4.228476e-02
  3.835142e-01    1.794287e+00   4.230760e-02
  3.857246e-01    1.780190e+00   4.200469e-02
  3.879351e-01    1.754684e+00   4.156771e-02
  3.901455e-01    1.808761e+00   4.206903e-02
  3.923560e-01    1.735048e+00   4.107194e-02
  3.945665e-01    1.715426e+00   4.070951e-02
  3.967769e-01    1.782586e+00   4.136879e-02
  3.989874e-01    1.809702e+00   4.155211e-02
  4.011978e-01    1.762757e+00   4.088351e-02
  4.034083e-01    1.760306e+00   4.072965e-02
  4.056187e-01    1.770321e+00   4.071954e-02
  4.078292e-01    1.756675e+00   4.043952e-02
  4.100397e-01    1.747992e+00   4.021631e-02
  4.122501e-01    1.793966e+00   4.061982e-02
  4.144606e-01    1.816654e+00   4.075468e-02
  4.166710e-01    1.815447e+00   4.062000e-02
  4.188815e-01    1.787721e+00   4.018955e-02
  4.210919e-01    1.801076e+00   4.022117e-02
  4.233024e-01    1.780181e+00   3.986957e-02
  4.255128e-01    1.745129e+00   3.936098e-02
  4.277233e-01    1.815627e+00   4.003277e-02
  4.299338e-01    1.811155e+00   3.986843e-02
  4.321442e-01    1.756245e+00   3.914706e-02
  4.343547e-01    1.743455e+00   3.889397e-02
  4.365651e-01    1.781718e+00   3.920673e-02
  4.387756e-01    1.710870e+00   3.831175e-02
  4.409860e-01    1.731036e+00   3.843010e-02
  4.431965e-01    1.737781e+00   3.839844e-02
  4.454070e-01    1.775171e+00   3.870135e-02
  4.476174e-01    1.715547e+00   3.794140e-02
  4.498279e-01    1.737639e+00   3.808099e-02
  4.520383e-01    1.787304e+00   3.851541e-02
  4.542488e-01    1.721127e+00   3.769375e-02
  4.564592e-01    1.650081e+00   3.680854e-02
  4.586697e-01    1.738200e+00   3.767831e-02
  4.608801e-01    1.750425e+00   3.770932e-02
  4.630906e-01    1.709385e+00   3.716596e-02
  4.653011e-01    1.758128e+00   3.759301e-02
  4.675115e-01    1.752716e+00   3.743625e-02
  4.697220e-01    1.690329e+00   3.666770e-02
  4.719324e-01    1.706078e+00   3.674283e-02
  4.741429e-01    1.712444e+00   3.671646e-02
  4.763533e-01    1.725699e+00   3.676381e-02
  4.785638e-01    1.718883e+00   3.659634e-02
  4.807743e-01    1.716146e+00   3.647421e-02
  4.829847e-01    1.702087e+00   3.623272e-02
  4.851952e-01    1.721652e+00   3.634818e-02
  4.874056e-01    1.723843e+00   3.627957e-02
  4.896161e-01    1.700257e+00   3.594117e-02
  4.918265e-01    1.717101e+00   3.602908e-02
  4.940370e-01    1.703360e+00   3.579603e-02
  4.962475e-01    1.720122e+00   3.588289e-02
  4.984579e-01    1.709963e+00   3.568860e-02
  5.006684e-01    1.717806e+00   3.568314e-02
  5.028788e-01    1.660867e+00   3.500176e-02
  5.050893e-01    1.667088e+00   3.498194e-02
  5.072997e-01    1.675128e+00   3.498152e-02
  5.095102e-01    1.665099e+00   3.479312e-02
  5.117206e-01    1.646606e+00   3.451709e-02
  5.139311e-01    1.661277e+00   3.458845e-02
  5.161416e-01    1.702171e+00   3.492887e-02
  5.183520e-01    1.631519e+00   3.411501e-02
  5.205625e-01    1.655102e+00   3.428020e-02
  5.227729e-01    1.645990e+00   3.410596e-02
  5.249834e-01    1.687118e+00   3.444927e-02
  5.271938e-01    1.691576e+00   3.441427e-02
  5.294043e-01    1.693655e+00   3.435594e-02
  5.316148e-01    1.749916e+00   3.484192e-02
  5.338252e-01    1.754642e+00   3.480922e-02
  5.360357e-01    1.742224e+00   3.460686e-02
  5.382461e-01    1.690153e+00   3.400873e-02
  5.404566e-01    1.714557e+00   3.417539e-02
  5.426670e-01    1.773838e+00   3.468288e-02
  5.448775e-01    1.761451e+00   3.448436e-02
  5.470879e-01    1.737656e+00   3.417427e-02
  5.492984e-01    1.748574e+00   3.420522e-02
  5.515089e-01    1.753314e+00   3.417559e-02
  5.537193e-01    1.750610e+00   3.407399e-02
  5.559298e-01    1.744493e+00   3.393980e-02
  5.581402e-01    1.799483e+00   3.439525e-02
  5.603507e-01    1.803118e+00   3.435505e-02
  5.625611e-01    1.789519e+00   3.415097e-02
  5.647716e-01    1.773918e+00   3.392797e-02
  5.669821e-01    1.770560e+00   3.382275e-02
  5.691925e-01    1.774673e+00   3.378935e-02
  5.714030e-01    1.775567e+00   3.372579e-02
  5.736134e-01    1.722940e+00   3.315157e-02
  5.758239e-01    1.703040e+00   3.288921e-02
  5.780343e-01    1.673360e+00   3.253240e-02
  5.802448e-01    1.699232e+00   3.271428e-02
  5.824552e-01    1.667346e+00   3.233792e-02
  5.846657e-01    1.636820e+00   3.197372e-02
  5.868762e-01    1.636405e+00   3.190312e-02
  5.890866e-01    1.634354e+00   3.181696e-02
  5.912971e-01    1.648591e+00   3.188907e-02
  5.935075e-01    1.649596e+00   3.183288e-02
  5.957180e-01    1.641208e+00   3.168670e-02
  5.979284e-01    1.639085e+00   3.160156e-02
  6.001389e-01    1.614418e+00   3.129899e-02
  6.023494e-01    1.604235e+00   3.113679e-02
  6.045598e-01    1.647167e+00   3.148640e-02
  6.067703e-01    1.695831e+00   3.188393e-02
  6.089807e-01    1.678999e+00   3.166150e-02
  6.111912e-01    1.645004e+00   3.127677e-02
  6.134016e-01    1.640157e+00   3.116835e-02
  6.156121e-01    1.676291e+00   3.144718e-02
  6.178226e-01    1.680779e+00   3.142692e-02
  6.200330e-01    1.687110e+00   3.142393e-02
  6.222435e-01    1.713455e+00   3.160560e-02
  6.244539e-01    1.703569e+00   3.145259e-02
  6.266644e-01    1.692564e+00   3.128968e-02
  6.288748e-01    1.694627e+00   3.124779e-02
  6.310853e-01    1.723092e+00   3.144797e-02
  6.332957e-01    1.711571e+00   3.128215e-02
  6.355062e-01    1.684819e+00   3.097641e-02
  6.377167e-01    1.741011e+00   3.142831e-02
  6.399271e-01    1.746064e+00   3.141360e-02
  6.421376e-01    1.705346e+00   3.098590e-02
  6.443480e-01    1.692480e+00   3.081005e-02
  6.465585e-01    1.712719e+00   3.093501e-02
  6.487689e-01    1.684542e+00   3.062158e-02
  6.509794e-01    1.665012e+00   3.038611e-02
  6.531899e-01    1.653848e+00   3.022714e-02
  6.554003e-01    1.655475e+00   3.018514e-02
  6.576108e-01    1.590963e+00   2.953607e-02
  6.598212e-01    1.549930e+00   2.909851e-02
  6.620317e-01    1.609012e+00   2.959297e-02
  6.642421e-01    1.587921e+00   2.934400e-02
  6.664526e-01    1.612979e+00   2.952013e-02
  6.686630e-01    1.591896e+00   2.927234e-02
  6.708735e-01    1.585724e+00   2.916196e-02
  6.730840e-01    1.602217e+00   2.925977e-02
  6.752944e-01    1.565555e+00   2.887049e-02
  6.775049e-01    1.604111e+00   2.917075e-02
  6.797153e-01    1.604488e+00   2.912136e-02
  6.819258e-01    1.621152e+00   2.921941e-02
  6.841362e-01    1.581835e+00   2.881101e-02
  6.863467e-01    1.588383e+00   2.881886e-02
  6.885572e-01    1.588605e+00   2.876924e-02
  6.907676e-01    1.582951e+00   2.866652e-02
  6.929781e-01    1.620930e+00   2.895682e-02
  6.951885e-01    1.609821e+00   2.880632e-02
  6.973990e-01    1.596393e+00   2.863521e-02
  6.996094e-01    1.575308e+00   2.839543e-02
  7.018199e-01    1.582736e+00   2.841232e-02
  7.040303e-01    1.629469e+00   2.877812e-02
  7.062408e-01    1.596833e+00   2.843856e-02
  7.084513e-01    1.598161e+00   2.840090e-02
  7.106617e-01    1.605328e+00   2.841504e-02
  7.128722e-01    1.596493e+00   2.828773e-02
  7.150826e-01    1.575789e+00   2.805525e-02
  7.172931e-01    1.591454e+00   2.814576e-02
  7.195035e-01    1.576423e+00   2.796436e-02
  7.217140e-01    1.538628e+00   2.767600e-02
  7.239245e-01    1.520387e+00   2.773423e-02
  7.261349e-01    1.565281e+00   2.824900e-02
  7.283454e-01    1.586838e+00   2.851556e-02
  7.305558e-01    1.530776e+00   2.806055e-02
  7.327663e-01    1.550833e+00   2.828594e-02
  7.349767e-01    1.577147e+00   2.854131e-02
  7.371872e-01    1.566762e+00   2.843602e-02
  7.393976e-01    1.560334e+00   2.836345e-02
  7.416081e-01    1.543360e+00   2.819274e-02
  7.438186e-01    1.523296e+00   2.786694e-02
  7.460290e-01    1.501750e+00   2.738179e-02
  7.482395e-01    1.564878e+00   2.778075e-02
  7.504499e-01    1.566847e+00   2.766229e-02
  7.526604e-01    1.542228e+00   2.732878e-02
  7.548708e-01    1.546445e+00   2.727748e-02
  7.570813e-01    1.549824e+00   2.725672e-02
  7.592918e-01    1.557207e+00   2.728656e-02
  7.615022e-01    1.555529e+00   2.723826e-02
  7.637127e-01    1.596469e+00   2.756137e-02
  7.659231e-01    1.571532e+00   2.731331e-02
  7.681336e-01    1.564910e+00   2.722419e-02
  7.703440e-01    1.596625e+00   2.746725e-02
  7.725545e-01    1.567932e+00   2.718849e-02
  7.747650e-01    1.583981e+00   2.728899e-02
  7.769754e-01    1.569497e+00   2.711131e-02
  7.791859e-01    1.552623e+00   2.691210e-02
  7.813963e-01    1.540349e+00   2.675355e-02
  7.836068e-01    1.551221e+00   2.679636e-02
  7.858172e-01    1.537932e+00   2.663145e-02
  7.880277e-01    1.541318e+00   2.661003e-02
  7.902381e-01    1.581358e+00   2.690446e-02
  7.924486e-01    1.618245e+00   2.716605e-02
  7.946591e-01    1.594308e+00   2.691617e-02
  7.968695e-01    1.627937e+00   2.714990e-02
  7.990800e-01    1.637080e+00   2.717737e-02
  8.012904e-01    1.641967e+00   2.717084e-02
  8.035009e-01    1.618362e+00   2.692683e-02
  8.057113e-01    1.585589e+00   2.660671e-02
  8.079218e-01    1.621457e+00   2.685951e-02
  8.101323e-01    1.624076e+00   2.683558e-02
  8.123427e-01    1.605248e+00   2.663406e-02
  8.145532e-01    1.604870e+00   2.658537e-02
  8.167636e-01    1.614702e+00   2.662183e-02
  8.189741e-01    1.623614e+00   2.665070e-02
  8.211845e-01    1.609498e+00   2.649012e-02
  8.233950e-01    1.616418e+00   2.650384e-02
  8.256054e-01    1.607529e+00   2.638707e-02
  8.278159e-01    1.654225e+00   2.672337e-02
  8.300264e-01    1.649077e+00   2.663856e-02
  8.322368e-01    1.626894e+00   2.641579e-02
  8.344473e-01    1.638201e+00   2.646408e-02
  8.366577e-01    1.646528e+00   2.648855e-02
  8.388682e-01    1.662001e+00   2.657020e-02
  8.410786e-01    1.636981e+00   2.632742e-02
  8.432891e-01    1.641845e+00   2.632460e-02
  8.454996e-01    1.645090e+00   2.630892e-02
  8.477100e-01    1.627515e+00   2.612648e-02
  8.499205e-01    1.649280e+00   2.625927e-02
  8.521309e-01    1.655363e+00   2.626665e-02
  8.543414e-01    1.632253e+00   2.604195e-02
  8.565518e-01    1.593511e+00   2.569100e-02
  8.587623e-01    1.613891e+00   2.581448e-02
  8.609727e-01    1.615400e+00   2.578652e-02
  8.631832e-01    1.572940e+00   2.540613e-02
  8.653937e-01    1.609353e+00   2.565901e-02
  8.676041e-01    1.609944e+00   2.562503e-02
  8.698146e-01    1.608224e+00   2.557217e-02
  8.720250e-01    1.597051e+00   2.544436e-02
  8.742355e-01    1.584331e+00   2.530424e-02
  8.764459e-01    1.624089e+00   2.558069e-02
  8.786564e-01    1.593076e+00   2.529752e-02
  8.808669e-01    1.575488e+00   2.511933e-02
  8.830773e-01    1.579732e+00   2.511527e-02
  8.852878e-01    1.607508e+00   2.529712e-02
  8.874982e-01    1.572548e+00   2.498423e-02
  8.897087e-01    1.574118e+00   2.495932e-02
  8.919191e-01    1.570499e+00   2.489322e-02
  8.941296e-01    1.614377e+00   2.520110e-02
  8.963401e-01    1.621789e+00   2.522224e-02
  8.985505e-01    1.576301e+00   2.482933e-02
  9.007610e-01    1.552404e+00   2.460418e-02
  9.029714e-01    1.593991e+00   2.489579e-02
  9.051819e-01    1.593253e+00   2.485290e-02
  9.073923e-01    1.589771e+00   2.478928e-02
  9.096028e-01    1.529340e+00   2.427942e-02
  9.118132e-01    1.554423e+00   2.444200e-02
  9.140237e-01    1.622452e+00   2.493424e-02
  9.162342e-01    1.614829e+00   2.484090e-02
  9.184446e-01    1.591151e+00   2.462245e-02
  9.206551e-01    1.575688e+00   2.446718e-02
  9.228655e-01    1.603327e+00   2.464556e-02
  9.250760e-01    1.615421e+00   2.470283e-02
  9.272864e-01    1.603283e+00   2.457560e-02
  9.294969e-01    1.618496e+00   2.465592e-02
  9.317074e-01    1.626813e+00   2.468426e-02
  9.339178e-01    1.666503e+00   2.494944e-02
  9.361283e-01    1.633862e+00   2.466748e-02
  9.383387e-01    1.650531e+00   2.475927e-02
  9.405492e-01    1.638586e+00   2.463507e-02
  9.427596e-01    1.633804e+00   2.456369e-02
  9.449701e-01    1.630765e+00   2.450746e-02
  9.471805e-01    1.678011e+00   2.482474e-02
  9.493910e-01    1.646069e+00   2.455359e-02
  9.516015e-01    1.676606e+00   2.474569e-02
  9.538119e-01    1.719795e+00   2.502804e-02
  9.560224e-01    1.729606e+00   2.506400e-02
  9.582328e-01    1.777003e+00   2.537102e-02
  9.604433e-01    1.756521e+00   2.518868e-02
  9.626537e-01    1.780599e+00   2.532660e-02
  9.648642e-01    1.828238e+00   2.562802e-02
  9.670747e-01    1.845224e+00   2.571131e-02
  9.692851e-01    1.834230e+00   2.560053e-02
  9.714956e-01    1.830573e+00   2.553893e-02
  9.737060e-01    1.799548e+00   2.528832e-02
  9.759165e-01    1.800631e+00   2.526027e-02
  9.781269e-01    1.821530e+00   2.537318e-02
  9.803374e-01    1.889680e+00   2.580773e-02
  9.825478e-01    1.897072e+00   2.582406e-02
  9.847583e-01    1.884431e+00   2.570293e-02
  9.869688e-01    1.827925e+00   2.528076e-02
  9.891792e-01    1.758705e+00   2.476452e-02
  9.913897e-01    1.749961e+00   2.466952e-02
  9.936001e-01    1.781212e+00   2.485625e-02
  9.958106e-01    1.720295e+00   2.439432e-02
  9.980210e-01    1.692161e+00   2.416261e-02
  1.000231e+00    1.655010e+00   2.402682e-02
  1.002442e+00    1.613402e+00   2.384890e-02
  1.004652e+00    1.611893e+00   2.390425e-02
  1.006863e+00    1.613863e+00   2.396847e-02
  1.009073e+00    1.615898e+00   2.402030e-02
  1.011284e+00    1.589448e+00   2.385477e-02
  1.013494e+00    1.610020e+00   2.403240e-02
  1.015705e+00    1.640577e+00   2.428238e-02
  1.017915e+00    1.603989e+00   2.402658e-02
  1.020126e+00    1.617633e+00   2.414488e-02
  1.022336e+00    1.603401e+00   2.405027e-02
  1.024547e+00    1.540330e+00   2.358371e-02
  1.026757e+00    1.536799e+00   2.356497e-02
  1.028967e+00    1.536055e+00   2.356694e-02
  1.031178e+00    1.551264e+00   2.368950e-02
  1.033388e+00    1.565228e+00   2.380102e-02
  1.035599e+00    1.532195e+00   2.355196e-02
  1.037809e+00    1.541185e+00   2.362421e-02
  1.040020e+00    1.575918e+00   2.389022e-02
  1.042230e+00    1.571581e+00   2.385932e-02
  1.044441e+00    1.563049e+00   2.379424e-02
  1.046651e+00    1.545966e+00   2.366402e-02
  1.048862e+00    1.559994e+00   2.377033e-02
  1.051072e+00    1.564835e+00   2.380478e-02
  1.053282e+00    1.577463e+00   2.389967e-02
  1.055493e+00    1.576825e+00   2.389041e-02
  1.057703e+00    1.577334e+00   2.389273e-02
  1.059914e+00    1.531652e+00   2.353987e-02
  1.062124e+00    1.503027e+00   2.331480e-02
  1.064335e+00    1.499702e+00   2.328553e-02
  1.066545e+00    1.493658e+00   2.323254e-02
  1.068756e+00    1.506944e+00   2.333187e-02
  1.070966e+00    1.468127e+00   2.302291e-02
  1.073177e+00    1.452990e+00   2.289787e-02
  1.075387e+00    1.477891e+00   2.308802e-02
  1.077597e+00    1.462707e+00   2.296187e-02
  1.079808e+00    1.481815e+00   2.297781e-02
  1.082018e+00    1.474875e+00   2.273412e-02
  1.084229e+00    1.502972e+00   2.283797e-02
  1.086439e+00    1.514006e+00   2.283251e-02
  1.088650e+00    1.513605e+00   2.275226e-02
  1.090860e+00    1.542106e+00   2.289585e-02
  1.093071e+00    1.550821e+00   2.289616e-02
  1.095281e+00    1.494950e+00   2.242174e-02
  1.097492e+00    1.431863e+00   2.188888e-02
  1.099702e+00    1.430724e+00   2.182893e-02
  1.101912e+00    1.465932e+00   2.204660e-02
  1.104123e+00    1.483502e+00   2.212932e-02
  1.106333e+00    1.466365e+00   2.195619e-02
  1.108544e+00    1.451942e+00   2.180336e-02
  1.110754e+00    1.409006e+00   2.143580e-02
  1.112965e+00    1.428087e+00   2.153982e-02
  1.115175e+00    1.444726e+00   2.162341e-02
  1.117386e+00    1.432233e+00   2.149022e-02
  1.119596e+00    1.408285e+00   2.127197e-02
  1.121807e+00    1.417748e+00   2.130439e-02
  1.124017e+00    1.399829e+00   2.113280e-02
  1.126228e+00    1.383305e+00   2.097219e-02
  1.128438e+00    1.387992e+00   2.097112e-02
  1.130648e+00    1.369405e+00   2.079627e-02
  1.132859e+00    1.358934e+00   2.068270e-02
  1.135069e+00    1.381562e+00   2.081960e-02
  1.137280e+00    1.369043e+00   2.069232e-02
  1.139490e+00    1.355111e+00   2.055408e-02
  1.141701e+00    1.357975e+00   2.054298e-02
  1.143911e+00    1.379977e+00   2.067691e-02
  1.146122e+00    1.367553e+00   2.055178e-02
  1.148332e+00    1.367465e+00   2.051938e-02
  1.150543e+00    1.341333e+00   2.029194e-02
  1.152753e+00    1.357969e+00   2.038674e-02
  1.154963e+00    1.382697e+00   2.054038e-02
  1.157174e+00    1.374097e+00   2.044624e-02
  1.159384e+00    1.356492e+00   2.028516e-02
  1.161595e+00    1.339760e+00   2.013014e-02
  1.163805e+00    1.371456e+00   2.033758e-02
  1.166016e+00    1.375732e+00   2.033976e-02
  1.168226e+00    1.368406e+00   2.025655e-02
  1.170437e+00    1.366629e+00   2.021476e-02
  1.172647e+00    1.336360e+00   1.996108e-02
  1.174858e+00    1.339146e+00   1.995400e-02
  1.177068e+00    1.372385e+00   2.017178e-02
  1.179278e+00    1.348402e+00   1.996633e-02
  1.181489e+00    1.368310e+00   2.008606e-02
  1.183699e+00    1.365761e+00   2.003973e-02
  1.185910e+00    1.344882e+00   1.985830e-02
  1.188120e+00    1.350151e+00   1.987056e-02
  1.190331e+00    1.363538e+00   1.994196e-02
  1.192541e+00    1.365053e+00   1.992555e-02
  1.194752e+00    1.355784e+00   1.983073e-02
  1.196962e+00    1.344773e+00   1.972435e-02
  1.199173e+00    1.337274e+00   1.964290e-02
  1.201383e+00    1.328279e+00   1.954979e-02
  1.203593e+00    1.331003e+00   1.954518e-02
  1.205804e+00    1.338946e+00   1.957760e-02
  1.208014e+00    1.340129e+00   1.955950e-02
  1.210225e+00    1.344276e+00   1.956446e-02
  1.212435e+00    1.342710e+00   1.952834e-02
  1.214646e+00    1.360770e+00   1.963302e-02
  1.216856e+00    1.354613e+00   1.956305e-02
  1.219067e+00    1.350119e+00   1.950608e-02
  1.221277e+00    1.332749e+00   1.935536e-02
  1.223488e+00    1.314673e+00   1.919823e-02
  1.225698e+00    1.330631e+00   1.928767e-02
  1.227909e+00    1.346623e+00   1.937312e-02
  1.230119e+00    1.318585e+00   1.913889e-02
  1.232329e+00    1.338997e+00   1.925585e-02
  1.234540e+00    1.351363e+00   1.931426e-02
  1.236750e+00    1.374895e+00   1.945117e-02
  1.238961e+00    1.340803e+00   1.918163e-02
  1.241171e+00    1.315245e+00   1.897405e-02
  1.243382e+00    1.343657e+00   1.915443e-02
  1.245592e+00    1.355550e+00   1.921487e-02
  1.247803e+00    1.359970e+00   1.922244e-02
  1.250013e+00    1.341328e+00   1.906676e-02
  1.252224e+00    1.335691e+00   1.900353e-02
  1.254434e+00    1.348264e+00   1.906903e-02
  1.256644e+00    1.335885e+00   1.895821e-02
  1.258855e+00    1.343386e+00   1.898815e-02
  1.261065e+00    1.352681e+00   1.903033e-02
  1.263276e+00    1.368120e+00   1.911553e-02
  1.265486e+00    1.377588e+00   1.915845e-02
  1.267697e+00    1.353169e+00   1.896486e-02
  1.269907e+00    1.337144e+00   1.882963e-02
  1.272118e+00    1.318015e+00   1.867215e-02
  1.274328e+00    1.317094e+00   1.864316e-02
  1.276539e+00    1.321649e+00   1.865284e-02
  1.278749e+00    1.327436e+00   1.867150e-02
  1.280959e+00    1.366313e+00   1.892031e-02
  1.283170e+00    1.346397e+00   1.875950e-02
  1.285380e+00    1.347873e+00   1.874734e-02
  1.287591e+00    1.374238e+00   1.890757e-02
  1.289801e+00    1.360844e+00   1.879393e-02
  1.292012e+00    1.326387e+00   1.853751e-02
  1.294222e+00    1.317544e+00   1.845955e-02
  1.296433e+00    1.330544e+00   1.853493e-02
  1.298643e+00    1.346904e+00   1.863206e-02
  1.300854e+00    1.371547e+00   1.878520e-02
  1.303064e+00    1.343142e+00   1.857050e-02
  1.305274e+00    1.340824e+00   1.853309e-02
  1.307485e+00    1.317217e+00   1.834794e-02
  1.309695e+00    1.343689e+00   1.850918e-02
  1.311906e+00    1.360394e+00   1.860211e-02
  1.314116e+00    1.341574e+00   1.845227e-02
  1.316327e+00    1.348469e+00   1.847794e-02
  1.318537e+00    1.324739e+00   1.829294e-02
  1.320748e+00    1.355560e+00   1.848293e-02
  1.322958e+00    1.363980e+00   1.851961e-02
  1.325169e+00    1.384453e+00   1.863681e-02
  1.327379e+00    1.362621e+00   1.846736e-02
  1.329589e+00    1.384298e+00   1.859234e-02
  1.331800e+00    1.379805e+00   1.854122e-02
  1.334010e+00    1.370598e+00   1.845844e-02
  1.336221e+00    1.361991e+00   1.837855e-02
  1.338431e+00    1.359384e+00   1.834001e-02
  1.340642e+00    1.338190e+00   1.826037e-02
  1.342852e+00    1.370119e+00   1.857833e-02
  1.345063e+00    1.332792e+00   1.837273e-02
  1.347273e+00    1.306810e+00   1.822739e-02
  1.349484e+00    1.335782e+00   1.845587e-02
  1.351694e+00    1.367203e+00   1.869453e-02
  1.353905e+00    1.345374e+00   1.856267e-02
  1.356115e+00    1.366164e+00   1.872066e-02
  1.358325e+00    1.331997e+00   1.849833e-02
  1.360536e+00    1.323685e+00   1.845202e-02
  1.362746e+00    1.314482e+00   1.839722e-02
  1.364957e+00    1.308593e+00   1.836349e-02
  1.367167e+00    1.303844e+00   1.833718e-02
  1.369378e+00    1.318375e+00   1.844503e-02
  1.371588e+00    1.323658e+00   1.848705e-02
  1.373799e+00    1.320051e+00   1.846549e-02
  1.376009e+00    1.328813e+00   1.853005e-02
  1.378220e+00    1.333799e+00   1.856731e-02
  1.380430e+00    1.333082e+00   1.856504e-02
  1.382640e+00    1.313101e+00   1.842627e-02
  1.384851e+00    1.288973e+00   1.825709e-02
  1.387061e+00    1.291793e+00   1.827730e-02
  1.389272e+00    1.336284e+00   1.858960e-02
  1.391482e+00    1.357466e+00   1.873568e-02
  1.393693e+00    1.334113e+00   1.857293e-02
  1.395903e+00    1.327012e+00   1.852193e-02
  1.398114e+00    1.299074e+00   1.832452e-02
  1.400324e+00    1.303017e+00   1.835017e-02
  1.402535e+00    1.286396e+00   1.823042e-02
  1.404745e+00    1.271835e+00   1.812461e-02
  1.406955e+00    1.288038e+00   1.823695e-02
  1.409166e+00    1.280837e+00   1.818262e-02
  1.411376e+00    1.263589e+00   1.805664e-02
  1.413587e+00    1.284851e+00   1.820410e-02
  1.415797e+00    1.251657e+00   1.796393e-02
  1.418008e+00    1.217938e+00   1.767927e-02
  1.420218e+00    1.250218e+00   1.776346e-02
  1.422429e+00    1.253305e+00   1.770063e-02
  1.424639e+00    1.251240e+00   1.762184e-02
  1.426850e+00    1.252780e+00   1.757834e-02
  1.429060e+00    1.251020e+00   1.751739e-02
  1.431270e+00    1.234645e+00   1.735867e-02
  1.433481e+00    1.247871e+00   1.741079e-02
  1.435691e+00    1.287958e+00   1.764954e-02
  1.437902e+00    1.281410e+00   1.756800e-02
  1.440112e+00    1.251792e+00   1.732870e-02
  1.442323e+00    1.254948e+00   1.731766e-02
  1.444533e+00    1.271374e+00   1.739807e-02
  1.446744e+00    1.256879e+00   1.726765e-02
  1.448954e+00    1.245970e+00   1.716262e-02
  1.451165e+00    1.255864e+00   1.720106e-02
  1.453375e+00    1.262617e+00   1.721927e-02
  1.455586e+00    1.274014e+00   1.726860e-02
  1.457796e+00    1.265374e+00   1.718248e-02
  1.460006e+00    1.273889e+00   1.721290e-02
  1.462217e+00    1.260582e+00   1.709666e-02
  1.464427e+00    1.224618e+00   1.682585e-02
  1.466638e+00    1.235122e+00   1.687286e-02
  1.468848e+00    1.265619e+00   1.705462e-02
  1.471059e+00    1.258296e+00   1.698022e-02
  1.473269e+00    1.264702e+00   1.699905e-02
  1.475480e+00    1.258989e+00   1.693696e-02
  1.477690e+00    1.237237e+00   1.676645e-02
  1.479901e+00    1.245158e+00   1.679640e-02
  1.482111e+00    1.263348e+00   1.689538e-02
  1.484321e+00    1.248114e+00   1.677025e-02
  1.486532e+00    1.258488e+00   1.681754e-02
  1.488742e+00    1.261816e+00   1.681713e-02
  1.490953e+00    1.259582e+00   1.677969e-02
  1.493163e+00    1.266616e+00   1.680414e-02
  1.495374e+00    1.289734e+00   1.693511e-02
  1.497584e+00    1.286784e+00   1.689385e-02
  1.499795e+00    1.256541e+00   1.667256e-02
  1.502005e+00    1.258464e+00   1.666361e-02
  1.504216e+00    1.259442e+00   1.664907e-02
  1.506426e+00    1.243098e+00   1.651997e-02
  1.508636e+00    1.240520e+00   1.648254e-02
  1.510847e+00    1.257089e+00   1.657040e-02
  1.513057e+00    1.285210e+00   1.672935e-02
  1.515268e+00    1.271965e+00   1.661705e-02
  1.517478e+00    1.231517e+00   1.632578e-02
  1.519689e+00    1.246194e+00   1.639787e-02
  1.521899e+00    1.256749e+00   1.644405e-02
  1.524110e+00    1.268602e+00   1.650095e-02
  1.526320e+00    1.276181e+00   1.653038e-02
  1.528531e+00    1.281594e+00   1.654542e-02
  1.530741e+00    1.235264e+00   1.622456e-02
  1.532951e+00    1.236126e+00   1.621075e-02
  1.535162e+00    1.231592e+00   1.626696e-02
  1.537372e+00    1.245242e+00   1.642365e-02
  1.539583e+00    1.237065e+00   1.640374e-02
  1.541793e+00    1.226482e+00   1.634029e-02
  1.544004e+00    1.237403e+00   1.641313e-02
  1.546214e+00    1.246700e+00   1.647318e-02
  1.548425e+00    1.228696e+00   1.635407e-02
  1.550635e+00    1.216947e+00   1.628524e-02
  1.552846e+00    1.241904e+00   1.646103e-02
  1.555056e+00    1.233484e+00   1.636384e-02
  1.557266e+00    1.230758e+00   1.623591e-02
  1.559477e+00    1.196423e+00   1.594988e-02
  1.561687e+00    1.227451e+00   1.612489e-02
  1.563898e+00    1.239541e+00   1.618702e-02
  1.566108e+00    1.260309e+00   1.630596e-02
  1.568319e+00    1.263485e+00   1.631080e-02
  1.570529e+00    1.232012e+00   1.608134e-02
  1.572740e+00    1.223525e+00   1.599848e-02
  1.574950e+00    1.237722e+00   1.606477e-02
  1.577161e+00    1.234050e+00   1.601558e-02
  1.579371e+00    1.230269e+00   1.596748e-02
  1.581582e+00    1.252000e+00   1.608807e-02
  1.583792e+00    1.230338e+00   1.593036e-02
  1.586002e+00    1.229629e+00   1.590825e-02
  1.588213e+00    1.242230e+00   1.597232e-02
  1.590423e+00    1.256674e+00   1.604475e-02
  1.592634e+00    1.222130e+00   1.580127e-02
  1.594844e+00    1.221232e+00   1.577423e-02
  1.597055e+00    1.225903e+00   1.578403e-02
  1.599265e+00    1.221221e+00   1.573330e-02
  1.601476e+00    1.244190e+00   1.586023e-02
  1.603686e+00    1.239846e+00   1.581278e-02
  1.605897e+00    1.219104e+00   1.565994e-02
  1.608107e+00    1.242793e+00   1.579174e-02
  1.610317e+00    1.248551e+00   1.580890e-02
  1.612528e+00    1.243615e+00   1.575837e-02
  1.614738e+00    1.258421e+00   1.583276e-02
  1.616949e+00    1.216921e+00   1.555060e-02
  1.619159e+00    1.215658e+00   1.552385e-02
  1.621370e+00    1.225751e+00   1.556967e-02
  1.623580e+00    1.188842e+00   1.531532e-02
  1.625791e+00    1.197255e+00   1.535123e-02
  1.628001e+00    1.194469e+00   1.531517e-02
  1.630212e+00    1.177685e+00   1.518954e-02
  1.632422e+00    1.175117e+00   1.515516e-02
  1.634632e+00    1.169650e+00   1.510266e-02
  1.636843e+00    1.142426e+00   1.490858e-02
  1.639053e+00    1.145763e+00   1.491325e-02
  1.641264e+00    1.145095e+00   1.489200e-02
  1.643474e+00    1.129302e+00   1.477180e-02
  1.645685e+00    1.137204e+00   1.480687e-02
  1.647895e+00    1.141963e+00   1.482134e-02
  1.650106e+00    1.141002e+00   1.479815e-02
  1.652316e+00    1.142690e+00   1.479268e-02
  1.654527e+00    1.125029e+00   1.466135e-02
  1.656737e+00    1.147106e+00   1.478789e-02
  1.658947e+00    1.108653e+00   1.452180e-02
  1.661158e+00    1.101244e+00   1.445710e-02
  1.663368e+00    1.104679e+00   1.446376e-02
  1.665579e+00    1.100460e+00   1.442008e-02
  1.667789e+00    1.094692e+00   1.436618e-02
  1.670000e+00    1.086316e+00   1.429580e-02
  1.672210e+00    1.075169e+00   1.420662e-02
  1.674421e+00    1.087566e+00   1.427310e-02
  1.676631e+00    1.079635e+00   1.420525e-02
  1.678842e+00    1.066154e+00   1.410074e-02
  1.681052e+00    1.072925e+00   1.413020e-02
  1.683263e+00    1.057424e+00   1.401286e-02
  1.685473e+00    1.064691e+00   1.404591e-02
  1.687683e+00    1.055742e+00   1.397154e-02
  1.689894e+00    1.047737e+00   1.390294e-02
  1.692104e+00    1.043677e+00   1.386130e-02
  1.694315e+00    1.040320e+00   1.382467e-02
  1.696525e+00    1.058024e+00   1.392677e-02
  1.698736e+00    1.042619e+00   1.381032e-02
  1.700946e+00    1.056037e+00   1.388381e-02
  1.703157e+00    1.036525e+00   1.374046e-02
  1.705367e+00    1.042264e+00   1.376400e-02
  1.707578e+00    1.036434e+00   1.371097e-02
  1.709788e+00    1.027708e+00   1.363915e-02
  1.711998e+00    1.032366e+00   1.365508e-02
  1.714209e+00    1.030653e+00   1.362937e-02
  1.716419e+00    1.009110e+00   1.347209e-02
  1.718630e+00    1.022752e+00   1.354862e-02
  1.720840e+00    1.019642e+00   1.351390e-02
  1.723051e+00    1.009273e+00   1.343124e-02
  1.725261e+00    9.977964e-01   1.334017e-02
  1.727472e+00    9.782369e-01   1.319486e-02
  1.729682e+00    1.000028e+00   1.332764e-02
  1.731893e+00    1.008911e+00   1.337283e-02
  1.734103e+00    9.833497e-01   1.318873e-02
  1.736313e+00    9.822671e-01   1.316762e-02
  1.738524e+00    9.834802e-01   1.316204e-02
  1.740734e+00    9.701601e-01   1.305913e-02
  1.742945e+00    9.498785e-01   1.290874e-02
  1.745155e+00    9.765400e-01   1.307532e-02
  1.747366e+00    9.656340e-01   1.298846e-02
  1.749576e+00    9.709747e-01   1.301075e-02
  1.751787e+00    9.755594e-01   1.302814e-02
  1.753997e+00    1.031762e+00   1.338441e-02
  1.756208e+00    1.078574e+00   1.367082e-02
  1.758418e+00    1.129065e+00   1.397296e-02
  1.760628e+00    1.083473e+00   1.367392e-02
  1.762839e+00    9.989135e-01   1.311602e-02
  1.765049e+00    9.692616e-01   1.290669e-02
  1.767260e+00    9.765211e-01   1.294201e-02
  1.769470e+00    9.666907e-01   1.286364e-02
  1.771681e+00    9.567680e-01   1.278429e-02
  1.773891e+00    9.310741e-01   1.259854e-02
  1.776102e+00    9.472985e-01   1.269494e-02
  1.778312e+00    9.513323e-01   1.270919e-02
  1.780523e+00    9.248266e-01   1.251826e-02
  1.782733e+00    9.485729e-01   1.266519e-02
  1.784944e+00    9.551203e-01   1.269583e-02
  1.787154e+00    9.458122e-01   1.262117e-02
  1.789364e+00    9.888409e-01   1.289222e-02
  1.791575e+00    9.526218e-01   1.264121e-02
  1.793785e+00    9.602457e-01   1.267902e-02
  1.795996e+00    9.506980e-01   1.260312e-02
  1.798206e+00    9.551315e-01   1.261972e-02
  1.800417e+00    9.458928e-01   1.254565e-02
  1.802627e+00    9.142709e-01   1.232223e-02
  1.804838e+00    9.571698e-01   1.259556e-02
  1.807048e+00    1.017427e+00   1.297241e-02
  1.809259e+00    1.039203e+00   1.309597e-02
  1.811469e+00    9.378707e-01   1.242590e-02
  1.813679e+00    8.962675e-01   1.213221e-02
  1.815890e+00    8.917945e-01   1.208718e-02
  1.818100e+00    9.092197e-01   1.218952e-02
  1.820311e+00    8.708709e-01   1.191510e-02
  1.822521e+00    8.655445e-01   1.186395e-02
  1.824732e+00    8.903095e-01   1.201767e-02
  1.826942e+00    8.819910e-01   1.194911e-02
  1.829153e+00    8.627039e-01   1.180619e-02
  1.831363e+00    8.699992e-01   1.184407e-02
  1.833574e+00    8.642813e-01   1.179349e-02
  1.835784e+00    8.662716e-01   1.179576e-02
  1.837994e+00    8.712374e-01   1.181782e-02
  1.840205e+00    8.708009e-01   1.180373e-02
  1.842415e+00    8.591181e-01   1.171258e-02
  1.844626e+00    8.762858e-01   1.181745e-02
  1.846836e+00    8.635871e-01   1.172010e-02
  1.849047e+00    8.583506e-01   1.167298e-02
  1.851257e+00    8.637088e-01   1.169975e-02
  1.853468e+00    8.878376e-01   1.185314e-02
  1.855678e+00    8.525409e-01   1.160631e-02
  1.857889e+00    8.440577e-01   1.153996e-02
  1.860099e+00    8.580266e-01   1.162644e-02
  1.862309e+00    8.693529e-01   1.169434e-02
  1.864520e+00    8.627035e-01   1.164094e-02
  1.866730e+00    8.394896e-01   1.147395e-02
  1.868941e+00    8.521945e-01   1.154949e-02
  1.871151e+00    8.882082e-01   1.177937e-02
  1.873362e+00    9.238034e-01   1.200128e-02
  1.875572e+00    9.429534e-01   1.211347e-02
  1.877783e+00    9.909210e-01   1.240545e-02
  1.879993e+00    9.011053e-01   1.181840e-02
  1.882204e+00    8.581450e-01   1.152223e-02
  1.884414e+00    8.548998e-01   1.148926e-02
  1.886624e+00    8.630996e-01   1.153304e-02
  1.888835e+00    8.732789e-01   1.158967e-02
  1.891045e+00    8.830160e-01   1.164294e-02
  1.893256e+00    8.896409e-01   1.167512e-02
  1.895466e+00    8.907645e-01   1.167097e-02
  1.897677e+00    8.747811e-01   1.155463e-02
  1.899887e+00    8.341172e-01   1.127189e-02
  1.902098e+00    8.304232e-01   1.123606e-02
  1.904308e+00    8.374159e-01   1.127263e-02
  1.906519e+00    8.421139e-01   1.129331e-02
  1.908729e+00    8.288805e-01   1.119362e-02
  1.910940e+00    8.267817e-01   1.116830e-02
  1.913150e+00    8.251771e-01   1.114689e-02
  1.915360e+00    8.186241e-01   1.109195e-02
  1.917571e+00    8.045273e-01   1.098530e-02
  1.919781e+00    8.213392e-01   1.108876e-02
  1.921992e+00    8.378358e-01   1.118885e-02
  1.924202e+00    8.238838e-01   1.108450e-02
  1.926413e+00    8.114437e-01   1.099023e-02
  1.928623e+00    7.989700e-01   1.089498e-02
  1.930834e+00    8.025293e-01   1.090886e-02
  1.933044e+00    7.970486e-01   1.086098e-02
  1.935255e+00    8.076909e-01   1.092292e-02
  1.937465e+00    8.158674e-01   1.096763e-02
  1.939675e+00    8.002840e-01   1.085159e-02
  1.941886e+00    8.101753e-01   1.090811e-02
  1.944096e+00    8.069940e-01   1.087648e-02
  1.946307e+00    8.031073e-01   1.083992e-02
  1.948517e+00    7.809697e-01   1.067913e-02
  1.950728e+00    7.847464e-01   1.069478e-02
  1.952938e+00    7.887866e-01   1.071224e-02
  1.955149e+00    7.806415e-01   1.064665e-02
  1.957359e+00    8.143840e-01   1.086415e-02
  1.959570e+00    7.967074e-01   1.073473e-02
  1.961780e+00    7.835923e-01   1.063614e-02
  1.963990e+00    7.998520e-01   1.073575e-02
  1.966201e+00    8.037913e-01   1.075202e-02
  1.968411e+00    7.986289e-01   1.070724e-02
  1.970622e+00    7.784604e-01   1.056113e-02
  1.972832e+00    7.886618e-01   1.062013e-02
  1.975043e+00    7.846695e-01   1.058318e-02
  1.977253e+00    7.873048e-01   1.059096e-02
  1.979464e+00    7.797259e-01   1.052987e-02
  1.981674e+00    7.810956e-01   1.052885e-02
  1.983885e+00    7.805843e-01   1.051540e-02
  1.986095e+00    7.511754e-01   1.030590e-02
  1.988305e+00    7.689183e-01   1.041705e-02
  1.990516e+00    7.779733e-01   1.046830e-02
  1.992726e+00    7.724659e-01   1.042156e-02
  1.994937e+00    7.661696e-01   1.036894e-02
  1.997147e+00    7.657617e-01   1.035650e-02
  1.999358e+00    7.743117e-01   1.040432e-02
  2.001568e+00    7.771394e-01   1.041245e-02
  2.003779e+00    7.820663e-01   1.043343e-02
  2.005989e+00    7.711863e-01   1.034858e-02
  2.008200e+00    7.611560e-01   1.026959e-02
  2.010410e+00    7.595838e-01   1.024732e-02
  2.012621e+00    7.672095e-01   1.028692e-02
  2.014831e+00    7.696804e-01   1.029200e-02
  2.017041e+00    7.682669e-01   1.027215e-02
  2.019252e+00    7.577361e-01   1.019159e-02
  2.021462e+00    7.641537e-01   1.022515e-02
  2.023673e+00    7.667981e-01   1.023344e-02
  2.025883e+00    7.550628e-01   1.014536e-02
  2.028094e+00    7.361839e-01   1.000825e-02
  2.030304e+00    7.629126e-01   1.017876e-02
  2.032515e+00    7.444781e-01   1.004586e-02
  2.034725e+00    7.497221e-01   1.007176e-02
  2.036936e+00    7.513682e-01   1.007354e-02
  2.039146e+00    7.461487e-01   1.002898e-02
  2.041356e+00    7.411647e-01   9.985874e-03
  2.043567e+00    7.608528e-01   1.010830e-02
  2.045777e+00    7.583195e-01   1.008221e-02
  2.047988e+00    7.558090e-01   1.005613e-02
  2.050198e+00    7.457081e-01   9.980313e-03
  2.052409e+00    7.473544e-01   9.983686e-03
  2.054619e+00    7.549485e-01   1.002691e-02
  2.056830e+00    7.383770e-01   9.909115e-03
  2.059040e+00    7.603175e-01   1.004771e-02
  2.061251e+00    7.622691e-01   1.005329e-02
  2.063461e+00    7.549971e-01   9.997604e-03
  2.065671e+00    7.517995e-01   9.967669e-03
  2.067882e+00    7.580742e-01   1.000011e-02
  2.070092e+00    7.537761e-01   9.962503e-03
  2.072303e+00    7.491875e-01   9.922965e-03
  2.074513e+00    7.534453e-01   9.941755e-03
  2.076724e+00    7.512017e-01   9.917439e-03
  2.078934e+00    7.401288e-01   9.835087e-03
  2.081145e+00    7.314472e-01   9.768226e-03
  2.083355e+00    7.462937e-01   9.857652e-03
  2.085566e+00    7.484363e-01   9.862849e-03
  2.087776e+00    7.366377e-01   9.775311e-03
  2.089986e+00    7.216027e-01   9.666361e-03
  2.092197e+00    7.407037e-01   9.784451e-03
  2.094407e+00    7.360400e-01   9.744416e-03
  2.096618e+00    7.300194e-01   9.695587e-03
  2.098828e+00    7.235115e-01   9.643055e-03
  2.101039e+00    7.171316e-01   9.591542e-03
  2.103249e+00    7.276957e-01   9.653280e-03
  2.105460e+00    7.337336e-01   9.684228e-03
  2.107670e+00    7.162654e-01   9.559584e-03
  2.109881e+00    7.217609e-01   9.587052e-03
  2.112091e+00    7.452598e-01   9.732759e-03
  2.114301e+00    7.201263e-01   9.558510e-03
  2.116512e+00    7.102349e-01   9.483892e-03
  2.118722e+00    7.113182e-01   9.482380e-03
  2.120933e+00    7.049178e-01   9.430849e-03
  2.123143e+00    7.245752e-01   9.552483e-03
  2.125354e+00    6.978322e-01   9.366170e-03
  2.127564e+00    7.030810e-01   9.392631e-03
  2.129775e+00    7.215679e-01   9.506585e-03
  2.131985e+00    7.143740e-01   9.450002e-03
  2.134196e+00    7.197356e-01   9.476786e-03
  2.136406e+00    7.084342e-01   9.393364e-03
  2.138617e+00    7.078422e-01   9.380994e-03
  2.140827e+00    7.032053e-01   9.366213e-03
  2.143037e+00    7.136592e-01   9.481257e-03
  2.145248e+00    7.238190e-01   9.570795e-03
  2.147458e+00    7.208570e-01   9.566507e-03
  2.149669e+00    6.971790e-01   9.419897e-03
  2.151879e+00    6.973526e-01   9.430235e-03
  2.154090e+00    6.919600e-01   9.400985e-03
  2.156300e+00    6.940754e-01   9.421902e-03
  2.158511e+00    7.073462e-01   9.516894e-03
  2.160721e+00    7.098745e-01   9.538738e-03
  2.162932e+00    7.095346e-01   9.540233e-03
  2.165142e+00    7.090829e-01   9.540235e-03
  2.167352e+00    7.119619e-01   9.562541e-03
  2.169563e+00    6.880184e-01   9.402314e-03
  2.171773e+00    6.883913e-01   9.407290e-03
  2.173984e+00    6.810390e-01   9.358315e-03
  2.176194e+00    6.855931e-01   9.390745e-03
  2.178405e+00    7.019526e-01   9.502829e-03
  2.180615e+00    6.948745e-01   9.455482e-03
  2.182826e+00    6.875406e-01   9.406136e-03
  2.185036e+00    6.922050e-01   9.438031e-03
  2.187247e+00    6.851893e-01   9.390042e-03
  2.189457e+00    6.908932e-01   9.428617e-03
  2.191667e+00    6.997637e-01   9.488785e-03
  2.193878e+00    6.870797e-01   9.401841e-03
  2.196088e+00    6.873270e-01   9.402837e-03
  2.198299e+00    6.826760e-01   9.369873e-03
  2.200509e+00    6.877561e-01   9.403626e-03
  2.202720e+00    6.741003e-01   9.308638e-03
  2.204930e+00    6.882493e-01   9.404595e-03
  2.207141e+00    6.724245e-01   9.294734e-03
  2.209351e+00    6.786879e-01   9.336031e-03
  2.211562e+00    6.694282e-01   9.270515e-03
  2.213772e+00    6.852189e-01   9.323403e-03
  2.215982e+00    6.837311e-01   9.268799e-03
  2.218193e+00    6.909770e-01   9.287822e-03
  2.220403e+00    6.737909e-01   9.147041e-03
  2.222614e+00    6.817406e-01   9.179742e-03
  2.224824e+00    6.908924e-01   9.221528e-03
  2.227035e+00    6.816907e-01   9.142368e-03
  2.229245e+00    6.580094e-01   8.965367e-03
  2.231456e+00    6.783261e-01   9.087014e-03
  2.233666e+00    6.808083e-01   9.088428e-03
  2.235877e+00    6.733347e-01   9.024114e-03
  2.238087e+00    6.595330e-01   8.917775e-03
  2.240298e+00    6.578962e-01   8.893042e-03
  2.242508e+00    6.583271e-01   8.880957e-03
  2.244718e+00    6.532446e-01   8.830978e-03
  2.246929e+00    6.660970e-01   8.903022e-03
  2.249139e+00    6.537363e-01   8.807792e-03
  2.251350e+00    6.570572e-01   8.818497e-03
  2.253560e+00    6.619880e-01   8.840013e-03
  2.255771e+00    6.564584e-01   8.791683e-03
  2.257981e+00    6.541085e-01   8.764837e-03
  2.260192e+00    6.604964e-01   8.796460e-03
  2.262402e+00    6.616299e-01   8.793173e-03
  2.264613e+00    6.591510e-01   8.765896e-03
  2.266823e+00    6.641139e-01   8.788420e-03
  2.269033e+00    6.761567e-01   8.857250e-03
  2.271244e+00    6.696929e-01   8.804401e-03
  2.273454e+00    6.700581e-01   8.796440e-03
  2.275665e+00    6.699939e-01   8.785676e-03
  2.277875e+00    6.662995e-01   8.751452e-03
  2.280086e+00    6.660369e-01   8.739637e-03
  2.282296e+00    6.523670e-01   8.640127e-03
  2.284507e+00    6.697367e-01   8.744183e-03
  2.286717e+00    6.504425e-01   8.607903e-03
  2.288928e+00    6.442725e-01   8.557199e-03
  2.291138e+00    6.512646e-01   8.594126e-03
  2.293348e+00    6.550193e-01   8.609323e-03
  2.295559e+00    6.643810e-01   8.661250e-03
  2.297769e+00    6.588084e-01   8.615607e-03
  2.299980e+00    6.328825e-01   8.435163e-03
  2.302190e+00    6.394306e-01   8.469664e-03
  2.304401e+00    6.547263e-01   8.561023e-03
  2.306611e+00    6.484390e-01   8.510660e-03
  2.308822e+00    6.315557e-01   8.390856e-03
  2.311032e+00    6.639949e-01   8.597139e-03
  2.313243e+00    6.551707e-01   8.533540e-03
  2.315453e+00    6.329306e-01   8.379965e-03
  2.317663e+00    6.454256e-01   8.453168e-03
  2.319874e+00    6.187399e-01   8.268039e-03
  2.322084e+00    6.364353e-01   8.376505e-03
  2.324295e+00    6.589530e-01   8.515120e-03
  2.326505e+00    6.489372e-01   8.441061e-03
  2.328716e+00    6.448580e-01   8.405938e-03
  2.330926e+00    6.465933e-01   8.408418e-03
  2.333137e+00    6.388215e-01   8.349381e-03
  2.335347e+00    6.315538e-01   8.292958e-03
  2.337558e+00    6.249285e-01   8.241192e-03
  2.339768e+00    6.445544e-01   8.361001e-03
  2.341979e+00    6.424756e-01   8.339121e-03
  2.344189e+00    6.387165e-01   8.306292e-03
  2.346399e+00    6.268523e-01   8.220357e-03
  2.348610e+00    6.317307e-01   8.243829e-03
  2.350820e+00    6.423590e-01   8.304674e-03
  2.353031e+00    6.360111e-01   8.255249e-03
  2.355241e+00    6.199158e-01   8.142143e-03
  2.357452e+00    6.205498e-01   8.137968e-03
  2.359662e+00    6.331446e-01   8.211897e-03
  2.361873e+00    6.299568e-01   8.182979e-03
  2.364083e+00    6.257420e-01   8.147582e-03
  2.366294e+00    6.380062e-01   8.218868e-03
  2.368504e+00    6.312382e-01   8.167062e-03
  2.370714e+00    6.120819e-01   8.034212e-03
  2.372925e+00    6.156405e-01   8.049549e-03
  2.375135e+00    6.222739e-01   8.084731e-03
  2.377346e+00    6.143582e-01   8.025289e-03
  2.379556e+00    6.094097e-01   7.985078e-03
  2.381767e+00    6.006476e-01   7.919729e-03
  2.383977e+00    5.941634e-01   7.869122e-03
  2.386188e+00    5.959940e-01   7.873438e-03
  2.388398e+00    6.135576e-01   7.980706e-03
  2.390609e+00    6.220830e-01   8.028190e-03
  2.392819e+00    6.211101e-01   8.014127e-03
  2.395029e+00    6.014076e-01   7.878413e-03
  2.397240e+00    5.935422e-01   7.818992e-03
  2.399450e+00    5.916215e-01   7.798656e-03
  2.401661e+00    6.076511e-01   7.895941e-03
  2.403871e+00    6.133930e-01   7.925408e-03
  2.406082e+00    6.013049e-01   7.839527e-03
  2.408292e+00    6.116036e-01   7.898585e-03
  2.410503e+00    6.206602e-01   7.949268e-03
  2.412713e+00    6.063490e-01   7.849324e-03
  2.414924e+00    5.982337e-01   7.789170e-03
  2.417134e+00    6.020927e-01   7.806628e-03
  2.419344e+00    6.039240e-01   7.811076e-03
  2.421555e+00    5.988840e-01   7.770938e-03
  2.423765e+00    6.048981e-01   7.802416e-03
  2.425976e+00    6.053332e-01   7.797381e-03
  2.428186e+00    6.065990e-01   7.798274e-03
  2.430397e+00    5.930386e-01   7.703143e-03
  2.432607e+00    5.930315e-01   7.695863e-03
  2.434818e+00    5.768462e-01   7.582675e-03
  2.437028e+00    5.880165e-01   7.648621e-03
  2.439239e+00    5.957596e-01   7.691159e-03
  2.441449e+00    5.883209e-01   7.635815e-03
  2.443659e+00    5.945941e-01   7.669050e-03
  2.445870e+00    5.808307e-01   7.591927e-03
  2.448080e+00    5.683212e-01   7.544098e-03
  2.450291e+00    5.737644e-01   7.596674e-03
  2.452501e+00    5.730664e-01   7.603200e-03
  2.454712e+00    5.711015e-01   7.598564e-03
  2.456922e+00    5.592739e-01   7.526023e-03
  2.459133e+00    5.607982e-01   7.541672e-03
  2.461343e+00    5.529505e-01   7.493015e-03
  2.463554e+00    5.514717e-01   7.486422e-03
  2.465764e+00    5.446584e-01   7.443112e-03
  2.467975e+00    5.595707e-01   7.546584e-03
  2.470185e+00    5.682016e-01   7.606871e-03
  2.472395e+00    5.462605e-01   7.459743e-03
  2.474606e+00    5.562469e-01   7.529193e-03
  2.476816e+00    5.548211e-01   7.520278e-03
  2.479027e+00    5.541870e-01   7.516824e-03
  2.481237e+00    5.578453e-01   7.541870e-03
  2.483448e+00    5.551931e-01   7.524249e-03
  2.485658e+00    5.403650e-01   7.422927e-03
  2.487869e+00    5.439460e-01   7.447530e-03
  2.490079e+00    5.391228e-01   7.413907e-03
  2.492290e+00    5.423789e-01   7.435839e-03
  2.494500e+00    5.392396e-01   7.413554e-03
  2.496710e+00    5.457273e-01   7.457308e-03
  2.498921e+00    5.301887e-01   7.349403e-03
  2.501131e+00    5.196975e-01   7.275378e-03
  2.503342e+00    5.299419e-01   7.345479e-03
  2.505552e+00    5.184385e-01   7.264195e-03
  2.507763e+00    5.129617e-01   7.224342e-03
  2.509973e+00    5.172377e-01   7.252993e-03
  2.512184e+00    5.300372e-01   7.340565e-03
  2.514394e+00    5.317504e-01   7.343040e-03
  2.516605e+00    5.248539e-01   7.248261e-03
  2.518815e+00    5.160344e-01   7.159060e-03
  2.521025e+00    5.184057e-01   7.154658e-03
  2.523236e+00    5.230528e-01   7.168718e-03
  2.525446e+00    5.211549e-01   7.140155e-03
  2.527657e+00    5.375013e-01   7.236500e-03
  2.529867e+00    5.481341e-01   7.293232e-03
  2.532078e+00    5.349487e-01   7.189821e-03
  2.534288e+00    5.269455e-01   7.121899e-03
  2.536499e+00    5.247645e-01   7.095221e-03
  2.538709e+00    5.194551e-01   7.048284e-03
  2.540920e+00    5.190051e-01   7.034635e-03
  2.543130e+00    5.257516e-01   7.069826e-03
  2.545340e+00    5.258830e-01   7.060635e-03
  2.547551e+00    5.132055e-01   6.965155e-03
  2.549761e+00    5.247849e-01   7.033684e-03
  2.551972e+00    5.197908e-01   6.990811e-03
  2.554182e+00    5.216578e-01   6.994166e-03
  2.556393e+00    5.224774e-01   6.990549e-03
  2.558603e+00    5.302365e-01   7.033106e-03
  2.560814e+00    5.336938e-01   7.047191e-03
  2.563024e+00    5.184436e-01   6.937207e-03
  2.565235e+00    5.162833e-01   6.913241e-03
  2.567445e+00    5.181054e-01   6.915896e-03
  2.569656e+00    5.054350e-01   6.821177e-03
  2.571866e+00    4.973548e-01   6.757267e-03
  2.574076e+00    5.215517e-01   6.910359e-03
  2.576287e+00    5.097443e-01   6.823439e-03
  2.578497e+00    5.221153e-01   6.897837e-03
  2.580708e+00    5.214813e-01   6.885517e-03
  2.582918e+00    5.119219e-01   6.814389e-03
  2.585129e+00    5.137758e-01   6.818958e-03
  2.587339e+00    5.152770e-01   6.821231e-03
  2.589550e+00    4.909255e-01   6.650710e-03
  2.591760e+00    5.074173e-01   6.753787e-03
  2.593971e+00    4.962188e-01   6.671444e-03
  2.596181e+00    4.933025e-01   6.645694e-03
  2.598391e+00    4.954777e-01   6.655213e-03
  2.600602e+00    5.134147e-01   6.768660e-03
  2.602812e+00    5.173906e-01   6.787247e-03
  2.605023e+00    5.062657e-01   6.706722e-03
  2.607233e+00    5.119432e-01   6.737056e-03
  2.609444e+00    5.052872e-01   6.685912e-03
  2.611654e+00    4.963751e-01   6.619428e-03
  2.613865e+00    5.105534e-01   6.706241e-03
  2.616075e+00    4.953839e-01   6.598800e-03
  2.618286e+00    4.965486e-01   6.599617e-03
  2.620496e+00    4.985480e-01   6.606237e-03
  2.622706e+00    4.955315e-01   6.580528e-03
  2.624917e+00    5.052102e-01   6.638629e-03
  2.627127e+00    5.048415e-01   6.630468e-03
  2.629338e+00    5.011221e-01   6.600040e-03
  2.631548e+00    4.936812e-01   6.544740e-03
  2.633759e+00    4.958164e-01   6.551772e-03
  2.635969e+00    5.054646e-01   6.608505e-03
  2.638180e+00    5.011849e-01   6.573489e-03
  2.640390e+00    4.913661e-01   6.502245e-03
  2.642601e+00    4.938891e-01   6.512290e-03
  2.644811e+00    4.897377e-01   6.477863e-03
  2.647021e+00    4.924879e-01   6.489519e-03
  2.649232e+00    5.016227e-01   6.542683e-03
  2.651442e+00    4.939187e-01   6.485790e-03
  2.653653e+00    4.847221e-01   6.418432e-03
  2.655863e+00    4.960891e-01   6.486564e-03
  2.658074e+00    4.938514e-01   6.465363e-03
  2.660284e+00    4.933039e-01   6.455419e-03
  2.662495e+00    5.017917e-01   6.503954e-03
  2.664705e+00    5.011181e-01   6.492993e-03
  2.666916e+00    4.935667e-01   6.437429e-03
  2.669126e+00    4.983470e-01   6.462073e-03
  2.671337e+00    4.720104e-01   6.282569e-03
  2.673547e+00    4.836275e-01   6.353098e-03
  2.675757e+00    4.915828e-01   6.398709e-03
  2.677968e+00    4.992897e-01   6.442126e-03
  2.680178e+00    4.909405e-01   6.381647e-03
  2.682389e+00    5.067426e-01   6.477053e-03
  2.684599e+00    5.012351e-01   6.435528e-03
  2.686810e+00    4.962768e-01   6.396993e-03
  2.689020e+00    4.868806e-01   6.329861e-03
  2.691231e+00    4.946765e-01   6.374045e-03
  2.693441e+00    4.808420e-01   6.278203e-03
  2.695652e+00    4.832741e-01   6.287569e-03
  2.697862e+00    4.943240e-01   6.352674e-03
  2.700072e+00    4.864235e-01   6.295662e-03
  2.702283e+00    4.830716e-01   6.267747e-03
  2.704493e+00    4.888777e-01   6.299005e-03
  2.706704e+00    4.910018e-01   6.306263e-03
  2.708914e+00    4.852690e-01   6.263391e-03
  2.711125e+00    4.860392e-01   6.262119e-03
  2.713335e+00    4.764398e-01   6.193954e-03
  2.715546e+00    4.876381e-01   6.259850e-03
  2.717756e+00    4.925259e-01   6.285233e-03
  2.719967e+00    4.786909e-01   6.190156e-03
  2.722177e+00    4.802487e-01   6.194130e-03
  2.724387e+00    4.807881e-01   6.191538e-03
  2.726598e+00    4.805867e-01   6.184207e-03
  2.728808e+00    4.902003e-01   6.239560e-03
  2.731019e+00    4.893982e-01   6.228340e-03
  2.733229e+00    4.760174e-01   6.136816e-03
  2.735440e+00    4.750504e-01   6.124378e-03
  2.737650e+00    4.681885e-01   6.074070e-03
  2.739861e+00    4.738812e-01   6.104867e-03
  2.742071e+00    4.703452e-01   6.076383e-03
  2.744282e+00    4.881206e-01   6.183848e-03
  2.746492e+00    4.854600e-01   6.160934e-03
  2.748702e+00    4.689034e-01   6.049137e-03
  2.750913e+00    4.811258e-01   6.121657e-03
  2.753123e+00    4.888333e-01   6.164356e-03
  2.755334e+00    4.834007e-01   6.123918e-03
  2.757544e+00    4.696094e-01   6.030241e-03
  2.759755e+00    4.864562e-01   6.131535e-03
  2.761965e+00    4.894622e-01   6.144412e-03
  2.764176e+00    4.832192e-01   6.099102e-03
  2.766386e+00    4.771684e-01   6.055016e-03
  2.768597e+00    4.736305e-01   6.026712e-03
  2.770807e+00    4.651147e-01   5.966479e-03
  2.773017e+00    4.645333e-01   5.956877e-03
  2.775228e+00    4.759204e-01   6.023665e-03
  2.777438e+00    4.840391e-01   6.069000e-03
  2.779649e+00    4.805433e-01   6.041141e-03
  2.781859e+00    4.616156e-01   5.915302e-03
  2.784070e+00    4.778855e-01   6.012773e-03
  2.786280e+00    4.695705e-01   5.954514e-03
  2.788491e+00    4.771504e-01   5.996547e-03
  2.790701e+00    4.753723e-01   5.979721e-03
  2.792912e+00    4.722988e-01   5.954424e-03
  2.795122e+00    4.582903e-01   5.859844e-03
  2.797333e+00    4.621209e-01   5.878758e-03
  2.799543e+00    4.862127e-01   6.024153e-03
  2.801753e+00    4.788169e-01   5.972288e-03
  2.803964e+00    4.780256e-01   5.961660e-03
  2.806174e+00    4.843950e-01   5.995044e-03
  2.808385e+00    4.761754e-01   5.937158e-03
  2.810595e+00    4.785349e-01   5.944961e-03
  2.812806e+00    4.655807e-01   5.857397e-03
  2.815016e+00    4.658228e-01   5.854207e-03
  2.817227e+00    4.739950e-01   5.931256e-03
  2.819437e+00    4.687177e-01   5.909183e-03
  2.821648e+00    4.753475e-01   5.953104e-03
  2.823858e+00    4.776027e-01   5.972589e-03
  2.826068e+00    4.702442e-01   5.931368e-03
  2.828279e+00    4.572546e-01   5.852843e-03
  2.830489e+00    4.569602e-01   5.854229e-03
  2.832700e+00    4.604490e-01   5.879061e-03
  2.834910e+00    4.841239e-01   6.030399e-03
  2.837121e+00    4.717084e-01   5.954293e-03
  2.839331e+00    4.664898e-01   5.922493e-03
  2.841542e+00    4.673585e-01   5.928993e-03
  2.843752e+00    4.707148e-01   5.951057e-03
  2.845963e+00    4.596820e-01   5.881285e-03
  2.848173e+00    4.592100e-01   5.878343e-03
  2.850383e+00    4.648892e-01   5.914877e-03
  2.852594e+00    4.661640e-01   5.922918e-03
  2.854804e+00    4.517004e-01   5.829789e-03
  2.857015e+00    4.681826e-01   5.934768e-03
  2.859225e+00    4.681763e-01   5.934490e-03
  2.861436e+00    4.616283e-01   5.892194e-03
  2.863646e+00    4.695816e-01   5.942758e-03
  2.865857e+00    4.620999e-01   5.895577e-03
  2.868067e+00    4.672427e-01   5.928507e-03
  2.870278e+00    4.600169e-01   5.882147e-03
  2.872488e+00    4.429550e-01   5.770892e-03
  2.874698e+00    4.451169e-01   5.783938e-03
  2.876909e+00    4.573242e-01   5.861386e-03
  2.879119e+00    4.676627e-01   5.925624e-03
  2.881330e+00    4.711813e-01   5.946419e-03
  2.883540e+00    4.676017e-01   5.922375e-03
  2.885751e+00    4.681577e-01   5.924253e-03
  2.887961e+00    4.634790e-01   5.892670e-03
  2.890172e+00    4.666485e-01   5.911202e-03
  2.892382e+00    4.540808e-01   5.829236e-03
  2.894593e+00    4.595798e-01   5.862633e-03
  2.896803e+00    4.516519e-01   5.809872e-03
  2.899014e+00    4.587336e-01   5.853348e-03
  2.901224e+00    4.585835e-01   5.850390e-03
  2.903434e+00    4.592271e-01   5.852558e-03
  2.905645e+00    4.514105e-01   5.800329e-03
  2.907855e+00    4.558637e-01   5.826780e-03
  2.910066e+00    4.597355e-01   5.849387e-03
  2.912276e+00    4.619863e-01   5.861569e-03
  2.914487e+00    4.593243e-01   5.842184e-03
  2.916697e+00    4.529746e-01   5.799471e-03
  2.918908e+00    4.461328e-01   5.753523e-03
  2.921118e+00    4.582751e-01   5.828580e-03
  2.923329e+00    4.581817e-01   5.825693e-03
  2.925539e+00    4.582601e-01   5.823905e-03
  2.927749e+00    4.468729e-01   5.748798e-03
  2.929960e+00    4.516635e-01   5.776776e-03
  2.932170e+00    4.469216e-01   5.744069e-03
  2.934381e+00    4.469597e-01   5.741892e-03
  2.936591e+00    4.601448e-01   5.823389e-03
  2.938802e+00    4.410080e-01   5.698347e-03
  2.941012e+00    4.493018e-01   5.749338e-03
  2.943223e+00    4.597479e-01   5.813099e-03
  2.945433e+00    4.576182e-01   5.795880e-03
  2.947644e+00    4.528346e-01   5.761384e-03
  2.949854e+00    4.523683e-01   5.754162e-03
  2.952064e+00    4.360666e-01   5.645385e-03
  2.954275e+00    4.626817e-01   5.810675e-03
  2.956485e+00    4.588531e-01   5.782383e-03
  2.958696e+00    4.497697e-01   5.720518e-03
  2.960906e+00    4.474156e-01   5.701368e-03
  2.963117e+00    4.555660e-01   5.748579e-03
  2.965327e+00    4.570118e-01   5.753791e-03
  2.967538e+00    4.420588e-01   5.656007e-03
  2.969748e+00    4.415515e-01   5.649966e-03
  2.971959e+00    4.441032e-01   5.663180e-03
  2.974169e+00    4.545084e-01   5.726541e-03
  2.976379e+00    4.585059e-01   5.748752e-03
  2.978590e+00    4.580600e-01   5.742790e-03
  2.980800e+00    4.659281e-01   5.789089e-03
  2.983011e+00    4.610263e-01   5.755730e-03
  2.985221e+00    4.502866e-01   5.685155e-03
  2.987432e+00    4.422189e-01   5.630923e-03
  2.989642e+00    4.462857e-01   5.654154e-03
  2.991853e+00    4.589024e-01   5.730206e-03
  2.994063e+00    4.591596e-01   5.728916e-03
  2.996274e+00    4.564795e-01   5.708956e-03
  2.998484e+00    4.620714e-01   5.741104e-03
  3.000694e+00    4.527172e-01   5.679252e-03
  3.002905e+00    4.454660e-01   5.630674e-03
  3.005115e+00    4.548125e-01   5.686422e-03
  3.007326e+00    4.687496e-01   5.769712e-03
  3.009536e+00    4.669920e-01   5.755578e-03
  3.011747e+00    4.691533e-01   5.765914e-03
  3.013957e+00    4.634208e-01   5.727363e-03
  3.016168e+00    4.536531e-01   5.663432e-03
  3.018378e+00    4.518899e-01   5.649358e-03
  3.020589e+00    4.555027e-01   5.668692e-03
  3.022799e+00    4.343711e-01   5.532540e-03
  3.025010e+00    4.369144e-01   5.545516e-03
  3.027220e+00    4.468601e-01   5.605187e-03
  3.029430e+00    4.603389e-01   5.685830e-03
  3.031641e+00    4.513274e-01   5.626774e-03
  3.033851e+00    4.430338e-01   5.571347e-03
  3.036062e+00    4.473205e-01   5.595464e-03
  3.038272e+00    4.497974e-01   5.607359e-03
  3.040483e+00    4.455773e-01   5.577809e-03
  3.042693e+00    4.452384e-01   5.572441e-03
  3.044904e+00    4.430863e-01   5.554952e-03
  3.047114e+00    4.391696e-01   5.525630e-03
  3.049325e+00    4.341984e-01   5.489922e-03
  3.051535e+00    4.541665e-01   5.610343e-03
  3.053745e+00    4.552440e-01   5.612238e-03
  3.055956e+00    4.455190e-01   5.547408e-03
  3.058166e+00    4.452303e-01   5.541377e-03
  3.060377e+00    4.471170e-01   5.548339e-03
  3.062587e+00    4.429315e-01   5.517736e-03
  3.064798e+00    4.368539e-01   5.475556e-03
  3.067008e+00    4.298739e-01   5.427001e-03
  3.069219e+00    4.461496e-01   5.524297e-03
  3.071429e+00    4.402422e-01   5.484126e-03
  3.073640e+00    4.308091e-01   5.421797e-03
  3.075850e+00    4.287870e-01   5.405543e-03
  3.078060e+00    4.465325e-01   5.513168e-03
  3.080271e+00    4.531263e-01   5.550237e-03
  3.082481e+00    4.490377e-01   5.521695e-03
  3.084692e+00    4.350510e-01   5.431706e-03
  3.086902e+00    4.395481e-01   5.456472e-03
  3.089113e+00    4.417866e-01   5.466816e-03
  3.091323e+00    4.348143e-01   5.420187e-03
  3.093534e+00    4.450039e-01   5.479946e-03
  3.095744e+00    4.366349e-01   5.424855e-03
  3.097955e+00    4.485262e-01   5.494661e-03
  3.100165e+00    4.428301e-01   5.456365e-03
  3.102375e+00    4.404770e-01   5.438438e-03
  3.104586e+00    4.482145e-01   5.482496e-03
  3.106796e+00    4.497721e-01   5.488497e-03
  3.109007e+00    4.365168e-01   5.403827e-03
  3.111217e+00    4.495552e-01   5.480227e-03
  3.113428e+00    4.475675e-01   5.464678e-03
  3.115638e+00    4.542258e-01   5.501908e-03
  3.117849e+00    4.518154e-01   5.483550e-03
  3.120059e+00    4.522970e-01   5.482969e-03
  3.122270e+00    4.423233e-01   5.418940e-03
  3.124480e+00    4.476587e-01   5.447814e-03
  3.126691e+00    4.486023e-01   5.449977e-03
  3.128901e+00    4.471696e-01   5.438146e-03
  3.131111e+00    4.434850e-01   5.411854e-03
  3.133322e+00    4.418895e-01   5.398674e-03
  3.135532e+00    4.294870e-01   5.319035e-03
  3.137743e+00    4.392725e-01   5.375806e-03
  3.139953e+00    4.472160e-01   5.420519e-03
  3.142164e+00    4.448248e-01   5.418030e-03
  3.144374e+00    4.423763e-01   5.431510e-03
  3.146585e+00    4.412806e-01   5.439331e-03
  3.148795e+00    4.371828e-01   5.424719e-03
  3.151006e+00    4.388358e-01   5.443502e-03
  3.153216e+00    4.405025e-01   5.460921e-03
  3.155426e+00    4.431113e-01   5.483428e-03
  3.157637e+00    4.357417e-01   5.443109e-03
  3.159847e+00    4.393764e-01   5.470634e-03
  3.162058e+00    4.429011e-01   5.496988e-03
  3.164268e+00    4.334972e-01   5.442345e-03
  3.166479e+00    4.398014e-01   5.485428e-03
  3.168689e+00    4.335438e-01   5.449614e-03
  3.170900e+00    4.236741e-01   5.390334e-03
  3.173110e+00    4.344494e-01   5.461301e-03
  3.175321e+00    4.366806e-01   5.477811e-03
  3.177531e+00    4.281506e-01   5.426750e-03
  3.179741e+00    4.240606e-01   5.402804e-03
  3.181952e+00    4.217972e-01   5.390432e-03
  3.184162e+00    4.284100e-01   5.434708e-03
  3.186373e+00    4.214260e-01   5.391778e-03
  3.188583e+00    4.210880e-01   5.391377e-03
  3.190794e+00    4.427215e-01   5.529893e-03
  3.193004e+00    4.300092e-01   5.451178e-03
  3.195215e+00    4.272016e-01   5.434835e-03
  3.197425e+00    4.259382e-01   5.427978e-03
  3.199636e+00    4.233737e-01   5.410859e-03
  3.201846e+00    4.359645e-01   5.490111e-03
  3.204056e+00    4.449355e-01   5.547220e-03
  3.206267e+00    4.371026e-01   5.499032e-03
  3.208477e+00    4.277414e-01   5.440739e-03
  3.210688e+00    4.450293e-01   5.550435e-03
  3.212898e+00    4.418247e-01   5.531034e-03
  3.215109e+00    4.321351e-01   5.470783e-03
  3.217319e+00    4.428931e-01   5.539114e-03
  3.219530e+00    4.264744e-01   5.435857e-03
  3.221740e+00    4.300350e-01   5.459063e-03
  3.223951e+00    4.267137e-01   5.438405e-03
  3.226161e+00    4.390191e-01   5.516445e-03
  3.228372e+00    4.279809e-01   5.447213e-03
  3.230582e+00    4.255468e-01   5.431807e-03
  3.232792e+00    4.263102e-01   5.436916e-03
  3.235003e+00    4.174509e-01   5.380372e-03
  3.237213e+00    4.108047e-01   5.337469e-03
  3.239424e+00    4.095557e-01   5.329335e-03
  3.241634e+00    4.226895e-01   5.414240e-03
  3.243845e+00    4.360723e-01   5.499342e-03
  3.246055e+00    4.293842e-01   5.456762e-03
  3.248266e+00    4.168903e-01   5.376970e-03
  3.250476e+00    4.203864e-01   5.399170e-03
  3.252687e+00    4.264942e-01   5.438170e-03
  3.254897e+00    4.301677e-01   5.461417e-03
  3.257107e+00    4.153057e-01   5.365957e-03
  3.259318e+00    4.109118e-01   5.337247e-03
  3.261528e+00    4.282130e-01   5.448299e-03
  3.263739e+00    4.259358e-01   5.433260e-03
  3.265949e+00    4.175557e-01   5.379412e-03
  3.268160e+00    4.207076e-01   5.399259e-03
  3.270370e+00    4.292360e-01   5.453201e-03
  3.272581e+00    4.219154e-01   5.406229e-03
  3.274791e+00    4.287455e-01   5.449264e-03
  3.277002e+00    4.347290e-01   5.486607e-03
  3.279212e+00    4.150162e-01   5.360398e-03
  3.281422e+00    4.190606e-01   5.385865e-03
  3.283633e+00    4.282638e-01   5.443994e-03
  3.285843e+00    4.242180e-01   5.417896e-03
  3.288054e+00    4.322441e-01   5.467955e-03
  3.290264e+00    4.271386e-01   5.435268e-03
  3.292475e+00    4.199941e-01   5.388773e-03
  3.294685e+00    4.126807e-01   5.341033e-03
  3.296896e+00    4.233197e-01   5.408674e-03
  3.299106e+00    4.276369e-01   5.435628e-03
  3.301317e+00    4.188083e-01   5.378197e-03
  3.303527e+00    4.213547e-01   5.394084e-03
  3.305737e+00    4.240717e-01   5.410368e-03
  3.307948e+00    4.293127e-01   5.443049e-03
  3.310158e+00    4.215764e-01   5.392928e-03
  3.312369e+00    4.163730e-01   5.358671e-03
  3.314579e+00    4.229808e-01   5.400107e-03
  3.316790e+00    4.157468e-01   5.353028e-03
  3.319000e+00    4.224589e-01   5.394875e-03
  3.321211e+00    4.269179e-01   5.422685e-03
  3.323421e+00    4.167476e-01   5.356480e-03
  3.325632e+00    4.237500e-01   5.400418e-03
  3.327842e+00    4.161464e-01   5.350842e-03
  3.330052e+00    4.201391e-01   5.375367e-03
  3.332263e+00    4.264006e-01   5.414268e-03
  3.334473e+00    4.379175e-01   5.485955e-03
  3.336684e+00    4.367759e-01   5.477536e-03
  3.338894e+00    4.099933e-01   5.306094e-03
  3.341105e+00    4.279262e-01   5.419681e-03
  3.343315e+00    4.200937e-01   5.368729e-03
  3.345526e+00    4.138449e-01   5.327720e-03
  3.347736e+00    4.173699e-01   5.349004e-03
  3.349947e+00    4.132706e-01   5.321703e-03
  3.352157e+00    4.105388e-01   5.302958e-03
  3.354368e+00    4.210224e-01   5.368921e-03
  3.356578e+00    4.175771e-01   5.345900e-03
  3.358788e+00    4.194559e-01   5.356587e-03
  3.360999e+00    4.123742e-01   5.309936e-03
  3.363209e+00    4.128178e-01   5.311773e-03
  3.365420e+00    4.167564e-01   5.335561e-03
  3.367630e+00    4.134614e-01   5.313383e-03
  3.369841e+00    4.252375e-01   5.387098e-03
  3.372051e+00    4.180166e-01   5.339192e-03
  3.374262e+00    4.102318e-01   5.286807e-03
  3.376472e+00    4.265519e-01   5.388477e-03
  3.378683e+00    4.137360e-01   5.304410e-03
  3.380893e+00    4.106315e-01   5.282138e-03
  3.383103e+00    4.228818e-01   5.357637e-03
  3.385314e+00    4.041182e-01   5.235224e-03
  3.387524e+00    4.147409e-01   5.300845e-03
  3.389735e+00    4.236274e-01   5.354685e-03
  3.391945e+00    4.013196e-01   5.208184e-03
  3.394156e+00    3.963802e-01   5.171853e-03
  3.396366e+00    4.209346e-01   5.326229e-03
  3.398577e+00    4.119575e-01   5.266062e-03
  3.400787e+00    3.935283e-01   5.158604e-03
  3.402998e+00    3.983843e-01   5.227827e-03
  3.405208e+00    3.992036e-01   5.253706e-03
  3.407418e+00    3.937304e-01   5.233212e-03
  3.409629e+00    3.998479e-01   5.287650e-03
  3.411839e+00    3.975519e-01   5.284197e-03
  3.414050e+00    4.006085e-01   5.315510e-03
  3.416260e+00    4.074921e-01   5.370783e-03
  3.418471e+00    3.995976e-01   5.328009e-03
  3.420681e+00    3.850062e-01   5.238233e-03
  3.422892e+00    3.891434e-01   5.274273e-03
  3.425102e+00    4.001559e-01   5.356309e-03
  3.427313e+00    3.908612e-01   5.300954e-03
  3.429523e+00    3.903945e-01   5.304869e-03
  3.431733e+00    3.749210e-01   5.205267e-03
  3.433944e+00    3.750817e-01   5.212766e-03
  3.436154e+00    3.825650e-01   5.270742e-03
  3.438365e+00    3.821383e-01   5.273762e-03
  3.440575e+00    3.817881e-01   5.277249e-03
  3.442786e+00    3.729860e-01   5.221651e-03
  3.444996e+00    3.736028e-01   5.231418e-03
  3.447207e+00    3.693889e-01   5.207100e-03
  3.449417e+00    3.560065e-01   5.151854e-03
  3.451628e+00    3.649741e-01   5.245606e-03
  3.453838e+00    3.752349e-01   5.340246e-03
  3.456049e+00    3.579319e-01   5.239249e-03
  3.458259e+00    3.710995e-01   5.356825e-03
  3.460469e+00    3.630537e-01   5.318142e-03
  3.462680e+00    3.596244e-01   5.311844e-03
  3.464890e+00    3.741165e-01   5.435786e-03
  3.467101e+00    3.760851e-01   5.467761e-03
  3.469311e+00    3.822552e-01   5.529203e-03
  3.471522e+00    3.843634e-01   5.561095e-03
  3.473732e+00    3.915108e-01   5.628712e-03
  3.475943e+00    4.089443e-01   5.768934e-03
  3.478153e+00    4.089943e-01   5.785136e-03
  3.480364e+00    4.162435e-01   5.851785e-03
  3.482574e+00    4.144880e-01   5.854958e-03
  3.484784e+00    4.207661e-01   5.914166e-03
  3.486995e+00    4.287542e-01   5.985404e-03
  3.489205e+00    4.218950e-01   5.951971e-03
  3.491416e+00    4.287181e-01   6.014829e-03
  3.493626e+00    4.459295e-01   6.149169e-03
  3.495837e+00    4.357442e-01   6.093216e-03
  3.498047e+00    4.474750e-01   6.189219e-03
  3.500258e+00    4.528944e-01   6.241175e-03
  3.502468e+00    4.822746e-01   6.455299e-03
  3.504679e+00    4.656451e-01   6.357603e-03
  3.506889e+00    4.701361e-01   6.402701e-03
  3.509099e+00    4.727618e-01   6.434911e-03
  3.511310e+00    4.779928e-01   6.484938e-03
  3.513520e+00    4.901332e-01   6.581281e-03
  3.515731e+00    5.090454e-01   6.721771e-03
  3.517941e+00    5.077121e-01   6.727599e-03
  3.520152e+00    5.237179e-01   6.847532e-03
  3.522362e+00    5.222025e-01   6.852418e-03
  3.524573e+00    5.108753e-01   6.792054e-03
  3.526783e+00    5.128856e-01   6.818776e-03
  3.528994e+00    5.176254e-01   6.862446e-03
  3.531204e+00    5.160195e-01   6.864211e-03
  3.533414e+00    5.238414e-01   6.928082e-03
  3.535625e+00    5.256312e-01   6.952260e-03
  3.537835e+00    5.266117e-01   6.970784e-03
  3.540046e+00    5.249757e-01   6.968763e-03
  3.542256e+00    5.439775e-01   7.101394e-03
  3.544467e+00    5.345612e-01   7.047250e-03
  3.546677e+00    5.511734e-01   7.163608e-03
  3.548888e+00    5.448343e-01   7.129846e-03
  3.551098e+00    5.526794e-01   7.188399e-03
  3.553309e+00    5.245422e-01   7.011125e-03
  3.555519e+00    5.404208e-01   7.127748e-03
  3.557729e+00    5.539840e-01   7.228586e-03
  3.559940e+00    5.442586e-01   7.176496e-03
  3.562150e+00    5.425745e-01   7.177148e-03
  3.564361e+00    5.462914e-01   7.215144e-03
  3.566571e+00    5.477089e-01   7.238498e-03
  3.568782e+00    5.397539e-01   7.199885e-03
  3.570992e+00    5.379406e-01   7.201562e-03
  3.573203e+00    5.452152e-01   7.264353e-03
  3.575413e+00    5.306151e-01   7.180164e-03
  3.577624e+00    5.304983e-01   7.193390e-03
  3.579834e+00    5.302165e-01   7.205295e-03
  3.582045e+00    5.251723e-01   7.184831e-03
  3.584255e+00    5.253863e-01   7.200194e-03
  3.586465e+00    5.544706e-01   7.411007e-03
  3.588676e+00    5.477226e-01   7.380100e-03
  3.590886e+00    5.306684e-01   7.277947e-03
  3.593097e+00    5.469250e-01   7.403201e-03
  3.595307e+00    5.405663e-01   7.374068e-03
  3.597518e+00    5.415949e-01   7.395366e-03
  3.599728e+00    5.330250e-01   7.350691e-03
  3.601939e+00    5.204883e-01   7.277595e-03
  3.604149e+00    5.295245e-01   7.354802e-03
  3.606360e+00    5.204340e-01   7.305371e-03
  3.608570e+00    5.303158e-01   7.388468e-03
  3.610780e+00    5.321775e-01   7.412481e-03
  3.612991e+00    5.407181e-01   7.481746e-03
  3.615201e+00    5.424047e-01   7.503321e-03
  3.617412e+00    5.421739e-01   7.509048e-03
  3.619622e+00    5.363468e-01   7.474524e-03
  3.621833e+00    5.430346e-01   7.527757e-03
  3.624043e+00    5.299233e-01   7.445799e-03
  3.626254e+00    5.330266e-01   7.477252e-03
  3.628464e+00    5.426300e-01   7.555355e-03
  3.630675e+00    5.380322e-01   7.537487e-03
  3.632885e+00    5.421091e-01   7.580533e-03
  3.635095e+00    5.255441e-01   7.478100e-03
  3.637306e+00    5.222496e-01   7.468845e-03
  3.639516e+00    5.393446e-01   7.604695e-03
  3.641727e+00    5.312828e-01   7.562180e-03
  3.643937e+00    5.345454e-01   7.599979e-03
  3.646148e+00    5.234703e-01   7.535275e-03
  3.648358e+00    5.280484e-01   7.582948e-03
  3.650569e+00    5.362468e-01   7.656368e-03
  3.652779e+00    5.327042e-01   7.645800e-03
  3.654990e+00    5.542365e-01   7.813992e-03
  3.657200e+00    5.467419e-01   7.776079e-03
  3.659410e+00    5.353742e-01   7.709837e-03
  3.661621e+00    5.416988e-01   7.770465e-03
  3.663831e+00    5.400248e-01   7.773702e-03
  3.666042e+00    5.155299e-01   7.610304e-03
  3.668252e+00    5.117733e-01   7.597421e-03
  3.670463e+00    5.526130e-01   7.910335e-03
  3.672673e+00    5.246423e-01   7.722871e-03
  3.674884e+00    5.216662e-01   7.716161e-03
  3.677094e+00    5.366289e-01   7.841688e-03
  3.679305e+00    5.309411e-01   7.815542e-03
  3.681515e+00    5.404012e-01   7.900666e-03
  3.683726e+00    5.405447e-01   7.917689e-03
  3.685936e+00    5.302172e-01   7.857375e-03
  3.688146e+00    5.237931e-01   7.825349e-03
  3.690357e+00    5.264086e-01   7.860816e-03
  3.692567e+00    5.224831e-01   7.847472e-03
  3.694778e+00    5.212747e-01   7.854355e-03
  3.696988e+00    5.138037e-01   7.813708e-03
  3.699199e+00    5.123025e-01   7.818264e-03
  3.701409e+00    5.140736e-01   7.848013e-03
  3.703620e+00    5.162224e-01   7.880548e-03
  3.705830e+00    5.422741e-01   8.093628e-03
  3.708041e+00    5.231700e-01   7.966382e-03
  3.710251e+00    5.207424e-01   7.964537e-03
  3.712461e+00    5.223137e-01   7.993253e-03
  3.714672e+00    5.314707e-01   8.079946e-03
  3.716882e+00    5.240218e-01   8.039889e-03
  3.719093e+00    5.167701e-01   8.001108e-03
  3.721303e+00    5.109316e-01   7.972587e-03
  3.723514e+00    5.214540e-01   8.071613e-03
  3.725724e+00    5.175822e-01   8.058692e-03
  3.727935e+00    5.301059e-01   8.173289e-03
  3.730145e+00    5.168447e-01   8.087756e-03
  3.732356e+00    4.966848e-01   7.945640e-03
  3.734566e+00    5.074699e-01   8.048797e-03
  3.736776e+00    5.060863e-01   8.055488e-03
  3.738987e+00    5.212944e-01   8.193472e-03
  3.741197e+00    5.118590e-01   8.136955e-03
  3.743408e+00    5.082136e-01   8.125891e-03
  3.745618e+00    5.202080e-01   8.239645e-03
  3.747829e+00    5.081192e-01   8.161423e-03
  3.750039e+00    5.320231e-01   8.369892e-03
  3.752250e+00    5.089257e-01   8.204649e-03
  3.754460e+00    5.134562e-01   8.259638e-03
  3.756671e+00    5.226293e-01   8.352197e-03
  3.758881e+00    4.917824e-01   8.120285e-03
  3.761091e+00    5.056759e-01   8.253217e-03
  3.763302e+00    5.099809e-01   8.307477e-03
  3.765512e+00    4.928691e-01   8.185850e-03
  3.767723e+00    4.994996e-01   8.259914e-03
  3.769933e+00    4.946374e-01   8.238737e-03
  3.772144e+00    4.922124e-01   8.237799e-03
  3.774354e+00    5.062076e-01   8.373965e-03
  3.776565e+00    5.288914e-01   8.579832e-03
  3.778775e+00    5.191213e-01   8.520493e-03
  3.780986e+00    5.170479e-01   8.524001e-03
  3.783196e+00    5.161231e-01   8.536896e-03
  3.785407e+00    5.222402e-01   8.608117e-03
  3.787617e+00    5.170220e-01   8.586057e-03
  3.789827e+00    5.003751e-01   8.467211e-03
  3.792038e+00    5.046144e-01   8.523881e-03
  3.794248e+00    5.008729e-01   8.513359e-03
  3.796459e+00    5.124840e-01   8.633073e-03
  3.798669e+00    5.218982e-01   8.733820e-03
  3.800880e+00    5.244169e-01   8.776828e-03
  3.803090e+00    5.106249e-01   8.682710e-03
  3.805301e+00    4.950545e-01   8.571316e-03
  3.807511e+00    4.978302e-01   8.617225e-03
  3.809722e+00    4.889547e-01   8.562057e-03
  3.811932e+00    5.022599e-01   8.700019e-03
  3.814142e+00    4.879207e-01   8.597610e-03
  3.816353e+00    4.860747e-01   8.603827e-03
  3.818563e+00    4.702986e-01   8.485488e-03
  3.820774e+00    4.906222e-01   8.689898e-03
  3.822984e+00    4.900192e-01   8.707692e-03
  3.825195e+00    5.124581e-01   8.928948e-03
  3.827405e+00    4.992232e-01   8.836810e-03
  3.829616e+00    5.026031e-01   8.890851e-03
  3.831826e+00    4.983951e-01   8.877745e-03
  3.834037e+00    5.203348e-01   9.096146e-03
  3.836247e+00    4.992588e-01   8.934726e-03
  3.838457e+00    5.007759e-01   8.973476e-03
  3.840668e+00    5.250719e-01   9.214442e-03
  3.842878e+00    5.221951e-01   9.215375e-03
  3.845089e+00    5.065799e-01   9.102418e-03
  3.847299e+00    5.126196e-01   9.182712e-03
  3.849510e+00    5.169799e-01   9.248118e-03
  3.851720e+00    5.054640e-01   9.166201e-03
  3.853931e+00    4.897018e-01   9.041022e-03
  3.856141e+00    4.737408e-01   8.911091e-03
  3.858352e+00    5.005652e-01   9.179186e-03
  3.860562e+00    4.848915e-01   9.053568e-03
  3.862772e+00    5.144974e-01   9.345719e-03
  3.864983e+00    5.143003e-01   9.364173e-03
  3.867193e+00    5.130770e-01   9.373065e-03
  3.869404e+00    4.986048e-01   9.259869e-03
  3.871614e+00    4.894392e-01   9.194319e-03
  3.873825e+00    4.969814e-01   9.285207e-03
  3.876035e+00    5.012856e-01   9.346156e-03
  3.878246e+00    4.795655e-01   9.166834e-03
  3.880456e+00    4.786513e-01   9.186641e-03
  3.882667e+00    5.047948e-01   9.463909e-03
  3.884877e+00    4.872872e-01   9.327990e-03
  3.887087e+00    4.935586e-01   9.417778e-03
  3.889298e+00    5.019176e-01   9.527904e-03
  3.891508e+00    4.989365e-01   9.530389e-03
  3.893719e+00    4.973819e-01   9.546660e-03
  3.895929e+00    4.948426e-01   9.553899e-03
  3.898140e+00    4.901561e-01   9.540164e-03
  3.900350e+00    5.116396e-01   9.779833e-03
  3.902561e+00    5.218583e-01   9.910448e-03
  3.904771e+00    5.051059e-01   9.783370e-03
  3.906982e+00    4.974298e-01   9.742222e-03
  3.909192e+00    4.711043e-01   9.513776e-03
  3.911403e+00    4.906851e-01   9.743408e-03
  3.913613e+00    5.047769e-01   9.917319e-03
  3.915823e+00    4.747386e-01   9.651938e-03
  3.918034e+00    4.810719e-01   9.751107e-03
  3.920244e+00    5.064870e-01   1.004176e-02
  3.922455e+00    4.967062e-01   9.980781e-03
  3.924665e+00    4.951914e-01   1.000220e-02
  3.926876e+00    4.738984e-01   9.821353e-03
  3.929086e+00    4.932230e-01   1.005721e-02
  3.931297e+00    5.045324e-01   1.020723e-02
  3.933507e+00    5.051997e-01   1.024344e-02
  3.935718e+00    4.947069e-01   1.016550e-02
  3.937928e+00    5.101259e-01   1.035286e-02
  3.940138e+00    4.922196e-01   1.019891e-02
  3.942349e+00    5.155947e-01   1.046908e-02
  3.944559e+00    4.838975e-01   1.017203e-02
  3.946770e+00    4.754419e-01   1.011267e-02
  3.948980e+00    4.751052e-01   1.013937e-02
  3.951191e+00    4.825529e-01   1.024918e-02
  3.953401e+00    5.006908e-01   1.047199e-02
  3.955612e+00    4.706667e-01   1.018426e-02
  3.957822e+00    4.790427e-01   1.030586e-02
  3.960033e+00    4.723017e-01   1.026529e-02
  3.962243e+00    4.599111e-01   1.016171e-02
  3.964453e+00    4.953316e-01   1.057918e-02
  3.966664e+00    4.853058e-01   1.050498e-02
  3.968874e+00    5.096067e-01   1.079388e-02
  3.971085e+00    5.056767e-01   1.077448e-02
  3.973295e+00    4.739103e-01   1.045189e-02
  3.975506e+00    4.952706e-01   1.070652e-02
  3.977716e+00    5.282508e-01   1.108031e-02
  3.979927e+00    4.856643e-01   1.064643e-02
  3.982137e+00    4.730569e-01   1.052929e-02
  3.984348e+00    4.935490e-01   1.077769e-02
  3.986558e+00    5.220078e-01   1.110720e-02
  3.988768e+00    4.793086e-01   1.066613e-02
  3.990979e+00    5.091808e-01   1.101674e-02
  3.993189e+00    5.296605e-01   1.126033e-02
  3.995400e+00    4.868445e-01   1.081917e-02
  3.997610e+00    4.681346e-01   1.063848e-02
  3.999821e+00    4.668863e-01   1.066117e-02
  4.002031e+00    4.973645e-01   1.104247e-02
  4.004242e+00    4.971399e-01   1.107894e-02
  4.006452e+00    5.076850e-01   1.123622e-02
  4.008663e+00    4.558454e-01   1.068580e-02
  4.010873e+00    4.912997e-01   1.113391e-02
  4.013084e+00    4.597633e-01   1.081046e-02
  4.015294e+00    4.791536e-01   1.107680e-02
  4.017504e+00    4.940106e-01   1.128952e-02
  4.019715e+00    4.792000e-01   1.116135e-02
  4.021925e+00    4.802727e-01   1.121658e-02
  4.024136e+00    4.912070e-01   1.138752e-02
  4.026346e+00    5.139949e-01   1.169417e-02
  4.028557e+00    4.828850e-01   1.137907e-02
  4.030767e+00    4.885203e-01   1.149118e-02
  4.032978e+00    4.841063e-01   1.148544e-02
  4.035188e+00    4.889213e-01   1.158882e-02
  4.037399e+00    4.571600e-01   1.125228e-02
  4.039609e+00    4.823993e-01   1.160651e-02
  4.041819e+00    4.721965e-01   1.153130e-02
  4.044030e+00    4.579983e-01   1.140513e-02
  4.046240e+00    4.976884e-01   1.193969e-02
  4.048451e+00    5.072869e-01   1.210648e-02
  4.050661e+00    4.529731e-01   1.148991e-02
  4.052872e+00    4.842036e-01   1.193211e-02
  4.055082e+00    4.789874e-01   1.192105e-02
  4.057293e+00    4.808048e-01   1.199721e-02
  4.059503e+00    5.206918e-01   1.254172e-02
  4.061714e+00    5.103034e-01   1.247418e-02
  4.063924e+00    4.910587e-01   1.229394e-02
  4.066134e+00    4.894829e-01   1.233193e-02
  4.068345e+00    5.014297e-01   1.254172e-02
  4.070555e+00    4.800659e-01   1.233099e-02
  4.072766e+00    4.629608e-01   1.216882e-02
  4.074976e+00    4.773328e-01   1.241776e-02
  4.077187e+00    4.922777e-01   1.267353e-02
  4.079397e+00    4.791608e-01   1.256723e-02
  4.081608e+00    4.860975e-01   1.272383e-02
  4.083818e+00    4.909175e-01   1.285313e-02
  4.086029e+00    4.936798e-01   1.295732e-02
  4.088239e+00    4.976253e-01   1.307906e-02
  4.090449e+00    4.749965e-01   1.284743e-02
  4.092660e+00    4.794317e-01   1.297835e-02
  4.094870e+00    4.675014e-01   1.288709e-02
  4.097081e+00    4.553550e-01   1.278821e-02
  4.099291e+00    4.849649e-01   1.325209e-02
  4.101502e+00    4.534485e-01   1.286223e-02
  4.103712e+00    4.744241e-01   1.320508e-02
  4.105923e+00    5.073058e-01   1.370795e-02
  4.108133e+00    5.149729e-01   1.386450e-02
  4.110344e+00    5.297301e-01   1.411555e-02
  4.112554e+00    4.605682e-01   1.321393e-02
  4.114764e+00    4.864835e-01   1.363493e-02
  4.116975e+00    4.752460e-01   1.352988e-02
  4.119185e+00    4.593810e-01   1.335598e-02
  4.121396e+00    4.669973e-01   1.352190e-02
  4.123606e+00    5.053790e-01   1.412437e-02
  4.125817e+00    4.860669e-01   1.390978e-02
  4.128027e+00    4.822747e-01   1.391406e-02
  4.130238e+00    4.406808e-01   1.335735e-02
  4.132448e+00    4.631405e-01   1.375297e-02
  4.134659e+00    5.153784e-01   1.457007e-02
  4.136869e+00    5.213731e-01   1.472022e-02
  4.139080e+00    4.681624e-01   1.401165e-02
  4.141290e+00    4.647199e-01   1.402192e-02
  4.143500e+00    5.091750e-01   1.474476e-02
  4.145711e+00    4.940619e-01   1.459232e-02
  4.147921e+00    5.025179e-01   1.478413e-02
  4.150132e+00    4.818625e-01   1.454618e-02
  4.152342e+00    5.339145e-01   1.538588e-02
  4.154553e+00    4.624354e-01   1.438710e-02
  4.156763e+00    4.923152e-01   1.491808e-02
  4.158974e+00    4.411181e-01   1.419193e-02
  4.161184e+00    4.910875e-01   1.504865e-02
  4.163395e+00    4.952986e-01   1.519021e-02
  4.165605e+00    4.770746e-01   1.498575e-02
  4.167815e+00    4.655733e-01   1.488100e-02
  4.170026e+00    4.988644e-01   1.548511e-02
  4.172236e+00    4.914187e-01   1.545217e-02
  4.174447e+00    5.005961e-01   1.568068e-02
  4.176657e+00    5.053397e-01   1.584096e-02
  4.178868e+00    4.736683e-01   1.542327e-02
  4.181078e+00    5.349607e-01   1.648317e-02
  4.183289e+00    4.721027e-01   1.557339e-02
  4.185499e+00    4.707958e-01   1.564326e-02
  4.187710e+00    5.205206e-01   1.654505e-02
  4.189920e+00    4.595906e-01   1.564044e-02
  4.192130e+00    5.342571e-01   1.696585e-02
  4.194341e+00    4.481867e-01   1.563487e-02
  4.196551e+00    4.566939e-01   1.588199e-02
  4.198762e+00    4.806087e-01   1.639635e-02
  4.200972e+00    5.029330e-01   1.688125e-02
  4.203183e+00    4.711537e-01   1.644699e-02
  4.205393e+00    4.501515e-01   1.618327e-02
  4.207604e+00    4.608444e-01   1.648610e-02
  4.209814e+00    5.047193e-01   1.737108e-02
  4.212025e+00    4.870330e-01   1.718510e-02
  4.214235e+00    5.193455e-01   1.787180e-02
  4.216445e+00    5.265102e-01   1.812487e-02
  4.218656e+00    4.522798e-01   1.692455e-02
  4.220866e+00    5.046926e-01   1.801057e-02
  4.223077e+00    5.292857e-01   1.858634e-02
  4.225287e+00    5.183439e-01   1.853760e-02
  4.227498e+00    5.109317e-01   1.854913e-02
  4.229708e+00    5.222676e-01   1.890602e-02
  4.231919e+00    4.669083e-01   1.802441e-02
  4.234129e+00    4.860425e-01   1.854357e-02
  4.236340e+00    4.689372e-01   1.837068e-02
  4.238550e+00    4.795885e-01   1.874176e-02
  4.240761e+00    5.131916e-01   1.955846e-02
  4.242971e+00    4.849946e-01   1.918813e-02
  4.245181e+00    5.162053e-01   1.998140e-02
  4.247392e+00    5.313190e-01   2.046182e-02
  4.249602e+00    4.203784e-01   1.838146e-02
  4.251813e+00    4.383984e-01   1.895578e-02
  4.254023e+00    4.106837e-01   1.853194e-02
  4.256234e+00    4.784673e-01   2.021644e-02
  4.258444e+00    4.683318e-01   2.021056e-02
  4.260655e+00    4.479469e-01   1.998341e-02
  4.262865e+00    4.987017e-01   2.132394e-02
  4.265076e+00    4.667133e-01   2.086377e-02
  4.267286e+00    4.511939e-01   2.075736e-02
  4.269496e+00    4.173121e-01   2.020559e-02
  4.271707e+00    4.729822e-01   2.177714e-02
  4.273917e+00    4.215371e-01   2.082498e-02
  4.276128e+00    4.146489e-01   2.092804e-02
  4.278338e+00    4.493181e-01   2.207645e-02
  4.280549e+00    5.034043e-01   2.370273e-02
  4.282759e+00    3.855682e-01   2.104208e-02
  4.284970e+00    4.648104e-01   2.344481e-02
  4.287180e+00    4.297551e-01   2.281406e-02
  4.289391e+00    5.279176e-01   2.547440e-02
  4.291601e+00    6.002117e-01   2.738120e-02
  4.293811e+00    4.876278e-01   2.487265e-02
  4.296022e+00    5.105966e-01   2.565580e-02
  4.298232e+00    5.237196e-01   2.620149e-02
  4.300443e+00    4.251733e-01   2.380251e-02
  4.302653e+00    3.589290e-01   2.205930e-02
  4.304864e+00    4.604219e-01   2.520034e-02
  4.307074e+00    4.459618e-01   2.502402e-02
  4.309285e+00    4.771833e-01   2.612089e-02
  4.311495e+00    4.944716e-01   2.683839e-02
  4.313706e+00    4.490495e-01   2.581640e-02
  4.315916e+00    4.080573e-01   2.485227e-02
  4.318126e+00    4.613832e-01   2.668731e-02
  4.320337e+00    4.051898e-01   2.526305e-02
  4.322547e+00    4.814864e-01   2.782983e-02
  4.324758e+00    4.633386e-01   2.758547e-02
  4.326968e+00    4.365616e-01   2.707702e-02
  4.329179e+00    5.144945e-01   2.971910e-02
  4.331389e+00    5.362481e-01   3.069082e-02
  4.333600e+00    4.150325e-01   2.732235e-02
  4.335810e+00    4.690478e-01   2.939122e-02
  4.338021e+00    4.962421e-01   3.061823e-02
  4.340231e+00    4.719327e-01   3.023430e-02
  4.342442e+00    3.636985e-01   2.689750e-02
  4.344652e+00    3.019815e-01   2.484215e-02
  4.346862e+00    3.038343e-01   2.526728e-02
  4.349073e+00    4.825116e-01   3.230385e-02
  4.351283e+00    4.496514e-01   3.165129e-02
  4.353494e+00    4.749140e-01   3.303092e-02
  4.355704e+00    3.599318e-01   2.921972e-02
  4.357915e+00    2.679650e-01   2.562922e-02
  4.360125e+00    4.816773e-01   3.494952e-02
  4.362336e+00    5.678768e-01   3.864013e-02
  4.364546e+00    3.907717e-01   3.263696e-02
  4.366757e+00    4.694406e-01   3.648293e-02
  4.368967e+00    4.581542e-01   3.676035e-02
  4.371177e+00    3.929674e-01   3.477012e-02
  4.373388e+00    4.893315e-01   3.966603e-02
  4.375598e+00    3.849066e-01   3.598304e-02
  4.377809e+00    5.048578e-01   4.225216e-02
  4.380019e+00    4.031308e-01   3.870500e-02
  4.382230e+00    2.888592e-01   3.368004e-02
  4.384440e+00    2.189407e-01   3.016119e-02
  4.386651e+00    6.512364e-01   5.362783e-02
  4.388861e+00    4.461967e-01   4.587848e-02
  4.391072e+00    5.638371e-01   5.338671e-02
  4.393282e+00    4.214129e-01   4.793600e-02
  4.395492e+00    5.675476e-01   5.794485e-02
  4.397703e+00    4.255493e-01   5.246777e-02
  4.399913e+00    3.381197e-01   4.913495e-02
  4.402124e+00    2.573171e-01   4.529593e-02
  4.404334e+00    5.482501e-01   7.027832e-02
  4.406545e+00    1.934287e-01   4.484907e-02
  4.408755e+00    9.391965e-02   3.389836e-02
  4.410966e+00    2.277704e-01   5.841445e-02
  4.413176e+00    6.390213e-01   1.107477e-01
  4.415387e+00   -3.021655e-01            nan
  4.417597e+00   -2.044852e+00            nan
  4.419807e+00   -3.766224e-01            nan
