# == pyFAI calibration ==
# Distance Sample to Detector: 0.216 m
# PONI: 1.166e-01, 1.308e-01 m
# Rotations: 0.000000 0.000000 0.000000 rad
# 
# == Fit2d calibration ==
# Distance Sample-beamCenter: 216.000 mm
# Center: x=1744.293, y=1555.000 pix
# Tilt: 0.000 deg  TiltPlanRot: 0.000 deg
# 
# Detector Eiger 9M	 PixelSize= 7.500e-05, 7.500e-05 m
#    Detector has a mask: True 
#    Detector has a dark current: False 
#    detector has a flat field: False 
# 
# Wavelength: 9.8e-11 m
# Mask applied: from detector
# Dark current applied: False
# Flat field applied: False
# Polarization factor: None
# Normalization factor: 1.0
# 
# Headers of the input frame:
# {
# "_array_data.header_convention": "SLS_1.0",
# "_array_data.header_contents": "# Detector: Dectris Eiger 9M, S/N E-18-0102\r\n# Pixel_size 75e-6 m x 75e-6 m\r\n# Silicon sensor, thickness 0.000450 m\r\n# Exposure_time 0.024997 s\r\n# Exposure_period 0.025000 s\r\n# Count_cutoff 62318 counts\r\n# Wavelength 0.980106 A\r\n# Detector_distance 0.215992 m\r\n# Beam_xy (1555, 1744) pixels\r\n# Start_angle 0.000000 deg.\r\n# Angle_increment 0.000000 deg.",
# "Content-Type": "application/octet-stream;",
# "conversions": "x-CBF_BYTE_OFFSET",
# "Content-Transfer-Encoding": "BINARY",
# "X-Binary-Size": "10166590",
# "X-Binary-ID": "1",
# "X-Binary-Element-Type": "signed 32-bit integer",
# "X-Binary-Element-Byte-Order": "LITTLE_ENDIAN",
# "Content-MD5": "CulTReuGjhnLC+7QH8wDew==",
# "X-Binary-Number-of-Elements": "10166590",
# "X-Binary-Size-Fastest-Dimension": "3110",
# "X-Binary-Size-Second-Dimension": "3269",
# "X-Binary-Size-Padding": "4095"
# }
# --> H:/Proxima2a_2019-04-05/RAW_DATA/C5_gel17_position5/C5_mesh_1_data.cbf/C5_mesh_1_data.cbf000186.dat
#        q_A^-1              I           sigma 
  1.105228e-03    1.635420e+00   6.919928e-01
  3.315685e-03    1.216482e+00   3.628259e-01
  5.526141e-03    1.133919e+00   2.708714e-01
  7.736597e-03    1.319632e+00   2.468577e-01
  9.947054e-03    1.639871e+00   2.425948e-01
  1.215751e-02    1.583553e+00   2.155683e-01
  1.436797e-02    1.443558e+00   1.893184e-01
  1.657842e-02    1.365400e+00   1.713856e-01
  1.878888e-02    1.463346e+00   1.666622e-01
  2.099934e-02    1.340214e+00   1.509000e-01
  2.320979e-02    1.395708e+00   1.464638e-01
  2.542025e-02    1.297924e+00   1.349690e-01
  2.763070e-02    1.485943e+00   1.385133e-01
  2.984116e-02    1.503095e+00   1.340509e-01
  3.205162e-02    1.393733e+00   1.245593e-01
  3.426207e-02    1.447259e+00   1.227575e-01
  3.647253e-02    1.364292e+00   1.155163e-01
  3.868299e-02    1.327107e+00   1.106365e-01
  4.089344e-02    1.253592e+00   1.045824e-01
  4.310390e-02    1.385686e+00   1.070918e-01
  4.531436e-02    1.501066e+00   1.087090e-01
  4.752481e-02    1.520098e+00   1.068205e-01
  4.973527e-02    1.440581e+00   1.016531e-01
  5.194572e-02    1.553424e+00   1.032875e-01
  5.415618e-02    1.589682e+00   1.023278e-01
  5.636664e-02    1.487950e+00   9.704194e-02
  5.857709e-02    1.343934e+00   9.046978e-02
  6.078755e-02    1.427646e+00   9.153088e-02
  6.299801e-02    1.433631e+00   9.009800e-02
  6.520846e-02    1.511102e+00   9.091963e-02
  6.741892e-02    1.473548e+00   8.829416e-02
  6.962938e-02    1.482324e+00   8.714409e-02
  7.183983e-02    1.384580e+00   8.291464e-02
  7.405029e-02    1.337177e+00   8.025566e-02
  7.626074e-02    1.423403e+00   8.159325e-02
  7.847120e-02    1.568182e+00   8.442520e-02
  8.068166e-02    1.560268e+00   8.304967e-02
  8.289211e-02    1.496528e+00   8.024336e-02
  8.510257e-02    1.443896e+00   7.778886e-02
  8.731303e-02    1.347226e+00   7.417969e-02
  8.952348e-02    1.461834e+00   7.631266e-02
  9.173394e-02    1.480155e+00   7.585554e-02
  9.394439e-02    1.602413e+00   7.798956e-02
  9.615485e-02    1.443247e+00   7.315772e-02
  9.836531e-02    1.453876e+00   7.259490e-02
  1.005758e-01    1.511115e+00   7.319277e-02
  1.027862e-01    1.519924e+00   7.261040e-02
  1.049967e-01    1.470867e+00   7.067189e-02
  1.072071e-01    1.482777e+00   7.022126e-02
  1.094176e-01    1.554672e+00   7.117243e-02
  1.116280e-01    1.562201e+00   7.063309e-02
  1.138385e-01    1.536681e+00   6.936896e-02
  1.160490e-01    1.528260e+00   6.851579e-02
  1.182594e-01    1.509237e+00   6.744722e-02
  1.204699e-01    1.547950e+00   6.767668e-02
  1.226803e-01    1.529942e+00   6.667021e-02
  1.248908e-01    1.613920e+00   6.786604e-02
  1.271012e-01    1.593365e+00   6.684224e-02
  1.293117e-01    1.548654e+00   6.533125e-02
  1.315222e-01    1.615348e+00   6.615859e-02
  1.337326e-01    1.569011e+00   6.466044e-02
  1.359431e-01    1.573345e+00   6.478758e-02
  1.381535e-01    1.595546e+00   6.611885e-02
  1.403640e-01    1.545565e+00   6.535598e-02
  1.425744e-01    1.527834e+00   6.508382e-02
  1.447849e-01    1.444417e+00   6.329672e-02
  1.469953e-01    1.496507e+00   6.438758e-02
  1.492058e-01    1.624650e+00   6.700970e-02
  1.514163e-01    1.675138e+00   6.792997e-02
  1.536267e-01    1.667619e+00   6.764501e-02
  1.558372e-01    1.655959e+00   6.725929e-02
  1.580476e-01    1.582988e+00   6.560113e-02
  1.602581e-01    1.539706e+00   6.453374e-02
  1.624685e-01    1.693013e+00   6.748502e-02
  1.646790e-01    1.643870e+00   6.630743e-02
  1.668895e-01    1.734042e+00   6.790505e-02
  1.690999e-01    1.742584e+00   6.786770e-02
  1.713104e-01    1.776819e+00   6.831845e-02
  1.735208e-01    1.740610e+00   6.740848e-02
  1.757313e-01    1.790416e+00   6.815183e-02
  1.779417e-01    1.832879e+00   6.873039e-02
  1.801522e-01    1.921672e+00   7.015136e-02
  1.823626e-01    1.858268e+00   6.875472e-02
  1.845731e-01    1.908346e+00   6.944925e-02
  1.867836e-01    1.969986e+00   7.032385e-02
  1.889940e-01    1.902121e+00   6.887612e-02
  1.912045e-01    1.893030e+00   6.848186e-02
  1.934149e-01    1.923666e+00   6.880274e-02
  1.956254e-01    1.948629e+00   6.901934e-02
  1.978358e-01    2.008265e+00   6.982739e-02
  2.000463e-01    2.018568e+00   6.977428e-02
  2.022568e-01    2.032918e+00   6.979205e-02
  2.044672e-01    1.926727e+00   6.771202e-02
  2.066777e-01    2.031294e+00   6.929438e-02
  2.088881e-01    2.022183e+00   6.891263e-02
  2.110986e-01    2.009387e+00   6.845866e-02
  2.133090e-01    1.938426e+00   6.702044e-02
  2.155195e-01    1.944457e+00   6.690194e-02
  2.177300e-01    1.901989e+00   6.564751e-02
  2.199404e-01    1.955748e+00   6.481472e-02
  2.221509e-01    1.908068e+00   6.296854e-02
  2.243613e-01    1.963489e+00   6.306669e-02
  2.265718e-01    2.016875e+00   6.321377e-02
  2.287822e-01    2.026922e+00   6.274383e-02
  2.309927e-01    2.019231e+00   6.205415e-02
  2.332031e-01    2.095490e+00   6.267405e-02
  2.354136e-01    2.019850e+00   6.103377e-02
  2.376241e-01    2.156587e+00   6.257632e-02
  2.398345e-01    2.125932e+00   6.167017e-02
  2.420450e-01    2.151010e+00   6.158951e-02
  2.442554e-01    2.101817e+00   6.046175e-02
  2.464659e-01    2.049165e+00   5.929882e-02
  2.486763e-01    2.092933e+00   5.953484e-02
  2.508868e-01    2.124998e+00   5.961071e-02
  2.530973e-01    2.154574e+00   5.965200e-02
  2.553077e-01    2.081284e+00   5.827303e-02
  2.575182e-01    2.041071e+00   5.736590e-02
  2.597286e-01    2.080231e+00   5.757693e-02
  2.619391e-01    2.103265e+00   5.756150e-02
  2.641495e-01    2.144631e+00   5.780311e-02
  2.663600e-01    2.100482e+00   5.689048e-02
  2.685704e-01    2.019246e+00   5.547714e-02
  2.707809e-01    2.036319e+00   5.541547e-02
  2.729914e-01    2.049519e+00   5.530506e-02
  2.752018e-01    2.011543e+00   5.450513e-02
  2.774123e-01    2.048250e+00   5.471922e-02
  2.796227e-01    2.043272e+00   5.438236e-02
  2.818332e-01    2.037745e+00   5.403782e-02
  2.840436e-01    2.022548e+00   5.357500e-02
  2.862541e-01    1.944900e+00   5.228398e-02
  2.884646e-01    1.985936e+00   5.258192e-02
  2.906750e-01    1.970546e+00   5.212944e-02
  2.928855e-01    2.019058e+00   5.252272e-02
  2.950959e-01    2.008813e+00   5.214866e-02
  2.973064e-01    1.913131e+00   5.066283e-02
  2.995168e-01    1.953938e+00   5.096840e-02
  3.017273e-01    1.939217e+00   5.055217e-02
  3.039377e-01    1.944399e+00   5.039803e-02
  3.061482e-01    1.927084e+00   4.995608e-02
  3.083587e-01    1.932498e+00   4.980966e-02
  3.105691e-01    1.905164e+00   4.924490e-02
  3.127796e-01    1.852304e+00   4.835279e-02
  3.149900e-01    1.883687e+00   4.855751e-02
  3.172005e-01    1.933637e+00   4.899594e-02
  3.194109e-01    1.897658e+00   4.833760e-02
  3.216214e-01    1.906043e+00   4.824659e-02
  3.238319e-01    1.952207e+00   4.863391e-02
  3.260423e-01    1.869318e+00   4.740070e-02
  3.282528e-01    1.820631e+00   4.659310e-02
  3.304632e-01    1.856118e+00   4.686274e-02
  3.326737e-01    1.855982e+00   4.667819e-02
  3.348841e-01    1.828598e+00   4.615287e-02
  3.370946e-01    1.855803e+00   4.632001e-02
  3.393050e-01    1.824006e+00   4.574751e-02
  3.415155e-01    1.831377e+00   4.566751e-02
  3.437260e-01    1.849974e+00   4.572867e-02
  3.459364e-01    1.800627e+00   4.494778e-02
  3.481469e-01    1.775999e+00   4.447638e-02
  3.503573e-01    1.780330e+00   4.436835e-02
  3.525678e-01    1.864092e+00   4.523829e-02
  3.547782e-01    1.840249e+00   4.478560e-02
  3.569887e-01    1.812413e+00   4.428812e-02
  3.591992e-01    1.840552e+00   4.447266e-02
  3.614096e-01    1.832543e+00   4.422194e-02
  3.636201e-01    1.824757e+00   4.397282e-02
  3.658305e-01    1.809853e+00   4.364350e-02
  3.680410e-01    1.818982e+00   4.360295e-02
  3.702514e-01    1.781042e+00   4.300072e-02
  3.724619e-01    1.793902e+00   4.300872e-02
  3.746724e-01    1.802337e+00   4.296588e-02
  3.768828e-01    1.846617e+00   4.334413e-02
  3.790933e-01    1.830153e+00   4.300988e-02
  3.813037e-01    1.810482e+00   4.263816e-02
  3.835142e-01    1.773388e+00   4.206048e-02
  3.857246e-01    1.794016e+00   4.216751e-02
  3.879351e-01    1.758682e+00   4.161503e-02
  3.901455e-01    1.754486e+00   4.143304e-02
  3.923560e-01    1.822956e+00   4.209954e-02
  3.945665e-01    1.812888e+00   4.185000e-02
  3.967769e-01    1.780531e+00   4.134496e-02
  3.989874e-01    1.774677e+00   4.114803e-02
  4.011978e-01    1.790270e+00   4.120133e-02
  4.034083e-01    1.826323e+00   4.148636e-02
  4.056187e-01    1.787103e+00   4.091207e-02
  4.078292e-01    1.811539e+00   4.106618e-02
  4.100397e-01    1.790502e+00   4.070237e-02
  4.122501e-01    1.788763e+00   4.056090e-02
  4.144606e-01    1.782463e+00   4.036933e-02
  4.166710e-01    1.779349e+00   4.021414e-02
  4.188815e-01    1.803163e+00   4.036274e-02
  4.210919e-01    1.814113e+00   4.036649e-02
  4.233024e-01    1.800409e+00   4.009543e-02
  4.255128e-01    1.814353e+00   4.013406e-02
  4.277233e-01    1.771193e+00   3.953990e-02
  4.299338e-01    1.788499e+00   3.961826e-02
  4.321442e-01    1.818474e+00   3.983458e-02
  4.343547e-01    1.753316e+00   3.900380e-02
  4.365651e-01    1.747175e+00   3.882481e-02
  4.387756e-01    1.748198e+00   3.872744e-02
  4.409860e-01    1.738528e+00   3.851318e-02
  4.431965e-01    1.767284e+00   3.872302e-02
  4.454070e-01    1.724880e+00   3.814921e-02
  4.476174e-01    1.737622e+00   3.818472e-02
  4.498279e-01    1.744393e+00   3.815495e-02
  4.520383e-01    1.757606e+00   3.819407e-02
  4.542488e-01    1.761773e+00   3.813621e-02
  4.564592e-01    1.787282e+00   3.830826e-02
  4.586697e-01    1.778229e+00   3.810972e-02
  4.608801e-01    1.718651e+00   3.736549e-02
  4.630906e-01    1.722342e+00   3.730655e-02
  4.653011e-01    1.675956e+00   3.670399e-02
  4.675115e-01    1.675808e+00   3.660569e-02
  4.697220e-01    1.709006e+00   3.686972e-02
  4.719324e-01    1.646305e+00   3.609346e-02
  4.741429e-01    1.650725e+00   3.604871e-02
  4.763533e-01    1.676000e+00   3.623055e-02
  4.785638e-01    1.653918e+00   3.589811e-02
  4.807743e-01    1.669783e+00   3.597813e-02
  4.829847e-01    1.692592e+00   3.613153e-02
  4.851952e-01    1.662425e+00   3.571748e-02
  4.874056e-01    1.695881e+00   3.598412e-02
  4.896161e-01    1.695816e+00   3.589422e-02
  4.918265e-01    1.720873e+00   3.606861e-02
  4.940370e-01    1.701984e+00   3.578156e-02
  4.962475e-01    1.708036e+00   3.575661e-02
  4.984579e-01    1.665660e+00   3.522325e-02
  5.006684e-01    1.659683e+00   3.507425e-02
  5.028788e-01    1.708197e+00   3.549697e-02
  5.050893e-01    1.637444e+00   3.466954e-02
  5.072997e-01    1.673834e+00   3.496798e-02
  5.095102e-01    1.658961e+00   3.472894e-02
  5.117206e-01    1.663207e+00   3.469064e-02
  5.139311e-01    1.650262e+00   3.447361e-02
  5.161416e-01    1.685270e+00   3.475502e-02
  5.183520e-01    1.611663e+00   3.390680e-02
  5.205625e-01    1.626649e+00   3.398424e-02
  5.227729e-01    1.672339e+00   3.437786e-02
  5.249834e-01    1.664448e+00   3.421704e-02
  5.271938e-01    1.683500e+00   3.433201e-02
  5.294043e-01    1.701201e+00   3.443239e-02
  5.316148e-01    1.734350e+00   3.468661e-02
  5.338252e-01    1.789201e+00   3.515034e-02
  5.360357e-01    1.779269e+00   3.497284e-02
  5.382461e-01    1.756131e+00   3.466617e-02
  5.404566e-01    1.748224e+00   3.450932e-02
  5.426670e-01    1.728218e+00   3.423398e-02
  5.448775e-01    1.728022e+00   3.415556e-02
  5.470879e-01    1.756840e+00   3.436239e-02
  5.492984e-01    1.783240e+00   3.454262e-02
  5.515089e-01    1.775802e+00   3.439406e-02
  5.537193e-01    1.793317e+00   3.448712e-02
  5.559298e-01    1.765697e+00   3.414544e-02
  5.581402e-01    1.743505e+00   3.385605e-02
  5.603507e-01    1.753050e+00   3.387471e-02
  5.625611e-01    1.776255e+00   3.402418e-02
  5.647716e-01    1.777100e+00   3.395838e-02
  5.669821e-01    1.790753e+00   3.401508e-02
  5.691925e-01    1.790041e+00   3.393534e-02
  5.714030e-01    1.759216e+00   3.357014e-02
  5.736134e-01    1.719078e+00   3.311440e-02
  5.758239e-01    1.716706e+00   3.302089e-02
  5.780343e-01    1.711712e+00   3.290310e-02
  5.802448e-01    1.659841e+00   3.233289e-02
  5.824552e-01    1.636325e+00   3.203566e-02
  5.846657e-01    1.639457e+00   3.199948e-02
  5.868762e-01    1.645539e+00   3.199201e-02
  5.890866e-01    1.651875e+00   3.198706e-02
  5.912971e-01    1.654968e+00   3.195070e-02
  5.935075e-01    1.634979e+00   3.169154e-02
  5.957180e-01    1.631458e+00   3.159244e-02
  5.979284e-01    1.622068e+00   3.143709e-02
  6.001389e-01    1.636680e+00   3.151405e-02
  6.023494e-01    1.627397e+00   3.136076e-02
  6.045598e-01    1.600791e+00   3.104001e-02
  6.067703e-01    1.625849e+00   3.121912e-02
  6.089807e-01    1.652884e+00   3.141429e-02
  6.111912e-01    1.698520e+00   3.178145e-02
  6.134016e-01    1.689950e+00   3.163793e-02
  6.156121e-01    1.713342e+00   3.179283e-02
  6.178226e-01    1.687178e+00   3.148668e-02
  6.200330e-01    1.692349e+00   3.147269e-02
  6.222435e-01    1.714635e+00   3.161648e-02
  6.244539e-01    1.720989e+00   3.161299e-02
  6.266644e-01    1.712746e+00   3.147568e-02
  6.288748e-01    1.709292e+00   3.138271e-02
  6.310853e-01    1.718555e+00   3.140655e-02
  6.332957e-01    1.685530e+00   3.104326e-02
  6.355062e-01    1.692644e+00   3.104828e-02
  6.377167e-01    1.720539e+00   3.124299e-02
  6.399271e-01    1.727133e+00   3.124283e-02
  6.421376e-01    1.705391e+00   3.098630e-02
  6.443480e-01    1.731072e+00   3.115934e-02
  6.465585e-01    1.712414e+00   3.093226e-02
  6.487689e-01    1.721748e+00   3.095788e-02
  6.509794e-01    1.692246e+00   3.063362e-02
  6.531899e-01    1.633430e+00   3.003998e-02
  6.554003e-01    1.566133e+00   2.935933e-02
  6.576108e-01    1.590521e+00   2.953195e-02
  6.598212e-01    1.614779e+00   2.970101e-02
  6.620317e-01    1.622975e+00   2.972110e-02
  6.642421e-01    1.627606e+00   2.970841e-02
  6.664526e-01    1.622928e+00   2.961104e-02
  6.686630e-01    1.555422e+00   2.893507e-02
  6.708735e-01    1.606211e+00   2.934972e-02
  6.730840e-01    1.616671e+00   2.939146e-02
  6.752944e-01    1.589195e+00   2.908764e-02
  6.775049e-01    1.587733e+00   2.902145e-02
  6.797153e-01    1.646310e+00   2.949845e-02
  6.819258e-01    1.657808e+00   2.954790e-02
  6.841362e-01    1.625989e+00   2.921034e-02
  6.863467e-01    1.567362e+00   2.862754e-02
  6.885572e-01    1.585424e+00   2.874040e-02
  6.907676e-01    1.583722e+00   2.867352e-02
  6.929781e-01    1.597128e+00   2.874343e-02
  6.951885e-01    1.576451e+00   2.850620e-02
  6.973990e-01    1.590511e+00   2.858239e-02
  6.996094e-01    1.657622e+00   2.912785e-02
  7.018199e-01    1.600352e+00   2.857003e-02
  7.040303e-01    1.600437e+00   2.852058e-02
  7.062408e-01    1.615760e+00   2.860659e-02
  7.084513e-01    1.585773e+00   2.829062e-02
  7.106617e-01    1.579221e+00   2.818304e-02
  7.128722e-01    1.587115e+00   2.820451e-02
  7.150826e-01    1.620039e+00   2.844643e-02
  7.172931e-01    1.599713e+00   2.821871e-02
  7.195035e-01    1.545068e+00   2.768487e-02
  7.217140e-01    1.545258e+00   2.773554e-02
  7.239245e-01    1.604233e+00   2.848870e-02
  7.261349e-01    1.622577e+00   2.876139e-02
  7.283454e-01    1.603203e+00   2.866223e-02
  7.305558e-01    1.576315e+00   2.847488e-02
  7.327663e-01    1.578238e+00   2.853479e-02
  7.349767e-01    1.565619e+00   2.843680e-02
  7.371872e-01    1.555793e+00   2.833631e-02
  7.393976e-01    1.558279e+00   2.834476e-02
  7.416081e-01    1.546867e+00   2.822474e-02
  7.438186e-01    1.528869e+00   2.791785e-02
  7.460290e-01    1.543822e+00   2.776271e-02
  7.482395e-01    1.522581e+00   2.740274e-02
  7.504499e-01    1.531246e+00   2.734621e-02
  7.526604e-01    1.551271e+00   2.740877e-02
  7.548708e-01    1.530636e+00   2.713772e-02
  7.570813e-01    1.528551e+00   2.706900e-02
  7.592918e-01    1.547909e+00   2.720497e-02
  7.615022e-01    1.566350e+00   2.733285e-02
  7.637127e-01    1.512741e+00   2.682891e-02
  7.659231e-01    1.542253e+00   2.705767e-02
  7.681336e-01    1.522823e+00   2.685561e-02
  7.703440e-01    1.568656e+00   2.722558e-02
  7.725545e-01    1.610006e+00   2.755086e-02
  7.747650e-01    1.619470e+00   2.759300e-02
  7.769754e-01    1.586608e+00   2.725872e-02
  7.791859e-01    1.569761e+00   2.706020e-02
  7.813963e-01    1.637138e+00   2.758129e-02
  7.836068e-01    1.566069e+00   2.692432e-02
  7.858172e-01    1.560467e+00   2.682584e-02
  7.880277e-01    1.583338e+00   2.697032e-02
  7.902381e-01    1.604640e+00   2.710181e-02
  7.924486e-01    1.623710e+00   2.721188e-02
  7.946591e-01    1.622830e+00   2.715587e-02
  7.968695e-01    1.634492e+00   2.720452e-02
  7.990800e-01    1.625553e+00   2.708153e-02
  8.012904e-01    1.596975e+00   2.679601e-02
  8.035009e-01    1.591818e+00   2.670509e-02
  8.057113e-01    1.608158e+00   2.679538e-02
  8.079218e-01    1.642847e+00   2.703610e-02
  8.101323e-01    1.621306e+00   2.681268e-02
  8.123427e-01    1.595137e+00   2.655006e-02
  8.145532e-01    1.603626e+00   2.657505e-02
  8.167636e-01    1.651242e+00   2.692138e-02
  8.189741e-01    1.639095e+00   2.677746e-02
  8.211845e-01    1.622384e+00   2.659597e-02
  8.233950e-01    1.609417e+00   2.644637e-02
  8.256054e-01    1.626167e+00   2.653959e-02
  8.278159e-01    1.645239e+00   2.665070e-02
  8.300264e-01    1.593741e+00   2.618781e-02
  8.322368e-01    1.607468e+00   2.625759e-02
  8.344473e-01    1.642446e+00   2.649834e-02
  8.366577e-01    1.598106e+00   2.609616e-02
  8.388682e-01    1.647783e+00   2.645628e-02
  8.410786e-01    1.646174e+00   2.640124e-02
  8.432891e-01    1.621243e+00   2.615894e-02
  8.454996e-01    1.630640e+00   2.619310e-02
  8.477100e-01    1.658521e+00   2.637416e-02
  8.499205e-01    1.620178e+00   2.602659e-02
  8.521309e-01    1.627057e+00   2.604109e-02
  8.543414e-01    1.611172e+00   2.587325e-02
  8.565518e-01    1.619244e+00   2.589759e-02
  8.587623e-01    1.621481e+00   2.587512e-02
  8.609727e-01    1.632251e+00   2.592065e-02
  8.631832e-01    1.606720e+00   2.567749e-02
  8.653937e-01    1.589098e+00   2.549704e-02
  8.676041e-01    1.576810e+00   2.535996e-02
  8.698146e-01    1.574103e+00   2.529943e-02
  8.720250e-01    1.622423e+00   2.564565e-02
  8.742355e-01    1.635531e+00   2.570988e-02
  8.764459e-01    1.612530e+00   2.548949e-02
  8.786564e-01    1.590578e+00   2.527767e-02
  8.808669e-01    1.610603e+00   2.539772e-02
  8.830773e-01    1.572527e+00   2.505793e-02
  8.852878e-01    1.571819e+00   2.501474e-02
  8.874982e-01    1.562830e+00   2.490690e-02
  8.897087e-01    1.563428e+00   2.487444e-02
  8.919191e-01    1.594902e+00   2.508586e-02
  8.941296e-01    1.624740e+00   2.528187e-02
  8.963401e-01    1.613537e+00   2.515798e-02
  8.985505e-01    1.633621e+00   2.527673e-02
  9.007610e-01    1.613009e+00   2.507986e-02
  9.029714e-01    1.584893e+00   2.482467e-02
  9.051819e-01    1.585840e+00   2.479499e-02
  9.073923e-01    1.632280e+00   2.511850e-02
  9.096028e-01    1.633579e+00   2.509322e-02
  9.118132e-01    1.628418e+00   2.501700e-02
  9.140237e-01    1.634575e+00   2.502724e-02
  9.162342e-01    1.621214e+00   2.488997e-02
  9.184446e-01    1.587429e+00   2.459362e-02
  9.206551e-01    1.614439e+00   2.476622e-02
  9.228655e-01    1.606694e+00   2.467144e-02
  9.250760e-01    1.591667e+00   2.452054e-02
  9.272864e-01    1.620808e+00   2.470954e-02
  9.294969e-01    1.631417e+00   2.475415e-02
  9.317074e-01    1.613112e+00   2.458009e-02
  9.339178e-01    1.647034e+00   2.480327e-02
  9.361283e-01    1.665153e+00   2.490257e-02
  9.383387e-01    1.645575e+00   2.472208e-02
  9.405492e-01    1.657750e+00   2.477870e-02
  9.427596e-01    1.629002e+00   2.452756e-02
  9.449701e-01    1.639256e+00   2.457119e-02
  9.471805e-01    1.653368e+00   2.464178e-02
  9.493910e-01    1.655636e+00   2.462484e-02
  9.516015e-01    1.698847e+00   2.490927e-02
  9.538119e-01    1.713687e+00   2.498357e-02
  9.560224e-01    1.735241e+00   2.510478e-02
  9.582328e-01    1.777777e+00   2.537655e-02
  9.604433e-01    1.769045e+00   2.527830e-02
  9.626537e-01    1.781791e+00   2.533509e-02
  9.648642e-01    1.763136e+00   2.516760e-02
  9.670747e-01    1.760695e+00   2.511548e-02
  9.692851e-01    1.799938e+00   2.536008e-02
  9.714956e-01    1.788846e+00   2.524616e-02
  9.737060e-01    1.835352e+00   2.553865e-02
  9.759165e-01    1.804693e+00   2.528873e-02
  9.781269e-01    1.865867e+00   2.568012e-02
  9.803374e-01    1.918671e+00   2.600495e-02
  9.825478e-01    1.938008e+00   2.610120e-02
  9.847583e-01    1.928955e+00   2.600480e-02
  9.869688e-01    1.907809e+00   2.582725e-02
  9.891792e-01    1.872370e+00   2.555226e-02
  9.913897e-01    1.806768e+00   2.506675e-02
  9.936001e-01    1.784721e+00   2.488072e-02
  9.958106e-01    1.733618e+00   2.448861e-02
  9.980210e-01    1.707088e+00   2.426895e-02
  1.000231e+00    1.666892e+00   2.411291e-02
  1.002442e+00    1.636024e+00   2.401552e-02
  1.004652e+00    1.677329e+00   2.438462e-02
  1.006863e+00    1.616664e+00   2.398931e-02
  1.009073e+00    1.572915e+00   2.369867e-02
  1.011284e+00    1.563782e+00   2.366137e-02
  1.013494e+00    1.582914e+00   2.382926e-02
  1.015705e+00    1.628964e+00   2.419624e-02
  1.017915e+00    1.634051e+00   2.425072e-02
  1.020126e+00    1.651426e+00   2.439575e-02
  1.022336e+00    1.702852e+00   2.478491e-02
  1.024547e+00    1.708991e+00   2.484132e-02
  1.026757e+00    1.695524e+00   2.475202e-02
  1.028967e+00    1.665528e+00   2.454007e-02
  1.031178e+00    1.618183e+00   2.419511e-02
  1.033388e+00    1.556790e+00   2.373679e-02
  1.035599e+00    1.528297e+00   2.352197e-02
  1.037809e+00    1.556159e+00   2.373870e-02
  1.040020e+00    1.550966e+00   2.370036e-02
  1.042230e+00    1.532352e+00   2.355964e-02
  1.044441e+00    1.559477e+00   2.376703e-02
  1.046651e+00    1.546013e+00   2.366439e-02
  1.048862e+00    1.569825e+00   2.384512e-02
  1.051072e+00    1.511165e+00   2.339302e-02
  1.053282e+00    1.501826e+00   2.331966e-02
  1.055493e+00    1.527498e+00   2.351376e-02
  1.057703e+00    1.554445e+00   2.371871e-02
  1.059914e+00    1.555442e+00   2.372198e-02
  1.062124e+00    1.530018e+00   2.352320e-02
  1.064335e+00    1.530269e+00   2.352164e-02
  1.066545e+00    1.448421e+00   2.287805e-02
  1.068756e+00    1.435640e+00   2.277318e-02
  1.070966e+00    1.458709e+00   2.294891e-02
  1.073177e+00    1.464578e+00   2.298901e-02
  1.075387e+00    1.471496e+00   2.303800e-02
  1.077597e+00    1.473198e+00   2.304407e-02
  1.079808e+00    1.433206e+00   2.259782e-02
  1.082018e+00    1.438928e+00   2.245534e-02
  1.084229e+00    1.453929e+00   2.246231e-02
  1.086439e+00    1.443337e+00   2.229324e-02
  1.088650e+00    1.449569e+00   2.226579e-02
  1.090860e+00    1.417388e+00   2.195049e-02
  1.093071e+00    1.400372e+00   2.175722e-02
  1.095281e+00    1.430616e+00   2.193395e-02
  1.097492e+00    1.456367e+00   2.207538e-02
  1.099702e+00    1.427660e+00   2.180556e-02
  1.101912e+00    1.411129e+00   2.163058e-02
  1.104123e+00    1.438769e+00   2.179311e-02
  1.106333e+00    1.449545e+00   2.182991e-02
  1.108544e+00    1.408129e+00   2.147187e-02
  1.110754e+00    1.402901e+00   2.138930e-02
  1.112965e+00    1.403017e+00   2.134994e-02
  1.115175e+00    1.391221e+00   2.121923e-02
  1.117386e+00    1.382024e+00   2.111017e-02
  1.119596e+00    1.409039e+00   2.127765e-02
  1.121807e+00    1.423132e+00   2.134481e-02
  1.124017e+00    1.394785e+00   2.109468e-02
  1.126228e+00    1.390125e+00   2.102383e-02
  1.128438e+00    1.394815e+00   2.102258e-02
  1.130648e+00    1.396495e+00   2.100096e-02
  1.132859e+00    1.394613e+00   2.095246e-02
  1.135069e+00    1.383751e+00   2.083610e-02
  1.137280e+00    1.405102e+00   2.096304e-02
  1.139490e+00    1.381214e+00   2.075111e-02
  1.141701e+00    1.385318e+00   2.074877e-02
  1.143911e+00    1.372120e+00   2.061798e-02
  1.146122e+00    1.373696e+00   2.059788e-02
  1.148332e+00    1.376143e+00   2.058438e-02
  1.150543e+00    1.359980e+00   2.043252e-02
  1.152753e+00    1.334166e+00   2.020728e-02
  1.154963e+00    1.345424e+00   2.026164e-02
  1.157174e+00    1.341652e+00   2.020340e-02
  1.159384e+00    1.360057e+00   2.031179e-02
  1.161595e+00    1.378710e+00   2.042066e-02
  1.163805e+00    1.385965e+00   2.044489e-02
  1.166016e+00    1.364702e+00   2.025805e-02
  1.168226e+00    1.343422e+00   2.007079e-02
  1.170437e+00    1.337339e+00   1.999695e-02
  1.172647e+00    1.372488e+00   2.022907e-02
  1.174858e+00    1.381627e+00   2.026805e-02
  1.177068e+00    1.383245e+00   2.025144e-02
  1.179278e+00    1.403469e+00   2.036994e-02
  1.181489e+00    1.389173e+00   2.023862e-02
  1.183699e+00    1.398337e+00   2.027730e-02
  1.185910e+00    1.426252e+00   2.045022e-02
  1.188120e+00    1.411695e+00   2.031839e-02
  1.190331e+00    1.385059e+00   2.009873e-02
  1.192541e+00    1.363242e+00   1.991233e-02
  1.194752e+00    1.395264e+00   2.011737e-02
  1.196962e+00    1.390337e+00   2.005573e-02
  1.199173e+00    1.349086e+00   1.972947e-02
  1.201383e+00    1.369449e+00   1.985045e-02
  1.203593e+00    1.355790e+00   1.972633e-02
  1.205804e+00    1.379180e+00   1.986957e-02
  1.208014e+00    1.359581e+00   1.970094e-02
  1.210225e+00    1.334416e+00   1.949258e-02
  1.212435e+00    1.333279e+00   1.945964e-02
  1.214646e+00    1.336857e+00   1.945974e-02
  1.216856e+00    1.349899e+00   1.952896e-02
  1.219067e+00    1.359729e+00   1.957539e-02
  1.221277e+00    1.363963e+00   1.958068e-02
  1.223488e+00    1.364353e+00   1.955760e-02
  1.225698e+00    1.394831e+00   1.974748e-02
  1.227909e+00    1.376235e+00   1.958497e-02
  1.230119e+00    1.365891e+00   1.947918e-02
  1.232329e+00    1.324709e+00   1.915286e-02
  1.234540e+00    1.310726e+00   1.902166e-02
  1.236750e+00    1.321591e+00   1.907036e-02
  1.238961e+00    1.353568e+00   1.927271e-02
  1.241171e+00    1.394355e+00   1.953634e-02
  1.243382e+00    1.381181e+00   1.942007e-02
  1.245592e+00    1.358199e+00   1.923365e-02
  1.247803e+00    1.368076e+00   1.927964e-02
  1.250013e+00    1.376591e+00   1.931576e-02
  1.252224e+00    1.352710e+00   1.912423e-02
  1.254434e+00    1.387167e+00   1.934217e-02
  1.256644e+00    1.376517e+00   1.924438e-02
  1.258855e+00    1.348742e+00   1.902596e-02
  1.261065e+00    1.369902e+00   1.915107e-02
  1.263276e+00    1.369509e+00   1.912525e-02
  1.265486e+00    1.328488e+00   1.881393e-02
  1.267697e+00    1.355389e+00   1.898038e-02
  1.269907e+00    1.382783e+00   1.914828e-02
  1.272118e+00    1.355068e+00   1.893280e-02
  1.274328e+00    1.339076e+00   1.879810e-02
  1.276539e+00    1.346625e+00   1.882825e-02
  1.278749e+00    1.337982e+00   1.874555e-02
  1.280959e+00    1.359525e+00   1.887325e-02
  1.283170e+00    1.329401e+00   1.864073e-02
  1.285380e+00    1.346058e+00   1.873471e-02
  1.287591e+00    1.358392e+00   1.879827e-02
  1.289801e+00    1.335237e+00   1.861626e-02
  1.292012e+00    1.336782e+00   1.860999e-02
  1.294222e+00    1.352353e+00   1.870183e-02
  1.296433e+00    1.360614e+00   1.874318e-02
  1.298643e+00    1.386096e+00   1.890122e-02
  1.300854e+00    1.352960e+00   1.865747e-02
  1.303064e+00    1.392792e+00   1.891060e-02
  1.305274e+00    1.398794e+00   1.892949e-02
  1.307485e+00    1.385689e+00   1.881878e-02
  1.309695e+00    1.393507e+00   1.884918e-02
  1.311906e+00    1.411436e+00   1.894787e-02
  1.314116e+00    1.421012e+00   1.899070e-02
  1.316327e+00    1.408566e+00   1.888521e-02
  1.318537e+00    1.405178e+00   1.884014e-02
  1.320748e+00    1.402500e+00   1.880023e-02
  1.322958e+00    1.358687e+00   1.848366e-02
  1.325169e+00    1.352662e+00   1.842157e-02
  1.327379e+00    1.383109e+00   1.860567e-02
  1.329589e+00    1.415758e+00   1.880241e-02
  1.331800e+00    1.432976e+00   1.889509e-02
  1.334010e+00    1.434118e+00   1.888134e-02
  1.336221e+00    1.378053e+00   1.848661e-02
  1.338431e+00    1.337035e+00   1.818863e-02
  1.340642e+00    1.345381e+00   1.830936e-02
  1.342852e+00    1.361789e+00   1.852177e-02
  1.345063e+00    1.353615e+00   1.851568e-02
  1.347273e+00    1.355040e+00   1.856071e-02
  1.349484e+00    1.353276e+00   1.857634e-02
  1.351694e+00    1.370928e+00   1.871998e-02
  1.353905e+00    1.350360e+00   1.859705e-02
  1.356115e+00    1.333607e+00   1.849625e-02
  1.358325e+00    1.364916e+00   1.872551e-02
  1.360536e+00    1.354539e+00   1.866582e-02
  1.362746e+00    1.360820e+00   1.871867e-02
  1.364957e+00    1.322947e+00   1.846395e-02
  1.367167e+00    1.326047e+00   1.849265e-02
  1.369378e+00    1.324751e+00   1.848959e-02
  1.371588e+00    1.330710e+00   1.853624e-02
  1.373799e+00    1.308720e+00   1.838606e-02
  1.376009e+00    1.321845e+00   1.848140e-02
  1.378220e+00    1.292057e+00   1.827447e-02
  1.380430e+00    1.298629e+00   1.832354e-02
  1.382640e+00    1.298393e+00   1.832280e-02
  1.384851e+00    1.279005e+00   1.818634e-02
  1.387061e+00    1.283090e+00   1.821565e-02
  1.389272e+00    1.262355e+00   1.806806e-02
  1.391482e+00    1.281298e+00   1.820246e-02
  1.393693e+00    1.270169e+00   1.812237e-02
  1.395903e+00    1.267490e+00   1.810176e-02
  1.398114e+00    1.279840e+00   1.818834e-02
  1.400324e+00    1.278426e+00   1.817618e-02
  1.402535e+00    1.277808e+00   1.816947e-02
  1.404745e+00    1.260822e+00   1.804594e-02
  1.406955e+00    1.271657e+00   1.812064e-02
  1.409166e+00    1.272502e+00   1.812334e-02
  1.411376e+00    1.281260e+00   1.818246e-02
  1.413587e+00    1.284617e+00   1.820245e-02
  1.415797e+00    1.270420e+00   1.809804e-02
  1.418008e+00    1.263502e+00   1.800694e-02
  1.420218e+00    1.257251e+00   1.781336e-02
  1.422429e+00    1.258646e+00   1.773831e-02
  1.424639e+00    1.262517e+00   1.770107e-02
  1.426850e+00    1.256476e+00   1.760425e-02
  1.429060e+00    1.282027e+00   1.773315e-02
  1.431270e+00    1.258897e+00   1.752833e-02
  1.433481e+00    1.255514e+00   1.746404e-02
  1.435691e+00    1.253385e+00   1.741104e-02
  1.437902e+00    1.281289e+00   1.756715e-02
  1.440112e+00    1.293435e+00   1.761458e-02
  1.442323e+00    1.246061e+00   1.725626e-02
  1.444533e+00    1.258481e+00   1.730962e-02
  1.446744e+00    1.272066e+00   1.737165e-02
  1.448954e+00    1.258144e+00   1.724628e-02
  1.451165e+00    1.273936e+00   1.732436e-02
  1.453375e+00    1.262031e+00   1.721528e-02
  1.455586e+00    1.276489e+00   1.728537e-02
  1.457796e+00    1.242849e+00   1.702887e-02
  1.460006e+00    1.276174e+00   1.722833e-02
  1.462217e+00    1.270773e+00   1.716562e-02
  1.464427e+00    1.252723e+00   1.701785e-02
  1.466638e+00    1.243855e+00   1.693241e-02
  1.468848e+00    1.266065e+00   1.705762e-02
  1.471059e+00    1.267469e+00   1.704200e-02
  1.473269e+00    1.279684e+00   1.709945e-02
  1.475480e+00    1.217633e+00   1.665646e-02
  1.477690e+00    1.233053e+00   1.673806e-02
  1.479901e+00    1.254730e+00   1.686084e-02
  1.482111e+00    1.264659e+00   1.690414e-02
  1.484321e+00    1.258976e+00   1.684306e-02
  1.486532e+00    1.262844e+00   1.684662e-02
  1.488742e+00    1.244853e+00   1.670372e-02
  1.490953e+00    1.222832e+00   1.653309e-02
  1.493163e+00    1.238110e+00   1.661398e-02
  1.495374e+00    1.253235e+00   1.669374e-02
  1.497584e+00    1.281130e+00   1.685670e-02
  1.499795e+00    1.245748e+00   1.660080e-02
  1.502005e+00    1.228572e+00   1.646452e-02
  1.504216e+00    1.232233e+00   1.646823e-02
  1.506426e+00    1.261981e+00   1.664496e-02
  1.508636e+00    1.267088e+00   1.665810e-02
  1.510847e+00    1.259817e+00   1.658839e-02
  1.513057e+00    1.256571e+00   1.654191e-02
  1.515268e+00    1.276069e+00   1.664381e-02
  1.517478e+00    1.269775e+00   1.657742e-02
  1.519689e+00    1.258130e+00   1.647623e-02
  1.521899e+00    1.274570e+00   1.656021e-02
  1.524110e+00    1.271205e+00   1.651788e-02
  1.526320e+00    1.245238e+00   1.632876e-02
  1.528531e+00    1.253773e+00   1.636484e-02
  1.530741e+00    1.254613e+00   1.635114e-02
  1.532951e+00    1.243829e+00   1.626118e-02
  1.535162e+00    1.226543e+00   1.623359e-02
  1.537372e+00    1.209687e+00   1.618749e-02
  1.539583e+00    1.214007e+00   1.625013e-02
  1.541793e+00    1.229472e+00   1.636019e-02
  1.544004e+00    1.219938e+00   1.629691e-02
  1.546214e+00    1.225310e+00   1.633125e-02
  1.548425e+00    1.235586e+00   1.639985e-02
  1.550635e+00    1.225718e+00   1.634384e-02
  1.552846e+00    1.222803e+00   1.633395e-02
  1.555056e+00    1.229486e+00   1.633731e-02
  1.557266e+00    1.221972e+00   1.617786e-02
  1.559477e+00    1.206764e+00   1.601865e-02
  1.561687e+00    1.250079e+00   1.627287e-02
  1.563898e+00    1.239771e+00   1.618851e-02
  1.566108e+00    1.254073e+00   1.626560e-02
  1.568319e+00    1.228673e+00   1.608451e-02
  1.570529e+00    1.241619e+00   1.614391e-02
  1.572740e+00    1.240509e+00   1.610914e-02
  1.574950e+00    1.252175e+00   1.615830e-02
  1.577161e+00    1.285672e+00   1.634711e-02
  1.579371e+00    1.257629e+00   1.614407e-02
  1.581582e+00    1.223452e+00   1.590361e-02
  1.583792e+00    1.203423e+00   1.575514e-02
  1.586002e+00    1.228719e+00   1.590236e-02
  1.588213e+00    1.223975e+00   1.585454e-02
  1.590423e+00    1.249324e+00   1.599776e-02
  1.592634e+00    1.220490e+00   1.579066e-02
  1.594844e+00    1.223326e+00   1.578776e-02
  1.597055e+00    1.212135e+00   1.569514e-02
  1.599265e+00    1.219983e+00   1.572533e-02
  1.601476e+00    1.228639e+00   1.576079e-02
  1.603686e+00    1.240627e+00   1.581774e-02
  1.605897e+00    1.226450e+00   1.570705e-02
  1.608107e+00    1.226168e+00   1.568577e-02
  1.610317e+00    1.219715e+00   1.562527e-02
  1.612528e+00    1.228917e+00   1.566498e-02
  1.614738e+00    1.206646e+00   1.550363e-02
  1.616949e+00    1.220709e+00   1.557478e-02
  1.619159e+00    1.204146e+00   1.545017e-02
  1.621370e+00    1.200704e+00   1.540976e-02
  1.623580e+00    1.190583e+00   1.532653e-02
  1.625791e+00    1.204433e+00   1.539717e-02
  1.628001e+00    1.216186e+00   1.545377e-02
  1.630212e+00    1.185276e+00   1.523842e-02
  1.632422e+00    1.178254e+00   1.517538e-02
  1.634632e+00    1.150346e+00   1.497751e-02
  1.636843e+00    1.155741e+00   1.499519e-02
  1.639053e+00    1.150180e+00   1.494198e-02
  1.641264e+00    1.164483e+00   1.501751e-02
  1.643474e+00    1.160758e+00   1.497613e-02
  1.645685e+00    1.154983e+00   1.492217e-02
  1.647895e+00    1.145302e+00   1.484298e-02
  1.650106e+00    1.160829e+00   1.492619e-02
  1.652316e+00    1.127602e+00   1.469468e-02
  1.654527e+00    1.135163e+00   1.472725e-02
  1.656737e+00    1.138309e+00   1.473106e-02
  1.658947e+00    1.133524e+00   1.468379e-02
  1.661158e+00    1.108915e+00   1.450737e-02
  1.663368e+00    1.141762e+00   1.470450e-02
  1.665579e+00    1.123158e+00   1.456805e-02
  1.667789e+00    1.108331e+00   1.445539e-02
  1.670000e+00    1.114472e+00   1.447988e-02
  1.672210e+00    1.092731e+00   1.432219e-02
  1.674421e+00    1.113014e+00   1.443912e-02
  1.676631e+00    1.112457e+00   1.441955e-02
  1.678842e+00    1.084664e+00   1.422264e-02
  1.681052e+00    1.081474e+00   1.418637e-02
  1.683263e+00    1.089869e+00   1.422621e-02
  1.685473e+00    1.058688e+00   1.400627e-02
  1.687683e+00    1.071205e+00   1.407348e-02
  1.689894e+00    1.072618e+00   1.406704e-02
  1.692104e+00    1.065432e+00   1.400502e-02
  1.694315e+00    1.046661e+00   1.386676e-02
  1.696525e+00    1.059262e+00   1.393488e-02
  1.698736e+00    1.058279e+00   1.391367e-02
  1.700946e+00    1.059286e+00   1.390515e-02
  1.703157e+00    1.033958e+00   1.372343e-02
  1.705367e+00    1.032050e+00   1.369641e-02
  1.707578e+00    1.016331e+00   1.357735e-02
  1.709788e+00    1.035617e+00   1.369152e-02
  1.711998e+00    1.016684e+00   1.355098e-02
  1.714209e+00    1.014634e+00   1.352303e-02
  1.716419e+00    1.015218e+00   1.351281e-02
  1.718630e+00    9.833336e-01   1.328498e-02
  1.720840e+00    9.935579e-01   1.333991e-02
  1.723051e+00    1.003748e+00   1.339443e-02
  1.725261e+00    1.001054e+00   1.336191e-02
  1.727472e+00    1.004465e+00   1.337057e-02
  1.729682e+00    9.788173e-01   1.318557e-02
  1.731893e+00    9.789544e-01   1.317279e-02
  1.734103e+00    9.840328e-01   1.319331e-02
  1.736313e+00    9.677092e-01   1.306968e-02
  1.738524e+00    9.739009e-01   1.309778e-02
  1.740734e+00    9.924536e-01   1.320830e-02
  1.742945e+00    9.976266e-01   1.322922e-02
  1.745155e+00    9.843298e-01   1.312738e-02
  1.747366e+00    9.903313e-01   1.315349e-02
  1.749576e+00    9.969113e-01   1.318339e-02
  1.751787e+00    9.644883e-01   1.295402e-02
  1.753997e+00    9.564795e-01   1.288688e-02
  1.756208e+00    9.649290e-01   1.293056e-02
  1.758418e+00    9.539268e-01   1.284364e-02
  1.760628e+00    9.416243e-01   1.274739e-02
  1.762839e+00    9.352289e-01   1.269101e-02
  1.765049e+00    9.264138e-01   1.261818e-02
  1.767260e+00    9.513902e-01   1.277440e-02
  1.769470e+00    9.381050e-01   1.267202e-02
  1.771681e+00    9.352338e-01   1.263960e-02
  1.773891e+00    9.247119e-01   1.255542e-02
  1.776102e+00    9.356789e-01   1.261686e-02
  1.778312e+00    9.127052e-01   1.244850e-02
  1.780523e+00    9.155544e-01   1.245534e-02
  1.782733e+00    9.305801e-01   1.254451e-02
  1.784944e+00    9.268013e-01   1.250619e-02
  1.787154e+00    9.407094e-01   1.258709e-02
  1.789364e+00    9.389310e-01   1.256266e-02
  1.791575e+00    9.203408e-01   1.242518e-02
  1.793785e+00    9.327267e-01   1.249602e-02
  1.795996e+00    9.299253e-01   1.246469e-02
  1.798206e+00    9.282333e-01   1.244073e-02
  1.800417e+00    9.394625e-01   1.250294e-02
  1.802627e+00    9.344313e-01   1.245734e-02
  1.804838e+00    9.096557e-01   1.227899e-02
  1.807048e+00    9.164278e-01   1.231171e-02
  1.809259e+00    9.369466e-01   1.243496e-02
  1.811469e+00    9.565679e-01   1.254910e-02
  1.813679e+00    9.563553e-01   1.253230e-02
  1.815890e+00    9.404580e-01   1.241260e-02
  1.818100e+00    9.561706e-01   1.250025e-02
  1.820311e+00    9.307312e-01   1.231780e-02
  1.822521e+00    9.294201e-01   1.229392e-02
  1.824732e+00    9.396839e-01   1.234641e-02
  1.826942e+00    9.282771e-01   1.225865e-02
  1.829153e+00    8.890199e-01   1.198491e-02
  1.831363e+00    8.772089e-01   1.189303e-02
  1.833574e+00    8.834186e-01   1.192336e-02
  1.835784e+00    8.955643e-01   1.199352e-02
  1.837994e+00    8.731741e-01   1.183096e-02
  1.840205e+00    8.709792e-01   1.180494e-02
  1.842415e+00    8.447519e-01   1.161425e-02
  1.844626e+00    8.637251e-01   1.173245e-02
  1.846836e+00    8.739068e-01   1.178992e-02
  1.849047e+00    8.795254e-01   1.181608e-02
  1.851257e+00    8.582884e-01   1.166302e-02
  1.853468e+00    8.457262e-01   1.156861e-02
  1.855678e+00    8.623012e-01   1.167253e-02
  1.857889e+00    9.052477e-01   1.195093e-02
  1.860099e+00    9.442722e-01   1.219676e-02
  1.862309e+00    9.526475e-01   1.224178e-02
  1.864520e+00    8.970572e-01   1.187047e-02
  1.866730e+00    8.774099e-01   1.173022e-02
  1.868941e+00    8.944055e-01   1.183208e-02
  1.871151e+00    8.826227e-01   1.174230e-02
  1.873362e+00    8.733733e-01   1.166911e-02
  1.875572e+00    8.601010e-01   1.156910e-02
  1.877783e+00    8.605687e-01   1.156072e-02
  1.879993e+00    8.568941e-01   1.152481e-02
  1.882204e+00    8.447599e-01   1.143199e-02
  1.884414e+00    8.900529e-01   1.172310e-02
  1.886624e+00    8.978535e-01   1.176295e-02
  1.888835e+00    8.907557e-01   1.170507e-02
  1.891045e+00    8.610356e-01   1.149715e-02
  1.893256e+00    8.417103e-01   1.135626e-02
  1.895466e+00    8.391846e-01   1.132804e-02
  1.897677e+00    8.373615e-01   1.130477e-02
  1.899887e+00    8.522461e-01   1.139371e-02
  1.902098e+00    8.552840e-01   1.140300e-02
  1.904308e+00    8.589786e-01   1.141685e-02
  1.906519e+00    8.480728e-01   1.133319e-02
  1.908729e+00    8.211080e-01   1.114102e-02
  1.910940e+00    8.039274e-01   1.101286e-02
  1.913150e+00    8.158590e-01   1.108376e-02
  1.915360e+00    8.267256e-01   1.114669e-02
  1.917571e+00    8.303866e-01   1.116044e-02
  1.919781e+00    8.321345e-01   1.116141e-02
  1.921992e+00    8.166981e-01   1.104682e-02
  1.924202e+00    8.044680e-01   1.095309e-02
  1.926413e+00    8.227624e-01   1.106661e-02
  1.928623e+00    8.042331e-01   1.093082e-02
  1.930834e+00    8.012633e-01   1.090024e-02
  1.933044e+00    8.089451e-01   1.094173e-02
  1.935255e+00    7.979220e-01   1.085667e-02
  1.937465e+00    7.982062e-01   1.084827e-02
  1.939675e+00    8.016828e-01   1.086106e-02
  1.941886e+00    8.014771e-01   1.084940e-02
  1.944096e+00    8.190325e-01   1.095730e-02
  1.946307e+00    8.156078e-01   1.092394e-02
  1.948517e+00    8.073511e-01   1.085802e-02
  1.950728e+00    7.936348e-01   1.075517e-02
  1.952938e+00    7.964132e-01   1.076391e-02
  1.955149e+00    8.063642e-01   1.082063e-02
  1.957359e+00    7.871321e-01   1.068085e-02
  1.959570e+00    8.076940e-01   1.080847e-02
  1.961780e+00    8.043660e-01   1.077622e-02
  1.963990e+00    8.000648e-01   1.073719e-02
  1.966201e+00    7.885528e-01   1.064962e-02
  1.968411e+00    7.976965e-01   1.070096e-02
  1.970622e+00    7.904731e-01   1.064231e-02
  1.972832e+00    7.895893e-01   1.062637e-02
  1.975043e+00    7.906874e-01   1.062368e-02
  1.977253e+00    7.928876e-01   1.062846e-02
  1.979464e+00    7.732058e-01   1.048575e-02
  1.981674e+00    7.883554e-01   1.057766e-02
  1.983885e+00    7.909632e-01   1.058508e-02
  1.986095e+00    7.842718e-01   1.053048e-02
  1.988305e+00    7.751041e-01   1.045889e-02
  1.990516e+00    7.586678e-01   1.033761e-02
  1.992726e+00    7.753594e-01   1.044104e-02
  1.994937e+00    7.845963e-01   1.049288e-02
  1.997147e+00    8.015030e-01   1.059544e-02
  1.999358e+00    7.864220e-01   1.048537e-02
  2.001568e+00    7.910069e-01   1.050494e-02
  2.003779e+00    7.687955e-01   1.034454e-02
  2.005989e+00    7.704924e-01   1.034390e-02
  2.008200e+00    7.751095e-01   1.036331e-02
  2.010410e+00    7.687611e-01   1.030903e-02
  2.012621e+00    7.683746e-01   1.029474e-02
  2.014831e+00    7.509854e-01   1.016624e-02
  2.017041e+00    7.590864e-01   1.021057e-02
  2.019252e+00    7.844619e-01   1.036977e-02
  2.021462e+00    7.572067e-01   1.017858e-02
  2.023673e+00    7.538272e-01   1.014652e-02
  2.025883e+00    7.505181e-01   1.011477e-02
  2.028094e+00    7.684419e-01   1.022516e-02
  2.030304e+00    7.664731e-01   1.020250e-02
  2.032515e+00    7.780188e-01   1.026963e-02
  2.034725e+00    7.604110e-01   1.014335e-02
  2.036936e+00    7.470288e-01   1.004438e-02
  2.039146e+00    7.573711e-01   1.010412e-02
  2.041356e+00    7.609479e-01   1.011828e-02
  2.043567e+00    7.537697e-01   1.006115e-02
  2.045777e+00    7.548200e-01   1.005890e-02
  2.047988e+00    7.559260e-01   1.005691e-02
  2.050198e+00    7.400671e-01   9.942488e-03
  2.052409e+00    7.541136e-01   1.002873e-02
  2.054619e+00    7.572613e-01   1.004225e-02
  2.056830e+00    7.571614e-01   1.003439e-02
  2.059040e+00    7.484424e-01   9.968925e-03
  2.061251e+00    7.548619e-01   1.000434e-02
  2.063461e+00    7.381662e-01   9.885537e-03
  2.065671e+00    7.440023e-01   9.915834e-03
  2.067882e+00    7.503686e-01   9.949167e-03
  2.070092e+00    7.488038e-01   9.929571e-03
  2.072303e+00    7.465329e-01   9.905390e-03
  2.074513e+00    7.280760e-01   9.772939e-03
  2.076724e+00    7.431139e-01   9.863899e-03
  2.078934e+00    7.375014e-01   9.817615e-03
  2.081145e+00    7.445472e-01   9.855302e-03
  2.083355e+00    7.414991e-01   9.825950e-03
  2.085566e+00    7.454849e-01   9.843376e-03
  2.087776e+00    7.406177e-01   9.801679e-03
  2.089986e+00    7.416515e-01   9.799724e-03
  2.092197e+00    7.384329e-01   9.769456e-03
  2.094407e+00    7.408354e-01   9.776097e-03
  2.096618e+00    7.255900e-01   9.666136e-03
  2.098828e+00    7.293091e-01   9.681601e-03
  2.101039e+00    7.229747e-01   9.630548e-03
  2.103249e+00    7.145560e-01   9.565742e-03
  2.105460e+00    7.175956e-01   9.577127e-03
  2.107670e+00    7.095888e-01   9.514926e-03
  2.109881e+00    7.068565e-01   9.487557e-03
  2.112091e+00    7.028819e-01   9.452001e-03
  2.114301e+00    7.062855e-01   9.466182e-03
  2.116512e+00    7.107052e-01   9.487041e-03
  2.118722e+00    7.028776e-01   9.425951e-03
  2.120933e+00    6.992943e-01   9.393150e-03
  2.123143e+00    6.990122e-01   9.382489e-03
  2.125354e+00    7.030680e-01   9.401201e-03
  2.127564e+00    7.086715e-01   9.429934e-03
  2.129775e+00    7.069069e-01   9.409490e-03
  2.131985e+00    7.214848e-01   9.496928e-03
  2.134196e+00    7.230356e-01   9.498474e-03
  2.136406e+00    7.248362e-01   9.501483e-03
  2.138617e+00    7.101437e-01   9.396242e-03
  2.140827e+00    6.955771e-01   9.315276e-03
  2.143037e+00    7.076582e-01   9.441305e-03
  2.145248e+00    7.285448e-01   9.601970e-03
  2.147458e+00    8.021300e-01   1.009134e-02
  2.149669e+00    8.610315e-01   1.046846e-02
  2.151879e+00    8.137965e-01   1.018724e-02
  2.154090e+00    7.424552e-01   9.737977e-03
  2.156300e+00    7.024209e-01   9.478391e-03
  2.158511e+00    6.917633e-01   9.411482e-03
  2.160721e+00    7.008774e-01   9.478096e-03
  2.162932e+00    7.057894e-01   9.515014e-03
  2.165142e+00    6.993292e-01   9.474404e-03
  2.167352e+00    6.903465e-01   9.416256e-03
  2.169563e+00    6.969342e-01   9.463025e-03
  2.171773e+00    7.180174e-01   9.607575e-03
  2.173984e+00    7.201031e-01   9.622981e-03
  2.176194e+00    6.978673e-01   9.474444e-03
  2.178405e+00    7.062176e-01   9.531652e-03
  2.180615e+00    6.931964e-01   9.444057e-03
  2.182826e+00    6.972668e-01   9.472434e-03
  2.185036e+00    6.974580e-01   9.473771e-03
  2.187247e+00    6.977053e-01   9.475412e-03
  2.189457e+00    6.808396e-01   9.359778e-03
  2.191667e+00    6.943192e-01   9.451794e-03
  2.193878e+00    6.973286e-01   9.471696e-03
  2.196088e+00    6.724696e-01   9.300664e-03
  2.198299e+00    6.734772e-01   9.306542e-03
  2.200509e+00    6.612335e-01   9.220501e-03
  2.202720e+00    6.929097e-01   9.437629e-03
  2.204930e+00    6.882889e-01   9.404853e-03
  2.207141e+00    6.969134e-01   9.462459e-03
  2.209351e+00    6.909883e-01   9.420276e-03
  2.211562e+00    6.714032e-01   9.284183e-03
  2.213772e+00    6.823620e-01   9.303932e-03
  2.215982e+00    6.819934e-01   9.257009e-03
  2.218193e+00    6.905560e-01   9.285017e-03
  2.220403e+00    6.527895e-01   9.003341e-03
  2.222614e+00    6.761878e-01   9.142289e-03
  2.224824e+00    6.680906e-01   9.068092e-03
  2.227035e+00    6.745709e-01   9.094476e-03
  2.229245e+00    6.864964e-01   9.157382e-03
  2.231456e+00    6.804161e-01   9.101006e-03
  2.233666e+00    6.846122e-01   9.113779e-03
  2.235877e+00    6.740355e-01   9.028813e-03
  2.238087e+00    6.627705e-01   8.939632e-03
  2.240298e+00    6.555753e-01   8.877348e-03
  2.242508e+00    6.680433e-01   8.946239e-03
  2.244718e+00    6.706289e-01   8.947713e-03
  2.246929e+00    6.667552e-01   8.907426e-03
  2.249139e+00    6.779731e-01   8.969564e-03
  2.251350e+00    6.674308e-01   8.887858e-03
  2.253560e+00    6.457536e-01   8.730949e-03
  2.255771e+00    6.493018e-01   8.743614e-03
  2.257981e+00    6.640527e-01   8.831216e-03
  2.260192e+00    6.721780e-01   8.873895e-03
  2.262402e+00    6.914729e-01   8.989300e-03
  2.264613e+00    6.826223e-01   8.920603e-03
  2.266823e+00    6.678961e-01   8.813418e-03
  2.269033e+00    6.785141e-01   8.872689e-03
  2.271244e+00    6.710170e-01   8.813074e-03
  2.273454e+00    6.898077e-01   8.925140e-03
  2.275665e+00    7.172143e-01   9.089998e-03
  2.277875e+00    6.978951e-01   8.956546e-03
  2.280086e+00    6.816878e-01   8.841732e-03
  2.282296e+00    6.744931e-01   8.785434e-03
  2.284507e+00    6.675108e-01   8.729641e-03
  2.286717e+00    6.686916e-01   8.727815e-03
  2.288928e+00    6.584872e-01   8.651082e-03
  2.291138e+00    6.687257e-01   8.708571e-03
  2.293348e+00    6.717574e-01   8.718641e-03
  2.295559e+00    6.515310e-01   8.577088e-03
  2.297769e+00    6.644053e-01   8.652098e-03
  2.299980e+00    6.458777e-01   8.521345e-03
  2.302190e+00    6.474060e-01   8.522317e-03
  2.304401e+00    6.424852e-01   8.480626e-03
  2.306611e+00    6.430069e-01   8.474924e-03
  2.308822e+00    6.463881e-01   8.488826e-03
  2.311032e+00    6.473738e-01   8.488860e-03
  2.313243e+00    6.394584e-01   8.430588e-03
  2.315453e+00    6.338137e-01   8.385807e-03
  2.317663e+00    6.402562e-01   8.419245e-03
  2.319874e+00    6.443642e-01   8.437488e-03
  2.322084e+00    6.502018e-01   8.466637e-03
  2.324295e+00    6.521630e-01   8.471126e-03
  2.326505e+00    6.473237e-01   8.430576e-03
  2.328716e+00    6.287021e-01   8.299962e-03
  2.330926e+00    6.442026e-01   8.392858e-03
  2.333137e+00    6.383494e-01   8.346295e-03
  2.335347e+00    6.342458e-01   8.310606e-03
  2.337558e+00    6.507645e-01   8.409819e-03
  2.339768e+00    6.520967e-01   8.409786e-03
  2.341979e+00    6.447136e-01   8.353634e-03
  2.344189e+00    6.442917e-01   8.342470e-03
  2.346399e+00    6.252515e-01   8.209851e-03
  2.348610e+00    6.302384e-01   8.234087e-03
  2.350820e+00    6.291286e-01   8.218720e-03
  2.353031e+00    6.325294e-01   8.232592e-03
  2.355241e+00    6.351253e-01   8.241433e-03
  2.357452e+00    6.448407e-01   8.295702e-03
  2.359662e+00    6.430333e-01   8.275799e-03
  2.361873e+00    6.140569e-01   8.079050e-03
  2.364083e+00    6.286241e-01   8.166319e-03
  2.366294e+00    6.230296e-01   8.121840e-03
  2.368504e+00    6.282859e-01   8.147930e-03
  2.370714e+00    6.250543e-01   8.118905e-03
  2.372925e+00    6.195740e-01   8.075214e-03
  2.375135e+00    6.280654e-01   8.122265e-03
  2.377346e+00    6.433592e-01   8.212521e-03
  2.379556e+00    6.253200e-01   8.088646e-03
  2.381767e+00    6.019130e-01   7.928073e-03
  2.383977e+00    6.114257e-01   7.982597e-03
  2.386188e+00    6.318861e-01   8.107063e-03
  2.388398e+00    6.183544e-01   8.011847e-03
  2.390609e+00    6.014041e-01   7.893647e-03
  2.392819e+00    6.034549e-01   7.899384e-03
  2.395029e+00    6.097462e-01   7.932842e-03
  2.397240e+00    6.077886e-01   7.912261e-03
  2.399450e+00    6.252860e-01   8.017472e-03
  2.401661e+00    6.064458e-01   7.888122e-03
  2.403871e+00    6.088988e-01   7.896321e-03
  2.406082e+00    5.860222e-01   7.739274e-03
  2.408292e+00    6.001707e-01   7.824397e-03
  2.410503e+00    5.971184e-01   7.797073e-03
  2.412713e+00    6.064218e-01   7.849763e-03
  2.414924e+00    6.183567e-01   7.919095e-03
  2.417134e+00    6.118204e-01   7.869437e-03
  2.419344e+00    6.007437e-01   7.790492e-03
  2.421555e+00    5.966041e-01   7.756137e-03
  2.423765e+00    5.910459e-01   7.712563e-03
  2.425976e+00    5.925598e-01   7.714666e-03
  2.428186e+00    6.004397e-01   7.758575e-03
  2.430397e+00    6.016254e-01   7.758722e-03
  2.432607e+00    5.964062e-01   7.717722e-03
  2.434818e+00    5.729273e-01   7.556878e-03
  2.437028e+00    5.892617e-01   7.656716e-03
  2.439239e+00    5.905499e-01   7.657456e-03
  2.441449e+00    5.984006e-01   7.700951e-03
  2.443659e+00    5.873631e-01   7.622264e-03
  2.445870e+00    6.012420e-01   7.724169e-03
  2.448080e+00    5.890909e-01   7.680709e-03
  2.450291e+00    5.769922e-01   7.618024e-03
  2.452501e+00    5.712098e-01   7.590879e-03
  2.454712e+00    5.574990e-01   7.507523e-03
  2.456922e+00    5.546587e-01   7.494908e-03
  2.459133e+00    5.549453e-01   7.502209e-03
  2.461343e+00    5.622491e-01   7.555755e-03
  2.463554e+00    5.583280e-01   7.532814e-03
  2.465764e+00    5.613568e-01   7.556339e-03
  2.467975e+00    5.667677e-01   7.594973e-03
  2.470185e+00    5.699707e-01   7.618689e-03
  2.472395e+00    5.598230e-01   7.551793e-03
  2.474606e+00    5.340719e-01   7.377602e-03
  2.476816e+00    5.405565e-01   7.422957e-03
  2.479027e+00    5.570409e-01   7.536160e-03
  2.481237e+00    5.413528e-01   7.429569e-03
  2.483448e+00    5.314013e-01   7.361242e-03
  2.485658e+00    5.297015e-01   7.349331e-03
  2.487869e+00    5.177367e-01   7.265891e-03
  2.490079e+00    5.218848e-01   7.294417e-03
  2.492290e+00    5.356694e-01   7.389689e-03
  2.494500e+00    5.367032e-01   7.396101e-03
  2.496710e+00    5.309849e-01   7.355895e-03
  2.498921e+00    5.368820e-01   7.395638e-03
  2.501131e+00    5.259539e-01   7.319055e-03
  2.503342e+00    5.094953e-01   7.202369e-03
  2.505552e+00    5.393255e-01   7.409074e-03
  2.507763e+00    5.312548e-01   7.352032e-03
  2.509973e+00    5.133942e-01   7.226009e-03
  2.512184e+00    5.215045e-01   7.281240e-03
  2.514394e+00    5.306895e-01   7.335692e-03
  2.516605e+00    5.373257e-01   7.333882e-03
  2.518815e+00    5.317639e-01   7.267342e-03
  2.521025e+00    5.226143e-01   7.183652e-03
  2.523236e+00    5.128584e-01   7.098521e-03
  2.525446e+00    5.305457e-01   7.204188e-03
  2.527657e+00    5.318756e-01   7.198533e-03
  2.529867e+00    5.319377e-01   7.184688e-03
  2.532078e+00    5.213609e-01   7.097908e-03
  2.534288e+00    5.258461e-01   7.114472e-03
  2.536499e+00    5.292006e-01   7.125138e-03
  2.538709e+00    5.309396e-01   7.125762e-03
  2.540920e+00    5.349542e-01   7.141910e-03
  2.543130e+00    5.449594e-01   7.197806e-03
  2.545340e+00    5.225546e-01   7.038274e-03
  2.547551e+00    5.059571e-01   6.915792e-03
  2.549761e+00    5.192308e-01   6.996359e-03
  2.551972e+00    5.225864e-01   7.009579e-03
  2.554182e+00    5.276400e-01   7.034153e-03
  2.556393e+00    5.165229e-01   6.950614e-03
  2.558603e+00    5.217270e-01   6.976441e-03
  2.560814e+00    5.142100e-01   6.917359e-03
  2.563024e+00    5.063076e-01   6.855523e-03
  2.565235e+00    5.009595e-01   6.809883e-03
  2.567445e+00    5.001307e-01   6.794855e-03
  2.569656e+00    5.206553e-01   6.923108e-03
  2.571866e+00    5.197135e-01   6.907494e-03
  2.574076e+00    5.070647e-01   6.813716e-03
  2.576287e+00    5.232078e-01   6.912952e-03
  2.578497e+00    5.217717e-01   6.895566e-03
  2.580708e+00    5.180925e-01   6.863117e-03
  2.582918e+00    5.266186e-01   6.911500e-03
  2.585129e+00    5.030423e-01   6.747372e-03
  2.587339e+00    5.002305e-01   6.720890e-03
  2.589550e+00    5.139675e-01   6.804989e-03
  2.591760e+00    5.193701e-01   6.832883e-03
  2.593971e+00    4.929763e-01   6.649619e-03
  2.596181e+00    5.005079e-01   6.694037e-03
  2.598391e+00    5.269538e-01   6.863346e-03
  2.600602e+00    5.092771e-01   6.741362e-03
  2.602812e+00    5.120672e-01   6.752218e-03
  2.605023e+00    5.213888e-01   6.806157e-03
  2.607233e+00    5.158486e-01   6.762710e-03
  2.609444e+00    5.077066e-01   6.701889e-03
  2.611654e+00    5.014769e-01   6.653370e-03
  2.613865e+00    4.959294e-01   6.609499e-03
  2.616075e+00    5.001258e-01   6.630304e-03
  2.618286e+00    5.049229e-01   6.655024e-03
  2.620496e+00    5.188662e-01   6.739515e-03
  2.622706e+00    5.078546e-01   6.661859e-03
  2.624917e+00    4.991519e-01   6.598715e-03
  2.627127e+00    4.976285e-01   6.582921e-03
  2.629338e+00    5.068657e-01   6.637752e-03
  2.631548e+00    4.994283e-01   6.582728e-03
  2.633759e+00    4.974224e-01   6.562378e-03
  2.635969e+00    5.029518e-01   6.592052e-03
  2.638180e+00    5.126383e-01   6.648172e-03
  2.640390e+00    5.089707e-01   6.617700e-03
  2.642601e+00    4.985211e-01   6.542757e-03
  2.644811e+00    5.048654e-01   6.577161e-03
  2.647021e+00    4.995355e-01   6.535776e-03
  2.649232e+00    5.064999e-01   6.574417e-03
  2.651442e+00    4.972259e-01   6.507468e-03
  2.653653e+00    5.005321e-01   6.522256e-03
  2.655863e+00    4.936524e-01   6.470633e-03
  2.658074e+00    4.945729e-01   6.470077e-03
  2.660284e+00    4.861718e-01   6.408589e-03
  2.662495e+00    4.940937e-01   6.453868e-03
  2.664705e+00    5.055644e-01   6.521731e-03
  2.666916e+00    4.991715e-01   6.473876e-03
  2.669126e+00    5.143291e-01   6.564855e-03
  2.671337e+00    4.978819e-01   6.452466e-03
  2.673547e+00    4.892464e-01   6.389909e-03
  2.675757e+00    4.918413e-01   6.400386e-03
  2.677968e+00    4.974318e-01   6.430130e-03
  2.680178e+00    4.928420e-01   6.393990e-03
  2.682389e+00    4.961255e-01   6.408851e-03
  2.684599e+00    4.791837e-01   6.292377e-03
  2.686810e+00    4.891423e-01   6.350825e-03
  2.689020e+00    4.984796e-01   6.404824e-03
  2.691231e+00    4.982128e-01   6.396784e-03
  2.693441e+00    4.922970e-01   6.352540e-03
  2.695652e+00    4.905423e-01   6.334675e-03
  2.697862e+00    4.852265e-01   6.293956e-03
  2.700072e+00    4.868429e-01   6.298372e-03
  2.702283e+00    4.891855e-01   6.307267e-03
  2.704493e+00    4.976444e-01   6.355250e-03
  2.706704e+00    4.878524e-01   6.285998e-03
  2.708914e+00    4.992563e-01   6.353003e-03
  2.711125e+00    4.957103e-01   6.324132e-03
  2.713335e+00    4.805522e-01   6.220628e-03
  2.715546e+00    4.809199e-01   6.216586e-03
  2.717756e+00    4.825794e-01   6.221436e-03
  2.719967e+00    4.895476e-01   6.259966e-03
  2.722177e+00    4.827819e-01   6.210435e-03
  2.724387e+00    4.916737e-01   6.261242e-03
  2.726598e+00    4.869650e-01   6.225110e-03
  2.728808e+00    4.770508e-01   6.155321e-03
  2.731019e+00    4.874739e-01   6.216059e-03
  2.733229e+00    4.727966e-01   6.116033e-03
  2.735440e+00    4.728976e-01   6.110479e-03
  2.737650e+00    4.706200e-01   6.089818e-03
  2.739861e+00    4.789434e-01   6.137380e-03
  2.742071e+00    4.873051e-01   6.184973e-03
  2.744282e+00    4.821758e-01   6.146081e-03
  2.746492e+00    4.764623e-01   6.103577e-03
  2.748702e+00    4.747374e-01   6.086635e-03
  2.750913e+00    4.823534e-01   6.129477e-03
  2.753123e+00    4.808082e-01   6.113544e-03
  2.755334e+00    4.734457e-01   6.060526e-03
  2.757544e+00    4.720743e-01   6.046058e-03
  2.759755e+00    4.688005e-01   6.019228e-03
  2.761965e+00    4.895336e-01   6.144855e-03
  2.764176e+00    4.867126e-01   6.121106e-03
  2.766386e+00    4.834363e-01   6.094656e-03
  2.768597e+00    4.788513e-01   6.059829e-03
  2.770807e+00    4.836589e-01   6.084261e-03
  2.773017e+00    4.657755e-01   5.964846e-03
  2.775228e+00    4.803487e-01   6.051620e-03
  2.777438e+00    4.869024e-01   6.086919e-03
  2.779649e+00    4.803541e-01   6.039970e-03
  2.781859e+00    4.682689e-01   5.957762e-03
  2.784070e+00    4.824639e-01   6.041510e-03
  2.786280e+00    4.694264e-01   5.953609e-03
  2.788491e+00    4.746410e-01   5.980754e-03
  2.790701e+00    4.757729e-01   5.982243e-03
  2.792912e+00    4.848689e-01   6.033126e-03
  2.795122e+00    4.731402e-01   5.954023e-03
  2.797333e+00    4.752995e-01   5.962010e-03
  2.799543e+00    4.741331e-01   5.948856e-03
  2.801753e+00    4.672187e-01   5.899498e-03
  2.803964e+00    4.781715e-01   5.962571e-03
  2.806174e+00    4.889313e-01   6.023050e-03
  2.808385e+00    4.830192e-01   5.979678e-03
  2.810595e+00    4.688647e-01   5.884584e-03
  2.812806e+00    4.738061e-01   5.908912e-03
  2.815016e+00    4.631289e-01   5.837253e-03
  2.817227e+00    4.836906e-01   5.991607e-03
  2.819437e+00    4.801214e-01   5.980643e-03
  2.821648e+00    4.569283e-01   5.836637e-03
  2.823858e+00    4.671290e-01   5.906732e-03
  2.826068e+00    4.643290e-01   5.893933e-03
  2.828279e+00    4.790910e-01   5.990954e-03
  2.830489e+00    4.845706e-01   6.028496e-03
  2.832700e+00    4.757344e-01   5.975865e-03
  2.834910e+00    4.678943e-01   5.928463e-03
  2.837121e+00    4.648713e-01   5.910982e-03
  2.839331e+00    4.651691e-01   5.914090e-03
  2.841542e+00    4.618601e-01   5.894039e-03
  2.843752e+00    4.625681e-01   5.899308e-03
  2.845963e+00    4.744441e-01   5.974969e-03
  2.848173e+00    4.631790e-01   5.903708e-03
  2.850383e+00    4.595285e-01   5.880672e-03
  2.852594e+00    4.535852e-01   5.842465e-03
  2.854804e+00    4.430095e-01   5.773434e-03
  2.857015e+00    4.598603e-01   5.881776e-03
  2.859225e+00    4.740029e-01   5.971303e-03
  2.861436e+00    4.671066e-01   5.927046e-03
  2.863646e+00    4.703275e-01   5.947486e-03
  2.865857e+00    4.731883e-01   5.965889e-03
  2.868067e+00    4.586022e-01   5.873438e-03
  2.870278e+00    4.564910e-01   5.859560e-03
  2.872488e+00    4.599252e-01   5.880394e-03
  2.874698e+00    4.602299e-01   5.881306e-03
  2.876909e+00    4.671275e-01   5.923876e-03
  2.879119e+00    4.572887e-01   5.859557e-03
  2.881330e+00    4.612763e-01   5.883563e-03
  2.883540e+00    4.711944e-01   5.945093e-03
  2.885751e+00    4.594219e-01   5.868716e-03
  2.887961e+00    4.540054e-01   5.832148e-03
  2.890172e+00    4.558941e-01   5.842666e-03
  2.892382e+00    4.652161e-01   5.900288e-03
  2.894593e+00    4.587916e-01   5.857602e-03
  2.896803e+00    4.661533e-01   5.902403e-03
  2.899014e+00    4.638370e-01   5.885814e-03
  2.901224e+00    4.589460e-01   5.852703e-03
  2.903434e+00    4.730362e-01   5.939894e-03
  2.905645e+00    4.715602e-01   5.928374e-03
  2.907855e+00    4.669980e-01   5.897501e-03
  2.910066e+00    4.755467e-01   5.949136e-03
  2.912276e+00    4.539230e-01   5.810186e-03
  2.914487e+00    4.654579e-01   5.881068e-03
  2.916697e+00    4.713007e-01   5.915614e-03
  2.918908e+00    4.557669e-01   5.815322e-03
  2.921118e+00    4.511070e-01   5.782837e-03
  2.923329e+00    4.428003e-01   5.727056e-03
  2.925539e+00    4.616083e-01   5.845133e-03
  2.927749e+00    4.547318e-01   5.799142e-03
  2.929960e+00    4.517133e-01   5.777084e-03
  2.932170e+00    4.621310e-01   5.840992e-03
  2.934381e+00    4.536054e-01   5.784424e-03
  2.936591e+00    4.584749e-01   5.812809e-03
  2.938802e+00    4.504274e-01   5.758880e-03
  2.941012e+00    4.575220e-01   5.801704e-03
  2.943223e+00    4.479098e-01   5.737775e-03
  2.945433e+00    4.552171e-01   5.780646e-03
  2.947644e+00    4.518434e-01   5.755072e-03
  2.949854e+00    4.523897e-01   5.754300e-03
  2.952064e+00    4.428732e-01   5.689269e-03
  2.954275e+00    4.694575e-01   5.853083e-03
  2.956485e+00    4.456867e-01   5.698808e-03
  2.958696e+00    4.545841e-01   5.751049e-03
  2.960906e+00    4.539832e-01   5.743064e-03
  2.963117e+00    4.530357e-01   5.732596e-03
  2.965327e+00    4.476866e-01   5.694773e-03
  2.967538e+00    4.493844e-01   5.702679e-03
  2.969748e+00    4.391265e-01   5.634430e-03
  2.971959e+00    4.512261e-01   5.708408e-03
  2.974169e+00    4.596935e-01   5.759123e-03
  2.976379e+00    4.625565e-01   5.774080e-03
  2.978590e+00    4.607863e-01   5.759882e-03
  2.980800e+00    4.509278e-01   5.695125e-03
  2.983011e+00    4.433877e-01   5.644555e-03
  2.985221e+00    4.521542e-01   5.696923e-03
  2.987432e+00    4.519638e-01   5.692631e-03
  2.989642e+00    4.481493e-01   5.665941e-03
  2.991853e+00    4.519516e-01   5.686665e-03
  2.994063e+00    4.486901e-01   5.663218e-03
  2.996274e+00    4.431588e-01   5.625053e-03
  2.998484e+00    4.439687e-01   5.627513e-03
  3.000694e+00    4.538088e-01   5.686081e-03
  3.002905e+00    4.663309e-01   5.761013e-03
  3.005115e+00    4.596005e-01   5.716312e-03
  3.007326e+00    4.544041e-01   5.680725e-03
  3.009536e+00    4.651091e-01   5.743952e-03
  3.011747e+00    4.568724e-01   5.689960e-03
  3.013957e+00    4.510901e-01   5.650652e-03
  3.016168e+00    4.543355e-01   5.667674e-03
  3.018378e+00    4.527281e-01   5.654609e-03
  3.020589e+00    4.656657e-01   5.731564e-03
  3.022799e+00    4.593798e-01   5.689584e-03
  3.025010e+00    4.531555e-01   5.647652e-03
  3.027220e+00    4.482162e-01   5.613693e-03
  3.029430e+00    4.547046e-01   5.650923e-03
  3.031641e+00    4.595731e-01   5.677937e-03
  3.033851e+00    4.531984e-01   5.634895e-03
  3.036062e+00    4.630345e-01   5.692896e-03
  3.038272e+00    4.508289e-01   5.613803e-03
  3.040483e+00    4.393101e-01   5.538437e-03
  3.042693e+00    4.524463e-01   5.617341e-03
  3.044904e+00    4.548450e-01   5.628210e-03
  3.047114e+00    4.536301e-01   5.615826e-03
  3.049325e+00    4.722015e-01   5.725157e-03
  3.051535e+00    4.511620e-01   5.591774e-03
  3.053745e+00    4.465331e-01   5.558271e-03
  3.055956e+00    4.498700e-01   5.574434e-03
  3.058166e+00    4.428920e-01   5.526805e-03
  3.060377e+00    4.378277e-01   5.490407e-03
  3.062587e+00    4.537925e-01   5.584965e-03
  3.064798e+00    4.488273e-01   5.550091e-03
  3.067008e+00    4.488142e-01   5.545257e-03
  3.069219e+00    4.522903e-01   5.562196e-03
  3.071429e+00    4.522444e-01   5.558363e-03
  3.073640e+00    4.526416e-01   5.557484e-03
  3.075850e+00    4.579177e-01   5.586143e-03
  3.078060e+00    4.572113e-01   5.578712e-03
  3.080271e+00    4.519734e-01   5.543183e-03
  3.082481e+00    4.522512e-01   5.541411e-03
  3.084692e+00    4.554496e-01   5.557573e-03
  3.086902e+00    4.500574e-01   5.521323e-03
  3.089113e+00    4.588169e-01   5.571195e-03
  3.091323e+00    4.571595e-01   5.557695e-03
  3.093534e+00    4.557087e-01   5.545489e-03
  3.095744e+00    4.508847e-01   5.512659e-03
  3.097955e+00    4.567851e-01   5.545024e-03
  3.100165e+00    4.488347e-01   5.493232e-03
  3.102375e+00    4.416935e-01   5.445948e-03
  3.104586e+00    4.455723e-01   5.466315e-03
  3.106796e+00    4.459198e-01   5.464937e-03
  3.109007e+00    4.383562e-01   5.415205e-03
  3.111217e+00    4.402604e-01   5.423270e-03
  3.113428e+00    4.538163e-01   5.502698e-03
  3.115638e+00    4.422870e-01   5.429116e-03
  3.117849e+00    4.372314e-01   5.394328e-03
  3.120059e+00    4.393750e-01   5.404078e-03
  3.122270e+00    4.461618e-01   5.442384e-03
  3.124480e+00    4.472948e-01   5.445621e-03
  3.126691e+00    4.446914e-01   5.426164e-03
  3.128901e+00    4.465346e-01   5.434280e-03
  3.131111e+00    4.388998e-01   5.383812e-03
  3.133322e+00    4.453934e-01   5.420021e-03
  3.135532e+00    4.443350e-01   5.410187e-03
  3.137743e+00    4.452243e-01   5.412125e-03
  3.139953e+00    4.430459e-01   5.395168e-03
  3.142164e+00    4.383638e-01   5.378549e-03
  3.144374e+00    4.374057e-01   5.400913e-03
  3.146585e+00    4.403061e-01   5.433315e-03
  3.148795e+00    4.480920e-01   5.491989e-03
  3.151006e+00    4.435998e-01   5.472958e-03
  3.153216e+00    4.465462e-01   5.498277e-03
  3.155426e+00    4.387990e-01   5.456666e-03
  3.157637e+00    4.392089e-01   5.464733e-03
  3.159847e+00    4.258530e-01   5.385789e-03
  3.162058e+00    4.413578e-01   5.487394e-03
  3.164268e+00    4.260368e-01   5.395318e-03
  3.166479e+00    4.366535e-01   5.465753e-03
  3.168689e+00    4.446249e-01   5.518807e-03
  3.170900e+00    4.380856e-01   5.481249e-03
  3.173110e+00    4.336124e-01   5.456038e-03
  3.175321e+00    4.286049e-01   5.426936e-03
  3.177531e+00    4.265169e-01   5.416360e-03
  3.179741e+00    4.385416e-01   5.494287e-03
  3.181952e+00    4.438809e-01   5.529748e-03
  3.184162e+00    4.381341e-01   5.496029e-03
  3.186373e+00    4.367199e-01   5.488744e-03
  3.188583e+00    4.329424e-01   5.466749e-03
  3.190794e+00    4.353886e-01   5.483911e-03
  3.193004e+00    4.408275e-01   5.519313e-03
  3.195215e+00    4.310704e-01   5.459380e-03
  3.197425e+00    4.320619e-01   5.466868e-03
  3.199636e+00    4.397936e-01   5.514778e-03
  3.201846e+00    4.227776e-01   5.406465e-03
  3.204056e+00    4.219712e-01   5.402158e-03
  3.206267e+00    4.275629e-01   5.438696e-03
  3.208477e+00    4.178898e-01   5.377712e-03
  3.210688e+00    4.294806e-01   5.452632e-03
  3.212898e+00    4.268883e-01   5.436726e-03
  3.215109e+00    4.336185e-01   5.480155e-03
  3.217319e+00    4.317791e-01   5.469176e-03
  3.219530e+00    4.260845e-01   5.433367e-03
  3.221740e+00    4.186162e-01   5.386105e-03
  3.223951e+00    4.190197e-01   5.389140e-03
  3.226161e+00    4.292917e-01   5.455002e-03
  3.228372e+00    4.247408e-01   5.426536e-03
  3.230582e+00    4.318781e-01   5.472069e-03
  3.232792e+00    4.361552e-01   5.499334e-03
  3.235003e+00    4.301813e-01   5.461795e-03
  3.237213e+00    4.260950e-01   5.435883e-03
  3.239424e+00    4.179101e-01   5.383435e-03
  3.241634e+00    4.202628e-01   5.398676e-03
  3.243845e+00    4.250730e-01   5.429533e-03
  3.246055e+00    4.349988e-01   5.492324e-03
  3.248266e+00    4.203775e-01   5.399415e-03
  3.250476e+00    4.275625e-01   5.445059e-03
  3.252687e+00    4.248444e-01   5.427643e-03
  3.254897e+00    4.266659e-01   5.439149e-03
  3.257107e+00    4.306883e-01   5.464403e-03
  3.259318e+00    4.381077e-01   5.511041e-03
  3.261528e+00    4.210279e-01   5.402430e-03
  3.263739e+00    4.139615e-01   5.356321e-03
  3.265949e+00    4.182409e-01   5.383829e-03
  3.268160e+00    4.153090e-01   5.364511e-03
  3.270370e+00    4.214592e-01   5.403577e-03
  3.272581e+00    4.231886e-01   5.414363e-03
  3.274791e+00    4.235533e-01   5.416184e-03
  3.277002e+00    4.210163e-01   5.399377e-03
  3.279212e+00    4.229733e-01   5.411532e-03
  3.281422e+00    4.113782e-01   5.336277e-03
  3.283633e+00    4.155976e-01   5.362889e-03
  3.285843e+00    4.258191e-01   5.428102e-03
  3.288054e+00    4.285637e-01   5.444631e-03
  3.290264e+00    4.391833e-01   5.511362e-03
  3.292475e+00    4.236250e-01   5.412017e-03
  3.294685e+00    4.346221e-01   5.481160e-03
  3.296896e+00    4.434100e-01   5.535541e-03
  3.299106e+00    4.402165e-01   5.515008e-03
  3.301317e+00    4.346620e-01   5.479057e-03
  3.303527e+00    4.329103e-01   5.467539e-03
  3.305737e+00    4.310014e-01   5.454393e-03
  3.307948e+00    4.373502e-01   5.493769e-03
  3.310158e+00    4.199821e-01   5.382726e-03
  3.312369e+00    4.236377e-01   5.405201e-03
  3.314579e+00    4.177819e-01   5.366822e-03
  3.316790e+00    4.147876e-01   5.346856e-03
  3.319000e+00    4.335147e-01   5.465013e-03
  3.321211e+00    4.273552e-01   5.425440e-03
  3.323421e+00    4.277798e-01   5.426930e-03
  3.325632e+00    4.214216e-01   5.385555e-03
  3.327842e+00    4.205787e-01   5.379278e-03
  3.330052e+00    4.115927e-01   5.320400e-03
  3.332263e+00    4.198688e-01   5.372653e-03
  3.334473e+00    4.043830e-01   5.271731e-03
  3.336684e+00    4.192706e-01   5.366627e-03
  3.338894e+00    4.205129e-01   5.373741e-03
  3.341105e+00    4.134807e-01   5.327441e-03
  3.343315e+00    4.170518e-01   5.349226e-03
  3.345526e+00    4.219220e-01   5.379475e-03
  3.347736e+00    4.198906e-01   5.365114e-03
  3.349947e+00    4.284392e-01   5.418504e-03
  3.352157e+00    4.303321e-01   5.429278e-03
  3.354368e+00    4.182383e-01   5.351146e-03
  3.356578e+00    4.197774e-01   5.359970e-03
  3.358788e+00    4.344168e-01   5.451270e-03
  3.360999e+00    4.172043e-01   5.340950e-03
  3.363209e+00    4.040531e-01   5.255086e-03
  3.365420e+00    4.205122e-01   5.359527e-03
  3.367630e+00    4.207686e-01   5.360146e-03
  3.369841e+00    4.116663e-01   5.300457e-03
  3.372051e+00    4.047105e-01   5.253500e-03
  3.374262e+00    4.286083e-01   5.403922e-03
  3.376472e+00    4.192184e-01   5.341951e-03
  3.378683e+00    4.204729e-01   5.347423e-03
  3.380893e+00    4.041712e-01   5.240442e-03
  3.383103e+00    4.057219e-01   5.247796e-03
  3.385314e+00    4.055737e-01   5.244642e-03
  3.387524e+00    4.095392e-01   5.267497e-03
  3.389735e+00    4.080305e-01   5.255191e-03
  3.391945e+00    4.199349e-01   5.327567e-03
  3.394156e+00    4.128975e-01   5.278547e-03
  3.396366e+00    4.070338e-01   5.237538e-03
  3.398577e+00    4.062359e-01   5.229368e-03
  3.400787e+00    4.099936e-01   5.265410e-03
  3.402998e+00    4.126032e-01   5.320304e-03
  3.405208e+00    4.146478e-01   5.354355e-03
  3.407418e+00    4.096184e-01   5.337774e-03
  3.409629e+00    4.012368e-01   5.296833e-03
  3.411839e+00    3.900571e-01   5.234144e-03
  3.414050e+00    4.050700e-01   5.345037e-03
  3.416260e+00    3.905385e-01   5.257871e-03
  3.418471e+00    3.904969e-01   5.266986e-03
  3.420681e+00    3.770862e-01   5.184063e-03
  3.422892e+00    3.869410e-01   5.259343e-03
  3.425102e+00    3.854554e-01   5.257003e-03
  3.427313e+00    3.718267e-01   5.170258e-03
  3.429523e+00    3.761309e-01   5.207067e-03
  3.431733e+00    3.874096e-01   5.291228e-03
  3.433944e+00    3.719548e-01   5.191003e-03
  3.436154e+00    3.882311e-01   5.309626e-03
  3.438365e+00    3.988727e-01   5.387974e-03
  3.440575e+00    3.874944e-01   5.316573e-03
  3.442786e+00    3.758628e-01   5.241731e-03
  3.444996e+00    3.670757e-01   5.185536e-03
  3.447207e+00    3.732747e-01   5.234414e-03
  3.449417e+00    3.615174e-01   5.191570e-03
  3.451628e+00    3.620601e-01   5.224651e-03
  3.453838e+00    3.611487e-01   5.239017e-03
  3.456049e+00    3.714471e-01   5.337257e-03
  3.458259e+00    3.699575e-01   5.348571e-03
  3.460469e+00    3.665658e-01   5.343795e-03
  3.462680e+00    3.663050e-01   5.360965e-03
  3.464890e+00    3.567050e-01   5.307793e-03
  3.467101e+00    3.862244e-01   5.540969e-03
  3.469311e+00    3.661969e-01   5.411844e-03
  3.471522e+00    3.801025e-01   5.530150e-03
  3.473732e+00    3.929501e-01   5.639071e-03
  3.475943e+00    3.938508e-01   5.661481e-03
  3.478153e+00    3.921089e-01   5.664455e-03
  3.480364e+00    4.152136e-01   5.844510e-03
  3.482574e+00    4.202184e-01   5.895303e-03
  3.484784e+00    4.182275e-01   5.896317e-03
  3.486995e+00    4.089299e-01   5.845387e-03
  3.489205e+00    4.240305e-01   5.966989e-03
  3.491416e+00    4.476894e-01   6.146497e-03
  3.493626e+00    4.563745e-01   6.220764e-03
  3.495837e+00    4.493367e-01   6.187511e-03
  3.498047e+00    4.537952e-01   6.232775e-03
  3.500258e+00    4.657368e-01   6.329060e-03
  3.502468e+00    4.665532e-01   6.349213e-03
  3.504679e+00    4.604324e-01   6.321925e-03
  3.506889e+00    4.667411e-01   6.379527e-03
  3.509099e+00    4.705750e-01   6.420026e-03
  3.511310e+00    4.666868e-01   6.407769e-03
  3.513520e+00    4.801218e-01   6.513731e-03
  3.515731e+00    4.942448e-01   6.623347e-03
  3.517941e+00    4.877922e-01   6.594286e-03
  3.520152e+00    4.913093e-01   6.632303e-03
  3.522362e+00    4.996382e-01   6.702721e-03
  3.524573e+00    5.128396e-01   6.805088e-03
  3.526783e+00    5.157844e-01   6.838029e-03
  3.528994e+00    5.009972e-01   6.751322e-03
  3.531204e+00    5.295907e-01   6.953861e-03
  3.533414e+00    5.176944e-01   6.887326e-03
  3.535625e+00    5.392978e-01   7.042040e-03
  3.537835e+00    5.341656e-01   7.020614e-03
  3.540046e+00    5.327783e-01   7.020378e-03
  3.542256e+00    5.314247e-01   7.018960e-03
  3.544467e+00    5.320058e-01   7.030402e-03
  3.546677e+00    5.383546e-01   7.079815e-03
  3.548888e+00    5.300132e-01   7.032210e-03
  3.551098e+00    5.353474e-01   7.074774e-03
  3.553309e+00    5.465908e-01   7.156937e-03
  3.555519e+00    5.569880e-01   7.236208e-03
  3.557729e+00    5.318082e-01   7.082434e-03
  3.559940e+00    5.273523e-01   7.064160e-03
  3.562150e+00    5.285644e-01   7.083862e-03
  3.564361e+00    5.295070e-01   7.103465e-03
  3.566571e+00    5.374984e-01   7.170649e-03
  3.568782e+00    5.505686e-01   7.271682e-03
  3.570992e+00    5.282304e-01   7.136279e-03
  3.573203e+00    5.298166e-01   7.161045e-03
  3.575413e+00    5.362514e-01   7.218157e-03
  3.577624e+00    5.328445e-01   7.209321e-03
  3.579834e+00    5.028120e-01   7.016621e-03
  3.582045e+00    5.173730e-01   7.131267e-03
  3.584255e+00    5.139429e-01   7.121379e-03
  3.586465e+00    5.038399e-01   7.064539e-03
  3.588676e+00    5.239637e-01   7.218238e-03
  3.590886e+00    5.338010e-01   7.299378e-03
  3.593097e+00    5.478095e-01   7.409214e-03
  3.595307e+00    5.418007e-01   7.382456e-03
  3.597518e+00    5.497673e-01   7.450957e-03
  3.599728e+00    5.513626e-01   7.476048e-03
  3.601939e+00    5.328656e-01   7.363644e-03
  3.604149e+00    5.553066e-01   7.531689e-03
  3.606360e+00    5.543993e-01   7.540007e-03
  3.608570e+00    5.301685e-01   7.387445e-03
  3.610780e+00    5.387002e-01   7.457768e-03
  3.612991e+00    5.189977e-01   7.329981e-03
  3.615201e+00    5.376971e-01   7.470656e-03
  3.617412e+00    5.348586e-01   7.458213e-03
  3.619622e+00    5.208496e-01   7.365759e-03
  3.621833e+00    5.418518e-01   7.519533e-03
  3.624043e+00    5.423679e-01   7.532733e-03
  3.626254e+00    5.410196e-01   7.533098e-03
  3.628464e+00    5.416976e-01   7.548878e-03
  3.630675e+00    5.308788e-01   7.487189e-03
  3.632885e+00    5.578982e-01   7.690111e-03
  3.635095e+00    5.463620e-01   7.624796e-03
  3.637306e+00    5.468447e-01   7.642672e-03
  3.639516e+00    5.332209e-01   7.561442e-03
  3.641727e+00    5.148727e-01   7.444495e-03
  3.643937e+00    5.343113e-01   7.598266e-03
  3.646148e+00    5.375910e-01   7.636256e-03
  3.648358e+00    5.579138e-01   7.794402e-03
  3.650569e+00    5.515072e-01   7.764569e-03
  3.652779e+00    5.215024e-01   7.565016e-03
  3.654990e+00    5.358808e-01   7.683502e-03
  3.657200e+00    5.219969e-01   7.598059e-03
  3.659410e+00    5.351423e-01   7.708166e-03
  3.661621e+00    5.293590e-01   7.681459e-03
  3.663831e+00    5.242593e-01   7.659383e-03
  3.666042e+00    5.467141e-01   7.837058e-03
  3.668252e+00    5.317653e-01   7.744443e-03
  3.670463e+00    5.179940e-01   7.658535e-03
  3.672673e+00    5.330954e-01   7.784818e-03
  3.674884e+00    5.361181e-01   7.822350e-03
  3.677094e+00    5.290217e-01   7.785882e-03
  3.679305e+00    5.211241e-01   7.742975e-03
  3.681515e+00    5.271397e-01   7.803124e-03
  3.683726e+00    5.147445e-01   7.726385e-03
  3.685936e+00    5.412620e-01   7.938782e-03
  3.688146e+00    5.309696e-01   7.878814e-03
  3.690357e+00    5.241604e-01   7.843983e-03
  3.692567e+00    5.222003e-01   7.845365e-03
  3.694778e+00    5.238161e-01   7.873504e-03
  3.696988e+00    5.063382e-01   7.756678e-03
  3.699199e+00    5.393180e-01   8.021786e-03
  3.701409e+00    5.350798e-01   8.006715e-03
  3.703620e+00    5.388570e-01   8.051476e-03
  3.705830e+00    5.411989e-01   8.085632e-03
  3.708041e+00    5.039684e-01   7.818839e-03
  3.710251e+00    5.006837e-01   7.809617e-03
  3.712461e+00    5.009784e-01   7.828348e-03
  3.714672e+00    5.030975e-01   7.861248e-03
  3.716882e+00    5.265443e-01   8.059192e-03
  3.719093e+00    5.287036e-01   8.092982e-03
  3.721303e+00    5.129853e-01   7.988626e-03
  3.723514e+00    5.057935e-01   7.949467e-03
  3.725724e+00    4.956713e-01   7.886298e-03
  3.727935e+00    5.126519e-01   8.037597e-03
  3.730145e+00    5.350869e-01   8.229184e-03
  3.732356e+00    5.401563e-01   8.286078e-03
  3.734566e+00    5.280563e-01   8.210483e-03
  3.736776e+00    5.265496e-01   8.216687e-03
  3.738987e+00    5.284286e-01   8.249358e-03
  3.741197e+00    5.334693e-01   8.306933e-03
  3.743408e+00    5.078429e-01   8.122961e-03
  3.745618e+00    5.006159e-01   8.083000e-03
  3.747829e+00    5.169559e-01   8.232079e-03
  3.750039e+00    5.135269e-01   8.223118e-03
  3.752250e+00    5.062978e-01   8.183419e-03
  3.754460e+00    5.122087e-01   8.249640e-03
  3.756671e+00    5.073104e-01   8.228853e-03
  3.758881e+00    5.159737e-01   8.317601e-03
  3.761091e+00    5.026922e-01   8.228849e-03
  3.763302e+00    4.994358e-01   8.221137e-03
  3.765512e+00    5.135585e-01   8.355849e-03
  3.767723e+00    5.196638e-01   8.424992e-03
  3.769933e+00    5.139547e-01   8.398088e-03
  3.772144e+00    4.841932e-01   8.170473e-03
  3.774354e+00    4.979308e-01   8.305168e-03
  3.776565e+00    5.391014e-01   8.662260e-03
  3.778775e+00    5.211434e-01   8.537061e-03
  3.780986e+00    5.238807e-01   8.580143e-03
  3.783196e+00    5.144387e-01   8.522957e-03
  3.785407e+00    5.217499e-01   8.604083e-03
  3.787617e+00    4.961789e-01   8.411231e-03
  3.789827e+00    5.123797e-01   8.568144e-03
  3.792038e+00    5.025365e-01   8.506334e-03
  3.794248e+00    4.959224e-01   8.471197e-03
  3.796459e+00    4.972501e-01   8.503773e-03
  3.798669e+00    5.269428e-01   8.775922e-03
  3.800880e+00    5.030015e-01   8.595810e-03
  3.803090e+00    5.145947e-01   8.716336e-03
  3.805301e+00    5.027626e-01   8.637775e-03
  3.807511e+00    5.207976e-01   8.813755e-03
  3.809722e+00    5.026808e-01   8.681403e-03
  3.811932e+00    4.877443e-01   8.573416e-03
  3.814142e+00    4.896805e-01   8.613035e-03
  3.816353e+00    5.183001e-01   8.884443e-03
  3.818563e+00    5.177928e-01   8.903716e-03
  3.820774e+00    4.687661e-01   8.494121e-03
  3.822984e+00    4.913619e-01   8.719635e-03
  3.825195e+00    5.073675e-01   8.884474e-03
  3.827405e+00    5.244396e-01   9.057223e-03
  3.829616e+00    4.814636e-01   8.701955e-03
  3.831826e+00    4.763848e-01   8.679440e-03
  3.834037e+00    4.901082e-01   8.827975e-03
  3.836247e+00    4.789024e-01   8.750727e-03
  3.838457e+00    4.962246e-01   8.932563e-03
  3.840668e+00    4.883695e-01   8.886607e-03
  3.842878e+00    4.980081e-01   8.999370e-03
  3.845089e+00    5.075687e-01   9.111296e-03
  3.847299e+00    4.912218e-01   8.989036e-03
  3.849510e+00    4.945938e-01   9.045670e-03
  3.851720e+00    5.053554e-01   9.165186e-03
  3.853931e+00    4.928738e-01   9.070270e-03
  3.856141e+00    5.164847e-01   9.304335e-03
  3.858352e+00    5.091877e-01   9.258018e-03
  3.860562e+00    4.829647e-01   9.035519e-03
  3.862772e+00    5.040749e-01   9.250624e-03
  3.864983e+00    5.219096e-01   9.433093e-03
  3.867193e+00    5.039726e-01   9.289628e-03
  3.869404e+00    4.914822e-01   9.193524e-03
  3.871614e+00    4.596558e-01   8.910102e-03
  3.873825e+00    4.910800e-01   9.229962e-03
  3.876035e+00    5.035337e-01   9.367041e-03
  3.878246e+00    4.970619e-01   9.332574e-03
  3.880456e+00    4.780667e-01   9.181007e-03
  3.882667e+00    5.150475e-01   9.559566e-03
  3.884877e+00    5.181877e-01   9.619166e-03
  3.887087e+00    5.067395e-01   9.542711e-03
  3.889298e+00    5.190665e-01   9.689384e-03
  3.891508e+00    4.977856e-01   9.519306e-03
  3.893719e+00    4.873101e-01   9.449588e-03
  3.895929e+00    4.973428e-01   9.577979e-03
  3.898140e+00    4.848395e-01   9.488318e-03
  3.900350e+00    4.800283e-01   9.472909e-03
  3.902561e+00    4.824905e-01   9.529262e-03
  3.904771e+00    5.224974e-01   9.950321e-03
  3.906982e+00    5.129417e-01   9.892954e-03
  3.909192e+00    4.918144e-01   9.720597e-03
  3.911403e+00    4.847406e-01   9.684340e-03
  3.913613e+00    4.802773e-01   9.673581e-03
  3.915823e+00    4.878676e-01   9.784538e-03
  3.918034e+00    4.905550e-01   9.846741e-03
  3.920244e+00    4.763942e-01   9.738930e-03
  3.922455e+00    4.903581e-01   9.916761e-03
  3.924665e+00    4.880815e-01   9.930159e-03
  3.926876e+00    4.666829e-01   9.746272e-03
  3.929086e+00    4.893100e-01   1.001727e-02
  3.931297e+00    4.709831e-01   9.862032e-03
  3.933507e+00    4.775842e-01   9.959520e-03
  3.935718e+00    4.919244e-01   1.013686e-02
  3.937928e+00    5.057563e-01   1.030839e-02
  3.940138e+00    4.631357e-01   9.893033e-03
  3.942349e+00    4.766390e-01   1.006582e-02
  3.944559e+00    4.836582e-01   1.016954e-02
  3.946770e+00    4.921986e-01   1.028928e-02
  3.948980e+00    4.696559e-01   1.008108e-02
  3.951191e+00    4.983045e-01   1.041513e-02
  3.953401e+00    4.963448e-01   1.042637e-02
  3.955612e+00    4.871078e-01   1.036055e-02
  3.957822e+00    4.816644e-01   1.033414e-02
  3.960033e+00    4.706230e-01   1.024699e-02
  3.962243e+00    4.910082e-01   1.049964e-02
  3.964453e+00    4.879714e-01   1.050030e-02
  3.966664e+00    4.637542e-01   1.026912e-02
  3.968874e+00    4.717613e-01   1.038527e-02
  3.971085e+00    4.933591e-01   1.064250e-02
  3.973295e+00    4.758872e-01   1.047362e-02
  3.975506e+00    5.058556e-01   1.082031e-02
  3.977716e+00    5.274417e-01   1.107184e-02
  3.979927e+00    5.157885e-01   1.097164e-02
  3.982137e+00    4.670360e-01   1.046208e-02
  3.984348e+00    4.727993e-01   1.054878e-02
  3.986558e+00    4.714435e-01   1.055549e-02
  3.988768e+00    4.844884e-01   1.072363e-02
  3.990979e+00    4.575054e-01   1.044282e-02
  3.993189e+00    4.405461e-01   1.026943e-02
  3.995400e+00    4.718378e-01   1.065105e-02
  3.997610e+00    4.872560e-01   1.085360e-02
  3.999821e+00    4.656818e-01   1.064738e-02
  4.002031e+00    4.845166e-01   1.089888e-02
  4.004242e+00    4.745771e-01   1.082467e-02
  4.006452e+00    4.987537e-01   1.113687e-02
  4.008663e+00    4.848867e-01   1.102094e-02
  4.010873e+00    5.136522e-01   1.138430e-02
  4.013084e+00    4.708495e-01   1.094013e-02
  4.015294e+00    4.906887e-01   1.120936e-02
  4.017504e+00    4.782817e-01   1.110834e-02
  4.019715e+00    4.892388e-01   1.127762e-02
  4.021925e+00    5.056621e-01   1.150921e-02
  4.024136e+00    4.764870e-01   1.121570e-02
  4.026346e+00    4.728606e-01   1.121653e-02
  4.028557e+00    4.756531e-01   1.129348e-02
  4.030767e+00    5.165337e-01   1.181597e-02
  4.032978e+00    4.912718e-01   1.157018e-02
  4.035188e+00    4.821802e-01   1.150864e-02
  4.037399e+00    4.768438e-01   1.149208e-02
  4.039609e+00    4.781676e-01   1.155540e-02
  4.041819e+00    4.694017e-01   1.149709e-02
  4.044030e+00    4.703920e-01   1.155847e-02
  4.046240e+00    4.971202e-01   1.193284e-02
  4.048451e+00    4.812725e-01   1.179197e-02
  4.050661e+00    4.809882e-01   1.183980e-02
  4.052872e+00    4.783745e-01   1.186020e-02
  4.055082e+00    4.831432e-01   1.197255e-02
  4.057293e+00    4.704782e-01   1.186787e-02
  4.059503e+00    4.751189e-01   1.198020e-02
  4.061714e+00    4.969407e-01   1.230979e-02
  4.063924e+00    4.863920e-01   1.223536e-02
  4.066134e+00    4.554422e-01   1.189549e-02
  4.068345e+00    4.860913e-01   1.234833e-02
  4.070555e+00    4.873253e-01   1.242388e-02
  4.072766e+00    4.517236e-01   1.202026e-02
  4.074976e+00    4.670500e-01   1.228326e-02
  4.077187e+00    4.770836e-01   1.247635e-02
  4.079397e+00    4.769536e-01   1.253831e-02
  4.081608e+00    5.010542e-01   1.291802e-02
  4.083818e+00    5.382648e-01   1.345869e-02
  4.086029e+00    5.089691e-01   1.315652e-02
  4.088239e+00    4.851340e-01   1.291386e-02
  4.090449e+00    4.646375e-01   1.270650e-02
  4.092660e+00    4.817265e-01   1.300940e-02
  4.094870e+00    4.689242e-01   1.290673e-02
  4.097081e+00    4.857426e-01   1.320804e-02
  4.099291e+00    4.746146e-01   1.310988e-02
  4.101502e+00    4.668604e-01   1.305095e-02
  4.103712e+00    5.049150e-01   1.362287e-02
  4.105923e+00    4.964681e-01   1.356074e-02
  4.108133e+00    5.051794e-01   1.373214e-02
  4.110344e+00    4.252180e-01   1.264665e-02
  4.112554e+00    4.906458e-01   1.363839e-02
  4.114764e+00    4.993318e-01   1.381397e-02
  4.116975e+00    4.596000e-01   1.330529e-02
  4.119185e+00    4.822947e-01   1.368501e-02
  4.121396e+00    5.044684e-01   1.405402e-02
  4.123606e+00    4.823300e-01   1.379846e-02
  4.125817e+00    5.085781e-01   1.422824e-02
  4.128027e+00    5.072080e-01   1.426909e-02
  4.130238e+00    5.012284e-01   1.424548e-02
  4.132448e+00    4.767885e-01   1.395426e-02
  4.134659e+00    4.758042e-01   1.399960e-02
  4.136869e+00    4.710572e-01   1.399188e-02
  4.139080e+00    4.714411e-01   1.406051e-02
  4.141290e+00    5.185888e-01   1.481227e-02
  4.143500e+00    4.913839e-01   1.448496e-02
  4.145711e+00    5.013067e-01   1.469885e-02
  4.147921e+00    4.987291e-01   1.472833e-02
  4.150132e+00    5.095131e-01   1.495776e-02
  4.152342e+00    4.734865e-01   1.448908e-02
  4.154553e+00    4.842321e-01   1.472220e-02
  4.156763e+00    4.976859e-01   1.499920e-02
  4.158974e+00    4.755555e-01   1.473565e-02
  4.161184e+00    4.654999e-01   1.465151e-02
  4.163395e+00    4.753078e-01   1.488028e-02
  4.165605e+00    5.212595e-01   1.566409e-02
  4.167815e+00    5.174779e-01   1.568891e-02
  4.170026e+00    4.947836e-01   1.542161e-02
  4.172236e+00    5.210954e-01   1.591191e-02
  4.174447e+00    5.026408e-01   1.571278e-02
  4.176657e+00    4.641249e-01   1.518125e-02
  4.178868e+00    5.047375e-01   1.592099e-02
  4.181078e+00    4.795031e-01   1.560555e-02
  4.183289e+00    4.651527e-01   1.545810e-02
  4.185499e+00    4.685674e-01   1.560629e-02
  4.187710e+00    4.760901e-01   1.582322e-02
  4.189920e+00    4.355383e-01   1.522541e-02
  4.192130e+00    4.896478e-01   1.624226e-02
  4.194341e+00    4.818921e-01   1.621171e-02
  4.196551e+00    4.862961e-01   1.638900e-02
  4.198762e+00    4.671080e-01   1.616446e-02
  4.200972e+00    5.055435e-01   1.692505e-02
  4.203183e+00    5.019209e-01   1.697544e-02
  4.205393e+00    4.477156e-01   1.613957e-02
  4.207604e+00    4.549438e-01   1.638009e-02
  4.209814e+00    5.394383e-01   1.795868e-02
  4.212025e+00    5.046262e-01   1.749299e-02
  4.214235e+00    4.183566e-01   1.604039e-02
  4.216445e+00    4.846593e-01   1.738920e-02
  4.218656e+00    4.640491e-01   1.714350e-02
  4.220866e+00    4.792522e-01   1.755071e-02
  4.223077e+00    5.274109e-01   1.855329e-02
  4.225287e+00    4.546567e-01   1.736172e-02
  4.227498e+00    5.294933e-01   1.888303e-02
  4.229708e+00    4.576228e-01   1.769735e-02
  4.231919e+00    4.880578e-01   1.842769e-02
  4.234129e+00    4.720043e-01   1.827405e-02
  4.236340e+00    4.711085e-01   1.841301e-02
  4.238550e+00    4.646632e-01   1.844796e-02
  4.240761e+00    4.452907e-01   1.821910e-02
  4.242971e+00    4.576904e-01   1.863993e-02
  4.245181e+00    4.552446e-01   1.876463e-02
  4.247392e+00    4.588606e-01   1.901543e-02
  4.249602e+00    4.532512e-01   1.908620e-02
  4.251813e+00    5.327313e-01   2.089606e-02
  4.254023e+00    4.586105e-01   1.958371e-02
  4.256234e+00    4.405787e-01   1.939924e-02
  4.258444e+00    4.591914e-01   2.001307e-02
  4.260655e+00    4.794669e-01   2.067382e-02
  4.262865e+00    5.309198e-01   2.200210e-02
  4.265076e+00    5.518914e-01   2.268756e-02
  4.267286e+00    5.156904e-01   2.219103e-02
  4.269496e+00    5.260749e-01   2.268691e-02
  4.271707e+00    4.737642e-01   2.179528e-02
  4.273917e+00    5.104285e-01   2.291558e-02
  4.276128e+00    5.104365e-01   2.321974e-02
  4.278338e+00    5.037126e-01   2.337481e-02
  4.280549e+00    4.528535e-01   2.248118e-02
  4.282759e+00    5.037030e-01   2.405046e-02
  4.284970e+00    5.404912e-01   2.528163e-02
  4.287180e+00    4.891607e-01   2.433953e-02
  4.289391e+00    4.948525e-01   2.466451e-02
  4.291601e+00    4.389633e-01   2.341590e-02
  4.293811e+00    4.180230e-01   2.302875e-02
  4.296022e+00    4.142853e-01   2.310988e-02
  4.298232e+00    4.482187e-01   2.423876e-02
  4.300443e+00    5.303718e-01   2.658476e-02
  4.302653e+00    4.972331e-01   2.596396e-02
  4.304864e+00    5.031013e-01   2.634235e-02
  4.307074e+00    4.790446e-01   2.593590e-02
  4.309285e+00    4.681506e-01   2.587252e-02
  4.311495e+00    4.679611e-01   2.610867e-02
  4.313706e+00    4.551895e-01   2.599253e-02
  4.315916e+00    3.617446e-01   2.339931e-02
  4.318126e+00    4.640960e-01   2.676604e-02
  4.320337e+00    5.109423e-01   2.836772e-02
  4.322547e+00    4.617297e-01   2.725395e-02
  4.324758e+00    5.044529e-01   2.878222e-02
  4.326968e+00    4.407572e-01   2.720748e-02
  4.329179e+00    5.455460e-01   3.060285e-02
  4.331389e+00    4.330842e-01   2.758137e-02
  4.333600e+00    4.256968e-01   2.767082e-02
  4.335810e+00    4.342629e-01   2.828044e-02
  4.338021e+00    4.178043e-01   2.809459e-02
  4.340231e+00    4.640111e-01   2.997888e-02
  4.342442e+00    5.114686e-01   3.189674e-02
  4.344652e+00    4.175630e-01   2.921262e-02
  4.346862e+00    3.872949e-01   2.852705e-02
  4.349073e+00    3.950439e-01   2.922934e-02
  4.351283e+00    3.967587e-01   2.973227e-02
  4.353494e+00    3.967469e-01   3.019039e-02
  4.355704e+00    3.955756e-01   3.063052e-02
  4.357915e+00    5.147137e-01   3.552232e-02
  4.360125e+00    4.515644e-01   3.383927e-02
  4.362336e+00    5.044780e-01   3.641984e-02
  4.364546e+00    4.512907e-01   3.507319e-02
  4.366757e+00    4.848855e-01   3.707942e-02
  4.368967e+00    4.130221e-01   3.490181e-02
  4.371177e+00    6.788744e-01   4.569973e-02
  4.373388e+00    4.353744e-01   3.741534e-02
  4.375598e+00    4.400540e-01   3.847369e-02
  4.377809e+00    6.585311e-01   4.825618e-02
  4.380019e+00    3.944319e-01   3.828749e-02
  4.382230e+00    4.361454e-01   4.138307e-02
  4.384440e+00    4.654764e-01   4.398091e-02
  4.386651e+00    4.700454e-01   4.556192e-02
  4.388861e+00    5.762602e-01   5.213773e-02
  4.391072e+00    4.405383e-01   4.718810e-02
  4.393282e+00    4.647358e-01   5.034226e-02
  4.395492e+00    7.061276e-01   6.463005e-02
  4.397703e+00    4.512694e-01   5.403502e-02
  4.399913e+00    4.537489e-01   5.691810e-02
  4.402124e+00    2.774169e-01   4.703216e-02
  4.404334e+00    4.743896e-01   6.537288e-02
  4.406545e+00    3.079574e-01   5.659119e-02
  4.408755e+00    4.909427e-01   7.749671e-02
  4.410966e+00    1.493087e-01   4.730822e-02
  4.413176e+00    2.439097e-01   6.842399e-02
  4.415387e+00   -7.183260e-01            nan
  4.417597e+00   -2.031091e+00            nan
  4.419807e+00   -3.766224e-01            nan
