# == pyFAI calibration ==
# Distance Sample to Detector: 0.216 m
# PONI: 1.166e-01, 1.308e-01 m
# Rotations: 0.000000 0.000000 0.000000 rad
# 
# == Fit2d calibration ==
# Distance Sample-beamCenter: 216.000 mm
# Center: x=1744.293, y=1555.000 pix
# Tilt: 0.000 deg  TiltPlanRot: 0.000 deg
# 
# Detector Eiger 9M	 PixelSize= 7.500e-05, 7.500e-05 m
#    Detector has a mask: True 
#    Detector has a dark current: False 
#    detector has a flat field: False 
# 
# Wavelength: 9.8e-11 m
# Mask applied: from detector
# Dark current applied: False
# Flat field applied: False
# Polarization factor: None
# Normalization factor: 1.0
# 
# Headers of the input frame:
# {
# "_array_data.header_convention": "SLS_1.0",
# "_array_data.header_contents": "# Detector: Dectris Eiger 9M, S/N E-18-0102\r\n# Pixel_size 75e-6 m x 75e-6 m\r\n# Silicon sensor, thickness 0.000450 m\r\n# Exposure_time 0.024997 s\r\n# Exposure_period 0.025000 s\r\n# Count_cutoff 62318 counts\r\n# Wavelength 0.980106 A\r\n# Detector_distance 0.215992 m\r\n# Beam_xy (1555, 1744) pixels\r\n# Start_angle 0.000000 deg.\r\n# Angle_increment 0.000000 deg.",
# "Content-Type": "application/octet-stream;",
# "conversions": "x-CBF_BYTE_OFFSET",
# "Content-Transfer-Encoding": "BINARY",
# "X-Binary-Size": "10166608",
# "X-Binary-ID": "1",
# "X-Binary-Element-Type": "signed 32-bit integer",
# "X-Binary-Element-Byte-Order": "LITTLE_ENDIAN",
# "Content-MD5": "04Hlom3MrGt/rTsfheXh1w==",
# "X-Binary-Number-of-Elements": "10166590",
# "X-Binary-Size-Fastest-Dimension": "3110",
# "X-Binary-Size-Second-Dimension": "3269",
# "X-Binary-Size-Padding": "4095"
# }
# --> H:/Proxima2a_2019-04-05/RAW_DATA/C5_gel17_position5/C5_mesh_1_data.cbf/C5_mesh_1_data.cbf000145.dat
#        q_A^-1              I           sigma 
  1.105228e-03    1.417644e+00   6.442739e-01
  3.315685e-03    1.621200e+00   4.188550e-01
  5.526141e-03    1.095931e+00   2.662955e-01
  7.736597e-03    1.656978e+00   2.766168e-01
  9.947054e-03    1.585323e+00   2.385259e-01
  1.215751e-02    1.526772e+00   2.116683e-01
  1.436797e-02    1.429573e+00   1.883992e-01
  1.657842e-02    1.485522e+00   1.787656e-01
  1.878888e-02    1.541259e+00   1.710414e-01
  2.099934e-02    1.306494e+00   1.489895e-01
  2.320979e-02    1.330727e+00   1.430136e-01
  2.542025e-02    1.453822e+00   1.428450e-01
  2.763070e-02    1.342917e+00   1.316785e-01
  2.984116e-02    1.266703e+00   1.230591e-01
  3.205162e-02    1.445509e+00   1.268518e-01
  3.426207e-02    1.447906e+00   1.227849e-01
  3.647253e-02    1.273137e+00   1.115905e-01
  3.868299e-02    1.166448e+00   1.037238e-01
  4.089344e-02    1.413792e+00   1.110641e-01
  4.310390e-02    1.409545e+00   1.080098e-01
  4.531436e-02    1.497768e+00   1.085895e-01
  4.752481e-02    1.609238e+00   1.099080e-01
  4.973527e-02    1.580444e+00   1.064735e-01
  5.194572e-02    1.435777e+00   9.929936e-02
  5.415618e-02    1.476382e+00   9.861390e-02
  5.636664e-02    1.435508e+00   9.531650e-02
  5.857709e-02    1.511073e+00   9.593063e-02
  6.078755e-02    1.537037e+00   9.497285e-02
  6.299801e-02    1.408226e+00   8.929614e-02
  6.520846e-02    1.414300e+00   8.795925e-02
  6.741892e-02    1.508327e+00   8.933005e-02
  6.962938e-02    1.477262e+00   8.699518e-02
  7.183983e-02    1.570661e+00   8.831069e-02
  7.405029e-02    1.506535e+00   8.518653e-02
  7.626074e-02    1.457073e+00   8.255266e-02
  7.847120e-02    1.423353e+00   8.043227e-02
  8.068166e-02    1.406777e+00   7.885896e-02
  8.289211e-02    1.453227e+00   7.907395e-02
  8.510257e-02    1.428174e+00   7.736419e-02
  8.731303e-02    1.441303e+00   7.672594e-02
  8.952348e-02    1.536144e+00   7.822824e-02
  9.173394e-02    1.530457e+00   7.713374e-02
  9.394439e-02    1.530439e+00   7.621796e-02
  9.615485e-02    1.575739e+00   7.644195e-02
  9.836531e-02    1.521334e+00   7.425997e-02
  1.005758e-01    1.536857e+00   7.381355e-02
  1.027862e-01    1.551291e+00   7.335583e-02
  1.049967e-01    1.546221e+00   7.245956e-02
  1.072071e-01    1.526643e+00   7.125240e-02
  1.094176e-01    1.586987e+00   7.190830e-02
  1.116280e-01    1.620102e+00   7.193014e-02
  1.138385e-01    1.543710e+00   6.952745e-02
  1.160490e-01    1.619838e+00   7.053874e-02
  1.182594e-01    1.580890e+00   6.902973e-02
  1.204699e-01    1.561393e+00   6.796993e-02
  1.226803e-01    1.528917e+00   6.664788e-02
  1.248908e-01    1.572284e+00   6.698489e-02
  1.271012e-01    1.615601e+00   6.730703e-02
  1.293117e-01    1.571594e+00   6.581336e-02
  1.315222e-01    1.624707e+00   6.634997e-02
  1.337326e-01    1.588802e+00   6.506697e-02
  1.359431e-01    1.547607e+00   6.425547e-02
  1.381535e-01    1.545432e+00   6.507220e-02
  1.403640e-01    1.546399e+00   6.537361e-02
  1.425744e-01    1.582549e+00   6.623896e-02
  1.447849e-01    1.552357e+00   6.561917e-02
  1.469953e-01    1.544883e+00   6.542001e-02
  1.492058e-01    1.526784e+00   6.496008e-02
  1.514163e-01    1.579673e+00   6.596594e-02
  1.536267e-01    1.653288e+00   6.735371e-02
  1.558372e-01    1.614328e+00   6.640848e-02
  1.580476e-01    1.613856e+00   6.623762e-02
  1.602581e-01    1.597849e+00   6.574093e-02
  1.624685e-01    1.626060e+00   6.613715e-02
  1.646790e-01    1.717685e+00   6.777978e-02
  1.668895e-01    1.735551e+00   6.793461e-02
  1.690999e-01    1.760554e+00   6.821675e-02
  1.713104e-01    1.781667e+00   6.841160e-02
  1.735208e-01    1.743421e+00   6.746291e-02
  1.757313e-01    1.675494e+00   6.592832e-02
  1.779417e-01    1.737027e+00   6.690907e-02
  1.801522e-01    1.815508e+00   6.818607e-02
  1.823626e-01    1.857398e+00   6.873861e-02
  1.845731e-01    1.864709e+00   6.865066e-02
  1.867836e-01    1.933074e+00   6.966189e-02
  1.889940e-01    1.941107e+00   6.957839e-02
  1.912045e-01    1.942491e+00   6.937075e-02
  1.934149e-01    1.918552e+00   6.871124e-02
  1.956254e-01    1.811131e+00   6.653974e-02
  1.978358e-01    1.909119e+00   6.808190e-02
  2.000463e-01    2.004399e+00   6.952897e-02
  2.022568e-01    2.025804e+00   6.966981e-02
  2.044672e-01    2.026982e+00   6.945132e-02
  2.066777e-01    2.027024e+00   6.922153e-02
  2.088881e-01    1.992591e+00   6.840654e-02
  2.110986e-01    1.964682e+00   6.769285e-02
  2.133090e-01    1.944187e+00   6.711995e-02
  2.155195e-01    1.965225e+00   6.725827e-02
  2.177300e-01    2.048571e+00   6.813020e-02
  2.199404e-01    1.977580e+00   6.517550e-02
  2.221509e-01    1.978420e+00   6.411886e-02
  2.243613e-01    2.026350e+00   6.406828e-02
  2.265718e-01    2.045923e+00   6.366739e-02
  2.287822e-01    2.123390e+00   6.421955e-02
  2.309927e-01    2.103589e+00   6.333713e-02
  2.332031e-01    2.152777e+00   6.352495e-02
  2.354136e-01    2.239746e+00   6.427026e-02
  2.376241e-01    2.160571e+00   6.263412e-02
  2.398345e-01    2.117661e+00   6.155008e-02
  2.420450e-01    2.227226e+00   6.267115e-02
  2.442554e-01    2.195528e+00   6.179491e-02
  2.464659e-01    2.193244e+00   6.134809e-02
  2.486763e-01    2.230530e+00   6.146071e-02
  2.508868e-01    2.111887e+00   5.942655e-02
  2.530973e-01    2.054576e+00   5.825127e-02
  2.553077e-01    2.116984e+00   5.877065e-02
  2.575182e-01    2.111475e+00   5.834690e-02
  2.597286e-01    2.072854e+00   5.747475e-02
  2.619391e-01    2.118429e+00   5.776863e-02
  2.641495e-01    2.148502e+00   5.785526e-02
  2.663600e-01    2.004927e+00   5.558138e-02
  2.685704e-01    2.087022e+00   5.640049e-02
  2.707809e-01    2.104528e+00   5.633594e-02
  2.729914e-01    2.029464e+00   5.503382e-02
  2.752018e-01    1.981031e+00   5.409015e-02
  2.774123e-01    2.004845e+00   5.413634e-02
  2.796227e-01    1.971895e+00   5.342405e-02
  2.818332e-01    1.954394e+00   5.292112e-02
  2.840436e-01    1.990722e+00   5.315179e-02
  2.862541e-01    2.035285e+00   5.348508e-02
  2.884646e-01    1.917735e+00   5.167117e-02
  2.906750e-01    1.970960e+00   5.213492e-02
  2.928855e-01    1.981182e+00   5.202775e-02
  2.950959e-01    1.951606e+00   5.140075e-02
  2.973064e-01    1.950554e+00   5.115592e-02
  2.995168e-01    1.983458e+00   5.135198e-02
  3.017273e-01    1.925359e+00   5.037123e-02
  3.039377e-01    1.897657e+00   4.978856e-02
  3.061482e-01    1.913105e+00   4.977455e-02
  3.083587e-01    1.930483e+00   4.978367e-02
  3.105691e-01    1.913205e+00   4.934874e-02
  3.127796e-01    1.846424e+00   4.827597e-02
  3.149900e-01    1.863584e+00   4.829771e-02
  3.172005e-01    1.928181e+00   4.892676e-02
  3.194109e-01    1.857056e+00   4.781768e-02
  3.216214e-01    1.912104e+00   4.832324e-02
  3.238319e-01    1.944829e+00   4.854193e-02
  3.260423e-01    1.878164e+00   4.751271e-02
  3.282528e-01    1.803870e+00   4.637814e-02
  3.304632e-01    1.838510e+00   4.663992e-02
  3.326737e-01    1.923684e+00   4.752192e-02
  3.348841e-01    1.836292e+00   4.624988e-02
  3.370946e-01    1.832797e+00   4.603199e-02
  3.393050e-01    1.851978e+00   4.609696e-02
  3.415155e-01    1.846975e+00   4.586157e-02
  3.437260e-01    1.827345e+00   4.544812e-02
  3.459364e-01    1.809787e+00   4.506195e-02
  3.481469e-01    1.804622e+00   4.483335e-02
  3.503573e-01    1.804251e+00   4.466543e-02
  3.525678e-01    1.825767e+00   4.477085e-02
  3.547782e-01    1.775873e+00   4.399528e-02
  3.569887e-01    1.768694e+00   4.375069e-02
  3.591992e-01    1.830211e+00   4.434755e-02
  3.614096e-01    1.795027e+00   4.376695e-02
  3.636201e-01    1.805857e+00   4.374451e-02
  3.658305e-01    1.808554e+00   4.362784e-02
  3.680410e-01    1.784074e+00   4.318253e-02
  3.702514e-01    1.764310e+00   4.279826e-02
  3.724619e-01    1.776213e+00   4.279616e-02
  3.746724e-01    1.791227e+00   4.283325e-02
  3.768828e-01    1.856865e+00   4.346424e-02
  3.790933e-01    1.838091e+00   4.310305e-02
  3.813037e-01    1.739359e+00   4.179228e-02
  3.835142e-01    1.687774e+00   4.103265e-02
  3.857246e-01    1.753800e+00   4.169218e-02
  3.879351e-01    1.785619e+00   4.193252e-02
  3.901455e-01    1.818163e+00   4.217823e-02
  3.923560e-01    1.773834e+00   4.152847e-02
  3.945665e-01    1.834017e+00   4.209317e-02
  3.967769e-01    1.799984e+00   4.157020e-02
  3.989874e-01    1.805693e+00   4.150606e-02
  4.011978e-01    1.735861e+00   4.057042e-02
  4.034083e-01    1.755182e+00   4.067033e-02
  4.056187e-01    1.742530e+00   4.039865e-02
  4.078292e-01    1.758781e+00   4.046376e-02
  4.100397e-01    1.783258e+00   4.061995e-02
  4.122501e-01    1.809144e+00   4.079132e-02
  4.144606e-01    1.788282e+00   4.043517e-02
  4.166710e-01    1.802153e+00   4.047099e-02
  4.188815e-01    1.844929e+00   4.082752e-02
  4.210919e-01    1.823874e+00   4.047494e-02
  4.233024e-01    1.785957e+00   3.993417e-02
  4.255128e-01    1.800696e+00   3.998274e-02
  4.277233e-01    1.823501e+00   4.011949e-02
  4.299338e-01    1.850190e+00   4.029576e-02
  4.321442e-01    1.787450e+00   3.949333e-02
  4.343547e-01    1.783542e+00   3.933856e-02
  4.365651e-01    1.824767e+00   3.967756e-02
  4.387756e-01    1.733855e+00   3.856824e-02
  4.409860e-01    1.787619e+00   3.905313e-02
  4.431965e-01    1.773082e+00   3.878648e-02
  4.454070e-01    1.791533e+00   3.887930e-02
  4.476174e-01    1.761718e+00   3.844859e-02
  4.498279e-01    1.715283e+00   3.783526e-02
  4.520383e-01    1.719775e+00   3.778080e-02
  4.542488e-01    1.751313e+00   3.802284e-02
  4.564592e-01    1.700284e+00   3.736429e-02
  4.586697e-01    1.721361e+00   3.749539e-02
  4.608801e-01    1.668186e+00   3.681281e-02
  4.630906e-01    1.718477e+00   3.726466e-02
  4.653011e-01    1.753528e+00   3.754380e-02
  4.675115e-01    1.701724e+00   3.688766e-02
  4.697220e-01    1.730651e+00   3.710248e-02
  4.719324e-01    1.656036e+00   3.619995e-02
  4.741429e-01    1.706708e+00   3.665492e-02
  4.763533e-01    1.697872e+00   3.646620e-02
  4.785638e-01    1.692126e+00   3.631038e-02
  4.807743e-01    1.710833e+00   3.641769e-02
  4.829847e-01    1.695146e+00   3.615877e-02
  4.851952e-01    1.699645e+00   3.611510e-02
  4.874056e-01    1.697216e+00   3.599830e-02
  4.896161e-01    1.665031e+00   3.556690e-02
  4.918265e-01    1.681210e+00   3.565055e-02
  4.940370e-01    1.681626e+00   3.556693e-02
  4.962475e-01    1.673460e+00   3.539284e-02
  4.984579e-01    1.673335e+00   3.530430e-02
  5.006684e-01    1.671447e+00   3.519834e-02
  5.028788e-01    1.682247e+00   3.522632e-02
  5.050893e-01    1.685227e+00   3.517174e-02
  5.072997e-01    1.728802e+00   3.553753e-02
  5.095102e-01    1.706489e+00   3.522290e-02
  5.117206e-01    1.665977e+00   3.471953e-02
  5.139311e-01    1.682035e+00   3.480388e-02
  5.161416e-01    1.710445e+00   3.501364e-02
  5.183520e-01    1.680086e+00   3.461906e-02
  5.205625e-01    1.661786e+00   3.434934e-02
  5.227729e-01    1.694865e+00   3.460862e-02
  5.249834e-01    1.645808e+00   3.402491e-02
  5.271938e-01    1.673337e+00   3.422822e-02
  5.294043e-01    1.727351e+00   3.469603e-02
  5.316148e-01    1.719485e+00   3.453765e-02
  5.338252e-01    1.772189e+00   3.498283e-02
  5.360357e-01    1.724516e+00   3.443053e-02
  5.382461e-01    1.727631e+00   3.438373e-02
  5.404566e-01    1.723367e+00   3.426310e-02
  5.426670e-01    1.770520e+00   3.465042e-02
  5.448775e-01    1.776463e+00   3.463099e-02
  5.470879e-01    1.788650e+00   3.467209e-02
  5.492984e-01    1.761010e+00   3.432664e-02
  5.515089e-01    1.796535e+00   3.459425e-02
  5.537193e-01    1.767215e+00   3.423522e-02
  5.559298e-01    1.758984e+00   3.408046e-02
  5.581402e-01    1.815531e+00   3.454827e-02
  5.603507e-01    1.830223e+00   3.461231e-02
  5.625611e-01    1.803660e+00   3.428565e-02
  5.647716e-01    1.784408e+00   3.402814e-02
  5.669821e-01    1.767965e+00   3.379798e-02
  5.691925e-01    1.774600e+00   3.378864e-02
  5.714030e-01    1.731962e+00   3.330911e-02
  5.736134e-01    1.758171e+00   3.348878e-02
  5.758239e-01    1.772178e+00   3.355017e-02
  5.780343e-01    1.696017e+00   3.275190e-02
  5.802448e-01    1.659507e+00   3.232963e-02
  5.824552e-01    1.625105e+00   3.192565e-02
  5.846657e-01    1.662389e+00   3.222248e-02
  5.868762e-01    1.658336e+00   3.211619e-02
  5.890866e-01    1.637377e+00   3.184637e-02
  5.912971e-01    1.631914e+00   3.172737e-02
  5.935075e-01    1.660602e+00   3.193889e-02
  5.957180e-01    1.686975e+00   3.212548e-02
  5.979284e-01    1.639212e+00   3.160278e-02
  6.001389e-01    1.669904e+00   3.183230e-02
  6.023494e-01    1.636504e+00   3.144839e-02
  6.045598e-01    1.666281e+00   3.166858e-02
  6.067703e-01    1.657899e+00   3.152530e-02
  6.089807e-01    1.704106e+00   3.189737e-02
  6.111912e-01    1.666712e+00   3.148245e-02
  6.134016e-01    1.631487e+00   3.108589e-02
  6.156121e-01    1.633818e+00   3.104622e-02
  6.178226e-01    1.688883e+00   3.150258e-02
  6.200330e-01    1.700875e+00   3.155187e-02
  6.222435e-01    1.710985e+00   3.158281e-02
  6.244539e-01    1.727978e+00   3.167712e-02
  6.266644e-01    1.709089e+00   3.144206e-02
  6.288748e-01    1.686240e+00   3.117038e-02
  6.310853e-01    1.707978e+00   3.130974e-02
  6.332957e-01    1.721633e+00   3.137397e-02
  6.355062e-01    1.694423e+00   3.106458e-02
  6.377167e-01    1.688073e+00   3.094682e-02
  6.399271e-01    1.703201e+00   3.102562e-02
  6.421376e-01    1.699088e+00   3.092898e-02
  6.443480e-01    1.687922e+00   3.076856e-02
  6.465585e-01    1.666631e+00   3.051596e-02
  6.487689e-01    1.678645e+00   3.056791e-02
  6.509794e-01    1.712525e+00   3.081662e-02
  6.531899e-01    1.658428e+00   3.026896e-02
  6.554003e-01    1.647633e+00   3.011355e-02
  6.576108e-01    1.618303e+00   2.978877e-02
  6.598212e-01    1.579558e+00   2.937532e-02
  6.620317e-01    1.618170e+00   2.967707e-02
  6.642421e-01    1.609772e+00   2.954522e-02
  6.664526e-01    1.601984e+00   2.941933e-02
  6.686630e-01    1.622622e+00   2.955350e-02
  6.708735e-01    1.641108e+00   2.966685e-02
  6.730840e-01    1.637922e+00   2.958401e-02
  6.752944e-01    1.569091e+00   2.890307e-02
  6.775049e-01    1.561161e+00   2.877758e-02
  6.797153e-01    1.611569e+00   2.918553e-02
  6.819258e-01    1.637671e+00   2.936791e-02
  6.841362e-01    1.596158e+00   2.894114e-02
  6.863467e-01    1.602763e+00   2.894902e-02
  6.885572e-01    1.605108e+00   2.891827e-02
  6.907676e-01    1.599581e+00   2.881673e-02
  6.929781e-01    1.603956e+00   2.880479e-02
  6.951885e-01    1.633701e+00   2.901919e-02
  6.973990e-01    1.608876e+00   2.874695e-02
  6.996094e-01    1.603855e+00   2.865154e-02
  7.018199e-01    1.659755e+00   2.909543e-02
  7.040303e-01    1.612840e+00   2.863091e-02
  7.062408e-01    1.602184e+00   2.848616e-02
  7.084513e-01    1.609499e+00   2.850146e-02
  7.106617e-01    1.568820e+00   2.809009e-02
  7.128722e-01    1.593602e+00   2.826208e-02
  7.150826e-01    1.612509e+00   2.838025e-02
  7.172931e-01    1.601747e+00   2.823662e-02
  7.195035e-01    1.604205e+00   2.820971e-02
  7.217140e-01    1.538190e+00   2.767207e-02
  7.239245e-01    1.536832e+00   2.788382e-02
  7.261349e-01    1.564477e+00   2.824175e-02
  7.283454e-01    1.567536e+00   2.834161e-02
  7.305558e-01    1.539233e+00   2.813795e-02
  7.327663e-01    1.537136e+00   2.816077e-02
  7.349767e-01    1.517796e+00   2.799913e-02
  7.371872e-01    1.532993e+00   2.812790e-02
  7.393976e-01    1.534485e+00   2.812752e-02
  7.416081e-01    1.583205e+00   2.855434e-02
  7.438186e-01    1.599227e+00   2.855301e-02
  7.460290e-01    1.603911e+00   2.829785e-02
  7.482395e-01    1.536530e+00   2.752798e-02
  7.504499e-01    1.565252e+00   2.764820e-02
  7.526604e-01    1.586818e+00   2.772104e-02
  7.548708e-01    1.535160e+00   2.717778e-02
  7.570813e-01    1.557023e+00   2.731993e-02
  7.592918e-01    1.571707e+00   2.741332e-02
  7.615022e-01    1.553891e+00   2.722392e-02
  7.637127e-01    1.567601e+00   2.731105e-02
  7.659231e-01    1.578871e+00   2.737701e-02
  7.681336e-01    1.570225e+00   2.727038e-02
  7.703440e-01    1.607560e+00   2.756114e-02
  7.725545e-01    1.606876e+00   2.752408e-02
  7.747650e-01    1.607234e+00   2.748856e-02
  7.769754e-01    1.577325e+00   2.717884e-02
  7.791859e-01    1.597357e+00   2.729704e-02
  7.813963e-01    1.556000e+00   2.688915e-02
  7.836068e-01    1.578654e+00   2.703225e-02
  7.858172e-01    1.620510e+00   2.733709e-02
  7.880277e-01    1.608971e+00   2.718776e-02
  7.902381e-01    1.568465e+00   2.679460e-02
  7.924486e-01    1.581708e+00   2.685761e-02
  7.946591e-01    1.610803e+00   2.705505e-02
  7.968695e-01    1.622267e+00   2.710259e-02
  7.990800e-01    1.619891e+00   2.703432e-02
  8.012904e-01    1.623797e+00   2.702008e-02
  8.035009e-01    1.616071e+00   2.690776e-02
  8.057113e-01    1.630068e+00   2.697730e-02
  8.079218e-01    1.638499e+00   2.700029e-02
  8.101323e-01    1.627394e+00   2.686297e-02
  8.123427e-01    1.644052e+00   2.695406e-02
  8.145532e-01    1.656100e+00   2.700636e-02
  8.167636e-01    1.666644e+00   2.704663e-02
  8.189741e-01    1.674848e+00   2.706793e-02
  8.211845e-01    1.650516e+00   2.682555e-02
  8.233950e-01    1.629609e+00   2.661178e-02
  8.256054e-01    1.666389e+00   2.686580e-02
  8.278159e-01    1.621062e+00   2.645417e-02
  8.300264e-01    1.648615e+00   2.663480e-02
  8.322368e-01    1.670992e+00   2.677141e-02
  8.344473e-01    1.661376e+00   2.665061e-02
  8.366577e-01    1.642436e+00   2.645563e-02
  8.388682e-01    1.646418e+00   2.644534e-02
  8.410786e-01    1.667715e+00   2.657340e-02
  8.432891e-01    1.653400e+00   2.641709e-02
  8.454996e-01    1.651977e+00   2.636393e-02
  8.477100e-01    1.641847e+00   2.624125e-02
  8.499205e-01    1.681412e+00   2.651384e-02
  8.521309e-01    1.697274e+00   2.659709e-02
  8.543414e-01    1.637363e+00   2.608269e-02
  8.565518e-01    1.611872e+00   2.583858e-02
  8.587623e-01    1.623217e+00   2.588896e-02
  8.609727e-01    1.605024e+00   2.570357e-02
  8.631832e-01    1.594972e+00   2.558343e-02
  8.653937e-01    1.604566e+00   2.562083e-02
  8.676041e-01    1.611202e+00   2.563503e-02
  8.698146e-01    1.611252e+00   2.559623e-02
  8.720250e-01    1.615755e+00   2.559293e-02
  8.742355e-01    1.624217e+00   2.562077e-02
  8.764459e-01    1.638561e+00   2.569441e-02
  8.786564e-01    1.635585e+00   2.563281e-02
  8.808669e-01    1.591635e+00   2.524773e-02
  8.830773e-01    1.610314e+00   2.535721e-02
  8.852878e-01    1.583075e+00   2.510414e-02
  8.874982e-01    1.612099e+00   2.529645e-02
  8.897087e-01    1.600271e+00   2.516582e-02
  8.919191e-01    1.553749e+00   2.476013e-02
  8.941296e-01    1.559782e+00   2.477132e-02
  8.963401e-01    1.588250e+00   2.496006e-02
  8.985505e-01    1.615243e+00   2.513414e-02
  9.007610e-01    1.660974e+00   2.545001e-02
  9.029714e-01    1.701361e+00   2.572062e-02
  9.051819e-01    1.642143e+00   2.523135e-02
  9.073923e-01    1.574104e+00   2.466683e-02
  9.096028e-01    1.555883e+00   2.448921e-02
  9.118132e-01    1.588645e+00   2.470959e-02
  9.140237e-01    1.610766e+00   2.484430e-02
  9.162342e-01    1.588941e+00   2.464098e-02
  9.184446e-01    1.575652e+00   2.450223e-02
  9.206551e-01    1.588764e+00   2.456849e-02
  9.228655e-01    1.591899e+00   2.455758e-02
  9.250760e-01    1.612029e+00   2.467688e-02
  9.272864e-01    1.604664e+00   2.458618e-02
  9.294969e-01    1.619993e+00   2.466731e-02
  9.317074e-01    1.627245e+00   2.468754e-02
  9.339178e-01    1.638140e+00   2.473622e-02
  9.361283e-01    1.634569e+00   2.467282e-02
  9.383387e-01    1.627643e+00   2.458701e-02
  9.405492e-01    1.662977e+00   2.481773e-02
  9.427596e-01    1.657552e+00   2.474156e-02
  9.449701e-01    1.677293e+00   2.485463e-02
  9.471805e-01    1.672498e+00   2.478394e-02
  9.493910e-01    1.670297e+00   2.473363e-02
  9.516015e-01    1.646579e+00   2.452310e-02
  9.538119e-01    1.709943e+00   2.495625e-02
  9.560224e-01    1.769016e+00   2.534794e-02
  9.582328e-01    1.778145e+00   2.537918e-02
  9.604433e-01    1.732218e+00   2.501380e-02
  9.626537e-01    1.759614e+00   2.517693e-02
  9.648642e-01    1.807374e+00   2.548137e-02
  9.670747e-01    1.808669e+00   2.545535e-02
  9.692851e-01    1.862068e+00   2.579404e-02
  9.714956e-01    1.903272e+00   2.604111e-02
  9.737060e-01    1.887243e+00   2.589718e-02
  9.759165e-01    1.857164e+00   2.565373e-02
  9.781269e-01    1.850121e+00   2.557155e-02
  9.803374e-01    1.831752e+00   2.540908e-02
  9.825478e-01    1.879270e+00   2.570260e-02
  9.847583e-01    1.882836e+00   2.569204e-02
  9.869688e-01    1.851899e+00   2.544600e-02
  9.891792e-01    1.838427e+00   2.531956e-02
  9.913897e-01    1.871725e+00   2.551336e-02
  9.936001e-01    1.820301e+00   2.512753e-02
  9.958106e-01    1.747518e+00   2.458658e-02
  9.980210e-01    1.705527e+00   2.425786e-02
  1.000231e+00    1.690933e+00   2.428617e-02
  1.002442e+00    1.656681e+00   2.416666e-02
  1.004652e+00    1.643367e+00   2.413651e-02
  1.006863e+00    1.605826e+00   2.390873e-02
  1.009073e+00    1.617612e+00   2.403303e-02
  1.011284e+00    1.574235e+00   2.374033e-02
  1.013494e+00    1.553150e+00   2.360419e-02
  1.015705e+00    1.531428e+00   2.346068e-02
  1.017915e+00    1.565071e+00   2.373332e-02
  1.020126e+00    1.545671e+00   2.360172e-02
  1.022336e+00    1.523499e+00   2.344338e-02
  1.024547e+00    1.505367e+00   2.331449e-02
  1.026757e+00    1.538123e+00   2.357511e-02
  1.028967e+00    1.541529e+00   2.360891e-02
  1.031178e+00    1.507163e+00   2.335034e-02
  1.033388e+00    1.576921e+00   2.388973e-02
  1.035599e+00    1.620166e+00   2.421863e-02
  1.037809e+00    1.578833e+00   2.391103e-02
  1.040020e+00    1.564676e+00   2.380487e-02
  1.042230e+00    1.576976e+00   2.390022e-02
  1.044441e+00    1.554444e+00   2.372866e-02
  1.046651e+00    1.556260e+00   2.374268e-02
  1.048862e+00    1.539829e+00   2.361621e-02
  1.051072e+00    1.528756e+00   2.352877e-02
  1.053282e+00    1.484894e+00   2.318784e-02
  1.055493e+00    1.456715e+00   2.296251e-02
  1.057703e+00    1.453131e+00   2.293274e-02
  1.059914e+00    1.461728e+00   2.299626e-02
  1.062124e+00    1.469553e+00   2.305369e-02
  1.064335e+00    1.465226e+00   2.301632e-02
  1.066545e+00    1.485770e+00   2.317110e-02
  1.068756e+00    1.480787e+00   2.312850e-02
  1.070966e+00    1.459767e+00   2.295725e-02
  1.073177e+00    1.470201e+00   2.303310e-02
  1.075387e+00    1.464684e+00   2.298462e-02
  1.077597e+00    1.476490e+00   2.306979e-02
  1.079808e+00    1.490978e+00   2.304875e-02
  1.082018e+00    1.490833e+00   2.285677e-02
  1.084229e+00    1.509547e+00   2.288787e-02
  1.086439e+00    1.615449e+00   2.358500e-02
  1.088650e+00    1.648717e+00   2.374606e-02
  1.090860e+00    1.661677e+00   2.376692e-02
  1.093071e+00    1.599497e+00   2.325273e-02
  1.095281e+00    1.542034e+00   2.277209e-02
  1.097492e+00    1.505441e+00   2.244421e-02
  1.099702e+00    1.597871e+00   2.306878e-02
  1.101912e+00    1.788793e+00   2.435366e-02
  1.104123e+00    1.733622e+00   2.392224e-02
  1.106333e+00    1.611766e+00   2.301905e-02
  1.108544e+00    1.562698e+00   2.261967e-02
  1.110754e+00    1.522294e+00   2.228090e-02
  1.112965e+00    1.472548e+00   2.187258e-02
  1.115175e+00    1.416169e+00   2.140865e-02
  1.117386e+00    1.410431e+00   2.132602e-02
  1.119596e+00    1.403824e+00   2.123825e-02
  1.121807e+00    1.416801e+00   2.129728e-02
  1.124017e+00    1.412195e+00   2.122592e-02
  1.126228e+00    1.393509e+00   2.104941e-02
  1.128438e+00    1.387772e+00   2.096945e-02
  1.130648e+00    1.390387e+00   2.095497e-02
  1.132859e+00    1.415816e+00   2.111113e-02
  1.135069e+00    1.404004e+00   2.098803e-02
  1.137280e+00    1.371327e+00   2.070958e-02
  1.139490e+00    1.357425e+00   2.057161e-02
  1.141701e+00    1.395952e+00   2.082826e-02
  1.143911e+00    1.381144e+00   2.068567e-02
  1.146122e+00    1.370978e+00   2.057749e-02
  1.148332e+00    1.360591e+00   2.046774e-02
  1.150543e+00    1.367815e+00   2.049126e-02
  1.152753e+00    1.374209e+00   2.050829e-02
  1.154963e+00    1.381696e+00   2.053295e-02
  1.157174e+00    1.395137e+00   2.060216e-02
  1.159384e+00    1.420482e+00   2.075810e-02
  1.161595e+00    1.373044e+00   2.037867e-02
  1.163805e+00    1.376600e+00   2.037569e-02
  1.166016e+00    1.372149e+00   2.031326e-02
  1.168226e+00    1.341311e+00   2.005500e-02
  1.170437e+00    1.378519e+00   2.030249e-02
  1.172647e+00    1.396871e+00   2.040798e-02
  1.174858e+00    1.390023e+00   2.032953e-02
  1.177068e+00    1.391279e+00   2.031018e-02
  1.179278e+00    1.352493e+00   1.999659e-02
  1.181489e+00    1.344854e+00   1.991316e-02
  1.183699e+00    1.385951e+00   2.018728e-02
  1.185910e+00    1.359529e+00   1.996616e-02
  1.188120e+00    1.337635e+00   1.977823e-02
  1.190331e+00    1.345549e+00   1.980998e-02
  1.192541e+00    1.347346e+00   1.979591e-02
  1.194752e+00    1.324594e+00   1.960129e-02
  1.196962e+00    1.318922e+00   1.953382e-02
  1.199173e+00    1.352375e+00   1.975350e-02
  1.201383e+00    1.354262e+00   1.974008e-02
  1.203593e+00    1.347686e+00   1.966729e-02
  1.205804e+00    1.358500e+00   1.972003e-02
  1.208014e+00    1.348761e+00   1.962239e-02
  1.210225e+00    1.315629e+00   1.935488e-02
  1.212435e+00    1.342152e+00   1.952428e-02
  1.214646e+00    1.340727e+00   1.948790e-02
  1.216856e+00    1.344567e+00   1.949036e-02
  1.219067e+00    1.329990e+00   1.936015e-02
  1.221277e+00    1.342546e+00   1.942633e-02
  1.223488e+00    1.351707e+00   1.946677e-02
  1.225698e+00    1.342159e+00   1.937105e-02
  1.227909e+00    1.370044e+00   1.954086e-02
  1.230119e+00    1.381426e+00   1.958963e-02
  1.232329e+00    1.424566e+00   1.986160e-02
  1.234540e+00    1.435533e+00   1.990668e-02
  1.236750e+00    1.427824e+00   1.982205e-02
  1.238961e+00    1.372243e+00   1.940522e-02
  1.241171e+00    1.345798e+00   1.919317e-02
  1.243382e+00    1.367721e+00   1.932519e-02
  1.245592e+00    1.371754e+00   1.932938e-02
  1.247803e+00    1.393240e+00   1.945613e-02
  1.250013e+00    1.382981e+00   1.936056e-02
  1.252224e+00    1.367357e+00   1.922748e-02
  1.254434e+00    1.351921e+00   1.909488e-02
  1.256644e+00    1.346327e+00   1.903216e-02
  1.258855e+00    1.348251e+00   1.902249e-02
  1.261065e+00    1.384276e+00   1.925128e-02
  1.263276e+00    1.394162e+00   1.929662e-02
  1.265486e+00    1.354311e+00   1.899592e-02
  1.267697e+00    1.356455e+00   1.898785e-02
  1.269907e+00    1.362137e+00   1.900478e-02
  1.272118e+00    1.360951e+00   1.897386e-02
  1.274328e+00    1.321851e+00   1.867681e-02
  1.276539e+00    1.316246e+00   1.861467e-02
  1.278749e+00    1.350952e+00   1.883617e-02
  1.280959e+00    1.347445e+00   1.878922e-02
  1.283170e+00    1.346915e+00   1.876310e-02
  1.285380e+00    1.365994e+00   1.887295e-02
  1.287591e+00    1.357783e+00   1.879405e-02
  1.289801e+00    1.359042e+00   1.878146e-02
  1.292012e+00    1.340314e+00   1.863458e-02
  1.294222e+00    1.376359e+00   1.886707e-02
  1.296433e+00    1.370993e+00   1.881455e-02
  1.298643e+00    1.392905e+00   1.894756e-02
  1.300854e+00    1.380207e+00   1.884443e-02
  1.303064e+00    1.363644e+00   1.871168e-02
  1.305274e+00    1.373947e+00   1.876060e-02
  1.307485e+00    1.377595e+00   1.876374e-02
  1.309695e+00    1.384437e+00   1.878774e-02
  1.311906e+00    1.386049e+00   1.877669e-02
  1.314116e+00    1.372696e+00   1.866507e-02
  1.316327e+00    1.343677e+00   1.844508e-02
  1.318537e+00    1.334707e+00   1.836164e-02
  1.320748e+00    1.343287e+00   1.839906e-02
  1.322958e+00    1.366400e+00   1.853604e-02
  1.325169e+00    1.358944e+00   1.846431e-02
  1.327379e+00    1.368494e+00   1.850711e-02
  1.329589e+00    1.381442e+00   1.857314e-02
  1.331800e+00    1.397772e+00   1.866155e-02
  1.334010e+00    1.394495e+00   1.861867e-02
  1.336221e+00    1.382560e+00   1.851682e-02
  1.338431e+00    1.353953e+00   1.830334e-02
  1.340642e+00    1.350743e+00   1.834582e-02
  1.342852e+00    1.349988e+00   1.844135e-02
  1.345063e+00    1.363553e+00   1.858351e-02
  1.347273e+00    1.352554e+00   1.854368e-02
  1.349484e+00    1.353844e+00   1.858024e-02
  1.351694e+00    1.356649e+00   1.862225e-02
  1.353905e+00    1.355306e+00   1.863104e-02
  1.356115e+00    1.335355e+00   1.850840e-02
  1.358325e+00    1.303777e+00   1.830131e-02
  1.360536e+00    1.350498e+00   1.863796e-02
  1.362746e+00    1.349520e+00   1.864079e-02
  1.364957e+00    1.341729e+00   1.859454e-02
  1.367167e+00    1.336942e+00   1.856846e-02
  1.369378e+00    1.354221e+00   1.869411e-02
  1.371588e+00    1.344803e+00   1.863414e-02
  1.373799e+00    1.319319e+00   1.846037e-02
  1.376009e+00    1.341210e+00   1.861629e-02
  1.378220e+00    1.311176e+00   1.840917e-02
  1.380430e+00    1.293353e+00   1.828631e-02
  1.382640e+00    1.294848e+00   1.829774e-02
  1.384851e+00    1.329232e+00   1.853999e-02
  1.387061e+00    1.329776e+00   1.854409e-02
  1.389272e+00    1.270514e+00   1.812638e-02
  1.391482e+00    1.273763e+00   1.814885e-02
  1.393693e+00    1.302270e+00   1.834994e-02
  1.395903e+00    1.270539e+00   1.812353e-02
  1.398114e+00    1.268693e+00   1.810897e-02
  1.400324e+00    1.285021e+00   1.822299e-02
  1.402535e+00    1.277800e+00   1.816943e-02
  1.404745e+00    1.267598e+00   1.809437e-02
  1.406955e+00    1.268129e+00   1.809547e-02
  1.409166e+00    1.283185e+00   1.819927e-02
  1.411376e+00    1.264516e+00   1.806327e-02
  1.413587e+00    1.264212e+00   1.805731e-02
  1.415797e+00    1.237643e+00   1.786306e-02
  1.418008e+00    1.241284e+00   1.784791e-02
  1.420218e+00    1.257183e+00   1.781287e-02
  1.422429e+00    1.261700e+00   1.775982e-02
  1.424639e+00    1.266973e+00   1.773228e-02
  1.426850e+00    1.258036e+00   1.761520e-02
  1.429060e+00    1.261568e+00   1.759107e-02
  1.431270e+00    1.259368e+00   1.753161e-02
  1.433481e+00    1.265840e+00   1.753570e-02
  1.435691e+00    1.276962e+00   1.757405e-02
  1.437902e+00    1.248683e+00   1.734220e-02
  1.440112e+00    1.266830e+00   1.743246e-02
  1.442323e+00    1.255004e+00   1.731804e-02
  1.444533e+00    1.278488e+00   1.744669e-02
  1.446744e+00    1.255026e+00   1.725490e-02
  1.448954e+00    1.282917e+00   1.741523e-02
  1.451165e+00    1.277552e+00   1.734894e-02
  1.453375e+00    1.251677e+00   1.714451e-02
  1.455586e+00    1.271943e+00   1.725455e-02
  1.457796e+00    1.272493e+00   1.723076e-02
  1.460006e+00    1.266494e+00   1.716287e-02
  1.462217e+00    1.277591e+00   1.721159e-02
  1.464427e+00    1.283181e+00   1.722346e-02
  1.466638e+00    1.284215e+00   1.720494e-02
  1.468848e+00    1.266031e+00   1.705739e-02
  1.471059e+00    1.263573e+00   1.701580e-02
  1.473269e+00    1.257906e+00   1.695331e-02
  1.475480e+00    1.264241e+00   1.697223e-02
  1.477690e+00    1.253285e+00   1.687484e-02
  1.479901e+00    1.266014e+00   1.693649e-02
  1.482111e+00    1.265358e+00   1.690882e-02
  1.484321e+00    1.262621e+00   1.686740e-02
  1.486532e+00    1.297445e+00   1.707586e-02
  1.488742e+00    1.275956e+00   1.691110e-02
  1.490953e+00    1.256927e+00   1.676199e-02
  1.493163e+00    1.284566e+00   1.692280e-02
  1.495374e+00    1.279652e+00   1.686879e-02
  1.497584e+00    1.258544e+00   1.670746e-02
  1.499795e+00    1.257279e+00   1.667743e-02
  1.502005e+00    1.263993e+00   1.670018e-02
  1.504216e+00    1.256779e+00   1.663145e-02
  1.506426e+00    1.236551e+00   1.647642e-02
  1.508636e+00    1.256634e+00   1.658923e-02
  1.510847e+00    1.275892e+00   1.669388e-02
  1.513057e+00    1.263891e+00   1.659002e-02
  1.515268e+00    1.284182e+00   1.669664e-02
  1.517478e+00    1.264794e+00   1.654488e-02
  1.519689e+00    1.231091e+00   1.629822e-02
  1.521899e+00    1.261600e+00   1.647575e-02
  1.524110e+00    1.240254e+00   1.631555e-02
  1.526320e+00    1.249653e+00   1.635768e-02
  1.528531e+00    1.271105e+00   1.647755e-02
  1.530741e+00    1.278554e+00   1.650642e-02
  1.532951e+00    1.257221e+00   1.634849e-02
  1.535162e+00    1.232417e+00   1.627241e-02
  1.537372e+00    1.249162e+00   1.644948e-02
  1.539583e+00    1.263413e+00   1.657750e-02
  1.541793e+00    1.215677e+00   1.626818e-02
  1.544004e+00    1.219192e+00   1.629191e-02
  1.546214e+00    1.231366e+00   1.637155e-02
  1.548425e+00    1.239836e+00   1.642803e-02
  1.550635e+00    1.249435e+00   1.650120e-02
  1.552846e+00    1.215136e+00   1.628267e-02
  1.555056e+00    1.229255e+00   1.633576e-02
  1.557266e+00    1.256731e+00   1.640633e-02
  1.559477e+00    1.272297e+00   1.644785e-02
  1.561687e+00    1.246912e+00   1.625226e-02
  1.563898e+00    1.240492e+00   1.619321e-02
  1.566108e+00    1.237471e+00   1.615757e-02
  1.568319e+00    1.273940e+00   1.637812e-02
  1.570529e+00    1.245188e+00   1.616711e-02
  1.572740e+00    1.249389e+00   1.616669e-02
  1.574950e+00    1.273052e+00   1.629244e-02
  1.577161e+00    1.233203e+00   1.601009e-02
  1.579371e+00    1.244655e+00   1.606056e-02
  1.581582e+00    1.255216e+00   1.610872e-02
  1.583792e+00    1.236048e+00   1.596728e-02
  1.586002e+00    1.260101e+00   1.610415e-02
  1.588213e+00    1.249832e+00   1.602114e-02
  1.590423e+00    1.229965e+00   1.587332e-02
  1.592634e+00    1.242382e+00   1.593165e-02
  1.594844e+00    1.224641e+00   1.579624e-02
  1.597055e+00    1.235813e+00   1.584769e-02
  1.599265e+00    1.237007e+00   1.583466e-02
  1.601476e+00    1.233136e+00   1.578962e-02
  1.603686e+00    1.244553e+00   1.584275e-02
  1.605897e+00    1.252427e+00   1.587252e-02
  1.608107e+00    1.258739e+00   1.589274e-02
  1.610317e+00    1.291918e+00   1.608107e-02
  1.612528e+00    1.367621e+00   1.652537e-02
  1.614738e+00    1.311258e+00   1.616176e-02
  1.616949e+00    1.219068e+00   1.556432e-02
  1.619159e+00    1.208163e+00   1.547592e-02
  1.621370e+00    1.239925e+00   1.565942e-02
  1.623580e+00    1.204740e+00   1.541739e-02
  1.625791e+00    1.190757e+00   1.530951e-02
  1.628001e+00    1.199110e+00   1.534490e-02
  1.630212e+00    1.162408e+00   1.509070e-02
  1.632422e+00    1.180842e+00   1.519203e-02
  1.634632e+00    1.193974e+00   1.525888e-02
  1.636843e+00    1.179228e+00   1.514681e-02
  1.639053e+00    1.161332e+00   1.501425e-02
  1.641264e+00    1.149620e+00   1.492139e-02
  1.643474e+00    1.138802e+00   1.483380e-02
  1.645685e+00    1.122022e+00   1.470772e-02
  1.647895e+00    1.122184e+00   1.469241e-02
  1.650106e+00    1.163238e+00   1.494165e-02
  1.652316e+00    1.204472e+00   1.518731e-02
  1.654527e+00    1.186911e+00   1.505918e-02
  1.656737e+00    1.137341e+00   1.472481e-02
  1.658947e+00    1.136947e+00   1.470592e-02
  1.661158e+00    1.126000e+00   1.461871e-02
  1.663368e+00    1.133638e+00   1.465210e-02
  1.665579e+00    1.106478e+00   1.445948e-02
  1.667789e+00    1.097065e+00   1.438172e-02
  1.670000e+00    1.102980e+00   1.440503e-02
  1.672210e+00    1.104091e+00   1.439643e-02
  1.674421e+00    1.109928e+00   1.441910e-02
  1.676631e+00    1.068068e+00   1.412895e-02
  1.678842e+00    1.084939e+00   1.422442e-02
  1.681052e+00    1.082229e+00   1.419135e-02
  1.683263e+00    1.060908e+00   1.403593e-02
  1.685473e+00    1.092490e+00   1.422808e-02
  1.687683e+00    1.098413e+00   1.425110e-02
  1.689894e+00    1.127895e+00   1.442495e-02
  1.692104e+00    1.202466e+00   1.487840e-02
  1.694315e+00    1.267512e+00   1.525977e-02
  1.696525e+00    1.184453e+00   1.473539e-02
  1.698736e+00    1.105556e+00   1.422105e-02
  1.700946e+00    1.080449e+00   1.404336e-02
  1.703157e+00    1.100911e+00   1.416076e-02
  1.705367e+00    1.112792e+00   1.422208e-02
  1.707578e+00    1.088501e+00   1.405117e-02
  1.709788e+00    1.040027e+00   1.372066e-02
  1.711998e+00    1.017553e+00   1.355676e-02
  1.714209e+00    1.025941e+00   1.359817e-02
  1.716419e+00    1.020943e+00   1.355085e-02
  1.718630e+00    1.016723e+00   1.350863e-02
  1.720840e+00    1.029192e+00   1.357703e-02
  1.723051e+00    1.024730e+00   1.353371e-02
  1.725261e+00    1.035140e+00   1.358748e-02
  1.727472e+00    1.041632e+00   1.361570e-02
  1.729682e+00    1.031773e+00   1.353753e-02
  1.731893e+00    1.057513e+00   1.369113e-02
  1.734103e+00    1.067751e+00   1.374308e-02
  1.736313e+00    1.035513e+00   1.351981e-02
  1.738524e+00    1.007323e+00   1.332065e-02
  1.740734e+00    9.881687e-01   1.317975e-02
  1.742945e+00    9.803212e-01   1.311398e-02
  1.745155e+00    9.954920e-01   1.320158e-02
  1.747366e+00    1.006645e+00   1.326141e-02
  1.749576e+00    9.819053e-01   1.308379e-02
  1.751787e+00    9.887829e-01   1.311614e-02
  1.753997e+00    9.956156e-01   1.314789e-02
  1.756208e+00    9.949050e-01   1.312987e-02
  1.758418e+00    9.890766e-01   1.307812e-02
  1.760628e+00    1.009350e+00   1.319783e-02
  1.762839e+00    1.070486e+00   1.357771e-02
  1.765049e+00    1.078867e+00   1.361694e-02
  1.767260e+00    1.028652e+00   1.328298e-02
  1.769470e+00    1.044651e+00   1.337229e-02
  1.771681e+00    1.140439e+00   1.395747e-02
  1.773891e+00    1.189248e+00   1.423853e-02
  1.776102e+00    1.060590e+00   1.343271e-02
  1.778312e+00    9.689029e-01   1.282601e-02
  1.780523e+00    1.022143e+00   1.316038e-02
  1.782733e+00    1.140565e+00   1.388786e-02
  1.784944e+00    1.126736e+00   1.378936e-02
  1.787154e+00    1.034602e+00   1.320035e-02
  1.789364e+00    9.722998e-01   1.278395e-02
  1.791575e+00    9.587666e-01   1.268190e-02
  1.793785e+00    9.783787e-01   1.279818e-02
  1.795996e+00    9.674889e-01   1.271394e-02
  1.798206e+00    9.245072e-01   1.241577e-02
  1.800417e+00    9.126596e-01   1.232328e-02
  1.802627e+00    9.247221e-01   1.239245e-02
  1.804838e+00    9.191747e-01   1.234308e-02
  1.807048e+00    9.157257e-01   1.230700e-02
  1.809259e+00    9.221095e-01   1.233611e-02
  1.811469e+00    9.787605e-01   1.269381e-02
  1.813679e+00    1.089661e+00   1.337723e-02
  1.815890e+00    1.039573e+00   1.305034e-02
  1.818100e+00    9.185776e-01   1.225210e-02
  1.820311e+00    8.937606e-01   1.207066e-02
  1.822521e+00    8.829556e-01   1.198270e-02
  1.824732e+00    8.698809e-01   1.187899e-02
  1.826942e+00    8.723952e-01   1.188392e-02
  1.829153e+00    8.820561e-01   1.193787e-02
  1.831363e+00    8.833947e-01   1.193490e-02
  1.833574e+00    8.699431e-01   1.183208e-02
  1.835784e+00    8.736376e-01   1.184578e-02
  1.837994e+00    8.782076e-01   1.186502e-02
  1.840205e+00    8.681772e-01   1.178592e-02
  1.842415e+00    8.780446e-01   1.184091e-02
  1.844626e+00    8.668321e-01   1.175354e-02
  1.846836e+00    8.705110e-01   1.176699e-02
  1.849047e+00    8.788537e-01   1.181156e-02
  1.851257e+00    8.547772e-01   1.163913e-02
  1.853468e+00    8.433614e-01   1.155243e-02
  1.855678e+00    8.528798e-01   1.160860e-02
  1.857889e+00    8.603115e-01   1.165056e-02
  1.860099e+00    8.668699e-01   1.168620e-02
  1.862309e+00    8.517018e-01   1.157504e-02
  1.864520e+00    8.346938e-01   1.145039e-02
  1.866730e+00    8.580081e-01   1.159981e-02
  1.868941e+00    8.495491e-01   1.153156e-02
  1.871151e+00    8.338063e-01   1.141296e-02
  1.873362e+00    8.202901e-01   1.130892e-02
  1.875572e+00    8.349860e-01   1.139894e-02
  1.877783e+00    8.282171e-01   1.134134e-02
  1.879993e+00    8.531203e-01   1.149939e-02
  1.882204e+00    8.401521e-01   1.140079e-02
  1.884414e+00    8.514938e-01   1.146636e-02
  1.886624e+00    8.259735e-01   1.128227e-02
  1.888835e+00    8.300766e-01   1.129936e-02
  1.891045e+00    8.363050e-01   1.133080e-02
  1.893256e+00    8.315841e-01   1.128775e-02
  1.895466e+00    8.470152e-01   1.138076e-02
  1.897677e+00    8.154709e-01   1.115604e-02
  1.899887e+00    8.314829e-01   1.125406e-02
  1.902098e+00    8.254559e-01   1.120242e-02
  1.904308e+00    8.067366e-01   1.106422e-02
  1.906519e+00    8.097683e-01   1.107428e-02
  1.908729e+00    8.422540e-01   1.128354e-02
  1.910940e+00    8.814562e-01   1.153164e-02
  1.913150e+00    8.814435e-01   1.152068e-02
  1.915360e+00    8.342723e-01   1.119747e-02
  1.917571e+00    8.199648e-01   1.109018e-02
  1.919781e+00    8.000946e-01   1.094443e-02
  1.921992e+00    8.115901e-01   1.101221e-02
  1.924202e+00    7.962039e-01   1.089670e-02
  1.926413e+00    8.130857e-01   1.100134e-02
  1.928623e+00    8.094472e-01   1.096619e-02
  1.930834e+00    8.005194e-01   1.089518e-02
  1.933044e+00    8.011901e-01   1.088916e-02
  1.935255e+00    7.926713e-01   1.082089e-02
  1.937465e+00    8.051941e-01   1.089564e-02
  1.939675e+00    8.188271e-01   1.097658e-02
  1.941886e+00    8.046295e-01   1.087073e-02
  1.944096e+00    7.861648e-01   1.073519e-02
  1.946307e+00    7.902941e-01   1.075308e-02
  1.948517e+00    8.093147e-01   1.087120e-02
  1.950728e+00    8.071628e-01   1.084645e-02
  1.952938e+00    8.063090e-01   1.083058e-02
  1.955149e+00    7.926497e-01   1.072821e-02
  1.957359e+00    8.044239e-01   1.079752e-02
  1.959570e+00    7.837122e-01   1.064682e-02
  1.961780e+00    8.003072e-01   1.074898e-02
  1.963990e+00    7.935292e-01   1.069325e-02
  1.966201e+00    7.872210e-01   1.064062e-02
  1.968411e+00    7.828738e-01   1.060108e-02
  1.970622e+00    7.884087e-01   1.062840e-02
  1.972832e+00    8.037187e-01   1.072101e-02
  1.975043e+00    7.863865e-01   1.059477e-02
  1.977253e+00    7.835634e-01   1.056576e-02
  1.979464e+00    7.853450e-01   1.056775e-02
  1.981674e+00    7.725528e-01   1.047112e-02
  1.983885e+00    7.791414e-01   1.050566e-02
  1.986095e+00    7.909965e-01   1.057553e-02
  1.988305e+00    7.853298e-01   1.052764e-02
  1.990516e+00    7.940778e-01   1.057610e-02
  1.992726e+00    7.921480e-01   1.055348e-02
  1.994937e+00    8.260234e-01   1.076633e-02
  1.997147e+00    8.038515e-01   1.061096e-02
  1.999358e+00    7.850808e-01   1.047642e-02
  2.001568e+00    7.862552e-01   1.047335e-02
  2.003779e+00    7.837714e-01   1.044479e-02
  2.005989e+00    7.798146e-01   1.040629e-02
  2.008200e+00    8.022010e-01   1.054287e-02
  2.010410e+00    7.783612e-01   1.037321e-02
  2.012621e+00    7.931809e-01   1.045959e-02
  2.014831e+00    7.737733e-01   1.031933e-02
  2.017041e+00    7.657914e-01   1.025558e-02
  2.019252e+00    7.591237e-01   1.020093e-02
  2.021462e+00    7.508748e-01   1.013593e-02
  2.023673e+00    7.629420e-01   1.020766e-02
  2.025883e+00    7.711394e-01   1.025280e-02
  2.028094e+00    7.419721e-01   1.004752e-02
  2.030304e+00    7.605224e-01   1.016279e-02
  2.032515e+00    7.716708e-01   1.022766e-02
  2.034725e+00    7.611068e-01   1.014797e-02
  2.036936e+00    7.428903e-01   1.001655e-02
  2.039146e+00    7.435580e-01   1.001154e-02
  2.041356e+00    7.550830e-01   1.007922e-02
  2.043567e+00    7.475438e-01   1.001950e-02
  2.045777e+00    7.556115e-01   1.006418e-02
  2.047988e+00    7.619214e-01   1.009670e-02
  2.050198e+00    7.657660e-01   1.011365e-02
  2.052409e+00    7.694681e-01   1.013031e-02
  2.054619e+00    7.624818e-01   1.007682e-02
  2.056830e+00    7.662240e-01   1.009425e-02
  2.059040e+00    7.579656e-01   1.003215e-02
  2.061251e+00    7.650813e-01   1.007182e-02
  2.063461e+00    7.647531e-01   1.006199e-02
  2.065671e+00    7.468117e-01   9.934545e-03
  2.067882e+00    7.414988e-01   9.890189e-03
  2.070092e+00    7.623252e-01   1.001882e-02
  2.072303e+00    7.517729e-01   9.940076e-03
  2.074513e+00    7.570750e-01   9.965671e-03
  2.076724e+00    7.505701e-01   9.913264e-03
  2.078934e+00    7.587361e-01   9.957943e-03
  2.081145e+00    7.527249e-01   9.909297e-03
  2.083355e+00    7.477703e-01   9.867401e-03
  2.085566e+00    7.475541e-01   9.857028e-03
  2.087776e+00    7.463766e-01   9.839724e-03
  2.089986e+00    7.322784e-01   9.737598e-03
  2.092197e+00    7.367058e-01   9.758027e-03
  2.094407e+00    7.579695e-01   9.888480e-03
  2.096618e+00    7.572712e-01   9.874914e-03
  2.098828e+00    7.393433e-01   9.747983e-03
  2.101039e+00    7.437490e-01   9.767928e-03
  2.103249e+00    7.477632e-01   9.785482e-03
  2.105460e+00    7.322842e-01   9.674658e-03
  2.107670e+00    7.305597e-01   9.654506e-03
  2.109881e+00    7.215162e-01   9.585427e-03
  2.112091e+00    7.225050e-01   9.583032e-03
  2.114301e+00    7.255839e-01   9.594642e-03
  2.116512e+00    7.387458e-01   9.672374e-03
  2.118722e+00    7.270948e-01   9.586971e-03
  2.120933e+00    7.092297e-01   9.459637e-03
  2.123143e+00    7.364746e-01   9.630611e-03
  2.125354e+00    7.239249e-01   9.539644e-03
  2.127564e+00    7.335470e-01   9.594006e-03
  2.129775e+00    7.188534e-01   9.488679e-03
  2.131985e+00    7.172341e-01   9.468911e-03
  2.134196e+00    6.959708e-01   9.319013e-03
  2.136406e+00    6.938321e-01   9.296053e-03
  2.138617e+00    7.130814e-01   9.415627e-03
  2.140827e+00    7.158327e-01   9.449952e-03
  2.143037e+00    7.127770e-01   9.475388e-03
  2.145248e+00    7.073908e-01   9.461561e-03
  2.147458e+00    7.032059e-01   9.448660e-03
  2.149669e+00    7.110539e-01   9.513144e-03
  2.151879e+00    7.163321e-01   9.557720e-03
  2.154090e+00    6.997728e-01   9.453901e-03
  2.156300e+00    6.899396e-01   9.393809e-03
  2.158511e+00    6.860754e-01   9.372710e-03
  2.160721e+00    6.722469e-01   9.282492e-03
  2.162932e+00    6.805304e-01   9.343202e-03
  2.165142e+00    6.962824e-01   9.453729e-03
  2.167352e+00    6.961498e-01   9.455743e-03
  2.169563e+00    7.040962e-01   9.511531e-03
  2.171773e+00    6.837961e-01   9.375859e-03
  2.173984e+00    6.792178e-01   9.345775e-03
  2.176194e+00    7.064067e-01   9.532240e-03
  2.178405e+00    6.855304e-01   9.391001e-03
  2.180615e+00    7.016613e-01   9.501549e-03
  2.182826e+00    6.957381e-01   9.462039e-03
  2.185036e+00    6.824896e-01   9.371569e-03
  2.187247e+00    6.826397e-01   9.372540e-03
  2.189457e+00    7.053723e-01   9.526898e-03
  2.191667e+00    6.999312e-01   9.489940e-03
  2.193878e+00    6.799012e-01   9.352581e-03
  2.196088e+00    6.911083e-01   9.428661e-03
  2.198299e+00    7.042651e-01   9.516867e-03
  2.200509e+00    7.064796e-01   9.530783e-03
  2.202720e+00    6.788031e-01   9.341059e-03
  2.204930e+00    6.939344e-01   9.443348e-03
  2.207141e+00    6.888636e-01   9.407659e-03
  2.209351e+00    6.995822e-01   9.478660e-03
  2.211562e+00    6.730890e-01   9.295843e-03
  2.213772e+00    6.705460e-01   9.223028e-03
  2.215982e+00    6.698788e-01   9.174443e-03
  2.218193e+00    6.737305e-01   9.171174e-03
  2.220403e+00    6.720825e-01   9.135423e-03
  2.222614e+00    6.714632e-01   9.110299e-03
  2.224824e+00    6.703032e-01   9.083084e-03
  2.227035e+00    6.589060e-01   8.988285e-03
  2.229245e+00    6.685238e-01   9.036702e-03
  2.231456e+00    6.675276e-01   9.014403e-03
  2.233666e+00    6.631724e-01   8.969937e-03
  2.235877e+00    6.701425e-01   9.002694e-03
  2.238087e+00    6.909292e-01   9.127548e-03
  2.240298e+00    6.797025e-01   9.039246e-03
  2.242508e+00    6.739269e-01   8.985545e-03
  2.244718e+00    6.763883e-01   8.986056e-03
  2.246929e+00    6.627874e-01   8.880885e-03
  2.249139e+00    6.584606e-01   8.839554e-03
  2.251350e+00    6.759606e-01   8.944446e-03
  2.253560e+00    6.621395e-01   8.841034e-03
  2.255771e+00    6.521153e-01   8.762547e-03
  2.257981e+00    6.451550e-01   8.704649e-03
  2.260192e+00    6.644644e-01   8.822841e-03
  2.262402e+00    6.650876e-01   8.816121e-03
  2.264613e+00    6.656413e-01   8.808945e-03
  2.266823e+00    6.568707e-01   8.740370e-03
  2.269033e+00    6.506192e-01   8.688389e-03
  2.271244e+00    6.527064e-01   8.692001e-03
  2.273454e+00    6.591757e-01   8.724730e-03
  2.275665e+00    6.522904e-01   8.668827e-03
  2.277875e+00    6.532842e-01   8.665551e-03
  2.280086e+00    6.609005e-01   8.705869e-03
  2.282296e+00    6.434886e-01   8.581136e-03
  2.284507e+00    6.607504e-01   8.685315e-03
  2.286717e+00    6.507142e-01   8.609695e-03
  2.288928e+00    6.506264e-01   8.599298e-03
  2.291138e+00    6.512758e-01   8.594196e-03
  2.293348e+00    6.556498e-01   8.613467e-03
  2.295559e+00    6.637971e-01   8.657455e-03
  2.297769e+00    6.469021e-01   8.537369e-03
  2.299980e+00    6.506258e-01   8.552603e-03
  2.302190e+00    6.482077e-01   8.527592e-03
  2.304401e+00    6.629210e-01   8.614440e-03
  2.306611e+00    6.466593e-01   8.498967e-03
  2.308822e+00    6.557689e-01   8.550193e-03
  2.311032e+00    6.658965e-01   8.609449e-03
  2.313243e+00    6.556797e-01   8.536848e-03
  2.315453e+00    6.655282e-01   8.593049e-03
  2.317663e+00    6.508446e-01   8.488585e-03
  2.319874e+00    6.425654e-01   8.425705e-03
  2.322084e+00    6.494895e-01   8.462003e-03
  2.324295e+00    6.654091e-01   8.556710e-03
  2.326505e+00    6.702183e-01   8.578354e-03
  2.328716e+00    6.666473e-01   8.546776e-03
  2.330926e+00    6.566545e-01   8.473581e-03
  2.333137e+00    6.726720e-01   8.567739e-03
  2.335347e+00    6.382397e-01   8.336745e-03
  2.337558e+00    6.376069e-01   8.324361e-03
  2.339768e+00    6.504625e-01   8.399250e-03
  2.341979e+00    6.485284e-01   8.378305e-03
  2.344189e+00    6.341243e-01   8.276381e-03
  2.346399e+00    6.362395e-01   8.281669e-03
  2.348610e+00    6.310691e-01   8.239530e-03
  2.350820e+00    6.232845e-01   8.180451e-03
  2.353031e+00    6.403251e-01   8.283172e-03
  2.355241e+00    6.394781e-01   8.269622e-03
  2.357452e+00    6.254048e-01   8.169740e-03
  2.359662e+00    6.321929e-01   8.205721e-03
  2.361873e+00    6.497513e-01   8.310550e-03
  2.364083e+00    6.319214e-01   8.187713e-03
  2.366294e+00    6.308647e-01   8.172748e-03
  2.368504e+00    6.302340e-01   8.160568e-03
  2.370714e+00    6.140031e-01   8.046810e-03
  2.372925e+00    6.150410e-01   8.045614e-03
  2.375135e+00    6.180757e-01   8.057424e-03
  2.377346e+00    6.133613e-01   8.018770e-03
  2.379556e+00    6.082621e-01   7.977552e-03
  2.381767e+00    6.075004e-01   7.964786e-03
  2.383977e+00    6.104555e-01   7.976257e-03
  2.386188e+00    6.249102e-01   8.062192e-03
  2.388398e+00    6.198217e-01   8.021341e-03
  2.390609e+00    6.123583e-01   7.965202e-03
  2.392819e+00    6.154854e-01   7.977744e-03
  2.395029e+00    6.184713e-01   7.989395e-03
  2.397240e+00    6.135794e-01   7.949879e-03
  2.399450e+00    6.043885e-01   7.882357e-03
  2.401661e+00    6.138387e-01   7.936049e-03
  2.403871e+00    6.094518e-01   7.899896e-03
  2.406082e+00    6.152088e-01   7.929654e-03
  2.408292e+00    6.076898e-01   7.873266e-03
  2.410503e+00    6.123801e-01   7.896084e-03
  2.412713e+00    6.074575e-01   7.856479e-03
  2.414924e+00    6.000847e-01   7.801207e-03
  2.417134e+00    5.949403e-01   7.760127e-03
  2.419344e+00    5.932577e-01   7.741795e-03
  2.421555e+00    5.930237e-01   7.732822e-03
  2.423765e+00    5.916840e-01   7.716723e-03
  2.425976e+00    5.839015e-01   7.658111e-03
  2.428186e+00    5.754680e-01   7.595522e-03
  2.430397e+00    5.935792e-01   7.706660e-03
  2.432607e+00    5.929998e-01   7.695642e-03
  2.434818e+00    5.895972e-01   7.666025e-03
  2.437028e+00    5.827441e-01   7.614269e-03
  2.439239e+00    5.979430e-01   7.705223e-03
  2.441449e+00    5.894315e-01   7.643032e-03
  2.443659e+00    5.802298e-01   7.575839e-03
  2.445870e+00    5.826094e-01   7.603557e-03
  2.448080e+00    5.543508e-01   7.450784e-03
  2.450291e+00    5.655056e-01   7.541809e-03
  2.452501e+00    5.661398e-01   7.557112e-03
  2.454712e+00    5.758383e-01   7.630002e-03
  2.456922e+00    5.785116e-01   7.654372e-03
  2.459133e+00    5.600381e-01   7.536560e-03
  2.461343e+00    5.603502e-01   7.542993e-03
  2.463554e+00    5.402222e-01   7.409675e-03
  2.465764e+00    5.394696e-01   7.407563e-03
  2.467975e+00    5.601577e-01   7.550556e-03
  2.470185e+00    5.625473e-01   7.568900e-03
  2.472395e+00    5.672502e-01   7.601720e-03
  2.474606e+00    5.604684e-01   7.557708e-03
  2.476816e+00    5.504772e-01   7.490790e-03
  2.479027e+00    5.337525e-01   7.376945e-03
  2.481237e+00    5.552637e-01   7.524390e-03
  2.483448e+00    5.476871e-01   7.473210e-03
  2.485658e+00    5.409176e-01   7.426729e-03
  2.487869e+00    5.374860e-01   7.403167e-03
  2.490079e+00    5.356538e-01   7.390023e-03
  2.492290e+00    5.452428e-01   7.455436e-03
  2.494500e+00    5.348230e-01   7.383128e-03
  2.496710e+00    5.494391e-01   7.482630e-03
  2.498921e+00    5.421136e-01   7.431580e-03
  2.501131e+00    5.381056e-01   7.403117e-03
  2.503342e+00    5.338619e-01   7.372584e-03
  2.505552e+00    5.498073e-01   7.480736e-03
  2.507763e+00    5.313951e-01   7.353001e-03
  2.509973e+00    5.211063e-01   7.280074e-03
  2.512184e+00    5.264735e-01   7.315853e-03
  2.514394e+00    5.292450e-01   7.325705e-03
  2.516605e+00    5.438759e-01   7.378427e-03
  2.518815e+00    5.756419e-01   7.561215e-03
  2.521025e+00    5.740036e-01   7.528565e-03
  2.523236e+00    5.559124e-01   7.390469e-03
  2.525446e+00    5.509599e-01   7.341505e-03
  2.527657e+00    5.359285e-01   7.225906e-03
  2.529867e+00    5.492604e-01   7.300721e-03
  2.532078e+00    5.452163e-01   7.258483e-03
  2.534288e+00    5.452484e-01   7.244535e-03
  2.536499e+00    5.268719e-01   7.109452e-03
  2.538709e+00    5.304813e-01   7.122691e-03
  2.540920e+00    5.277349e-01   7.093553e-03
  2.543130e+00    5.172163e-01   7.012215e-03
  2.545340e+00    5.279721e-01   7.074638e-03
  2.547551e+00    5.241088e-01   7.038758e-03
  2.549761e+00    5.166895e-01   6.979221e-03
  2.551972e+00    5.174699e-01   6.975179e-03
  2.554182e+00    5.274556e-01   7.032929e-03
  2.556393e+00    5.167694e-01   6.952266e-03
  2.558603e+00    5.197025e-01   6.962895e-03
  2.560814e+00    5.156350e-01   6.926928e-03
  2.563024e+00    5.294287e-01   7.010300e-03
  2.565235e+00    5.199476e-01   6.937753e-03
  2.567445e+00    5.044830e-01   6.824362e-03
  2.569656e+00    5.084262e-01   6.841335e-03
  2.571866e+00    5.163801e-01   6.885275e-03
  2.574076e+00    5.357981e-01   7.004127e-03
  2.576287e+00    5.174004e-01   6.874476e-03
  2.578497e+00    5.300599e-01   6.950119e-03
  2.580708e+00    5.252227e-01   6.910184e-03
  2.582918e+00    5.101219e-01   6.802390e-03
  2.585129e+00    5.156161e-01   6.831167e-03
  2.587339e+00    5.109537e-01   6.792550e-03
  2.589550e+00    5.074246e-01   6.761547e-03
  2.591760e+00    5.176957e-01   6.821841e-03
  2.593971e+00    5.043181e-01   6.725675e-03
  2.596181e+00    5.013106e-01   6.699414e-03
  2.598391e+00    5.011485e-01   6.693196e-03
  2.600602e+00    5.049149e-01   6.712400e-03
  2.602812e+00    5.071787e-01   6.719938e-03
  2.605023e+00    4.978053e-01   6.650441e-03
  2.607233e+00    5.036663e-01   6.682365e-03
  2.609444e+00    5.120364e-01   6.730408e-03
  2.611654e+00    5.173526e-01   6.757855e-03
  2.613865e+00    5.089048e-01   6.695408e-03
  2.616075e+00    5.040128e-01   6.656025e-03
  2.618286e+00    5.037665e-01   6.647408e-03
  2.620496e+00    5.072221e-01   6.663453e-03
  2.622706e+00    5.202824e-01   6.742872e-03
  2.624917e+00    5.067284e-01   6.648606e-03
  2.627127e+00    5.037414e-01   6.623246e-03
  2.629338e+00    4.952418e-01   6.561198e-03
  2.631548e+00    4.915758e-01   6.530771e-03
  2.633759e+00    4.942901e-01   6.541676e-03
  2.635969e+00    5.095188e-01   6.634950e-03
  2.638180e+00    5.009605e-01   6.572032e-03
  2.640390e+00    5.105112e-01   6.627688e-03
  2.642601e+00    5.001799e-01   6.553643e-03
  2.644811e+00    4.974258e-01   6.528515e-03
  2.647021e+00    4.967809e-01   6.517737e-03
  2.649232e+00    4.927345e-01   6.484469e-03
  2.651442e+00    4.995062e-01   6.522358e-03
  2.653653e+00    5.066531e-01   6.562018e-03
  2.655863e+00    5.133501e-01   6.598462e-03
  2.658074e+00    4.989485e-01   6.498635e-03
  2.660284e+00    5.033085e-01   6.520565e-03
  2.662495e+00    4.916415e-01   6.437835e-03
  2.664705e+00    4.969214e-01   6.465738e-03
  2.666916e+00    5.095680e-01   6.540949e-03
  2.669126e+00    4.866705e-01   6.385915e-03
  2.671337e+00    4.942954e-01   6.429165e-03
  2.673547e+00    4.996201e-01   6.457292e-03
  2.675757e+00    4.988606e-01   6.445912e-03
  2.677968e+00    4.906505e-01   6.386148e-03
  2.680178e+00    4.867132e-01   6.354106e-03
  2.682389e+00    4.921673e-01   6.383238e-03
  2.684599e+00    4.994771e-01   6.424221e-03
  2.686810e+00    4.972107e-01   6.403009e-03
  2.689020e+00    4.817681e-01   6.296553e-03
  2.691231e+00    4.946121e-01   6.373607e-03
  2.693441e+00    5.079105e-01   6.452492e-03
  2.695652e+00    4.949896e-01   6.363333e-03
  2.697862e+00    4.875346e-01   6.308909e-03
  2.700072e+00    4.735360e-01   6.211705e-03
  2.702283e+00    4.817005e-01   6.258821e-03
  2.704493e+00    4.961676e-01   6.345814e-03
  2.706704e+00    4.826889e-01   6.252641e-03
  2.708914e+00    5.045089e-01   6.386337e-03
  2.711125e+00    4.930745e-01   6.307303e-03
  2.713335e+00    4.753181e-01   6.186647e-03
  2.715546e+00    4.908212e-01   6.280255e-03
  2.717756e+00    4.912434e-01   6.277045e-03
  2.719967e+00    4.730628e-01   6.153657e-03
  2.722177e+00    4.904656e-01   6.259670e-03
  2.724387e+00    4.898101e-01   6.249353e-03
  2.726598e+00    4.858405e-01   6.217927e-03
  2.728808e+00    4.813923e-01   6.183262e-03
  2.731019e+00    4.782198e-01   6.156768e-03
  2.733229e+00    4.851782e-01   6.195596e-03
  2.735440e+00    4.862372e-01   6.196065e-03
  2.737650e+00    4.866863e-01   6.192897e-03
  2.739861e+00    4.835383e-01   6.166758e-03
  2.742071e+00    4.911780e-01   6.209497e-03
  2.744282e+00    4.858713e-01   6.169590e-03
  2.746492e+00    4.830676e-01   6.145727e-03
  2.748702e+00    4.953843e-01   6.217593e-03
  2.750913e+00    4.726863e-01   6.067759e-03
  2.753123e+00    4.753811e-01   6.078927e-03
  2.755334e+00    4.862659e-01   6.142035e-03
  2.757544e+00    4.806325e-01   6.100610e-03
  2.759755e+00    4.858349e-01   6.127606e-03
  2.761965e+00    4.863462e-01   6.124841e-03
  2.764176e+00    4.720843e-01   6.028419e-03
  2.766386e+00    4.774697e-01   6.056922e-03
  2.768597e+00    4.762064e-01   6.043068e-03
  2.770807e+00    4.718245e-01   6.009367e-03
  2.773017e+00    4.752093e-01   6.024945e-03
  2.775228e+00    4.720823e-01   5.999322e-03
  2.777438e+00    4.819760e-01   6.056064e-03
  2.779649e+00    4.758260e-01   6.011408e-03
  2.781859e+00    4.738165e-01   5.992958e-03
  2.784070e+00    4.847324e-01   6.055696e-03
  2.786280e+00    4.818730e-01   6.032018e-03
  2.788491e+00    4.832882e-01   6.034985e-03
  2.790701e+00    4.806170e-01   6.012630e-03
  2.792912e+00    4.682190e-01   5.928644e-03
  2.795122e+00    4.838850e-01   6.021236e-03
  2.797333e+00    4.775786e-01   5.976286e-03
  2.799543e+00    4.752471e-01   5.955841e-03
  2.801753e+00    4.793323e-01   5.975483e-03
  2.803964e+00    4.901706e-01   6.036925e-03
  2.806174e+00    4.778103e-01   5.954164e-03
  2.808385e+00    4.835506e-01   5.982957e-03
  2.810595e+00    4.760369e-01   5.929423e-03
  2.812806e+00    4.704298e-01   5.887828e-03
  2.815016e+00    4.633937e-01   5.838908e-03
  2.817227e+00    4.781137e-01   5.956982e-03
  2.819437e+00    4.645495e-01   5.882857e-03
  2.821648e+00    4.625228e-01   5.872248e-03
  2.823858e+00    4.678632e-01   5.911380e-03
  2.826068e+00    4.589723e-01   5.859834e-03
  2.828279e+00    4.739525e-01   5.958738e-03
  2.830489e+00    4.721779e-01   5.950923e-03
  2.832700e+00    4.663652e-01   5.916710e-03
  2.834910e+00    4.733947e-01   5.963210e-03
  2.837121e+00    4.763768e-01   5.983675e-03
  2.839331e+00    4.717270e-01   5.955644e-03
  2.841542e+00    4.789837e-01   6.002281e-03
  2.843752e+00    4.829494e-01   6.027905e-03
  2.845963e+00    4.672455e-01   5.929464e-03
  2.848173e+00    4.726411e-01   5.963689e-03
  2.850383e+00    4.629825e-01   5.902747e-03
  2.852594e+00    4.795369e-01   6.007241e-03
  2.854804e+00    4.770678e-01   5.991270e-03
  2.857015e+00    4.788971e-01   6.002300e-03
  2.859225e+00    4.753781e-01   5.979959e-03
  2.861436e+00    4.660866e-01   5.920579e-03
  2.863646e+00    4.569458e-01   5.862265e-03
  2.865857e+00    4.568532e-01   5.862003e-03
  2.868067e+00    4.681720e-01   5.934396e-03
  2.870278e+00    4.665762e-01   5.923936e-03
  2.872488e+00    4.663399e-01   5.921260e-03
  2.874698e+00    4.602712e-01   5.881574e-03
  2.876909e+00    4.575275e-01   5.862691e-03
  2.879119e+00    4.616658e-01   5.887525e-03
  2.881330e+00    4.603607e-01   5.877739e-03
  2.883540e+00    4.671469e-01   5.919487e-03
  2.885751e+00    4.715636e-01   5.945764e-03
  2.887961e+00    4.614820e-01   5.879975e-03
  2.890172e+00    4.507036e-01   5.809310e-03
  2.892382e+00    4.628551e-01   5.885290e-03
  2.894593e+00    4.696799e-01   5.926702e-03
  2.896803e+00    4.634854e-01   5.885502e-03
  2.899014e+00    4.580721e-01   5.849116e-03
  2.901224e+00    4.493399e-01   5.791130e-03
  2.903434e+00    4.624909e-01   5.873311e-03
  2.905645e+00    4.628379e-01   5.873299e-03
  2.907855e+00    4.538013e-01   5.813573e-03
  2.910066e+00    4.634899e-01   5.873221e-03
  2.912276e+00    4.611141e-01   5.856040e-03
  2.914487e+00    4.710268e-01   5.916130e-03
  2.916697e+00    4.720406e-01   5.920274e-03
  2.918908e+00    4.563338e-01   5.818924e-03
  2.921118e+00    4.629605e-01   5.858306e-03
  2.923329e+00    4.698669e-01   5.899508e-03
  2.925539e+00    4.718329e-01   5.909515e-03
  2.927749e+00    4.716286e-01   5.905896e-03
  2.929960e+00    4.608894e-01   5.835469e-03
  2.932170e+00    4.704307e-01   5.893208e-03
  2.934381e+00    4.566354e-01   5.803730e-03
  2.936591e+00    4.490485e-01   5.752730e-03
  2.938802e+00    4.620097e-01   5.832441e-03
  2.941012e+00    4.546868e-01   5.783712e-03
  2.943223e+00    4.629445e-01   5.833269e-03
  2.945433e+00    4.658418e-01   5.847719e-03
  2.947644e+00    4.649818e-01   5.838135e-03
  2.949854e+00    4.758143e-01   5.901396e-03
  2.952064e+00    4.567375e-01   5.777658e-03
  2.954275e+00    4.587430e-01   5.785879e-03
  2.956485e+00    4.644560e-01   5.817573e-03
  2.958696e+00    4.698007e-01   5.846514e-03
  2.960906e+00    4.663392e-01   5.820698e-03
  2.963117e+00    4.617586e-01   5.787513e-03
  2.965327e+00    4.684759e-01   5.825509e-03
  2.967538e+00    4.637548e-01   5.793141e-03
  2.969748e+00    4.559967e-01   5.741636e-03
  2.971959e+00    4.614189e-01   5.772533e-03
  2.974169e+00    4.637243e-01   5.784309e-03
  2.976379e+00    4.633447e-01   5.779007e-03
  2.978590e+00    4.603347e-01   5.757046e-03
  2.980800e+00    4.537660e-01   5.713030e-03
  2.983011e+00    4.473382e-01   5.669638e-03
  2.985221e+00    4.515671e-01   5.693235e-03
  2.987432e+00    4.567461e-01   5.722655e-03
  2.989642e+00    4.585479e-01   5.731312e-03
  2.991853e+00    4.574763e-01   5.721309e-03
  2.994063e+00    4.541827e-01   5.697763e-03
  2.996274e+00    4.573559e-01   5.714451e-03
  2.998484e+00    4.515042e-01   5.675076e-03
  3.000694e+00    4.607115e-01   5.729165e-03
  3.002905e+00    4.634095e-01   5.742945e-03
  3.005115e+00    4.534824e-01   5.678128e-03
  3.007326e+00    4.701000e-01   5.778004e-03
  3.009536e+00    4.650058e-01   5.743332e-03
  3.011747e+00    4.631669e-01   5.729003e-03
  3.013957e+00    4.659145e-01   5.742755e-03
  3.016168e+00    4.516821e-01   5.651110e-03
  3.018378e+00    4.621606e-01   5.713200e-03
  3.020589e+00    4.580440e-01   5.684486e-03
  3.022799e+00    4.442795e-01   5.595278e-03
  3.025010e+00    4.510338e-01   5.634412e-03
  3.027220e+00    4.537625e-01   5.648326e-03
  3.029430e+00    4.554846e-01   5.655770e-03
  3.031641e+00    4.519454e-01   5.630615e-03
  3.033851e+00    4.518287e-01   5.626381e-03
  3.036062e+00    4.670984e-01   5.717803e-03
  3.038272e+00    4.685107e-01   5.722838e-03
  3.040483e+00    4.542746e-01   5.631978e-03
  3.042693e+00    4.551780e-01   5.634287e-03
  3.044904e+00    4.651684e-01   5.691692e-03
  3.047114e+00    4.577204e-01   5.641127e-03
  3.049325e+00    4.522181e-01   5.602699e-03
  3.051535e+00    4.397839e-01   5.520793e-03
  3.053745e+00    4.588629e-01   5.634482e-03
  3.055956e+00    4.620774e-01   5.649562e-03
  3.058166e+00    4.520798e-01   5.583842e-03
  3.060377e+00    4.559604e-01   5.602948e-03
  3.062587e+00    4.474504e-01   5.545804e-03
  3.064798e+00    4.433074e-01   5.515845e-03
  3.067008e+00    4.596103e-01   5.611561e-03
  3.069219e+00    4.675045e-01   5.654960e-03
  3.071429e+00    4.690962e-01   5.660989e-03
  3.073640e+00    4.574717e-01   5.587063e-03
  3.075850e+00    4.602951e-01   5.600619e-03
  3.078060e+00    4.574369e-01   5.580095e-03
  3.080271e+00    4.573362e-01   5.575967e-03
  3.082481e+00    4.537107e-01   5.550352e-03
  3.084692e+00    4.508140e-01   5.529221e-03
  3.086902e+00    4.592418e-01   5.577379e-03
  3.089113e+00    4.523566e-01   5.531823e-03
  3.091323e+00    4.500399e-01   5.514260e-03
  3.093534e+00    4.387392e-01   5.441261e-03
  3.095744e+00    4.560421e-01   5.544075e-03
  3.097955e+00    4.396091e-01   5.439803e-03
  3.100165e+00    4.356728e-01   5.412065e-03
  3.102375e+00    4.410838e-01   5.442200e-03
  3.104586e+00    4.365380e-01   5.410620e-03
  3.106796e+00    4.420430e-01   5.441123e-03
  3.109007e+00    4.368168e-01   5.405673e-03
  3.111217e+00    4.485898e-01   5.474342e-03
  3.113428e+00    4.504395e-01   5.482180e-03
  3.115638e+00    4.514668e-01   5.485178e-03
  3.117849e+00    4.421933e-01   5.424844e-03
  3.120059e+00    4.457153e-01   5.442929e-03
  3.122270e+00    4.540959e-01   5.490568e-03
  3.124480e+00    4.435985e-01   5.423062e-03
  3.126691e+00    4.403212e-01   5.399449e-03
  3.128901e+00    4.430710e-01   5.413152e-03
  3.131111e+00    4.458427e-01   5.426224e-03
  3.133322e+00    4.419948e-01   5.399322e-03
  3.135532e+00    4.348999e-01   5.352439e-03
  3.137743e+00    4.492923e-01   5.436772e-03
  3.139953e+00    4.396185e-01   5.374289e-03
  3.142164e+00    4.277079e-01   5.312772e-03
  3.144374e+00    4.246055e-01   5.321292e-03
  3.146585e+00    4.410136e-01   5.437675e-03
  3.148795e+00    4.407845e-01   5.447031e-03
  3.151006e+00    4.341246e-01   5.414188e-03
  3.153216e+00    4.425090e-01   5.473362e-03
  3.155426e+00    4.478416e-01   5.512579e-03
  3.157637e+00    4.534104e-01   5.552387e-03
  3.159847e+00    4.440446e-01   5.499622e-03
  3.162058e+00    4.432148e-01   5.498933e-03
  3.164268e+00    4.446574e-01   5.511960e-03
  3.166479e+00    4.318658e-01   5.435714e-03
  3.168689e+00    4.389632e-01   5.483555e-03
  3.170900e+00    4.503746e-01   5.557590e-03
  3.173110e+00    4.347132e-01   5.462969e-03
  3.175321e+00    4.302042e-01   5.437040e-03
  3.177531e+00    4.363126e-01   5.478222e-03
  3.179741e+00    4.418567e-01   5.515005e-03
  3.181952e+00    4.337368e-01   5.466197e-03
  3.184162e+00    4.368030e-01   5.487684e-03
  3.186373e+00    4.178025e-01   5.368569e-03
  3.188583e+00    4.197564e-01   5.382835e-03
  3.190794e+00    4.303356e-01   5.451992e-03
  3.193004e+00    4.386493e-01   5.505647e-03
  3.195215e+00    4.540870e-01   5.603233e-03
  3.197425e+00    4.446619e-01   5.546019e-03
  3.199636e+00    4.266095e-01   5.431499e-03
  3.201846e+00    4.461665e-01   5.553990e-03
  3.204056e+00    4.359169e-01   5.490711e-03
  3.206267e+00    4.268446e-01   5.434120e-03
  3.208477e+00    4.411219e-01   5.525172e-03
  3.210688e+00    4.319621e-01   5.468376e-03
  3.212898e+00    4.262430e-01   5.432608e-03
  3.215109e+00    4.253188e-01   5.427463e-03
  3.217319e+00    4.395162e-01   5.517945e-03
  3.219530e+00    4.394064e-01   5.517664e-03
  3.221740e+00    4.135372e-01   5.353331e-03
  3.223951e+00    4.143339e-01   5.358934e-03
  3.226161e+00    4.271077e-01   5.441098e-03
  3.228372e+00    4.304969e-01   5.463178e-03
  3.230582e+00    4.312490e-01   5.468098e-03
  3.232792e+00    4.233625e-01   5.418080e-03
  3.235003e+00    4.263715e-01   5.437535e-03
  3.237213e+00    4.253061e-01   5.430857e-03
  3.239424e+00    4.270470e-01   5.441959e-03
  3.241634e+00    4.280792e-01   5.448652e-03
  3.243845e+00    4.355800e-01   5.496249e-03
  3.246055e+00    4.387639e-01   5.516015e-03
  3.248266e+00    4.317455e-01   5.471949e-03
  3.250476e+00    4.343684e-01   5.488217e-03
  3.252687e+00    4.302994e-01   5.462384e-03
  3.254897e+00    4.365888e-01   5.502031e-03
  3.257107e+00    4.424427e-01   5.538479e-03
  3.259318e+00    4.358431e-01   5.496772e-03
  3.261528e+00    4.331175e-01   5.479428e-03
  3.263739e+00    4.259406e-01   5.433284e-03
  3.265949e+00    4.198629e-01   5.394260e-03
  3.268160e+00    4.262804e-01   5.434890e-03
  3.270370e+00    4.346282e-01   5.487358e-03
  3.272581e+00    4.272343e-01   5.440183e-03
  3.274791e+00    4.255148e-01   5.428716e-03
  3.277002e+00    4.184193e-01   5.382702e-03
  3.279212e+00    4.265074e-01   5.434083e-03
  3.281422e+00    4.415467e-01   5.528469e-03
  3.283633e+00    4.384290e-01   5.508245e-03
  3.285843e+00    4.320849e-01   5.467901e-03
  3.288054e+00    4.282032e-01   5.442341e-03
  3.290264e+00    4.144594e-01   5.353967e-03
  3.292475e+00    4.265273e-01   5.430531e-03
  3.294685e+00    4.240206e-01   5.413921e-03
  3.296896e+00    4.156091e-01   5.359187e-03
  3.299106e+00    4.277751e-01   5.436507e-03
  3.301317e+00    4.250425e-01   5.418092e-03
  3.303527e+00    4.263819e-01   5.426150e-03
  3.305737e+00    4.237919e-01   5.408606e-03
  3.307948e+00    4.231792e-01   5.404010e-03
  3.310158e+00    4.312824e-01   5.454655e-03
  3.312369e+00    4.231895e-01   5.402359e-03
  3.314579e+00    4.233993e-01   5.402768e-03
  3.316790e+00    4.303110e-01   5.445990e-03
  3.319000e+00    4.256043e-01   5.414913e-03
  3.321211e+00    4.311896e-01   5.449731e-03
  3.323421e+00    4.304925e-01   5.444120e-03
  3.325632e+00    4.255221e-01   5.411695e-03
  3.327842e+00    4.312877e-01   5.447304e-03
  3.330052e+00    4.284670e-01   5.428393e-03
  3.332263e+00    4.216725e-01   5.384184e-03
  3.334473e+00    4.138459e-01   5.333031e-03
  3.336684e+00    4.305239e-01   5.438191e-03
  3.338894e+00    4.240378e-01   5.396204e-03
  3.341105e+00    4.298628e-01   5.431938e-03
  3.343315e+00    4.307377e-01   5.436309e-03
  3.345526e+00    4.167501e-01   5.346402e-03
  3.347736e+00    4.221105e-01   5.379281e-03
  3.349947e+00    4.285382e-01   5.419122e-03
  3.352157e+00    4.316112e-01   5.437343e-03
  3.354368e+00    4.336795e-01   5.449029e-03
  3.356578e+00    4.253231e-01   5.395264e-03
  3.358788e+00    4.105290e-01   5.299282e-03
  3.360999e+00    4.138862e-01   5.319653e-03
  3.363209e+00    4.178107e-01   5.343807e-03
  3.365420e+00    4.291106e-01   5.414038e-03
  3.367630e+00    4.186501e-01   5.346653e-03
  3.369841e+00    4.180479e-01   5.341355e-03
  3.372051e+00    4.248232e-01   5.382472e-03
  3.374262e+00    4.226664e-01   5.366333e-03
  3.376472e+00    4.139894e-01   5.308545e-03
  3.378683e+00    4.107809e-01   5.285427e-03
  3.380893e+00    4.178146e-01   5.328143e-03
  3.383103e+00    4.188924e-01   5.332293e-03
  3.385314e+00    4.175388e-01   5.321452e-03
  3.387524e+00    4.173464e-01   5.317464e-03
  3.389735e+00    4.165641e-01   5.309870e-03
  3.391945e+00    4.027910e-01   5.217706e-03
  3.394156e+00    4.095972e-01   5.257383e-03
  3.396366e+00    4.134468e-01   5.278642e-03
  3.398577e+00    4.043161e-01   5.217000e-03
  3.400787e+00    4.058826e-01   5.238937e-03
  3.402998e+00    3.883664e-01   5.161690e-03
  3.405208e+00    4.019194e-01   5.271542e-03
  3.407418e+00    4.066358e-01   5.318291e-03
  3.409629e+00    4.005748e-01   5.292446e-03
  3.411839e+00    3.969740e-01   5.280355e-03
  3.414050e+00    3.902128e-01   5.246107e-03
  3.416260e+00    3.779095e-01   5.172160e-03
  3.418471e+00    4.038265e-01   5.356094e-03
  3.420681e+00    4.012606e-01   5.347679e-03
  3.422892e+00    4.025907e-01   5.364627e-03
  3.425102e+00    3.991717e-01   5.349714e-03
  3.427313e+00    4.028793e-01   5.381847e-03
  3.429523e+00    3.832642e-01   5.256198e-03
  3.431733e+00    3.840926e-01   5.268547e-03
  3.433944e+00    3.835309e-01   5.271145e-03
  3.436154e+00    3.875315e-01   5.304852e-03
  3.438365e+00    3.781687e-01   5.246285e-03
  3.440575e+00    3.858048e-01   5.304951e-03
  3.442786e+00    3.812492e-01   5.279156e-03
  3.444996e+00    3.873942e-01   5.327105e-03
  3.447207e+00    3.748657e-01   5.245577e-03
  3.449417e+00    3.683166e-01   5.240152e-03
  3.451628e+00    3.715906e-01   5.292956e-03
  3.453838e+00    3.894963e-01   5.440750e-03
  3.456049e+00    3.734619e-01   5.351718e-03
  3.458259e+00    3.804828e-01   5.424134e-03
  3.460469e+00    3.744826e-01   5.401189e-03
  3.462680e+00    3.635747e-01   5.340942e-03
  3.464890e+00    3.774743e-01   5.460126e-03
  3.467101e+00    3.734177e-01   5.448340e-03
  3.469311e+00    3.834241e-01   5.537666e-03
  3.471522e+00    3.914097e-01   5.611805e-03
  3.473732e+00    3.975708e-01   5.672133e-03
  3.475943e+00    4.009381e-01   5.712173e-03
  3.478153e+00    4.251478e-01   5.898282e-03
  3.480364e+00    4.176522e-01   5.861673e-03
  3.482574e+00    4.171038e-01   5.873404e-03
  3.484784e+00    4.201634e-01   5.909937e-03
  3.486995e+00    4.481218e-01   6.119081e-03
  3.489205e+00    4.322736e-01   6.024741e-03
  3.491416e+00    4.369747e-01   6.072479e-03
  3.493626e+00    4.414504e-01   6.118225e-03
  3.495837e+00    4.499154e-01   6.191496e-03
  3.498047e+00    4.514808e-01   6.216860e-03
  3.500258e+00    4.608684e-01   6.295879e-03
  3.502468e+00    4.649667e-01   6.338419e-03
  3.504679e+00    4.742117e-01   6.415799e-03
  3.506889e+00    4.963802e-01   6.578959e-03
  3.509099e+00    4.960569e-01   6.591583e-03
  3.511310e+00    4.781018e-01   6.485664e-03
  3.513520e+00    4.805610e-01   6.516697e-03
  3.515731e+00    4.974336e-01   6.644669e-03
  3.517941e+00    5.085194e-01   6.732929e-03
  3.520152e+00    5.202174e-01   6.824623e-03
  3.522362e+00    5.072368e-01   6.753535e-03
  3.524573e+00    5.268184e-01   6.897176e-03
  3.526783e+00    5.136921e-01   6.824166e-03
  3.528994e+00    5.004051e-01   6.747340e-03
  3.531204e+00    5.277648e-01   6.941866e-03
  3.533414e+00    5.366052e-01   7.011968e-03
  3.535625e+00    5.447845e-01   7.077808e-03
  3.537835e+00    5.311343e-01   7.000625e-03
  3.540046e+00    5.574765e-01   7.181283e-03
  3.542256e+00    5.292447e-01   7.004564e-03
  3.544467e+00    5.304013e-01   7.019768e-03
  3.546677e+00    5.536968e-01   7.179994e-03
  3.548888e+00    5.347305e-01   7.063411e-03
  3.551098e+00    5.444576e-01   7.134757e-03
  3.553309e+00    5.332722e-01   7.069186e-03
  3.555519e+00    5.582657e-01   7.244491e-03
  3.557729e+00    5.574224e-01   7.250989e-03
  3.559940e+00    5.480595e-01   7.201511e-03
  3.562150e+00    5.434409e-01   7.182881e-03
  3.564361e+00    5.283287e-01   7.095535e-03
  3.566571e+00    5.357959e-01   7.159335e-03
  3.568782e+00    5.312791e-01   7.143147e-03
  3.570992e+00    5.310874e-01   7.155532e-03
  3.573203e+00    5.283811e-01   7.151333e-03
  3.575413e+00    5.315999e-01   7.186801e-03
  3.577624e+00    5.398114e-01   7.256269e-03
  3.579834e+00    5.298721e-01   7.202952e-03
  3.582045e+00    5.374104e-01   7.268086e-03
  3.584255e+00    5.429537e-01   7.319566e-03
  3.586465e+00    5.472213e-01   7.362377e-03
  3.588676e+00    5.599751e-01   7.462201e-03
  3.590886e+00    5.560561e-01   7.449999e-03
  3.593097e+00    5.445533e-01   7.387153e-03
  3.595307e+00    5.534601e-01   7.461492e-03
  3.597518e+00    5.275347e-01   7.298750e-03
  3.599728e+00    5.306928e-01   7.334573e-03
  3.601939e+00    5.418491e-01   7.425415e-03
  3.604149e+00    5.529068e-01   7.515416e-03
  3.606360e+00    5.705154e-01   7.648798e-03
  3.608570e+00    5.539836e-01   7.551572e-03
  3.610780e+00    5.305036e-01   7.400819e-03
  3.612991e+00    5.286112e-01   7.397532e-03
  3.615201e+00    5.243906e-01   7.377669e-03
  3.617412e+00    5.305337e-01   7.427974e-03
  3.619622e+00    5.326304e-01   7.448606e-03
  3.621833e+00    5.446438e-01   7.538867e-03
  3.624043e+00    5.480071e-01   7.571771e-03
  3.626254e+00    5.402972e-01   7.528099e-03
  3.628464e+00    5.343882e-01   7.497783e-03
  3.630675e+00    5.286119e-01   7.471166e-03
  3.632885e+00    5.474163e-01   7.617553e-03
  3.635095e+00    5.406708e-01   7.584948e-03
  3.637306e+00    5.322538e-01   7.540044e-03
  3.639516e+00    5.335483e-01   7.563747e-03
  3.641727e+00    5.329629e-01   7.574138e-03
  3.643937e+00    5.363015e-01   7.612440e-03
  3.646148e+00    5.415370e-01   7.664178e-03
  3.648358e+00    5.572738e-01   7.790001e-03
  3.650569e+00    5.160773e-01   7.510990e-03
  3.652779e+00    5.345270e-01   7.658885e-03
  3.654990e+00    5.413585e-01   7.722680e-03
  3.657200e+00    5.414194e-01   7.738124e-03
  3.659410e+00    5.429746e-01   7.764353e-03
  3.661621e+00    5.359969e-01   7.729494e-03
  3.663831e+00    5.263528e-01   7.674643e-03
  3.666042e+00    5.480753e-01   7.846812e-03
  3.668252e+00    5.370792e-01   7.783051e-03
  3.670463e+00    5.445818e-01   7.852620e-03
  3.672673e+00    5.236544e-01   7.715603e-03
  3.674884e+00    5.249738e-01   7.740590e-03
  3.677094e+00    5.352940e-01   7.831905e-03
  3.679305e+00    5.277341e-01   7.791963e-03
  3.681515e+00    5.282068e-01   7.810961e-03
  3.683726e+00    5.369447e-01   7.891279e-03
  3.685936e+00    5.254893e-01   7.822271e-03
  3.688146e+00    5.330548e-01   7.894236e-03
  3.690357e+00    5.253846e-01   7.853155e-03
  3.692567e+00    5.235398e-01   7.855417e-03
  3.694778e+00    5.232387e-01   7.869135e-03
  3.696988e+00    5.296678e-01   7.933396e-03
  3.699199e+00    5.385318e-01   8.015925e-03
  3.701409e+00    5.303599e-01   7.971370e-03
  3.703620e+00    5.203098e-01   7.911678e-03
  3.705830e+00    5.119291e-01   7.863950e-03
  3.708041e+00    5.131692e-01   7.889856e-03
  3.710251e+00    5.046855e-01   7.840789e-03
  3.712461e+00    5.261402e-01   8.022461e-03
  3.714672e+00    5.246288e-01   8.027785e-03
  3.716882e+00    5.137552e-01   7.960721e-03
  3.719093e+00    5.128880e-01   7.970998e-03
  3.721303e+00    5.174636e-01   8.023402e-03
  3.723514e+00    5.219710e-01   8.075597e-03
  3.725724e+00    5.189117e-01   8.069051e-03
  3.727935e+00    5.175135e-01   8.075620e-03
  3.730145e+00    5.220811e-01   8.128631e-03
  3.732356e+00    5.136607e-01   8.080254e-03
  3.734566e+00    5.339746e-01   8.256325e-03
  3.736776e+00    5.371817e-01   8.299267e-03
  3.738987e+00    5.260229e-01   8.230560e-03
  3.741197e+00    5.144845e-01   8.157778e-03
  3.743408e+00    5.271599e-01   8.275974e-03
  3.745618e+00    5.311317e-01   8.325733e-03
  3.747829e+00    5.215622e-01   8.268662e-03
  3.750039e+00    5.056905e-01   8.160159e-03
  3.752250e+00    4.982905e-01   8.118468e-03
  3.754460e+00    4.976845e-01   8.131796e-03
  3.756671e+00    5.237612e-01   8.361201e-03
  3.758881e+00    5.199952e-01   8.349965e-03
  3.761091e+00    5.139731e-01   8.320696e-03
  3.763302e+00    5.035807e-01   8.255142e-03
  3.765512e+00    5.010852e-01   8.253816e-03
  3.767723e+00    5.054057e-01   8.308604e-03
  3.769933e+00    4.935728e-01   8.229844e-03
  3.772144e+00    5.129871e-01   8.409866e-03
  3.774354e+00    5.113924e-01   8.416737e-03
  3.776565e+00    5.073840e-01   8.403619e-03
  3.778775e+00    4.935025e-01   8.307533e-03
  3.780986e+00    5.205994e-01   8.553221e-03
  3.783196e+00    5.276937e-01   8.632034e-03
  3.785407e+00    5.039946e-01   8.456483e-03
  3.787617e+00    5.081421e-01   8.511974e-03
  3.789827e+00    5.309476e-01   8.722039e-03
  3.792038e+00    5.022433e-01   8.503807e-03
  3.794248e+00    5.037356e-01   8.537719e-03
  3.796459e+00    4.798234e-01   8.353427e-03
  3.798669e+00    5.013912e-01   8.560523e-03
  3.800880e+00    5.132529e-01   8.682908e-03
  3.803090e+00    4.953320e-01   8.551708e-03
  3.805301e+00    5.065382e-01   8.670120e-03
  3.807511e+00    4.813243e-01   8.473139e-03
  3.809722e+00    5.265698e-01   8.885280e-03
  3.811932e+00    5.114437e-01   8.779246e-03
  3.814142e+00    4.998885e-01   8.702355e-03
  3.816353e+00    5.249539e-01   8.941302e-03
  3.818563e+00    5.183335e-01   8.908335e-03
  3.820774e+00    5.079276e-01   8.841804e-03
  3.822984e+00    5.146014e-01   8.923483e-03
  3.825195e+00    5.039460e-01   8.854493e-03
  3.827405e+00    5.104578e-01   8.935644e-03
  3.829616e+00    5.097585e-01   8.953948e-03
  3.831826e+00    4.828811e-01   8.738509e-03
  3.834037e+00    5.110378e-01   9.014496e-03
  3.836247e+00    5.126252e-01   9.053520e-03
  3.838457e+00    5.034020e-01   8.996947e-03
  3.840668e+00    5.227647e-01   9.194192e-03
  3.842878e+00    5.255694e-01   9.245108e-03
  3.845089e+00    4.893524e-01   8.946318e-03
  3.847299e+00    4.916026e-01   8.992449e-03
  3.849510e+00    5.097088e-01   9.182851e-03
  3.851720e+00    5.143647e-01   9.246531e-03
  3.853931e+00    5.289231e-01   9.396161e-03
  3.856141e+00    4.929621e-01   9.089990e-03
  3.858352e+00    5.046425e-01   9.216582e-03
  3.860562e+00    4.973471e-01   9.169109e-03
  3.862772e+00    4.878781e-01   9.100811e-03
  3.864983e+00    4.941972e-01   9.179234e-03
  3.867193e+00    4.767536e-01   9.035287e-03
  3.869404e+00    4.603581e-01   8.897603e-03
  3.871614e+00    5.029346e-01   9.320175e-03
  3.873825e+00    4.954673e-01   9.271102e-03
  3.876035e+00    4.884610e-01   9.225760e-03
  3.878246e+00    5.112073e-01   9.464386e-03
  3.880456e+00    5.059367e-01   9.444932e-03
  3.882667e+00    4.857444e-01   9.283631e-03
  3.884877e+00    4.848755e-01   9.304859e-03
  3.887087e+00    4.947647e-01   9.429292e-03
  3.889298e+00    4.779826e-01   9.297987e-03
  3.891508e+00    4.984453e-01   9.525624e-03
  3.893719e+00    5.139901e-01   9.704775e-03
  3.895929e+00    5.092041e-01   9.691491e-03
  3.898140e+00    5.199457e-01   9.825854e-03
  3.900350e+00    5.115706e-01   9.779174e-03
  3.902561e+00    5.125196e-01   9.821360e-03
  3.904771e+00    4.976215e-01   9.710611e-03
  3.906982e+00    4.958586e-01   9.726801e-03
  3.909192e+00    5.126566e-01   9.924379e-03
  3.911403e+00    4.941084e-01   9.777507e-03
  3.913613e+00    4.975179e-01   9.845665e-03
  3.915823e+00    4.736283e-01   9.640712e-03
  3.918034e+00    4.884935e-01   9.826025e-03
  3.920244e+00    4.812651e-01   9.788576e-03
  3.922455e+00    4.925743e-01   9.939121e-03
  3.924665e+00    5.155746e-01   1.020597e-02
  3.926876e+00    4.776793e-01   9.860499e-03
  3.929086e+00    5.097768e-01   1.022451e-02
  3.931297e+00    5.155203e-01   1.031789e-02
  3.933507e+00    4.826990e-01   1.001269e-02
  3.935718e+00    5.058711e-01   1.027956e-02
  3.937928e+00    5.015469e-01   1.026536e-02
  3.940138e+00    5.057884e-01   1.033860e-02
  3.942349e+00    4.884169e-01   1.018940e-02
  3.944559e+00    4.869724e-01   1.020437e-02
  3.946770e+00    4.735759e-01   1.009273e-02
  3.948980e+00    4.675260e-01   1.005817e-02
  3.951191e+00    4.680310e-01   1.009389e-02
  3.953401e+00    4.993589e-01   1.045794e-02
  3.955612e+00    5.046923e-01   1.054587e-02
  3.957822e+00    5.186626e-01   1.072369e-02
  3.960033e+00    4.756759e-01   1.030192e-02
  3.962243e+00    5.049281e-01   1.064737e-02
  3.964453e+00    5.112675e-01   1.074801e-02
  3.966664e+00    5.154464e-01   1.082636e-02
  3.968874e+00    4.825876e-01   1.050380e-02
  3.971085e+00    4.824481e-01   1.052414e-02
  3.973295e+00    4.955524e-01   1.068776e-02
  3.975506e+00    5.046089e-01   1.080708e-02
  3.977716e+00    4.933116e-01   1.070760e-02
  3.979927e+00    4.970982e-01   1.077095e-02
  3.982137e+00    4.971560e-01   1.079418e-02
  3.984348e+00    5.048954e-01   1.090092e-02
  3.986558e+00    4.740286e-01   1.058449e-02
  3.988768e+00    4.756512e-01   1.062534e-02
  3.990979e+00    5.102444e-01   1.102827e-02
  3.993189e+00    5.075709e-01   1.102292e-02
  3.995400e+00    4.969562e-01   1.093098e-02
  3.997610e+00    4.768735e-01   1.073736e-02
  3.999821e+00    4.623308e-01   1.060899e-02
  4.002031e+00    4.555992e-01   1.056872e-02
  4.004242e+00    4.539239e-01   1.058645e-02
  4.006452e+00    4.767588e-01   1.088854e-02
  4.008663e+00    4.839297e-01   1.101011e-02
  4.010873e+00    4.631113e-01   1.080971e-02
  4.013084e+00    5.024282e-01   1.130095e-02
  4.015294e+00    5.036846e-01   1.135678e-02
  4.017504e+00    5.014211e-01   1.137399e-02
  4.019715e+00    4.741594e-01   1.110233e-02
  4.021925e+00    5.076106e-01   1.153152e-02
  4.024136e+00    4.661036e-01   1.109275e-02
  4.026346e+00    4.890531e-01   1.140693e-02
  4.028557e+00    4.855368e-01   1.141023e-02
  4.030767e+00    5.084838e-01   1.172362e-02
  4.032978e+00    4.729788e-01   1.135262e-02
  4.035188e+00    4.882269e-01   1.158063e-02
  4.037399e+00    4.762042e-01   1.148431e-02
  4.039609e+00    4.655186e-01   1.140167e-02
  4.041819e+00    4.814442e-01   1.164354e-02
  4.044030e+00    4.943495e-01   1.184912e-02
  4.046240e+00    4.630942e-01   1.151731e-02
  4.048451e+00    4.825831e-01   1.180795e-02
  4.050661e+00    5.014522e-01   1.208911e-02
  4.052872e+00    5.088035e-01   1.223149e-02
  4.055082e+00    4.919005e-01   1.208071e-02
  4.057293e+00    4.633870e-01   1.177786e-02
  4.059503e+00    5.173014e-01   1.250080e-02
  4.061714e+00    5.185614e-01   1.257467e-02
  4.063924e+00    5.278563e-01   1.274623e-02
  4.066134e+00    4.975460e-01   1.243320e-02
  4.068345e+00    5.033272e-01   1.256550e-02
  4.070555e+00    4.733584e-01   1.224435e-02
  4.072766e+00    5.235023e-01   1.293998e-02
  4.074976e+00    4.773254e-01   1.241784e-02
  4.077187e+00    5.057818e-01   1.284611e-02
  4.079397e+00    4.713220e-01   1.246412e-02
  4.081608e+00    4.884952e-01   1.275512e-02
  4.083818e+00    4.718989e-01   1.260187e-02
  4.086029e+00    4.532092e-01   1.241468e-02
  4.088239e+00    5.004990e-01   1.311676e-02
  4.090449e+00    4.675581e-01   1.274657e-02
  4.092660e+00    4.803528e-01   1.299067e-02
  4.094870e+00    5.196167e-01   1.358637e-02
  4.097081e+00    4.664818e-01   1.294368e-02
  4.099291e+00    4.816029e-01   1.320596e-02
  4.101502e+00    5.197189e-01   1.376998e-02
  4.103712e+00    5.063624e-01   1.364242e-02
  4.105923e+00    5.054308e-01   1.368276e-02
  4.108133e+00    5.071027e-01   1.375807e-02
  4.110344e+00    4.852247e-01   1.350954e-02
  4.112554e+00    4.911177e-01   1.364510e-02
  4.114764e+00    5.047387e-01   1.388841e-02
  4.116975e+00    5.070028e-01   1.397458e-02
  4.119185e+00    4.926704e-01   1.383147e-02
  4.121396e+00    5.256354e-01   1.434593e-02
  4.123606e+00    4.613120e-01   1.349442e-02
  4.125817e+00    4.707890e-01   1.368971e-02
  4.128027e+00    4.531731e-01   1.348738e-02
  4.130238e+00    4.959662e-01   1.417056e-02
  4.132448e+00    4.755226e-01   1.393556e-02
  4.134659e+00    5.141609e-01   1.455303e-02
  4.136869e+00    5.183140e-01   1.467700e-02
  4.139080e+00    4.541318e-01   1.380008e-02
  4.141290e+00    4.381729e-01   1.361550e-02
  4.143500e+00    4.901253e-01   1.446640e-02
  4.145711e+00    4.591956e-01   1.406807e-02
  4.147921e+00    4.473381e-01   1.394887e-02
  4.150132e+00    4.537820e-01   1.411585e-02
  4.152342e+00    5.412012e-01   1.549041e-02
  4.154553e+00    5.103278e-01   1.511391e-02
  4.156763e+00    5.057421e-01   1.511999e-02
  4.158974e+00    5.021829e-01   1.514263e-02
  4.161184e+00    4.674758e-01   1.468247e-02
  4.163395e+00    5.292229e-01   1.570160e-02
  4.165605e+00    5.235174e-01   1.569817e-02
  4.167815e+00    4.770326e-01   1.506317e-02
  4.170026e+00    5.228605e-01   1.585317e-02
  4.172236e+00    4.855383e-01   1.535953e-02
  4.174447e+00    4.749164e-01   1.527321e-02
  4.176657e+00    4.930126e-01   1.564637e-02
  4.178868e+00    5.338379e-01   1.637366e-02
  4.181078e+00    5.206354e-01   1.626095e-02
  4.183289e+00    4.673473e-01   1.549475e-02
  4.185499e+00    4.922468e-01   1.599570e-02
  4.187710e+00    4.917885e-01   1.608212e-02
  4.189920e+00    4.889524e-01   1.613205e-02
  4.192130e+00    4.636172e-01   1.580483e-02
  4.194341e+00    4.925890e-01   1.639082e-02
  4.196551e+00    4.486979e-01   1.574253e-02
  4.198762e+00    4.622458e-01   1.607996e-02
  4.200972e+00    4.908243e-01   1.667689e-02
  4.203183e+00    4.444543e-01   1.597406e-02
  4.205393e+00    5.062289e-01   1.716159e-02
  4.207604e+00    4.702202e-01   1.665307e-02
  4.209814e+00    4.730667e-01   1.681780e-02
  4.212025e+00    4.888456e-01   1.721678e-02
  4.214235e+00    5.430311e-01   1.827479e-02
  4.216445e+00    5.324072e-01   1.822594e-02
  4.218656e+00    5.269558e-01   1.826851e-02
  4.220866e+00    4.541554e-01   1.708532e-02
  4.223077e+00    5.041218e-01   1.813898e-02
  4.225287e+00    4.166459e-01   1.662004e-02
  4.227498e+00    5.576429e-01   1.937819e-02
  4.229708e+00    5.228320e-01   1.891654e-02
  4.231919e+00    4.997871e-01   1.864771e-02
  4.234129e+00    4.611104e-01   1.806223e-02
  4.236340e+00    4.583975e-01   1.816260e-02
  4.238550e+00    5.092735e-01   1.931350e-02
  4.240761e+00    4.582639e-01   1.848201e-02
  4.242971e+00    5.490052e-01   2.041500e-02
  4.245181e+00    4.803767e-01   1.927570e-02
  4.247392e+00    5.177864e-01   2.019937e-02
  4.249602e+00    4.853078e-01   1.974989e-02
  4.251813e+00    3.844547e-01   1.775168e-02
  4.254023e+00    3.879119e-01   1.801091e-02
  4.256234e+00    4.789175e-01   2.022582e-02
  4.258444e+00    5.116581e-01   2.112460e-02
  4.260655e+00    4.810714e-01   2.070941e-02
  4.262865e+00    4.548297e-01   2.036415e-02
  4.265076e+00    4.397480e-01   2.025186e-02
  4.267286e+00    5.572658e-01   2.306833e-02
  4.269496e+00    4.151765e-01   2.015434e-02
  4.271707e+00    4.566791e-01   2.139862e-02
  4.273917e+00    5.172507e-01   2.306781e-02
  4.276128e+00    4.613025e-01   2.207452e-02
  4.278338e+00    4.380758e-01   2.179848e-02
  4.280549e+00    4.391244e-01   2.213759e-02
  4.282759e+00    4.414732e-01   2.251589e-02
  4.284970e+00    4.858331e-01   2.396897e-02
  4.287180e+00    5.140421e-01   2.495157e-02
  4.289391e+00    4.948316e-01   2.466369e-02
  4.291601e+00    4.699287e-01   2.422724e-02
  4.293811e+00    4.494222e-01   2.387824e-02
  4.296022e+00    4.253605e-01   2.341693e-02
  4.298232e+00    4.794193e-01   2.506856e-02
  4.300443e+00    4.747472e-01   2.515213e-02
  4.302653e+00    4.728934e-01   2.531979e-02
  4.304864e+00    5.000192e-01   2.626171e-02
  4.307074e+00    4.944894e-01   2.635052e-02
  4.309285e+00    5.201443e-01   2.727170e-02
  4.311495e+00    4.244725e-01   2.486570e-02
  4.313706e+00    4.801841e-01   2.669672e-02
  4.315916e+00    4.836967e-01   2.705749e-02
  4.318126e+00    4.580126e-01   2.658983e-02
  4.320337e+00    3.925973e-01   2.486665e-02
  4.322547e+00    4.065747e-01   2.557473e-02
  4.324758e+00    4.589057e-01   2.745208e-02
  4.326968e+00    5.003363e-01   2.898779e-02
  4.329179e+00    4.863071e-01   2.889317e-02
  4.331389e+00    5.322531e-01   3.057629e-02
  4.333600e+00    5.337169e-01   3.098343e-02
  4.335810e+00    4.549448e-01   2.894658e-02
  4.338021e+00    5.015541e-01   3.078126e-02
  4.340231e+00    5.083827e-01   3.137962e-02
  4.342442e+00    5.246516e-01   3.230570e-02
  4.344652e+00    4.306597e-01   2.966661e-02
  4.346862e+00    3.986489e-01   2.894186e-02
  4.349073e+00    5.553269e-01   3.465648e-02
  4.351283e+00    4.743601e-01   3.250926e-02
  4.353494e+00    5.270689e-01   3.479779e-02
  4.355704e+00    4.045406e-01   3.097563e-02
  4.357915e+00    5.327551e-01   3.613897e-02
  4.360125e+00    6.091722e-01   3.930375e-02
  4.362336e+00    4.571193e-01   3.466814e-02
  4.364546e+00    3.527935e-01   3.101124e-02
  4.366757e+00    3.710647e-01   3.243484e-02
  4.368967e+00    5.837787e-01   4.149593e-02
  4.371177e+00    5.535204e-01   4.126450e-02
  4.373388e+00    5.457058e-01   4.188869e-02
  4.375598e+00    5.292544e-01   4.219403e-02
  4.377809e+00    4.914872e-01   4.168892e-02
  4.380019e+00    3.472055e-01   3.592350e-02
  4.382230e+00    2.078585e-01   2.856657e-02
  4.384440e+00    5.487164e-01   4.775238e-02
  4.386651e+00    4.295003e-01   4.355248e-02
  4.388861e+00    3.505686e-01   4.066563e-02
  4.391072e+00    2.709611e-01   3.701025e-02
  4.393282e+00    3.604652e-01   4.433300e-02
  4.395492e+00    3.929927e-01   4.821761e-02
  4.397703e+00    3.558081e-01   4.797803e-02
  4.399913e+00    3.766251e-01   5.185824e-02
  4.402124e+00    3.917758e-01   5.588479e-02
  4.404334e+00    5.484514e-01   7.029659e-02
  4.406545e+00    1.836741e-01   4.370760e-02
  4.408755e+00    4.047470e-01   7.036404e-02
  4.410966e+00    2.328639e-01   5.906396e-02
  4.413176e+00    2.130758e-01   6.395744e-02
  4.415387e+00   -5.993019e-01            nan
  4.417597e+00   -2.031091e+00            nan
  4.419807e+00   -3.766224e-01            nan
