# == pyFAI calibration ==
# Distance Sample to Detector: 0.216 m
# PONI: 1.166e-01, 1.308e-01 m
# Rotations: 0.000000 0.000000 0.000000 rad
# 
# == Fit2d calibration ==
# Distance Sample-beamCenter: 216.000 mm
# Center: x=1744.293, y=1555.000 pix
# Tilt: 0.000 deg  TiltPlanRot: 0.000 deg
# 
# Detector Eiger 9M	 PixelSize= 7.500e-05, 7.500e-05 m
#    Detector has a mask: True 
#    Detector has a dark current: False 
#    detector has a flat field: False 
# 
# Wavelength: 9.8e-11 m
# Mask applied: from detector
# Dark current applied: False
# Flat field applied: False
# Polarization factor: None
# Normalization factor: 1.0
# 
# Headers of the input frame:
# {
# "_array_data.header_convention": "SLS_1.0",
# "_array_data.header_contents": "# Detector: Dectris Eiger 9M, S/N E-18-0102\r\n# Pixel_size 75e-6 m x 75e-6 m\r\n# Silicon sensor, thickness 0.000450 m\r\n# Exposure_time 0.024997 s\r\n# Exposure_period 0.025000 s\r\n# Count_cutoff 62318 counts\r\n# Wavelength 0.980106 A\r\n# Detector_distance 0.215992 m\r\n# Beam_xy (1555, 1744) pixels\r\n# Start_angle 0.000000 deg.\r\n# Angle_increment 0.000000 deg.",
# "Content-Type": "application/octet-stream;",
# "conversions": "x-CBF_BYTE_OFFSET",
# "Content-Transfer-Encoding": "BINARY",
# "X-Binary-Size": "10166620",
# "X-Binary-ID": "1",
# "X-Binary-Element-Type": "signed 32-bit integer",
# "X-Binary-Element-Byte-Order": "LITTLE_ENDIAN",
# "Content-MD5": "o32eycCcgsvNGGimrTM+pw==",
# "X-Binary-Number-of-Elements": "10166590",
# "X-Binary-Size-Fastest-Dimension": "3110",
# "X-Binary-Size-Second-Dimension": "3269",
# "X-Binary-Size-Padding": "4095"
# }
# --> H:/Proxima2a_2019-04-05/RAW_DATA/C5_gel17_position5/C5_mesh_1_data.cbf/C5_mesh_1_data.cbf000115.dat
#        q_A^-1              I           sigma 
  1.105228e-03    1.057451e+00   5.564384e-01
  3.315685e-03    8.755800e-01   3.078175e-01
  5.526141e-03    1.107527e+00   2.677005e-01
  7.736597e-03    1.250570e+00   2.403113e-01
  9.947054e-03    1.044076e+00   1.935720e-01
  1.215751e-02    1.490225e+00   2.091195e-01
  1.436797e-02    1.463279e+00   1.906073e-01
  1.657842e-02    1.284534e+00   1.662330e-01
  1.878888e-02    1.366951e+00   1.610794e-01
  2.099934e-02    1.589137e+00   1.643171e-01
  2.320979e-02    1.496211e+00   1.516454e-01
  2.542025e-02    1.474969e+00   1.438802e-01
  2.763070e-02    1.555956e+00   1.417389e-01
  2.984116e-02    1.449865e+00   1.316559e-01
  3.205162e-02    1.650693e+00   1.355562e-01
  3.426207e-02    1.343769e+00   1.182871e-01
  3.647253e-02    1.364982e+00   1.155455e-01
  3.868299e-02    1.331475e+00   1.108185e-01
  4.089344e-02    1.475562e+00   1.134643e-01
  4.310390e-02    1.534358e+00   1.126905e-01
  4.531436e-02    1.480601e+00   1.079654e-01
  4.752481e-02    1.429727e+00   1.035966e-01
  4.973527e-02    1.403615e+00   1.003404e-01
  5.194572e-02    1.304074e+00   9.463546e-02
  5.415618e-02    1.345951e+00   9.415717e-02
  5.636664e-02    1.387138e+00   9.369685e-02
  5.857709e-02    1.312775e+00   8.941486e-02
  6.078755e-02    1.319528e+00   8.799674e-02
  6.299801e-02    1.417001e+00   8.957389e-02
  6.520846e-02    1.412647e+00   8.790784e-02
  6.741892e-02    1.421436e+00   8.671886e-02
  6.962938e-02    1.422910e+00   8.537979e-02
  7.183983e-02    1.429398e+00   8.424587e-02
  7.405029e-02    1.534811e+00   8.598222e-02
  7.626074e-02    1.450967e+00   8.237948e-02
  7.847120e-02    1.592946e+00   8.508921e-02
  8.068166e-02    1.568757e+00   8.327530e-02
  8.289211e-02    1.509595e+00   8.059292e-02
  8.510257e-02    1.525565e+00   7.995853e-02
  8.731303e-02    1.458872e+00   7.719219e-02
  8.952348e-02    1.455231e+00   7.614012e-02
  9.173394e-02    1.556518e+00   7.778770e-02
  9.394439e-02    1.516406e+00   7.586774e-02
  9.615485e-02    1.502010e+00   7.463216e-02
  9.836531e-02    1.534010e+00   7.456870e-02
  1.005758e-01    1.443504e+00   7.153662e-02
  1.027862e-01    1.478970e+00   7.162547e-02
  1.049967e-01    1.437660e+00   6.986956e-02
  1.072071e-01    1.577694e+00   7.243393e-02
  1.094176e-01    1.572222e+00   7.157304e-02
  1.116280e-01    1.478747e+00   6.872057e-02
  1.138385e-01    1.479863e+00   6.807441e-02
  1.160490e-01    1.473976e+00   6.728795e-02
  1.182594e-01    1.464711e+00   6.644484e-02
  1.204699e-01    1.490798e+00   6.641558e-02
  1.226803e-01    1.577456e+00   6.769756e-02
  1.248908e-01    1.565975e+00   6.685038e-02
  1.271012e-01    1.657720e+00   6.817871e-02
  1.293117e-01    1.645835e+00   6.734991e-02
  1.315222e-01    1.572242e+00   6.526990e-02
  1.337326e-01    1.551132e+00   6.429097e-02
  1.359431e-01    1.573570e+00   6.479222e-02
  1.381535e-01    1.559527e+00   6.536826e-02
  1.403640e-01    1.559291e+00   6.564555e-02
  1.425744e-01    1.552589e+00   6.560896e-02
  1.447849e-01    1.611788e+00   6.686347e-02
  1.469953e-01    1.613167e+00   6.685016e-02
  1.492058e-01    1.588649e+00   6.626312e-02
  1.514163e-01    1.569262e+00   6.574819e-02
  1.536267e-01    1.606079e+00   6.638514e-02
  1.558372e-01    1.632962e+00   6.679061e-02
  1.580476e-01    1.701115e+00   6.800476e-02
  1.602581e-01    1.630046e+00   6.639997e-02
  1.624685e-01    1.651016e+00   6.664275e-02
  1.646790e-01    1.664074e+00   6.671365e-02
  1.668895e-01    1.680797e+00   6.685442e-02
  1.690999e-01    1.649549e+00   6.603114e-02
  1.713104e-01    1.749625e+00   6.779363e-02
  1.735208e-01    1.670257e+00   6.603218e-02
  1.757313e-01    1.672371e+00   6.586683e-02
  1.779417e-01    1.837335e+00   6.881387e-02
  1.801522e-01    1.935345e+00   7.040048e-02
  1.823626e-01    1.911925e+00   6.974029e-02
  1.845731e-01    1.866197e+00   6.867805e-02
  1.867836e-01    1.926375e+00   6.954109e-02
  1.889940e-01    1.986693e+00   7.039063e-02
  1.912045e-01    2.041645e+00   7.111922e-02
  1.934149e-01    1.908358e+00   6.852844e-02
  1.956254e-01    1.918727e+00   6.848773e-02
  1.978358e-01    1.986467e+00   6.944740e-02
  2.000463e-01    2.004110e+00   6.952395e-02
  2.022568e-01    2.035519e+00   6.983668e-02
  2.044672e-01    1.927990e+00   6.773420e-02
  2.066777e-01    2.021878e+00   6.913359e-02
  2.088881e-01    2.019228e+00   6.886225e-02
  2.110986e-01    1.960340e+00   6.761800e-02
  2.133090e-01    1.993228e+00   6.796119e-02
  2.155195e-01    1.959324e+00   6.715723e-02
  2.177300e-01    1.905464e+00   6.570745e-02
  2.199404e-01    1.979038e+00   6.519949e-02
  2.221509e-01    1.942707e+00   6.353753e-02
  2.243613e-01    1.985780e+00   6.342366e-02
  2.265718e-01    2.013115e+00   6.315486e-02
  2.287822e-01    2.136059e+00   6.441081e-02
  2.309927e-01    2.177714e+00   6.444339e-02
  2.332031e-01    2.169948e+00   6.377780e-02
  2.354136e-01    2.104730e+00   6.230298e-02
  2.376241e-01    2.046649e+00   6.096046e-02
  2.398345e-01    2.172541e+00   6.234252e-02
  2.420450e-01    2.095296e+00   6.078667e-02
  2.442554e-01    2.108533e+00   6.055825e-02
  2.464659e-01    2.226663e+00   6.181372e-02
  2.486763e-01    2.176415e+00   6.071059e-02
  2.508868e-01    2.121537e+00   5.956217e-02
  2.530973e-01    2.082797e+00   5.864994e-02
  2.553077e-01    2.103471e+00   5.858281e-02
  2.575182e-01    2.082499e+00   5.794514e-02
  2.597286e-01    2.117765e+00   5.809406e-02
  2.619391e-01    2.054550e+00   5.689101e-02
  2.641495e-01    2.091322e+00   5.708018e-02
  2.663600e-01    2.057158e+00   5.630071e-02
  2.685704e-01    2.040240e+00   5.576479e-02
  2.707809e-01    2.017794e+00   5.516283e-02
  2.729914e-01    2.068554e+00   5.556129e-02
  2.752018e-01    2.035713e+00   5.483160e-02
  2.774123e-01    1.969554e+00   5.365774e-02
  2.796227e-01    1.997401e+00   5.376846e-02
  2.818332e-01    2.023063e+00   5.384279e-02
  2.840436e-01    2.008145e+00   5.338389e-02
  2.862541e-01    2.006745e+00   5.310875e-02
  2.884646e-01    2.000121e+00   5.276939e-02
  2.906750e-01    1.900520e+00   5.119484e-02
  2.928855e-01    1.925461e+00   5.129088e-02
  2.950959e-01    1.988472e+00   5.188394e-02
  2.973064e-01    2.001159e+00   5.181529e-02
  2.995168e-01    1.923171e+00   5.056552e-02
  3.017273e-01    1.918561e+00   5.028222e-02
  3.039377e-01    1.955551e+00   5.054234e-02
  3.061482e-01    1.860836e+00   4.908990e-02
  3.083587e-01    1.839409e+00   4.859517e-02
  3.105691e-01    1.947397e+00   4.978773e-02
  3.127796e-01    1.936630e+00   4.944117e-02
  3.149900e-01    2.003312e+00   5.007562e-02
  3.172005e-01    1.932770e+00   4.898496e-02
  3.194109e-01    1.916028e+00   4.857099e-02
  3.216214e-01    1.881277e+00   4.793214e-02
  3.238319e-01    1.867765e+00   4.757047e-02
  3.260423e-01    1.791932e+00   4.640917e-02
  3.282528e-01    1.819071e+00   4.657311e-02
  3.304632e-01    1.839343e+00   4.665051e-02
  3.326737e-01    1.849144e+00   4.659210e-02
  3.348841e-01    1.898391e+00   4.702541e-02
  3.370946e-01    1.871673e+00   4.651763e-02
  3.393050e-01    1.868087e+00   4.629701e-02
  3.415155e-01    1.871689e+00   4.616737e-02
  3.437260e-01    1.817446e+00   4.532487e-02
  3.459364e-01    1.805690e+00   4.501091e-02
  3.481469e-01    1.777678e+00   4.449740e-02
  3.503573e-01    1.811874e+00   4.475969e-02
  3.525678e-01    1.849409e+00   4.505979e-02
  3.547782e-01    1.836354e+00   4.473817e-02
  3.569887e-01    1.851646e+00   4.476489e-02
  3.591992e-01    1.865186e+00   4.476930e-02
  3.614096e-01    1.839455e+00   4.430528e-02
  3.636201e-01    1.812259e+00   4.382198e-02
  3.658305e-01    1.818217e+00   4.374424e-02
  3.680410e-01    1.749138e+00   4.275764e-02
  3.702514e-01    1.759641e+00   4.274159e-02
  3.724619e-01    1.804065e+00   4.313038e-02
  3.746724e-01    1.817287e+00   4.314372e-02
  3.768828e-01    1.814242e+00   4.296250e-02
  3.790933e-01    1.779880e+00   4.241505e-02
  3.813037e-01    1.753051e+00   4.195642e-02
  3.835142e-01    1.771144e+00   4.203387e-02
  3.857246e-01    1.784477e+00   4.205524e-02
  3.879351e-01    1.815009e+00   4.227621e-02
  3.901455e-01    1.773342e+00   4.165509e-02
  3.923560e-01    1.793915e+00   4.176286e-02
  3.945665e-01    1.802637e+00   4.173150e-02
  3.967769e-01    1.818263e+00   4.178074e-02
  3.989874e-01    1.788467e+00   4.130761e-02
  4.011978e-01    1.808570e+00   4.141137e-02
  4.034083e-01    1.757219e+00   4.069393e-02
  4.056187e-01    1.739340e+00   4.036166e-02
  4.078292e-01    1.783271e+00   4.074451e-02
  4.100397e-01    1.730656e+00   4.001638e-02
  4.122501e-01    1.785173e+00   4.052015e-02
  4.144606e-01    1.783893e+00   4.038554e-02
  4.166710e-01    1.730143e+00   3.965419e-02
  4.188815e-01    1.763489e+00   3.991624e-02
  4.210919e-01    1.791941e+00   4.011903e-02
  4.233024e-01    1.781259e+00   3.988164e-02
  4.255128e-01    1.772891e+00   3.967281e-02
  4.277233e-01    1.838897e+00   4.028851e-02
  4.299338e-01    1.784660e+00   3.957574e-02
  4.321442e-01    1.765643e+00   3.925165e-02
  4.343547e-01    1.785840e+00   3.936390e-02
  4.365651e-01    1.736506e+00   3.870611e-02
  4.387756e-01    1.737260e+00   3.860607e-02
  4.409860e-01    1.745470e+00   3.859001e-02
  4.431965e-01    1.704499e+00   3.802894e-02
  4.454070e-01    1.750856e+00   3.843538e-02
  4.476174e-01    1.764983e+00   3.848417e-02
  4.498279e-01    1.759491e+00   3.831971e-02
  4.520383e-01    1.767791e+00   3.830457e-02
  4.542488e-01    1.785953e+00   3.839704e-02
  4.564592e-01    1.750267e+00   3.790951e-02
  4.586697e-01    1.711583e+00   3.738874e-02
  4.608801e-01    1.703316e+00   3.719841e-02
  4.630906e-01    1.725696e+00   3.734287e-02
  4.653011e-01    1.719452e+00   3.717721e-02
  4.675115e-01    1.753498e+00   3.744460e-02
  4.697220e-01    1.702053e+00   3.679464e-02
  4.719324e-01    1.706821e+00   3.675083e-02
  4.741429e-01    1.748068e+00   3.709639e-02
  4.763533e-01    1.767922e+00   3.721084e-02
  4.785638e-01    1.704758e+00   3.644566e-02
  4.807743e-01    1.712674e+00   3.643728e-02
  4.829847e-01    1.785717e+00   3.711217e-02
  4.851952e-01    1.779064e+00   3.694925e-02
  4.874056e-01    1.803344e+00   3.710671e-02
  4.896161e-01    1.810857e+00   3.709174e-02
  4.918265e-01    1.797570e+00   3.686362e-02
  4.940370e-01    1.831312e+00   3.711614e-02
  4.962475e-01    1.798929e+00   3.669569e-02
  4.984579e-01    1.717905e+00   3.577139e-02
  5.006684e-01    1.673444e+00   3.521936e-02
  5.028788e-01    1.721148e+00   3.563127e-02
  5.050893e-01    1.744348e+00   3.578339e-02
  5.072997e-01    1.771568e+00   3.597439e-02
  5.095102e-01    1.721279e+00   3.537522e-02
  5.117206e-01    1.682430e+00   3.489055e-02
  5.139311e-01    1.700398e+00   3.499335e-02
  5.161416e-01    1.714950e+00   3.505972e-02
  5.183520e-01    1.688238e+00   3.470295e-02
  5.205625e-01    1.682007e+00   3.455769e-02
  5.227729e-01    1.690367e+00   3.456269e-02
  5.249834e-01    1.686183e+00   3.443972e-02
  5.271938e-01    1.719910e+00   3.470130e-02
  5.294043e-01    1.726838e+00   3.469086e-02
  5.316148e-01    1.748899e+00   3.483181e-02
  5.338252e-01    1.728465e+00   3.454858e-02
  5.360357e-01    1.731890e+00   3.450406e-02
  5.382461e-01    1.739000e+00   3.449666e-02
  5.404566e-01    1.717306e+00   3.420280e-02
  5.426670e-01    1.739175e+00   3.434233e-02
  5.448775e-01    1.711814e+00   3.399501e-02
  5.470879e-01    1.734317e+00   3.414142e-02
  5.492984e-01    1.739229e+00   3.411369e-02
  5.515089e-01    1.757872e+00   3.421997e-02
  5.537193e-01    1.803452e+00   3.458443e-02
  5.559298e-01    1.794668e+00   3.442441e-02
  5.581402e-01    1.799877e+00   3.439903e-02
  5.603507e-01    1.755727e+00   3.390058e-02
  5.625611e-01    1.791024e+00   3.416532e-02
  5.647716e-01    1.816286e+00   3.433075e-02
  5.669821e-01    1.761173e+00   3.373299e-02
  5.691925e-01    1.744080e+00   3.349683e-02
  5.714030e-01    1.728601e+00   3.327676e-02
  5.736134e-01    1.698351e+00   3.291416e-02
  5.758239e-01    1.754004e+00   3.337768e-02
  5.780343e-01    1.681109e+00   3.260765e-02
  5.802448e-01    1.667672e+00   3.240907e-02
  5.824552e-01    1.679613e+00   3.245664e-02
  5.846657e-01    1.678809e+00   3.238125e-02
  5.868762e-01    1.606397e+00   3.160926e-02
  5.890866e-01    1.613692e+00   3.161519e-02
  5.912971e-01    1.595777e+00   3.137414e-02
  5.935075e-01    1.598918e+00   3.134007e-02
  5.957180e-01    1.617424e+00   3.145627e-02
  5.979284e-01    1.599165e+00   3.121435e-02
  6.001389e-01    1.645613e+00   3.159993e-02
  6.023494e-01    1.705301e+00   3.210259e-02
  6.045598e-01    1.718818e+00   3.216397e-02
  6.067703e-01    1.676712e+00   3.170368e-02
  6.089807e-01    1.633706e+00   3.123154e-02
  6.111912e-01    1.638960e+00   3.121924e-02
  6.134016e-01    1.700250e+00   3.173421e-02
  6.156121e-01    1.655901e+00   3.125535e-02
  6.178226e-01    1.646363e+00   3.110350e-02
  6.200330e-01    1.661341e+00   3.118303e-02
  6.222435e-01    1.695684e+00   3.144126e-02
  6.244539e-01    1.692169e+00   3.134719e-02
  6.266644e-01    1.699204e+00   3.135098e-02
  6.288748e-01    1.716427e+00   3.144814e-02
  6.310853e-01    1.727220e+00   3.148562e-02
  6.332957e-01    1.709121e+00   3.125974e-02
  6.355062e-01    1.728151e+00   3.137223e-02
  6.377167e-01    1.687071e+00   3.093764e-02
  6.399271e-01    1.751121e+00   3.145903e-02
  6.421376e-01    1.696378e+00   3.090433e-02
  6.443480e-01    1.674105e+00   3.064235e-02
  6.465585e-01    1.677963e+00   3.061953e-02
  6.487689e-01    1.699831e+00   3.076021e-02
  6.509794e-01    1.679958e+00   3.052221e-02
  6.531899e-01    1.629600e+00   3.000473e-02
  6.554003e-01    1.606690e+00   2.973704e-02
  6.576108e-01    1.597764e+00   2.959912e-02
  6.598212e-01    1.578732e+00   2.936763e-02
  6.620317e-01    1.600532e+00   2.951489e-02
  6.642421e-01    1.578057e+00   2.925272e-02
  6.664526e-01    1.586091e+00   2.927304e-02
  6.686630e-01    1.620337e+00   2.953268e-02
  6.708735e-01    1.579662e+00   2.910617e-02
  6.730840e-01    1.568736e+00   2.895243e-02
  6.752944e-01    1.549453e+00   2.872164e-02
  6.775049e-01    1.575969e+00   2.891374e-02
  6.797153e-01    1.620955e+00   2.927041e-02
  6.819258e-01    1.585309e+00   2.889460e-02
  6.841362e-01    1.582790e+00   2.881969e-02
  6.863467e-01    1.609186e+00   2.900697e-02
  6.885572e-01    1.575341e+00   2.864888e-02
  6.907676e-01    1.550222e+00   2.836863e-02
  6.929781e-01    1.566017e+00   2.846209e-02
  6.951885e-01    1.591122e+00   2.863852e-02
  6.973990e-01    1.586516e+00   2.854649e-02
  6.996094e-01    1.584888e+00   2.848164e-02
  7.018199e-01    1.561488e+00   2.822098e-02
  7.040303e-01    1.572473e+00   2.827031e-02
  7.062408e-01    1.590140e+00   2.837890e-02
  7.084513e-01    1.601437e+00   2.842998e-02
  7.106617e-01    1.599589e+00   2.836422e-02
  7.128722e-01    1.561720e+00   2.797795e-02
  7.150826e-01    1.572655e+00   2.802735e-02
  7.172931e-01    1.551886e+00   2.779366e-02
  7.195035e-01    1.562842e+00   2.784364e-02
  7.217140e-01    1.568107e+00   2.793986e-02
  7.239245e-01    1.568973e+00   2.817390e-02
  7.261349e-01    1.552656e+00   2.813487e-02
  7.283454e-01    1.537862e+00   2.807205e-02
  7.305558e-01    1.560037e+00   2.832746e-02
  7.327663e-01    1.604567e+00   2.877181e-02
  7.349767e-01    1.576521e+00   2.853565e-02
  7.371872e-01    1.546497e+00   2.825152e-02
  7.393976e-01    1.572712e+00   2.847572e-02
  7.416081e-01    1.549104e+00   2.824516e-02
  7.438186e-01    1.563624e+00   2.823339e-02
  7.460290e-01    1.585320e+00   2.813337e-02
  7.482395e-01    1.558506e+00   2.772414e-02
  7.504499e-01    1.523710e+00   2.727886e-02
  7.526604e-01    1.530615e+00   2.722568e-02
  7.548708e-01    1.569749e+00   2.748224e-02
  7.570813e-01    1.551326e+00   2.726992e-02
  7.592918e-01    1.555800e+00   2.727423e-02
  7.615022e-01    1.549207e+00   2.718287e-02
  7.637127e-01    1.543703e+00   2.710207e-02
  7.659231e-01    1.565160e+00   2.725787e-02
  7.681336e-01    1.583684e+00   2.738701e-02
  7.703440e-01    1.595955e+00   2.746147e-02
  7.725545e-01    1.590549e+00   2.738389e-02
  7.747650e-01    1.631441e+00   2.769478e-02
  7.769754e-01    1.620396e+00   2.754744e-02
  7.791859e-01    1.573550e+00   2.709286e-02
  7.813963e-01    1.538914e+00   2.674109e-02
  7.836068e-01    1.558451e+00   2.685873e-02
  7.858172e-01    1.577980e+00   2.697597e-02
  7.880277e-01    1.555883e+00   2.673547e-02
  7.902381e-01    1.580020e+00   2.689309e-02
  7.924486e-01    1.617246e+00   2.715767e-02
  7.946591e-01    1.608618e+00   2.703669e-02
  7.968695e-01    1.604781e+00   2.695614e-02
  7.990800e-01    1.580506e+00   2.670365e-02
  8.012904e-01    1.628633e+00   2.706027e-02
  8.035009e-01    1.665099e+00   2.731287e-02
  8.057113e-01    1.670972e+00   2.731368e-02
  8.079218e-01    1.712024e+00   2.759945e-02
  8.101323e-01    1.716698e+00   2.759018e-02
  8.123427e-01    1.671414e+00   2.717745e-02
  8.145532e-01    1.630798e+00   2.679926e-02
  8.167636e-01    1.633490e+00   2.677627e-02
  8.189741e-01    1.638220e+00   2.677031e-02
  8.211845e-01    1.634693e+00   2.669666e-02
  8.233950e-01    1.645782e+00   2.674349e-02
  8.256054e-01    1.648191e+00   2.671871e-02
  8.278159e-01    1.628505e+00   2.651482e-02
  8.300264e-01    1.658383e+00   2.671360e-02
  8.322368e-01    1.641195e+00   2.653165e-02
  8.344473e-01    1.653505e+00   2.658740e-02
  8.366577e-01    1.627813e+00   2.633760e-02
  8.388682e-01    1.632230e+00   2.633114e-02
  8.410786e-01    1.616391e+00   2.616132e-02
  8.432891e-01    1.634075e+00   2.626224e-02
  8.454996e-01    1.628116e+00   2.617284e-02
  8.477100e-01    1.615386e+00   2.602892e-02
  8.499205e-01    1.621066e+00   2.603371e-02
  8.521309e-01    1.594057e+00   2.577567e-02
  8.543414e-01    1.588642e+00   2.569170e-02
  8.565518e-01    1.599927e+00   2.574264e-02
  8.587623e-01    1.623710e+00   2.589290e-02
  8.609727e-01    1.602695e+00   2.568491e-02
  8.631832e-01    1.618850e+00   2.577421e-02
  8.653937e-01    1.632209e+00   2.584059e-02
  8.676041e-01    1.605272e+00   2.558782e-02
  8.698146e-01    1.595631e+00   2.547185e-02
  8.720250e-01    1.620538e+00   2.563076e-02
  8.742355e-01    1.584669e+00   2.530695e-02
  8.764459e-01    1.602287e+00   2.540840e-02
  8.786564e-01    1.620724e+00   2.551608e-02
  8.808669e-01    1.596841e+00   2.528899e-02
  8.830773e-01    1.604931e+00   2.531480e-02
  8.852878e-01    1.582531e+00   2.509983e-02
  8.874982e-01    1.563523e+00   2.491244e-02
  8.897087e-01    1.572890e+00   2.494958e-02
  8.919191e-01    1.572942e+00   2.491258e-02
  8.941296e-01    1.553634e+00   2.472246e-02
  8.963401e-01    1.561707e+00   2.475061e-02
  8.985505e-01    1.611988e+00   2.510880e-02
  9.007610e-01    1.604388e+00   2.501277e-02
  9.029714e-01    1.606555e+00   2.499371e-02
  9.051819e-01    1.552026e+00   2.452927e-02
  9.073923e-01    1.542194e+00   2.441550e-02
  9.096028e-01    1.583309e+00   2.470409e-02
  9.118132e-01    1.605917e+00   2.484356e-02
  9.140237e-01    1.589721e+00   2.468147e-02
  9.162342e-01    1.575475e+00   2.453634e-02
  9.184446e-01    1.591461e+00   2.462483e-02
  9.206551e-01    1.604161e+00   2.468727e-02
  9.228655e-01    1.579529e+00   2.446197e-02
  9.250760e-01    1.597427e+00   2.456487e-02
  9.272864e-01    1.596372e+00   2.452257e-02
  9.294969e-01    1.616716e+00   2.464236e-02
  9.317074e-01    1.614726e+00   2.459239e-02
  9.339178e-01    1.620891e+00   2.460564e-02
  9.361283e-01    1.622692e+00   2.458301e-02
  9.383387e-01    1.619407e+00   2.452471e-02
  9.405492e-01    1.641354e+00   2.465586e-02
  9.427596e-01    1.644301e+00   2.464245e-02
  9.449701e-01    1.649484e+00   2.464773e-02
  9.471805e-01    1.678367e+00   2.482736e-02
  9.493910e-01    1.693385e+00   2.490397e-02
  9.516015e-01    1.688650e+00   2.483442e-02
  9.538119e-01    1.707602e+00   2.493917e-02
  9.560224e-01    1.699393e+00   2.484413e-02
  9.582328e-01    1.719908e+00   2.496011e-02
  9.604433e-01    1.744337e+00   2.510114e-02
  9.626537e-01    1.776271e+00   2.529582e-02
  9.648642e-01    1.773898e+00   2.524429e-02
  9.670747e-01    1.815395e+00   2.550262e-02
  9.692851e-01    1.834145e+00   2.559994e-02
  9.714956e-01    1.799695e+00   2.532263e-02
  9.737060e-01    1.785873e+00   2.519205e-02
  9.759165e-01    1.807137e+00   2.530586e-02
  9.781269e-01    1.766273e+00   2.498537e-02
  9.803374e-01    1.827620e+00   2.538040e-02
  9.825478e-01    1.805644e+00   2.519411e-02
  9.847583e-01    1.791701e+00   2.506253e-02
  9.869688e-01    1.793089e+00   2.503870e-02
  9.891792e-01    1.770126e+00   2.484479e-02
  9.913897e-01    1.721545e+00   2.446843e-02
  9.936001e-01    1.711669e+00   2.436620e-02
  9.958106e-01    1.710823e+00   2.432705e-02
  9.980210e-01    1.690807e+00   2.415296e-02
  1.000231e+00    1.629225e+00   2.383891e-02
  1.002442e+00    1.613439e+00   2.384917e-02
  1.004652e+00    1.615075e+00   2.392784e-02
  1.006863e+00    1.601132e+00   2.387375e-02
  1.009073e+00    1.590634e+00   2.383178e-02
  1.011284e+00    1.596956e+00   2.391103e-02
  1.013494e+00    1.575585e+00   2.377404e-02
  1.015705e+00    1.569043e+00   2.374707e-02
  1.017915e+00    1.528800e+00   2.345670e-02
  1.020126e+00    1.530397e+00   2.348481e-02
  1.022336e+00    1.543956e+00   2.360022e-02
  1.024547e+00    1.530154e+00   2.350567e-02
  1.026757e+00    1.521262e+00   2.344556e-02
  1.028967e+00    1.509935e+00   2.336571e-02
  1.031178e+00    1.515053e+00   2.341139e-02
  1.033388e+00    1.503091e+00   2.332381e-02
  1.035599e+00    1.491606e+00   2.323790e-02
  1.037809e+00    1.496054e+00   2.327575e-02
  1.040020e+00    1.476517e+00   2.312453e-02
  1.042230e+00    1.483263e+00   2.317920e-02
  1.044441e+00    1.487697e+00   2.321362e-02
  1.046651e+00    1.444248e+00   2.287229e-02
  1.048862e+00    1.464168e+00   2.302869e-02
  1.051072e+00    1.471988e+00   2.308778e-02
  1.053282e+00    1.477168e+00   2.312742e-02
  1.055493e+00    1.466072e+00   2.303614e-02
  1.057703e+00    1.474412e+00   2.310004e-02
  1.059914e+00    1.444594e+00   2.286110e-02
  1.062124e+00    1.447132e+00   2.287715e-02
  1.064335e+00    1.462240e+00   2.299285e-02
  1.066545e+00    1.448085e+00   2.287538e-02
  1.068756e+00    1.460352e+00   2.296834e-02
  1.070966e+00    1.441594e+00   2.281392e-02
  1.073177e+00    1.409665e+00   2.255391e-02
  1.075387e+00    1.426590e+00   2.268375e-02
  1.077597e+00    1.437096e+00   2.275996e-02
  1.079808e+00    1.417138e+00   2.247077e-02
  1.082018e+00    1.410074e+00   2.222907e-02
  1.084229e+00    1.399391e+00   2.203699e-02
  1.086439e+00    1.392308e+00   2.189561e-02
  1.088650e+00    1.421790e+00   2.205140e-02
  1.090860e+00    1.436078e+00   2.209472e-02
  1.093071e+00    1.459422e+00   2.221121e-02
  1.095281e+00    1.426962e+00   2.190596e-02
  1.097492e+00    1.405759e+00   2.168841e-02
  1.099702e+00    1.420144e+00   2.174810e-02
  1.101912e+00    1.404393e+00   2.157888e-02
  1.104123e+00    1.411511e+00   2.158570e-02
  1.106333e+00    1.377220e+00   2.127833e-02
  1.108544e+00    1.388462e+00   2.132140e-02
  1.110754e+00    1.389162e+00   2.128430e-02
  1.112965e+00    1.416986e+00   2.145594e-02
  1.115175e+00    1.407852e+00   2.134570e-02
  1.117386e+00    1.409947e+00   2.132235e-02
  1.119596e+00    1.446816e+00   2.156100e-02
  1.121807e+00    1.418569e+00   2.131058e-02
  1.124017e+00    1.409479e+00   2.120548e-02
  1.126228e+00    1.453334e+00   2.149648e-02
  1.128438e+00    1.465903e+00   2.155165e-02
  1.130648e+00    1.462983e+00   2.149506e-02
  1.132859e+00    1.640267e+00   2.272290e-02
  1.135069e+00    1.792457e+00   2.371440e-02
  1.137280e+00    1.583255e+00   2.225243e-02
  1.139490e+00    1.429088e+00   2.110768e-02
  1.141701e+00    1.454743e+00   2.126232e-02
  1.143911e+00    1.415923e+00   2.094450e-02
  1.146122e+00    1.419761e+00   2.094039e-02
  1.148332e+00    1.390361e+00   2.069046e-02
  1.150543e+00    1.375937e+00   2.055200e-02
  1.152753e+00    1.425779e+00   2.088957e-02
  1.154963e+00    1.420172e+00   2.081687e-02
  1.157174e+00    1.413481e+00   2.073718e-02
  1.159384e+00    1.430025e+00   2.082770e-02
  1.161595e+00    1.420800e+00   2.073004e-02
  1.163805e+00    1.403497e+00   2.057378e-02
  1.166016e+00    1.407703e+00   2.057473e-02
  1.168226e+00    1.447795e+00   2.083584e-02
  1.170437e+00    1.497744e+00   2.116223e-02
  1.172647e+00    1.620180e+00   2.197873e-02
  1.174858e+00    1.684667e+00   2.238070e-02
  1.177068e+00    1.567199e+00   2.155606e-02
  1.179278e+00    1.442819e+00   2.065355e-02
  1.181489e+00    1.396687e+00   2.029329e-02
  1.183699e+00    1.395668e+00   2.025793e-02
  1.185910e+00    1.373994e+00   2.007210e-02
  1.188120e+00    1.377364e+00   2.006979e-02
  1.190331e+00    1.386234e+00   2.010726e-02
  1.192541e+00    1.384329e+00   2.006575e-02
  1.194752e+00    1.371773e+00   1.994731e-02
  1.196962e+00    1.345363e+00   1.972867e-02
  1.199173e+00    1.377305e+00   1.993473e-02
  1.201383e+00    1.377900e+00   1.991161e-02
  1.203593e+00    1.390882e+00   1.997998e-02
  1.205804e+00    1.363174e+00   1.975395e-02
  1.208014e+00    1.379165e+00   1.984230e-02
  1.210225e+00    1.399212e+00   1.996023e-02
  1.212435e+00    1.357075e+00   1.963254e-02
  1.214646e+00    1.338215e+00   1.946964e-02
  1.216856e+00    1.336644e+00   1.943283e-02
  1.219067e+00    1.363719e+00   1.960410e-02
  1.221277e+00    1.334146e+00   1.936550e-02
  1.223488e+00    1.321738e+00   1.924974e-02
  1.225698e+00    1.347719e+00   1.941114e-02
  1.227909e+00    1.337715e+00   1.930893e-02
  1.230119e+00    1.342802e+00   1.931384e-02
  1.232329e+00    1.334169e+00   1.922112e-02
  1.234540e+00    1.338600e+00   1.922284e-02
  1.236750e+00    1.323503e+00   1.908419e-02
  1.238961e+00    1.315704e+00   1.900123e-02
  1.241171e+00    1.322737e+00   1.902801e-02
  1.243382e+00    1.363504e+00   1.929538e-02
  1.245592e+00    1.336048e+00   1.907618e-02
  1.247803e+00    1.309645e+00   1.886342e-02
  1.250013e+00    1.319925e+00   1.891404e-02
  1.252224e+00    1.315584e+00   1.885995e-02
  1.254434e+00    1.314442e+00   1.882834e-02
  1.256644e+00    1.327912e+00   1.890155e-02
  1.258855e+00    1.335990e+00   1.893580e-02
  1.261065e+00    1.347915e+00   1.899677e-02
  1.263276e+00    1.326915e+00   1.882548e-02
  1.265486e+00    1.306129e+00   1.865493e-02
  1.267697e+00    1.336080e+00   1.884471e-02
  1.269907e+00    1.297986e+00   1.855188e-02
  1.272118e+00    1.313082e+00   1.863716e-02
  1.274328e+00    1.333585e+00   1.875952e-02
  1.276539e+00    1.324323e+00   1.867169e-02
  1.278749e+00    1.324248e+00   1.864909e-02
  1.280959e+00    1.312529e+00   1.854418e-02
  1.283170e+00    1.323098e+00   1.859647e-02
  1.285380e+00    1.349214e+00   1.875666e-02
  1.287591e+00    1.345786e+00   1.871084e-02
  1.289801e+00    1.339062e+00   1.864289e-02
  1.292012e+00    1.323163e+00   1.851496e-02
  1.294222e+00    1.348945e+00   1.867824e-02
  1.296433e+00    1.350804e+00   1.867550e-02
  1.298643e+00    1.356115e+00   1.869568e-02
  1.300854e+00    1.322355e+00   1.844526e-02
  1.303064e+00    1.331264e+00   1.848819e-02
  1.305274e+00    1.356493e+00   1.864105e-02
  1.307485e+00    1.389163e+00   1.884235e-02
  1.309695e+00    1.406500e+00   1.893686e-02
  1.311906e+00    1.344904e+00   1.849593e-02
  1.314116e+00    1.339120e+00   1.843536e-02
  1.316327e+00    1.345145e+00   1.845515e-02
  1.318537e+00    1.334073e+00   1.835729e-02
  1.320748e+00    1.334831e+00   1.834106e-02
  1.322958e+00    1.335899e+00   1.832800e-02
  1.325169e+00    1.332389e+00   1.828301e-02
  1.327379e+00    1.345045e+00   1.834787e-02
  1.329589e+00    1.351828e+00   1.837299e-02
  1.331800e+00    1.352544e+00   1.835715e-02
  1.334010e+00    1.346954e+00   1.829853e-02
  1.336221e+00    1.346476e+00   1.827357e-02
  1.338431e+00    1.345523e+00   1.824627e-02
  1.340642e+00    1.358772e+00   1.840026e-02
  1.342852e+00    1.345048e+00   1.840758e-02
  1.345063e+00    1.350982e+00   1.849765e-02
  1.347273e+00    1.348161e+00   1.851353e-02
  1.349484e+00    1.356019e+00   1.859516e-02
  1.351694e+00    1.335342e+00   1.847544e-02
  1.353905e+00    1.303258e+00   1.826981e-02
  1.356115e+00    1.312684e+00   1.835059e-02
  1.358325e+00    1.326872e+00   1.846270e-02
  1.360536e+00    1.326475e+00   1.847145e-02
  1.362746e+00    1.338030e+00   1.856126e-02
  1.364957e+00    1.309359e+00   1.836889e-02
  1.367167e+00    1.289722e+00   1.823760e-02
  1.369378e+00    1.301907e+00   1.832947e-02
  1.371588e+00    1.314490e+00   1.842291e-02
  1.373799e+00    1.329071e+00   1.852847e-02
  1.376009e+00    1.311397e+00   1.840823e-02
  1.378220e+00    1.296568e+00   1.830634e-02
  1.380430e+00    1.285731e+00   1.823234e-02
  1.382640e+00    1.287097e+00   1.824291e-02
  1.384851e+00    1.284418e+00   1.822478e-02
  1.387061e+00    1.276562e+00   1.816925e-02
  1.389272e+00    1.299052e+00   1.832880e-02
  1.391482e+00    1.300043e+00   1.833513e-02
  1.393693e+00    1.278927e+00   1.818473e-02
  1.395903e+00    1.287112e+00   1.824133e-02
  1.398114e+00    1.273922e+00   1.814626e-02
  1.400324e+00    1.254501e+00   1.800531e-02
  1.402535e+00    1.271515e+00   1.812466e-02
  1.404745e+00    1.264619e+00   1.807312e-02
  1.406955e+00    1.245191e+00   1.793108e-02
  1.409166e+00    1.244068e+00   1.791971e-02
  1.411376e+00    1.263475e+00   1.805585e-02
  1.413587e+00    1.225160e+00   1.777623e-02
  1.415797e+00    1.231894e+00   1.782151e-02
  1.418008e+00    1.259573e+00   1.797891e-02
  1.420218e+00    1.264679e+00   1.786591e-02
  1.422429e+00    1.268464e+00   1.780736e-02
  1.424639e+00    1.270908e+00   1.775979e-02
  1.426850e+00    1.259586e+00   1.762604e-02
  1.429060e+00    1.271367e+00   1.765925e-02
  1.431270e+00    1.270327e+00   1.760773e-02
  1.433481e+00    1.248668e+00   1.741637e-02
  1.435691e+00    1.249608e+00   1.738478e-02
  1.437902e+00    1.262199e+00   1.743580e-02
  1.440112e+00    1.260356e+00   1.738787e-02
  1.442323e+00    1.285120e+00   1.752460e-02
  1.444533e+00    1.292667e+00   1.754315e-02
  1.446744e+00    1.301184e+00   1.756935e-02
  1.448954e+00    1.274997e+00   1.736141e-02
  1.451165e+00    1.264444e+00   1.725971e-02
  1.453375e+00    1.252853e+00   1.715257e-02
  1.455586e+00    1.243426e+00   1.706003e-02
  1.457796e+00    1.239235e+00   1.700409e-02
  1.460006e+00    1.242856e+00   1.700195e-02
  1.462217e+00    1.243024e+00   1.697715e-02
  1.464427e+00    1.274101e+00   1.716241e-02
  1.466638e+00    1.269118e+00   1.710352e-02
  1.468848e+00    1.247606e+00   1.693281e-02
  1.471059e+00    1.271255e+00   1.706743e-02
  1.473269e+00    1.272892e+00   1.705401e-02
  1.475480e+00    1.266381e+00   1.698660e-02
  1.477690e+00    1.271720e+00   1.699849e-02
  1.479901e+00    1.259669e+00   1.689401e-02
  1.482111e+00    1.263589e+00   1.689697e-02
  1.484321e+00    1.268108e+00   1.690404e-02
  1.486532e+00    1.258428e+00   1.681715e-02
  1.488742e+00    1.249295e+00   1.673348e-02
  1.490953e+00    1.267248e+00   1.683066e-02
  1.493163e+00    1.272227e+00   1.684134e-02
  1.495374e+00    1.268794e+00   1.679706e-02
  1.497584e+00    1.271429e+00   1.679276e-02
  1.499795e+00    1.239240e+00   1.655737e-02
  1.502005e+00    1.255619e+00   1.664476e-02
  1.504216e+00    1.270127e+00   1.671953e-02
  1.506426e+00    1.266227e+00   1.667297e-02
  1.508636e+00    1.235866e+00   1.645158e-02
  1.510847e+00    1.244196e+00   1.648522e-02
  1.513057e+00    1.262625e+00   1.658172e-02
  1.515268e+00    1.233304e+00   1.636256e-02
  1.517478e+00    1.242531e+00   1.639860e-02
  1.519689e+00    1.248473e+00   1.641287e-02
  1.521899e+00    1.246493e+00   1.637680e-02
  1.524110e+00    1.264852e+00   1.647654e-02
  1.526320e+00    1.246305e+00   1.633576e-02
  1.528531e+00    1.254595e+00   1.637020e-02
  1.530741e+00    1.232903e+00   1.620906e-02
  1.532951e+00    1.246201e+00   1.627667e-02
  1.535162e+00    1.226349e+00   1.623230e-02
  1.537372e+00    1.222989e+00   1.627625e-02
  1.539583e+00    1.222118e+00   1.630431e-02
  1.541793e+00    1.244509e+00   1.645994e-02
  1.544004e+00    1.225475e+00   1.633385e-02
  1.546214e+00    1.233874e+00   1.638821e-02
  1.548425e+00    1.246828e+00   1.647429e-02
  1.550635e+00    1.239974e+00   1.643860e-02
  1.552846e+00    1.235372e+00   1.641769e-02
  1.555056e+00    1.225883e+00   1.631335e-02
  1.557266e+00    1.226139e+00   1.620542e-02
  1.559477e+00    1.210719e+00   1.604489e-02
  1.561687e+00    1.207629e+00   1.599417e-02
  1.563898e+00    1.242117e+00   1.620382e-02
  1.566108e+00    1.243811e+00   1.619891e-02
  1.568319e+00    1.229879e+00   1.609240e-02
  1.570529e+00    1.243004e+00   1.615293e-02
  1.572740e+00    1.229652e+00   1.603848e-02
  1.574950e+00    1.239888e+00   1.607884e-02
  1.577161e+00    1.249671e+00   1.611660e-02
  1.579371e+00    1.250274e+00   1.609679e-02
  1.581582e+00    1.226186e+00   1.592135e-02
  1.583792e+00    1.238503e+00   1.598314e-02
  1.586002e+00    1.221261e+00   1.585404e-02
  1.588213e+00    1.213851e+00   1.578883e-02
  1.590423e+00    1.219785e+00   1.580751e-02
  1.592634e+00    1.223281e+00   1.580869e-02
  1.594844e+00    1.216556e+00   1.574402e-02
  1.597055e+00    1.219338e+00   1.574169e-02
  1.599265e+00    1.220550e+00   1.572898e-02
  1.601476e+00    1.240947e+00   1.583954e-02
  1.603686e+00    1.223033e+00   1.570519e-02
  1.605897e+00    1.205480e+00   1.557219e-02
  1.608107e+00    1.222752e+00   1.566391e-02
  1.610317e+00    1.236388e+00   1.573170e-02
  1.612528e+00    1.200894e+00   1.548536e-02
  1.614738e+00    1.204020e+00   1.548675e-02
  1.616949e+00    1.170115e+00   1.524861e-02
  1.619159e+00    1.171358e+00   1.523837e-02
  1.621370e+00    1.195747e+00   1.537791e-02
  1.623580e+00    1.173425e+00   1.521569e-02
  1.625791e+00    1.153500e+00   1.506811e-02
  1.628001e+00    1.147061e+00   1.500816e-02
  1.630212e+00    1.147159e+00   1.499140e-02
  1.632422e+00    1.135588e+00   1.489809e-02
  1.634632e+00    1.126400e+00   1.482080e-02
  1.636843e+00    1.130073e+00   1.482775e-02
  1.639053e+00    1.142529e+00   1.489219e-02
  1.641264e+00    1.126634e+00   1.477146e-02
  1.643474e+00    1.139152e+00   1.483608e-02
  1.645685e+00    1.137140e+00   1.480647e-02
  1.647895e+00    1.110432e+00   1.461528e-02
  1.650106e+00    1.131114e+00   1.473391e-02
  1.652316e+00    1.120989e+00   1.465153e-02
  1.654527e+00    1.113150e+00   1.458374e-02
  1.656737e+00    1.100126e+00   1.448190e-02
  1.658947e+00    1.090212e+00   1.440051e-02
  1.661158e+00    1.096903e+00   1.442859e-02
  1.663368e+00    1.083660e+00   1.432549e-02
  1.665579e+00    1.081056e+00   1.429239e-02
  1.667789e+00    1.087115e+00   1.431637e-02
  1.670000e+00    1.088841e+00   1.431241e-02
  1.672210e+00    1.070938e+00   1.417865e-02
  1.674421e+00    1.057615e+00   1.407518e-02
  1.676631e+00    1.051924e+00   1.402176e-02
  1.678842e+00    1.083702e+00   1.421630e-02
  1.681052e+00    1.070593e+00   1.411484e-02
  1.683263e+00    1.068484e+00   1.408596e-02
  1.685473e+00    1.047501e+00   1.393207e-02
  1.687683e+00    1.045102e+00   1.390096e-02
  1.689894e+00    1.030628e+00   1.378895e-02
  1.692104e+00    1.051549e+00   1.391346e-02
  1.694315e+00    1.040183e+00   1.382379e-02
  1.696525e+00    1.021104e+00   1.368161e-02
  1.698736e+00    1.017707e+00   1.364433e-02
  1.700946e+00    1.037079e+00   1.375862e-02
  1.703157e+00    1.052798e+00   1.384788e-02
  1.705367e+00    1.044637e+00   1.377968e-02
  1.707578e+00    1.048394e+00   1.378986e-02
  1.709788e+00    1.052784e+00   1.380453e-02
  1.711998e+00    1.027329e+00   1.362174e-02
  1.714209e+00    1.001883e+00   1.343780e-02
  1.716419e+00    9.936051e-01   1.336818e-02
  1.718630e+00    1.019647e+00   1.352805e-02
  1.720840e+00    1.039515e+00   1.364494e-02
  1.723051e+00    1.023152e+00   1.352328e-02
  1.725261e+00    1.008764e+00   1.341328e-02
  1.727472e+00    1.000796e+00   1.334612e-02
  1.729682e+00    1.020700e+00   1.346470e-02
  1.731893e+00    1.013461e+00   1.340297e-02
  1.734103e+00    9.856229e-01   1.320396e-02
  1.736313e+00    1.015678e+00   1.338968e-02
  1.738524e+00    9.944913e-01   1.323554e-02
  1.740734e+00    9.950234e-01   1.322538e-02
  1.742945e+00    1.020026e+00   1.337691e-02
  1.745155e+00    1.024698e+00   1.339384e-02
  1.747366e+00    1.004756e+00   1.324897e-02
  1.749576e+00    9.959129e-01   1.317677e-02
  1.751787e+00    1.000011e+00   1.319041e-02
  1.753997e+00    9.777999e-01   1.302974e-02
  1.756208e+00    9.531023e-01   1.285107e-02
  1.758418e+00    9.657305e-01   1.292284e-02
  1.760628e+00    9.682018e-01   1.292603e-02
  1.762839e+00    9.666189e-01   1.290223e-02
  1.765049e+00    9.464617e-01   1.275401e-02
  1.767260e+00    9.314271e-01   1.263965e-02
  1.769470e+00    9.364486e-01   1.266084e-02
  1.771681e+00    9.262353e-01   1.257864e-02
  1.773891e+00    9.403740e-01   1.266129e-02
  1.776102e+00    9.419418e-01   1.265902e-02
  1.778312e+00    9.298566e-01   1.256492e-02
  1.780523e+00    9.064674e-01   1.239339e-02
  1.782733e+00    9.226505e-01   1.249095e-02
  1.784944e+00    9.187708e-01   1.245190e-02
  1.787154e+00    9.094242e-01   1.237601e-02
  1.789364e+00    8.963943e-01   1.227480e-02
  1.791575e+00    8.967847e-01   1.226512e-02
  1.793785e+00    9.058971e-01   1.231499e-02
  1.795996e+00    9.063344e-01   1.230556e-02
  1.798206e+00    8.947460e-01   1.221428e-02
  1.800417e+00    8.802151e-01   1.210226e-02
  1.802627e+00    8.947594e-01   1.219003e-02
  1.804838e+00    8.817340e-01   1.208908e-02
  1.807048e+00    8.913337e-01   1.214199e-02
  1.809259e+00    8.662619e-01   1.195672e-02
  1.811469e+00    8.903745e-01   1.210712e-02
  1.813679e+00    8.891193e-01   1.208374e-02
  1.815890e+00    8.610032e-01   1.187669e-02
  1.818100e+00    8.748990e-01   1.195723e-02
  1.820311e+00    8.639674e-01   1.186776e-02
  1.822521e+00    8.602628e-01   1.182771e-02
  1.824732e+00    8.640352e-01   1.183901e-02
  1.826942e+00    8.689862e-01   1.186067e-02
  1.829153e+00    8.718154e-01   1.186838e-02
  1.831363e+00    8.578834e-01   1.176129e-02
  1.833574e+00    8.446491e-01   1.165881e-02
  1.835784e+00    8.511102e-01   1.169205e-02
  1.837994e+00    8.804663e-01   1.188025e-02
  1.840205e+00    8.688700e-01   1.179063e-02
  1.842415e+00    8.502912e-01   1.165228e-02
  1.844626e+00    8.470389e-01   1.161856e-02
  1.846836e+00    8.503456e-01   1.162992e-02
  1.849047e+00    8.502135e-01   1.161750e-02
  1.851257e+00    8.448848e-01   1.157157e-02
  1.853468e+00    8.575291e-01   1.164907e-02
  1.855678e+00    8.489413e-01   1.158177e-02
  1.857889e+00    8.397520e-01   1.151050e-02
  1.860099e+00    8.376446e-01   1.148753e-02
  1.862309e+00    8.474842e-01   1.154632e-02
  1.864520e+00    8.401265e-01   1.148761e-02
  1.866730e+00    8.445457e-01   1.150843e-02
  1.868941e+00    8.551148e-01   1.156928e-02
  1.871151e+00    8.406989e-01   1.146002e-02
  1.873362e+00    8.385912e-01   1.143439e-02
  1.875572e+00    8.330623e-01   1.138580e-02
  1.877783e+00    8.260785e-01   1.132669e-02
  1.879993e+00    8.322005e-01   1.135752e-02
  1.882204e+00    8.179536e-01   1.124917e-02
  1.884414e+00    8.052865e-01   1.115090e-02
  1.886624e+00    8.353243e-01   1.134594e-02
  1.888835e+00    8.446919e-01   1.139840e-02
  1.891045e+00    8.411353e-01   1.136350e-02
  1.893256e+00    8.091893e-01   1.113473e-02
  1.895466e+00    7.980515e-01   1.104691e-02
  1.897677e+00    8.180902e-01   1.117393e-02
  1.899887e+00    8.138168e-01   1.113388e-02
  1.902098e+00    8.241449e-01   1.119348e-02
  1.904308e+00    8.767620e-01   1.153440e-02
  1.906519e+00    8.902914e-01   1.161186e-02
  1.908729e+00    8.569812e-01   1.138180e-02
  1.910940e+00    8.222055e-01   1.113736e-02
  1.913150e+00    8.091661e-01   1.103822e-02
  1.915360e+00    7.998027e-01   1.096369e-02
  1.917571e+00    7.990014e-01   1.094750e-02
  1.919781e+00    7.962309e-01   1.091796e-02
  1.921992e+00    8.100125e-01   1.100150e-02
  1.924202e+00    7.768158e-01   1.076322e-02
  1.926413e+00    8.042154e-01   1.094115e-02
  1.928623e+00    8.123870e-01   1.098608e-02
  1.930834e+00    8.168538e-01   1.100579e-02
  1.933044e+00    7.933394e-01   1.083567e-02
  1.935255e+00    8.130789e-01   1.095929e-02
  1.937465e+00    7.985594e-01   1.085070e-02
  1.939675e+00    7.525557e-01   1.052301e-02
  1.941886e+00    7.853662e-01   1.073980e-02
  1.944096e+00    7.770329e-01   1.067266e-02
  1.946307e+00    7.916166e-01   1.076207e-02
  1.948517e+00    7.922927e-01   1.075628e-02
  1.950728e+00    8.089913e-01   1.085872e-02
  1.952938e+00    8.048139e-01   1.082053e-02
  1.955149e+00    7.724932e-01   1.059095e-02
  1.957359e+00    7.817264e-01   1.064409e-02
  1.959570e+00    7.827405e-01   1.064021e-02
  1.961780e+00    7.792620e-01   1.060672e-02
  1.963990e+00    7.984577e-01   1.072639e-02
  1.966201e+00    7.881401e-01   1.064684e-02
  1.968411e+00    7.896602e-01   1.064693e-02
  1.970622e+00    7.930735e-01   1.065980e-02
  1.972832e+00    7.979993e-01   1.068281e-02
  1.975043e+00    7.749025e-01   1.051712e-02
  1.977253e+00    7.916939e-01   1.062044e-02
  1.979464e+00    7.995942e-01   1.066318e-02
  1.981674e+00    7.855871e-01   1.055908e-02
  1.983885e+00    7.790765e-01   1.050525e-02
  1.986095e+00    7.711496e-01   1.044200e-02
  1.988305e+00    7.700197e-01   1.042452e-02
  1.990516e+00    7.802305e-01   1.048348e-02
  1.992726e+00    7.582702e-01   1.032535e-02
  1.994937e+00    7.643205e-01   1.035642e-02
  1.997147e+00    7.546178e-01   1.028087e-02
  1.999358e+00    7.632378e-01   1.032965e-02
  2.001568e+00    7.757240e-01   1.040295e-02
  2.003779e+00    7.901593e-01   1.048728e-02
  2.005989e+00    7.654016e-01   1.030969e-02
  2.008200e+00    7.694889e-01   1.032566e-02
  2.010410e+00    7.733681e-01   1.033987e-02
  2.012621e+00    7.600306e-01   1.023870e-02
  2.014831e+00    7.389882e-01   1.008471e-02
  2.017041e+00    7.515877e-01   1.016002e-02
  2.019252e+00    7.585259e-01   1.019690e-02
  2.021462e+00    7.585573e-01   1.018765e-02
  2.023673e+00    7.508778e-01   1.012664e-02
  2.025883e+00    7.469668e-01   1.009082e-02
  2.028094e+00    7.483521e-01   1.009061e-02
  2.030304e+00    7.601111e-01   1.016006e-02
  2.032515e+00    7.455848e-01   1.005331e-02
  2.034725e+00    7.488481e-01   1.006589e-02
  2.036936e+00    7.647528e-01   1.016286e-02
  2.039146e+00    7.514179e-01   1.006433e-02
  2.041356e+00    7.419000e-01   9.990831e-03
  2.043567e+00    7.592101e-01   1.009739e-02
  2.045777e+00    7.476740e-01   1.001118e-02
  2.047988e+00    7.405923e-01   9.954385e-03
  2.050198e+00    7.248785e-01   9.839945e-03
  2.052409e+00    7.268766e-01   9.845955e-03
  2.054619e+00    7.326689e-01   9.877834e-03
  2.056830e+00    7.553667e-01   1.002247e-02
  2.059040e+00    7.487520e-01   9.971003e-03
  2.061251e+00    7.446530e-01   9.936443e-03
  2.063461e+00    7.448490e-01   9.930188e-03
  2.065671e+00    7.420077e-01   9.902541e-03
  2.067882e+00    7.226544e-01   9.763714e-03
  2.070092e+00    7.093832e-01   9.664662e-03
  2.072303e+00    7.371305e-01   9.842802e-03
  2.074513e+00    7.167450e-01   9.696599e-03
  2.076724e+00    7.417700e-01   9.854970e-03
  2.078934e+00    7.250030e-01   9.734078e-03
  2.081145e+00    7.212417e-01   9.699836e-03
  2.083355e+00    7.223954e-01   9.698533e-03
  2.085566e+00    7.397597e-01   9.805513e-03
  2.087776e+00    7.204329e-01   9.667192e-03
  2.089986e+00    7.266048e-01   9.699792e-03
  2.092197e+00    7.201894e-01   9.648035e-03
  2.094407e+00    7.143584e-01   9.599810e-03
  2.096618e+00    7.183875e-01   9.618029e-03
  2.098828e+00    7.131569e-01   9.573807e-03
  2.101039e+00    7.163387e-01   9.586222e-03
  2.103249e+00    7.476493e-01   9.784742e-03
  2.105460e+00    7.226337e-01   9.610709e-03
  2.107670e+00    6.979745e-01   9.436730e-03
  2.109881e+00    7.158858e-01   9.547950e-03
  2.112091e+00    7.123624e-01   9.515537e-03
  2.114301e+00    7.154356e-01   9.527313e-03
  2.116512e+00    7.079430e-01   9.468582e-03
  2.118722e+00    6.992539e-01   9.401623e-03
  2.120933e+00    6.878220e-01   9.315789e-03
  2.123143e+00    6.910452e-01   9.328860e-03
  2.125354e+00    6.862931e-01   9.288381e-03
  2.127564e+00    7.038917e-01   9.398056e-03
  2.129775e+00    7.073107e-01   9.412191e-03
  2.131985e+00    7.140873e-01   9.448113e-03
  2.134196e+00    6.882184e-01   9.266974e-03
  2.136406e+00    6.919329e-01   9.283308e-03
  2.138617e+00    7.083238e-01   9.384172e-03
  2.140827e+00    7.123843e-01   9.427156e-03
  2.143037e+00    6.947690e-01   9.354938e-03
  2.145248e+00    7.002575e-01   9.413737e-03
  2.147458e+00    6.943652e-01   9.389073e-03
  2.149669e+00    7.055119e-01   9.476002e-03
  2.151879e+00    6.933419e-01   9.403091e-03
  2.154090e+00    6.969212e-01   9.434623e-03
  2.156300e+00    6.882797e-01   9.382502e-03
  2.158511e+00    6.763028e-01   9.305714e-03
  2.160721e+00    6.927814e-01   9.423195e-03
  2.162932e+00    6.831630e-01   9.361266e-03
  2.165142e+00    6.748349e-01   9.306993e-03
  2.167352e+00    6.950568e-01   9.448312e-03
  2.169563e+00    6.981619e-01   9.471361e-03
  2.171773e+00    6.941192e-01   9.446351e-03
  2.173984e+00    6.852018e-01   9.386878e-03
  2.176194e+00    6.799775e-01   9.352211e-03
  2.178405e+00    6.795699e-01   9.350113e-03
  2.180615e+00    6.588302e-01   9.206977e-03
  2.182826e+00    6.612225e-01   9.224354e-03
  2.185036e+00    6.698911e-01   9.284655e-03
  2.187247e+00    6.640363e-01   9.243951e-03
  2.189457e+00    6.738433e-01   9.311562e-03
  2.191667e+00    6.931588e-01   9.443876e-03
  2.193878e+00    6.944225e-01   9.451951e-03
  2.196088e+00    6.715303e-01   9.294160e-03
  2.198299e+00    6.606207e-01   9.217285e-03
  2.200509e+00    6.819553e-01   9.363869e-03
  2.202720e+00    6.793427e-01   9.344772e-03
  2.204930e+00    6.796796e-01   9.345848e-03
  2.207141e+00    6.734608e-01   9.301900e-03
  2.209351e+00    6.753357e-01   9.312944e-03
  2.211562e+00    6.631466e-01   9.226938e-03
  2.213772e+00    6.471006e-01   9.060367e-03
  2.215982e+00    6.480408e-01   9.023631e-03
  2.218193e+00    6.729587e-01   9.165925e-03
  2.220403e+00    6.716835e-01   9.132721e-03
  2.222614e+00    6.655405e-01   9.070028e-03
  2.224824e+00    6.604069e-01   9.015787e-03
  2.227035e+00    6.687574e-01   9.055214e-03
  2.229245e+00    6.577820e-01   8.963828e-03
  2.231456e+00    6.494589e-01   8.891557e-03
  2.233666e+00    6.555788e-01   8.918440e-03
  2.235877e+00    6.515945e-01   8.877229e-03
  2.238087e+00    6.612206e-01   8.929169e-03
  2.240298e+00    6.607363e-01   8.912223e-03
  2.242508e+00    6.734561e-01   8.982409e-03
  2.244718e+00    6.713999e-01   8.952859e-03
  2.246929e+00    6.542036e-01   8.823188e-03
  2.249139e+00    6.591603e-01   8.844241e-03
  2.251350e+00    6.789888e-01   8.964466e-03
  2.253560e+00    6.826797e-01   8.977097e-03
  2.255771e+00    6.817747e-01   8.959605e-03
  2.257981e+00    6.709543e-01   8.876988e-03
  2.260192e+00    6.867257e-01   8.969421e-03
  2.262402e+00    6.830229e-01   8.934209e-03
  2.264613e+00    6.691391e-01   8.832057e-03
  2.266823e+00    6.758273e-01   8.865585e-03
  2.269033e+00    6.805469e-01   8.885969e-03
  2.271244e+00    6.812097e-01   8.879763e-03
  2.273454e+00    6.725579e-01   8.812860e-03
  2.275665e+00    6.749337e-01   8.817994e-03
  2.277875e+00    6.681311e-01   8.763468e-03
  2.280086e+00    6.724706e-01   8.781755e-03
  2.282296e+00    6.521850e-01   8.638924e-03
  2.284507e+00    6.542637e-01   8.642579e-03
  2.286717e+00    6.478798e-01   8.590924e-03
  2.288928e+00    6.539854e-01   8.621465e-03
  2.291138e+00    6.534827e-01   8.608748e-03
  2.293348e+00    6.365266e-01   8.486943e-03
  2.295559e+00    6.334734e-01   8.457378e-03
  2.297769e+00    6.578773e-01   8.609493e-03
  2.299980e+00    6.444574e-01   8.511961e-03
  2.302190e+00    6.432501e-01   8.494919e-03
  2.304401e+00    6.490483e-01   8.523826e-03
  2.306611e+00    6.517005e-01   8.532022e-03
  2.308822e+00    6.579687e-01   8.564531e-03
  2.311032e+00    6.515923e-01   8.516477e-03
  2.313243e+00    6.326013e-01   8.385262e-03
  2.315453e+00    6.497155e-01   8.490351e-03
  2.317663e+00    6.342674e-01   8.379783e-03
  2.319874e+00    6.356856e-01   8.380480e-03
  2.322084e+00    6.391495e-01   8.394379e-03
  2.324295e+00    6.279036e-01   8.312070e-03
  2.326505e+00    6.255755e-01   8.287745e-03
  2.328716e+00    6.226072e-01   8.259633e-03
  2.330926e+00    6.416453e-01   8.376180e-03
  2.333137e+00    6.387066e-01   8.348623e-03
  2.335347e+00    6.400355e-01   8.348459e-03
  2.337558e+00    6.314070e-01   8.283806e-03
  2.339768e+00    6.244653e-01   8.229686e-03
  2.341979e+00    6.200108e-01   8.192026e-03
  2.344189e+00    6.280491e-01   8.236638e-03
  2.346399e+00    6.237548e-01   8.200017e-03
  2.348610e+00    6.261290e-01   8.207204e-03
  2.350820e+00    6.334444e-01   8.246854e-03
  2.353031e+00    6.114830e-01   8.094488e-03
  2.355241e+00    6.263959e-01   8.184592e-03
  2.357452e+00    6.042283e-01   8.030234e-03
  2.359662e+00    6.111579e-01   8.068054e-03
  2.361873e+00    6.154655e-01   8.088309e-03
  2.364083e+00    6.187133e-01   8.101690e-03
  2.366294e+00    6.179414e-01   8.088604e-03
  2.368504e+00    6.222492e-01   8.108693e-03
  2.370714e+00    6.284531e-01   8.140938e-03
  2.372925e+00    6.174135e-01   8.061138e-03
  2.375135e+00    6.057261e-01   7.976517e-03
  2.377346e+00    6.165734e-01   8.039722e-03
  2.379556e+00    6.246192e-01   8.084113e-03
  2.381767e+00    6.139673e-01   8.007060e-03
  2.383977e+00    6.130605e-01   7.993272e-03
  2.386188e+00    6.152924e-01   7.999905e-03
  2.388398e+00    6.178553e-01   8.008609e-03
  2.390609e+00    6.108025e-01   7.955083e-03
  2.392819e+00    6.059031e-01   7.915401e-03
  2.395029e+00    6.052443e-01   7.903493e-03
  2.397240e+00    6.189185e-01   7.984386e-03
  2.399450e+00    6.007988e-01   7.858926e-03
  2.401661e+00    5.865487e-01   7.757638e-03
  2.403871e+00    6.008833e-01   7.844153e-03
  2.406082e+00    6.100157e-01   7.896117e-03
  2.408292e+00    5.988885e-01   7.816052e-03
  2.410503e+00    5.838678e-01   7.710067e-03
  2.412713e+00    5.785279e-01   7.667123e-03
  2.414924e+00    5.919871e-01   7.748379e-03
  2.417134e+00    6.063093e-01   7.833923e-03
  2.419344e+00    5.934272e-01   7.742907e-03
  2.421555e+00    5.900232e-01   7.713228e-03
  2.423765e+00    5.857069e-01   7.677652e-03
  2.425976e+00    5.822570e-01   7.647320e-03
  2.428186e+00    5.834218e-01   7.647830e-03
  2.430397e+00    5.822156e-01   7.632535e-03
  2.432607e+00    6.030862e-01   7.760806e-03
  2.434818e+00    5.917301e-01   7.679895e-03
  2.437028e+00    5.949030e-01   7.693270e-03
  2.439239e+00    6.094067e-01   7.778754e-03
  2.441449e+00    5.992506e-01   7.706426e-03
  2.443659e+00    5.759714e-01   7.547999e-03
  2.445870e+00    5.806152e-01   7.590509e-03
  2.448080e+00    5.795815e-01   7.618458e-03
  2.450291e+00    5.703263e-01   7.573902e-03
  2.452501e+00    5.656307e-01   7.553705e-03
  2.454712e+00    5.695305e-01   7.588102e-03
  2.456922e+00    5.555595e-01   7.500999e-03
  2.459133e+00    5.516033e-01   7.479582e-03
  2.461343e+00    5.521229e-01   7.487414e-03
  2.463554e+00    5.502359e-01   7.478016e-03
  2.465764e+00    5.491394e-01   7.473675e-03
  2.467975e+00    5.547325e-01   7.513895e-03
  2.470185e+00    5.580276e-01   7.538452e-03
  2.472395e+00    5.544334e-01   7.515337e-03
  2.474606e+00    5.645643e-01   7.585279e-03
  2.476816e+00    5.470218e-01   7.467249e-03
  2.479027e+00    5.235499e-01   7.306100e-03
  2.481237e+00    5.243194e-01   7.311731e-03
  2.483448e+00    5.295470e-01   7.348395e-03
  2.485658e+00    5.509000e-01   7.494922e-03
  2.487869e+00    5.506660e-01   7.493407e-03
  2.490079e+00    5.382422e-01   7.407848e-03
  2.492290e+00    5.331332e-01   7.372198e-03
  2.494500e+00    5.396825e-01   7.416589e-03
  2.496710e+00    5.275728e-01   7.332223e-03
  2.498921e+00    5.379945e-01   7.403294e-03
  2.501131e+00    5.248600e-01   7.311441e-03
  2.503342e+00    5.171493e-01   7.256269e-03
  2.505552e+00    5.355510e-01   7.383108e-03
  2.507763e+00    5.122370e-01   7.219234e-03
  2.509973e+00    5.117450e-01   7.214399e-03
  2.512184e+00    5.097772e-01   7.198904e-03
  2.514394e+00    5.221715e-01   7.276593e-03
  2.516605e+00    5.181572e-01   7.201866e-03
  2.518815e+00    5.294511e-01   7.251528e-03
  2.521025e+00    5.245144e-01   7.196688e-03
  2.523236e+00    5.184600e-01   7.137179e-03
  2.525446e+00    5.218822e-01   7.145141e-03
  2.527657e+00    5.228556e-01   7.137231e-03
  2.529867e+00    5.133167e-01   7.057816e-03
  2.532078e+00    5.094554e-01   7.016388e-03
  2.534288e+00    5.160921e-01   7.048178e-03
  2.536499e+00    5.051368e-01   6.961263e-03
  2.538709e+00    5.122612e-01   6.999297e-03
  2.540920e+00    5.251662e-01   7.076269e-03
  2.543130e+00    5.245178e-01   7.061531e-03
  2.545340e+00    5.256604e-01   7.059123e-03
  2.547551e+00    5.179726e-01   6.997443e-03
  2.549761e+00    5.176065e-01   6.985408e-03
  2.551972e+00    5.155451e-01   6.962209e-03
  2.554182e+00    5.124858e-01   6.932396e-03
  2.556393e+00    5.123080e-01   6.922191e-03
  2.558603e+00    5.102244e-01   6.899114e-03
  2.560814e+00    5.122069e-01   6.903858e-03
  2.563024e+00    5.183423e-01   6.936525e-03
  2.565235e+00    5.160961e-01   6.911988e-03
  2.567445e+00    5.100712e-01   6.862052e-03
  2.569656e+00    5.201441e-01   6.919729e-03
  2.571866e+00    5.128133e-01   6.861468e-03
  2.574076e+00    5.186273e-01   6.890961e-03
  2.576287e+00    5.346069e-01   6.987846e-03
  2.578497e+00    5.350601e-01   6.982823e-03
  2.580708e+00    5.333188e-01   6.963246e-03
  2.582918e+00    5.314530e-01   6.943145e-03
  2.585129e+00    5.277274e-01   6.910931e-03
  2.587339e+00    5.151315e-01   6.820272e-03
  2.589550e+00    5.229666e-01   6.864307e-03
  2.591760e+00    5.021186e-01   6.718452e-03
  2.593971e+00    4.976603e-01   6.681110e-03
  2.596181e+00    4.990401e-01   6.684235e-03
  2.598391e+00    4.970616e-01   6.665846e-03
  2.600602e+00    4.972503e-01   6.661267e-03
  2.602812e+00    4.979362e-01   6.658408e-03
  2.605023e+00    5.147998e-01   6.763016e-03
  2.607233e+00    5.013968e-01   6.667300e-03
  2.609444e+00    5.020594e-01   6.664526e-03
  2.611654e+00    4.864913e-01   6.553189e-03
  2.613865e+00    4.988824e-01   6.629148e-03
  2.616075e+00    5.101768e-01   6.696585e-03
  2.618286e+00    5.016342e-01   6.633338e-03
  2.620496e+00    4.995314e-01   6.612745e-03
  2.622706e+00    5.109375e-01   6.682041e-03
  2.624917e+00    4.980682e-01   6.591547e-03
  2.627127e+00    4.994879e-01   6.595219e-03
  2.629338e+00    4.965016e-01   6.569534e-03
  2.631548e+00    5.010188e-01   6.593199e-03
  2.633759e+00    4.924083e-01   6.529231e-03
  2.635969e+00    4.887855e-01   6.498552e-03
  2.638180e+00    4.964805e-01   6.542560e-03
  2.640390e+00    4.954604e-01   6.529283e-03
  2.642601e+00    4.835271e-01   6.443609e-03
  2.644811e+00    4.935682e-01   6.503154e-03
  2.647021e+00    4.956629e-01   6.510390e-03
  2.649232e+00    4.850096e-01   6.433452e-03
  2.651442e+00    4.795004e-01   6.390413e-03
  2.653653e+00    4.854157e-01   6.423010e-03
  2.655863e+00    5.017661e-01   6.523578e-03
  2.658074e+00    5.134170e-01   6.592180e-03
  2.660284e+00    5.025788e-01   6.515835e-03
  2.662495e+00    4.981721e-01   6.480461e-03
  2.664705e+00    4.953372e-01   6.455422e-03
  2.666916e+00    4.987645e-01   6.471237e-03
  2.669126e+00    5.097986e-01   6.535897e-03
  2.671337e+00    4.908704e-01   6.406848e-03
  2.673547e+00    5.002061e-01   6.461073e-03
  2.675757e+00    4.970827e-01   6.434421e-03
  2.677968e+00    4.874682e-01   6.365408e-03
  2.680178e+00    4.838829e-01   6.335606e-03
  2.682389e+00    4.945695e-01   6.398786e-03
  2.684599e+00    4.910603e-01   6.369869e-03
  2.686810e+00    4.949675e-01   6.388542e-03
  2.689020e+00    4.858347e-01   6.323078e-03
  2.691231e+00    4.781199e-01   6.266461e-03
  2.693441e+00    4.732443e-01   6.228400e-03
  2.695652e+00    4.823062e-01   6.281264e-03
  2.697862e+00    4.824338e-01   6.275826e-03
  2.700072e+00    4.711598e-01   6.196087e-03
  2.702283e+00    4.643652e-01   6.145191e-03
  2.704493e+00    4.876786e-01   6.291266e-03
  2.706704e+00    4.885494e-01   6.290488e-03
  2.708914e+00    4.900163e-01   6.293968e-03
  2.711125e+00    4.695075e-01   6.154694e-03
  2.713335e+00    4.828835e-01   6.235698e-03
  2.715546e+00    4.864954e-01   6.252513e-03
  2.717756e+00    4.730674e-01   6.159828e-03
  2.719967e+00    4.804548e-01   6.201550e-03
  2.722177e+00    4.679229e-01   6.114132e-03
  2.724387e+00    4.815222e-01   6.196253e-03
  2.726598e+00    4.761770e-01   6.155761e-03
  2.728808e+00    4.771397e-01   6.155900e-03
  2.731019e+00    4.852882e-01   6.202103e-03
  2.733229e+00    4.782319e-01   6.151085e-03
  2.735440e+00    4.753406e-01   6.126240e-03
  2.737650e+00    4.788874e-01   6.143080e-03
  2.739861e+00    4.700440e-01   6.080107e-03
  2.742071e+00    4.718274e-01   6.085943e-03
  2.744282e+00    4.819221e-01   6.144460e-03
  2.746492e+00    4.857506e-01   6.162778e-03
  2.748702e+00    4.771861e-01   6.102321e-03
  2.750913e+00    4.795291e-01   6.111515e-03
  2.753123e+00    4.692743e-01   6.039762e-03
  2.755334e+00    4.861810e-01   6.141492e-03
  2.757544e+00    4.662668e-01   6.008755e-03
  2.759755e+00    4.708086e-01   6.032113e-03
  2.761965e+00    4.646567e-01   5.986690e-03
  2.764176e+00    4.707595e-01   6.019954e-03
  2.766386e+00    4.663700e-01   5.986112e-03
  2.768597e+00    4.734736e-01   6.025695e-03
  2.770807e+00    4.721989e-01   6.011760e-03
  2.773017e+00    4.741262e-01   6.018063e-03
  2.775228e+00    4.787305e-01   6.041432e-03
  2.777438e+00    4.803557e-01   6.045858e-03
  2.779649e+00    4.761260e-01   6.013311e-03
  2.781859e+00    4.718510e-01   5.980525e-03
  2.784070e+00    4.661154e-01   5.938271e-03
  2.786280e+00    4.648221e-01   5.924324e-03
  2.788491e+00    4.690706e-01   5.945562e-03
  2.790701e+00    4.695856e-01   5.943212e-03
  2.792912e+00    4.738600e-01   5.964256e-03
  2.795122e+00    4.680333e-01   5.921788e-03
  2.797333e+00    4.710307e-01   5.935186e-03
  2.799543e+00    4.781166e-01   5.973779e-03
  2.801753e+00    4.671736e-01   5.899232e-03
  2.803964e+00    4.630457e-01   5.867500e-03
  2.806174e+00    4.692285e-01   5.900450e-03
  2.808385e+00    4.621753e-01   5.849229e-03
  2.810595e+00    4.657777e-01   5.865180e-03
  2.812806e+00    4.706679e-01   5.889295e-03
  2.815016e+00    4.736194e-01   5.903001e-03
  2.817227e+00    4.689884e-01   5.899863e-03
  2.819437e+00    4.692866e-01   5.912765e-03
  2.821648e+00    4.638567e-01   5.880723e-03
  2.823858e+00    4.642940e-01   5.888773e-03
  2.826068e+00    4.583423e-01   5.855818e-03
  2.828279e+00    4.611910e-01   5.877975e-03
  2.830489e+00    4.543169e-01   5.837288e-03
  2.832700e+00    4.609668e-01   5.882352e-03
  2.834910e+00    4.697640e-01   5.940306e-03
  2.837121e+00    4.723305e-01   5.958210e-03
  2.839331e+00    4.833853e-01   6.028779e-03
  2.841542e+00    4.730363e-01   5.964914e-03
  2.843752e+00    4.811932e-01   6.016920e-03
  2.845963e+00    4.726065e-01   5.963389e-03
  2.848173e+00    4.735467e-01   5.969402e-03
  2.850383e+00    4.678512e-01   5.933702e-03
  2.852594e+00    4.636137e-01   5.906682e-03
  2.854804e+00    4.532718e-01   5.839922e-03
  2.857015e+00    4.698513e-01   5.945349e-03
  2.859225e+00    4.585394e-01   5.873086e-03
  2.861436e+00    4.674443e-01   5.929186e-03
  2.863646e+00    4.668677e-01   5.925572e-03
  2.865857e+00    4.481518e-01   5.805919e-03
  2.868067e+00    4.649753e-01   5.914103e-03
  2.870278e+00    4.517030e-01   5.828749e-03
  2.872488e+00    4.556462e-01   5.852979e-03
  2.874698e+00    4.529915e-01   5.834875e-03
  2.876909e+00    4.474489e-01   5.797752e-03
  2.879119e+00    4.624435e-01   5.892486e-03
  2.881330e+00    4.553889e-01   5.845908e-03
  2.883540e+00    4.540581e-01   5.835980e-03
  2.885751e+00    4.578087e-01   5.858403e-03
  2.887961e+00    4.492483e-01   5.801511e-03
  2.890172e+00    4.615140e-01   5.878564e-03
  2.892382e+00    4.658488e-01   5.904302e-03
  2.894593e+00    4.643037e-01   5.892684e-03
  2.896803e+00    4.483413e-01   5.788548e-03
  2.899014e+00    4.486568e-01   5.788689e-03
  2.901224e+00    4.543025e-01   5.823039e-03
  2.903434e+00    4.510230e-01   5.800026e-03
  2.905645e+00    4.573754e-01   5.838533e-03
  2.907855e+00    4.527849e-01   5.807070e-03
  2.910066e+00    4.629066e-01   5.869518e-03
  2.912276e+00    4.623816e-01   5.864083e-03
  2.914487e+00    4.618670e-01   5.858343e-03
  2.916697e+00    4.494433e-01   5.776812e-03
  2.918908e+00    4.441832e-01   5.740932e-03
  2.921118e+00    4.530394e-01   5.795194e-03
  2.923329e+00    4.554506e-01   5.808305e-03
  2.925539e+00    4.543042e-01   5.798704e-03
  2.927749e+00    4.534644e-01   5.791054e-03
  2.929960e+00    4.453151e-01   5.736025e-03
  2.932170e+00    4.686271e-01   5.881897e-03
  2.934381e+00    4.504228e-01   5.764097e-03
  2.936591e+00    4.520015e-01   5.771630e-03
  2.938802e+00    4.377593e-01   5.677315e-03
  2.941012e+00    4.474300e-01   5.737368e-03
  2.943223e+00    4.460495e-01   5.725838e-03
  2.945433e+00    4.509841e-01   5.753709e-03
  2.947644e+00    4.563331e-01   5.783591e-03
  2.949854e+00    4.403078e-01   5.676939e-03
  2.952064e+00    4.503405e-01   5.737039e-03
  2.954275e+00    4.432533e-01   5.687369e-03
  2.956485e+00    4.601840e-01   5.790752e-03
  2.958696e+00    4.669733e-01   5.828885e-03
  2.960906e+00    4.572119e-01   5.763464e-03
  2.963117e+00    4.409358e-01   5.655529e-03
  2.965327e+00    4.489682e-01   5.702918e-03
  2.967538e+00    4.395057e-01   5.639644e-03
  2.969748e+00    4.404088e-01   5.642653e-03
  2.971959e+00    4.514209e-01   5.709641e-03
  2.974169e+00    4.521227e-01   5.711495e-03
  2.976379e+00    4.558638e-01   5.732155e-03
  2.978590e+00    4.534764e-01   5.714012e-03
  2.980800e+00    4.443060e-01   5.653155e-03
  2.983011e+00    4.530042e-01   5.705430e-03
  2.985221e+00    4.518783e-01   5.695197e-03
  2.987432e+00    4.419011e-01   5.628892e-03
  2.989642e+00    4.537062e-01   5.700975e-03
  2.991853e+00    4.484650e-01   5.664674e-03
  2.994063e+00    4.501401e-01   5.672361e-03
  2.996274e+00    4.388614e-01   5.597713e-03
  2.998484e+00    4.521067e-01   5.678853e-03
  3.000694e+00    4.486184e-01   5.653483e-03
  3.002905e+00    4.485408e-01   5.650062e-03
  3.005115e+00    4.631822e-01   5.738518e-03
  3.007326e+00    4.559713e-01   5.690530e-03
  3.009536e+00    4.532684e-01   5.670366e-03
  3.011747e+00    4.593723e-01   5.705501e-03
  3.013957e+00    4.584407e-01   5.696506e-03
  3.016168e+00    4.519553e-01   5.652817e-03
  3.018378e+00    4.430490e-01   5.593833e-03
  3.020589e+00    4.439073e-01   5.596075e-03
  3.022799e+00    4.454265e-01   5.602486e-03
  3.025010e+00    4.552891e-01   5.660934e-03
  3.027220e+00    4.553732e-01   5.658333e-03
  3.029430e+00    4.575180e-01   5.668389e-03
  3.031641e+00    4.590414e-01   5.674635e-03
  3.033851e+00    4.687262e-01   5.730622e-03
  3.036062e+00    4.563496e-01   5.651664e-03
  3.038272e+00    4.541314e-01   5.634308e-03
  3.040483e+00    4.536776e-01   5.628275e-03
  3.042693e+00    4.504977e-01   5.605257e-03
  3.044904e+00    4.429151e-01   5.553884e-03
  3.047114e+00    4.480577e-01   5.581250e-03
  3.049325e+00    4.589497e-01   5.644242e-03
  3.051535e+00    4.465827e-01   5.563320e-03
  3.053745e+00    4.496774e-01   5.577805e-03
  3.055956e+00    4.468695e-01   5.555812e-03
  3.058166e+00    4.495963e-01   5.568471e-03
  3.060377e+00    4.512311e-01   5.573820e-03
  3.062587e+00    4.523675e-01   5.576180e-03
  3.064798e+00    4.541864e-01   5.583128e-03
  3.067008e+00    4.547884e-01   5.582043e-03
  3.069219e+00    4.647182e-01   5.638089e-03
  3.071429e+00    4.617981e-01   5.616778e-03
  3.073640e+00    4.462636e-01   5.518198e-03
  3.075850e+00    4.393283e-01   5.471572e-03
  3.078060e+00    4.692159e-01   5.651478e-03
  3.080271e+00    4.535742e-01   5.552988e-03
  3.082481e+00    4.456693e-01   5.500943e-03
  3.084692e+00    4.471110e-01   5.506471e-03
  3.086902e+00    4.344856e-01   5.424975e-03
  3.089113e+00    4.402498e-01   5.457286e-03
  3.091323e+00    4.450189e-01   5.483418e-03
  3.093534e+00    4.567345e-01   5.551694e-03
  3.095744e+00    4.544050e-01   5.534151e-03
  3.097955e+00    4.521843e-01   5.517040e-03
  3.100165e+00    4.381063e-01   5.427172e-03
  3.102375e+00    4.319980e-01   5.385853e-03
  3.104586e+00    4.395008e-01   5.428946e-03
  3.106796e+00    4.496600e-01   5.487791e-03
  3.109007e+00    4.517173e-01   5.497119e-03
  3.111217e+00    4.365376e-01   5.400305e-03
  3.113428e+00    4.395451e-01   5.415469e-03
  3.115638e+00    4.354501e-01   5.387015e-03
  3.117849e+00    4.506893e-01   5.476692e-03
  3.120059e+00    4.393691e-01   5.404049e-03
  3.122270e+00    4.352341e-01   5.375336e-03
  3.124480e+00    4.452636e-01   5.433224e-03
  3.126691e+00    4.370416e-01   5.379306e-03
  3.128901e+00    4.353741e-01   5.365934e-03
  3.131111e+00    4.397929e-01   5.389275e-03
  3.133322e+00    4.489235e-01   5.441467e-03
  3.135532e+00    4.489243e-01   5.438058e-03
  3.137743e+00    4.501929e-01   5.442227e-03
  3.139953e+00    4.450932e-01   5.407637e-03
  3.142164e+00    4.365541e-01   5.367433e-03
  3.144374e+00    4.268296e-01   5.335216e-03
  3.146585e+00    4.524248e-01   5.507583e-03
  3.148795e+00    4.222267e-01   5.331129e-03
  3.151006e+00    4.353558e-01   5.421853e-03
  3.153216e+00    4.500356e-01   5.519705e-03
  3.155426e+00    4.433605e-01   5.484963e-03
  3.157637e+00    4.395244e-01   5.466689e-03
  3.159847e+00    4.553802e-01   5.569380e-03
  3.162058e+00    4.438963e-01   5.503156e-03
  3.164268e+00    4.359785e-01   5.457903e-03
  3.166479e+00    4.230948e-01   5.380240e-03
  3.168689e+00    4.364403e-01   5.467764e-03
  3.170900e+00    4.306749e-01   5.434696e-03
  3.173110e+00    4.357578e-01   5.469524e-03
  3.175321e+00    4.344646e-01   5.463885e-03
  3.177531e+00    4.333558e-01   5.459629e-03
  3.179741e+00    4.465298e-01   5.544089e-03
  3.181952e+00    4.460562e-01   5.543290e-03
  3.184162e+00    4.291091e-01   5.439133e-03
  3.186373e+00    4.382877e-01   5.498591e-03
  3.188583e+00    4.195367e-01   5.381447e-03
  3.190794e+00    4.256450e-01   5.422193e-03
  3.193004e+00    4.245876e-01   5.416701e-03
  3.195215e+00    4.266545e-01   5.431347e-03
  3.197425e+00    4.318697e-01   5.465636e-03
  3.199636e+00    4.345277e-01   5.481684e-03
  3.201846e+00    4.289936e-01   5.446055e-03
  3.204056e+00    4.225376e-01   5.405786e-03
  3.206267e+00    4.345056e-01   5.482667e-03
  3.208477e+00    4.242309e-01   5.418386e-03
  3.210688e+00    4.165388e-01   5.369841e-03
  3.212898e+00    4.147908e-01   5.359128e-03
  3.215109e+00    4.259135e-01   5.431258e-03
  3.217319e+00    4.207239e-01   5.398701e-03
  3.219530e+00    4.187842e-01   5.386618e-03
  3.221740e+00    4.233747e-01   5.416623e-03
  3.223951e+00    4.271612e-01   5.441256e-03
  3.226161e+00    4.204191e-01   5.398335e-03
  3.228372e+00    4.091055e-01   5.325736e-03
  3.230582e+00    4.211730e-01   5.403802e-03
  3.232792e+00    4.326658e-01   5.477307e-03
  3.235003e+00    4.224266e-01   5.412335e-03
  3.237213e+00    4.254098e-01   5.431517e-03
  3.239424e+00    4.254632e-01   5.431844e-03
  3.241634e+00    4.319526e-01   5.473252e-03
  3.243845e+00    4.223065e-01   5.411855e-03
  3.246055e+00    4.340696e-01   5.486435e-03
  3.248266e+00    4.335718e-01   5.483503e-03
  3.250476e+00    4.188009e-01   5.388982e-03
  3.252687e+00    4.217127e-01   5.407610e-03
  3.254897e+00    4.172020e-01   5.378472e-03
  3.257107e+00    4.317118e-01   5.470903e-03
  3.259318e+00    4.268590e-01   5.439826e-03
  3.261528e+00    4.301922e-01   5.460898e-03
  3.263739e+00    4.149136e-01   5.362499e-03
  3.265949e+00    4.190543e-01   5.389046e-03
  3.268160e+00    4.260614e-01   5.433504e-03
  3.270370e+00    4.178523e-01   5.380410e-03
  3.272581e+00    4.253204e-01   5.427983e-03
  3.274791e+00    4.224105e-01   5.408893e-03
  3.277002e+00    4.125731e-01   5.344947e-03
  3.279212e+00    4.263331e-01   5.432982e-03
  3.281422e+00    4.189945e-01   5.385445e-03
  3.283633e+00    4.278667e-01   5.441481e-03
  3.285843e+00    4.102278e-01   5.327802e-03
  3.288054e+00    4.279969e-01   5.441024e-03
  3.290264e+00    4.237358e-01   5.413559e-03
  3.292475e+00    4.299852e-01   5.452505e-03
  3.294685e+00    4.168988e-01   5.368238e-03
  3.296896e+00    4.362244e-01   5.490508e-03
  3.299106e+00    4.256493e-01   5.422984e-03
  3.301317e+00    4.243682e-01   5.413795e-03
  3.303527e+00    4.181349e-01   5.373421e-03
  3.305737e+00    4.199629e-01   5.384111e-03
  3.307948e+00    4.215108e-01   5.393347e-03
  3.310158e+00    4.187982e-01   5.375146e-03
  3.312369e+00    4.088871e-01   5.310263e-03
  3.314579e+00    4.055449e-01   5.287644e-03
  3.316790e+00    4.195678e-01   5.377566e-03
  3.319000e+00    4.144624e-01   5.343570e-03
  3.321211e+00    4.201618e-01   5.379606e-03
  3.323421e+00    4.063602e-01   5.289313e-03
  3.325632e+00    4.068296e-01   5.291497e-03
  3.327842e+00    4.230495e-01   5.395027e-03
  3.330052e+00    4.215315e-01   5.384276e-03
  3.332263e+00    4.215730e-01   5.383540e-03
  3.334473e+00    4.126739e-01   5.325503e-03
  3.336684e+00    4.120646e-01   5.320312e-03
  3.338894e+00    4.181075e-01   5.358349e-03
  3.341105e+00    4.137489e-01   5.329148e-03
  3.343315e+00    4.125217e-01   5.320117e-03
  3.345526e+00    4.133018e-01   5.324231e-03
  3.347736e+00    4.150884e-01   5.334352e-03
  3.349947e+00    4.134042e-01   5.322577e-03
  3.352157e+00    4.154755e-01   5.334731e-03
  3.354368e+00    4.201166e-01   5.363145e-03
  3.356578e+00    4.094633e-01   5.293715e-03
  3.358788e+00    4.109553e-01   5.302030e-03
  3.360999e+00    4.235951e-01   5.381678e-03
  3.363209e+00    4.139497e-01   5.319080e-03
  3.365420e+00    4.178681e-01   5.342640e-03
  3.367630e+00    4.174730e-01   5.339115e-03
  3.369841e+00    4.119218e-01   5.302084e-03
  3.372051e+00    4.060325e-01   5.262091e-03
  3.374262e+00    4.047288e-01   5.251233e-03
  3.376472e+00    4.069413e-01   5.263152e-03
  3.378683e+00    4.103509e-01   5.282660e-03
  3.380893e+00    4.167477e-01   5.321336e-03
  3.383103e+00    4.165733e-01   5.317510e-03
  3.385314e+00    4.169468e-01   5.317674e-03
  3.387524e+00    4.128821e-01   5.288965e-03
  3.389735e+00    4.067901e-01   5.247187e-03
  3.391945e+00    4.078029e-01   5.250053e-03
  3.394156e+00    4.165798e-01   5.302031e-03
  3.396366e+00    4.036465e-01   5.215699e-03
  3.398577e+00    3.984193e-01   5.178812e-03
  3.400787e+00    4.077800e-01   5.251165e-03
  3.402998e+00    3.965151e-01   5.215565e-03
  3.405208e+00    4.104187e-01   5.326981e-03
  3.407418e+00    3.981733e-01   5.262673e-03
  3.409629e+00    3.810790e-01   5.162070e-03
  3.411839e+00    3.904569e-01   5.236822e-03
  3.414050e+00    3.996277e-01   5.308989e-03
  3.416260e+00    3.990417e-01   5.314832e-03
  3.418471e+00    3.797792e-01   5.194183e-03
  3.420681e+00    3.884862e-01   5.261845e-03
  3.422892e+00    3.850480e-01   5.246458e-03
  3.425102e+00    3.873965e-01   5.270211e-03
  3.427313e+00    3.916397e-01   5.306246e-03
  3.429523e+00    3.811963e-01   5.242005e-03
  3.431733e+00    3.722765e-01   5.186852e-03
  3.433944e+00    3.771124e-01   5.226869e-03
  3.436154e+00    3.637560e-01   5.139553e-03
  3.438365e+00    3.718131e-01   5.202008e-03
  3.440575e+00    3.747216e-01   5.228196e-03
  3.442786e+00    3.713942e-01   5.210473e-03
  3.444996e+00    3.860147e-01   5.317618e-03
  3.447207e+00    3.712402e-01   5.220136e-03
  3.449417e+00    3.707483e-01   5.257438e-03
  3.451628e+00    3.661602e-01   5.254132e-03
  3.453838e+00    3.576927e-01   5.213919e-03
  3.456049e+00    3.675877e-01   5.309444e-03
  3.458259e+00    3.658575e-01   5.318863e-03
  3.460469e+00    3.584802e-01   5.284543e-03
  3.462680e+00    3.638947e-01   5.343270e-03
  3.464890e+00    3.627438e-01   5.352545e-03
  3.467101e+00    3.672726e-01   5.403313e-03
  3.469311e+00    3.848128e-01   5.547677e-03
  3.471522e+00    3.835666e-01   5.555299e-03
  3.473732e+00    3.976772e-01   5.672902e-03
  3.475943e+00    3.871979e-01   5.613455e-03
  3.478153e+00    3.977593e-01   5.705124e-03
  3.480364e+00    4.013785e-01   5.746343e-03
  3.482574e+00    3.965564e-01   5.726903e-03
  3.484784e+00    4.160561e-01   5.880979e-03
  3.486995e+00    4.243097e-01   5.954279e-03
  3.489205e+00    4.295704e-01   6.005861e-03
  3.491416e+00    4.326510e-01   6.042378e-03
  3.493626e+00    4.449106e-01   6.142144e-03
  3.495837e+00    4.504327e-01   6.195033e-03
  3.498047e+00    4.646922e-01   6.307183e-03
  3.500258e+00    4.584879e-01   6.279606e-03
  3.502468e+00    4.567043e-01   6.281851e-03
  3.504679e+00    4.605573e-01   6.322765e-03
  3.506889e+00    4.728032e-01   6.420819e-03
  3.509099e+00    4.783992e-01   6.473173e-03
  3.511310e+00    4.947349e-01   6.597518e-03
  3.513520e+00    5.002149e-01   6.648635e-03
  3.515731e+00    4.867186e-01   6.572733e-03
  3.517941e+00    4.932234e-01   6.630907e-03
  3.520152e+00    4.995602e-01   6.687724e-03
  3.522362e+00    5.149930e-01   6.804951e-03
  3.524573e+00    5.355776e-01   6.954305e-03
  3.526783e+00    5.227233e-01   6.883859e-03
  3.528994e+00    5.215794e-01   6.888637e-03
  3.531204e+00    5.159627e-01   6.863808e-03
  3.533414e+00    5.273963e-01   6.951566e-03
  3.535625e+00    5.402314e-01   7.048132e-03
  3.537835e+00    5.342053e-01   7.020863e-03
  3.540046e+00    5.261655e-01   6.976679e-03
  3.542256e+00    5.300329e-01   7.009769e-03
  3.544467e+00    5.382657e-01   7.071640e-03
  3.546677e+00    5.287063e-01   7.016082e-03
  3.548888e+00    5.305367e-01   7.035670e-03
  3.551098e+00    5.418890e-01   7.117878e-03
  3.553309e+00    5.466211e-01   7.157133e-03
  3.555519e+00    5.473502e-01   7.173337e-03
  3.557729e+00    5.373479e-01   7.119221e-03
  3.559940e+00    5.381247e-01   7.135922e-03
  3.562150e+00    5.291110e-01   7.087572e-03
  3.564361e+00    5.190682e-01   7.033072e-03
  3.566571e+00    5.205150e-01   7.056498e-03
  3.568782e+00    5.290787e-01   7.128316e-03
  3.570992e+00    5.382716e-01   7.203784e-03
  3.573203e+00    5.369934e-01   7.209380e-03
  3.575413e+00    5.381225e-01   7.230772e-03
  3.577624e+00    5.183944e-01   7.110856e-03
  3.579834e+00    5.202273e-01   7.137108e-03
  3.582045e+00    5.122808e-01   7.096104e-03
  3.584255e+00    5.206487e-01   7.167662e-03
  3.586465e+00    5.390331e-01   7.307080e-03
  3.588676e+00    5.634067e-01   7.485030e-03
  3.590886e+00    5.305956e-01   7.277444e-03
  3.593097e+00    5.310510e-01   7.294996e-03
  3.595307e+00    5.323761e-01   7.317977e-03
  3.597518e+00    5.286838e-01   7.306702e-03
  3.599728e+00    5.323138e-01   7.345732e-03
  3.601939e+00    5.488485e-01   7.473254e-03
  3.604149e+00    5.486065e-01   7.486159e-03
  3.606360e+00    5.260729e-01   7.344838e-03
  3.608570e+00    5.355230e-01   7.424655e-03
  3.610780e+00    5.355338e-01   7.435815e-03
  3.612991e+00    5.286346e-01   7.397715e-03
  3.615201e+00    5.302625e-01   7.418843e-03
  3.617412e+00    5.316666e-01   7.435917e-03
  3.619622e+00    5.464147e-01   7.544330e-03
  3.621833e+00    5.509913e-01   7.582729e-03
  3.624043e+00    5.281131e-01   7.433076e-03
  3.626254e+00    5.323021e-01   7.472143e-03
  3.628464e+00    5.407798e-01   7.542486e-03
  3.630675e+00    5.317428e-01   7.493297e-03
  3.632885e+00    5.138463e-01   7.380292e-03
  3.635095e+00    5.240033e-01   7.467112e-03
  3.637306e+00    5.269764e-01   7.502567e-03
  3.639516e+00    5.273876e-01   7.519933e-03
  3.641727e+00    5.226863e-01   7.500789e-03
  3.643937e+00    5.099581e-01   7.423095e-03
  3.646148e+00    5.280455e-01   7.568158e-03
  3.648358e+00    5.228148e-01   7.545263e-03
  3.650569e+00    5.318835e-01   7.625157e-03
  3.652779e+00    5.394359e-01   7.693947e-03
  3.654990e+00    5.216568e-01   7.580888e-03
  3.657200e+00    5.465344e-01   7.774553e-03
  3.659410e+00    5.467462e-01   7.791309e-03
  3.661621e+00    5.281799e-01   7.672918e-03
  3.663831e+00    5.199841e-01   7.628090e-03
  3.666042e+00    5.112389e-01   7.578535e-03
  3.668252e+00    5.439731e-01   7.832783e-03
  3.670463e+00    5.482456e-01   7.879020e-03
  3.672673e+00    5.275558e-01   7.744280e-03
  3.674884e+00    5.288443e-01   7.769072e-03
  3.677094e+00    5.296932e-01   7.790843e-03
  3.679305e+00    5.292701e-01   7.803248e-03
  3.681515e+00    5.316872e-01   7.836710e-03
  3.683726e+00    5.249409e-01   7.802549e-03
  3.685936e+00    5.347525e-01   7.890910e-03
  3.688146e+00    5.264472e-01   7.845166e-03
  3.690357e+00    5.179402e-01   7.797330e-03
  3.692567e+00    5.066383e-01   7.727573e-03
  3.694778e+00    5.033897e-01   7.718440e-03
  3.696988e+00    5.202037e-01   7.862180e-03
  3.699199e+00    5.311009e-01   7.960439e-03
  3.701409e+00    5.311503e-01   7.977286e-03
  3.703620e+00    5.222315e-01   7.926295e-03
  3.705830e+00    5.074661e-01   7.829580e-03
  3.708041e+00    5.153022e-01   7.906219e-03
  3.710251e+00    5.216640e-01   7.971597e-03
  3.712461e+00    5.367798e-01   8.103167e-03
  3.714672e+00    5.252221e-01   8.032327e-03
  3.716882e+00    5.227240e-01   8.029907e-03
  3.719093e+00    5.158941e-01   7.994337e-03
  3.721303e+00    5.264987e-01   8.093133e-03
  3.723514e+00    5.291351e-01   8.130823e-03
  3.725724e+00    5.118560e-01   8.014028e-03
  3.727935e+00    5.072498e-01   7.995143e-03
  3.730145e+00    5.269733e-01   8.166559e-03
  3.732356e+00    5.176635e-01   8.111720e-03
  3.734566e+00    5.157872e-01   8.114540e-03
  3.736776e+00    5.130853e-01   8.110981e-03
  3.738987e+00    4.874976e-01   7.923434e-03
  3.741197e+00    4.956677e-01   8.007208e-03
  3.743408e+00    5.108080e-01   8.146605e-03
  3.745618e+00    5.223326e-01   8.256451e-03
  3.747829e+00    5.057234e-01   8.142181e-03
  3.750039e+00    4.933988e-01   8.060326e-03
  3.752250e+00    5.014002e-01   8.143757e-03
  3.754460e+00    5.156929e-01   8.277611e-03
  3.756671e+00    5.224498e-01   8.350763e-03
  3.758881e+00    5.124792e-01   8.289367e-03
  3.761091e+00    5.257851e-01   8.415816e-03
  3.763302e+00    4.909099e-01   8.150588e-03
  3.765512e+00    5.039572e-01   8.277425e-03
  3.767723e+00    5.149772e-01   8.386910e-03
  3.769933e+00    4.906678e-01   8.205646e-03
  3.772144e+00    4.823731e-01   8.155019e-03
  3.774354e+00    5.062764e-01   8.374546e-03
  3.776565e+00    5.073405e-01   8.403204e-03
  3.778775e+00    5.246179e-01   8.565467e-03
  3.780986e+00    5.055022e-01   8.428336e-03
  3.783196e+00    4.828397e-01   8.257007e-03
  3.785407e+00    5.081277e-01   8.491024e-03
  3.787617e+00    5.168905e-01   8.584961e-03
  3.789827e+00    4.959732e-01   8.429895e-03
  3.792038e+00    4.923755e-01   8.419870e-03
  3.794248e+00    4.930009e-01   8.446197e-03
  3.796459e+00    4.995609e-01   8.523551e-03
  3.798669e+00    4.785853e-01   8.363579e-03
  3.800880e+00    4.842721e-01   8.434199e-03
  3.803090e+00    5.063595e-01   8.646335e-03
  3.805301e+00    5.034424e-01   8.643594e-03
  3.807511e+00    4.984454e-01   8.622547e-03
  3.809722e+00    4.866566e-01   8.541889e-03
  3.811932e+00    4.996024e-01   8.677000e-03
  3.814142e+00    5.085673e-01   8.777620e-03
  3.816353e+00    4.757451e-01   8.511914e-03
  3.818563e+00    4.997692e-01   8.747309e-03
  3.820774e+00    5.043560e-01   8.810668e-03
  3.822984e+00    5.049031e-01   8.838972e-03
  3.825195e+00    5.130845e-01   8.934402e-03
  3.827405e+00    5.049847e-01   8.887686e-03
  3.829616e+00    4.880543e-01   8.761223e-03
  3.831826e+00    4.837768e-01   8.746624e-03
  3.834037e+00    4.790647e-01   8.727928e-03
  3.836247e+00    4.726999e-01   8.693823e-03
  3.838457e+00    5.011909e-01   8.977188e-03
  3.840668e+00    4.953245e-01   8.949631e-03
  3.842878e+00    4.807648e-01   8.842275e-03
  3.845089e+00    4.907682e-01   8.959167e-03
  3.847299e+00    4.995776e-01   9.065171e-03
  3.849510e+00    4.902486e-01   9.005859e-03
  3.851720e+00    4.791222e-01   8.924101e-03
  3.853931e+00    5.205712e-01   9.321604e-03
  3.856141e+00    5.090758e-01   9.237482e-03
  3.858352e+00    4.943705e-01   9.122268e-03
  3.860562e+00    5.078778e-01   9.265623e-03
  3.862772e+00    4.755017e-01   8.984670e-03
  3.864983e+00    4.893153e-01   9.133734e-03
  3.867193e+00    5.269165e-01   9.498674e-03
  3.869404e+00    4.886828e-01   9.167330e-03
  3.871614e+00    4.911891e-01   9.210677e-03
  3.873825e+00    4.858009e-01   9.180240e-03
  3.876035e+00    4.975082e-01   9.310802e-03
  3.878246e+00    4.939888e-01   9.303631e-03
  3.880456e+00    5.161718e-01   9.539953e-03
  3.882667e+00    4.895790e-01   9.320257e-03
  3.884877e+00    4.945692e-01   9.397377e-03
  3.887087e+00    4.770644e-01   9.259127e-03
  3.889298e+00    4.775833e-01   9.294095e-03
  3.891508e+00    4.881028e-01   9.426282e-03
  3.893719e+00    4.708398e-01   9.288495e-03
  3.895929e+00    4.850457e-01   9.458793e-03
  3.898140e+00    4.924031e-01   9.562044e-03
  3.900350e+00    4.988222e-01   9.656532e-03
  3.902561e+00    5.019971e-01   9.720002e-03
  3.904771e+00    4.920803e-01   9.656420e-03
  3.906982e+00    5.177656e-01   9.939266e-03
  3.909192e+00    5.005133e-01   9.806268e-03
  3.911403e+00    4.818272e-01   9.655179e-03
  3.913613e+00    4.905044e-01   9.775981e-03
  3.915823e+00    4.762400e-01   9.667266e-03
  3.918034e+00    4.714888e-01   9.653522e-03
  3.920244e+00    4.679961e-01   9.652651e-03
  3.922455e+00    4.914306e-01   9.927595e-03
  3.924665e+00    4.858835e-01   9.907759e-03
  3.926876e+00    5.026214e-01   1.011464e-02
  3.929086e+00    4.823909e-01   9.946112e-03
  3.931297e+00    4.889463e-01   1.004834e-02
  3.933507e+00    4.775517e-01   9.959290e-03
  3.935718e+00    4.762610e-01   9.974091e-03
  3.937928e+00    4.680944e-01   9.917206e-03
  3.940138e+00    4.555282e-01   9.811431e-03
  3.942349e+00    4.980266e-01   1.028913e-02
  3.944559e+00    4.896966e-01   1.023285e-02
  3.946770e+00    4.896488e-01   1.026255e-02
  3.948980e+00    5.272216e-01   1.068097e-02
  3.951191e+00    4.982582e-01   1.041481e-02
  3.953401e+00    4.543102e-01   9.975151e-03
  3.955612e+00    4.735447e-01   1.021527e-02
  3.957822e+00    4.917603e-01   1.044178e-02
  3.960033e+00    5.209804e-01   1.078132e-02
  3.962243e+00    4.762676e-01   1.034091e-02
  3.964453e+00    4.390581e-01   9.960106e-03
  3.966664e+00    4.833593e-01   1.048387e-02
  3.968874e+00    4.915974e-01   1.060138e-02
  3.971085e+00    4.993525e-01   1.070699e-02
  3.973295e+00    4.840750e-01   1.056329e-02
  3.975506e+00    4.832232e-01   1.057566e-02
  3.977716e+00    4.711072e-01   1.046377e-02
  3.979927e+00    4.687494e-01   1.045940e-02
  3.982137e+00    4.672110e-01   1.046400e-02
  3.984348e+00    4.842458e-01   1.067562e-02
  3.986558e+00    4.928444e-01   1.079246e-02
  3.988768e+00    4.965392e-01   1.085620e-02
  3.990979e+00    5.083873e-01   1.100819e-02
  3.993189e+00    4.969739e-01   1.090728e-02
  3.995400e+00    4.766384e-01   1.070514e-02
  3.997610e+00    5.122128e-01   1.112807e-02
  3.999821e+00    4.976827e-01   1.100717e-02
  4.002031e+00    5.052531e-01   1.112972e-02
  4.004242e+00    5.085493e-01   1.120535e-02
  4.006452e+00    4.955364e-01   1.110090e-02
  4.008663e+00    4.956218e-01   1.114237e-02
  4.010873e+00    4.630902e-01   1.080955e-02
  4.013084e+00    4.353721e-01   1.051980e-02
  4.015294e+00    4.709866e-01   1.098199e-02
  4.017504e+00    4.775482e-01   1.109982e-02
  4.019715e+00    4.631201e-01   1.097247e-02
  4.021925e+00    4.603346e-01   1.098129e-02
  4.024136e+00    4.817082e-01   1.127690e-02
  4.026346e+00    5.037182e-01   1.157662e-02
  4.028557e+00    4.895406e-01   1.145727e-02
  4.030767e+00    4.926679e-01   1.153976e-02
  4.032978e+00    4.829710e-01   1.147202e-02
  4.035188e+00    4.563239e-01   1.119591e-02
  4.037399e+00    4.312564e-01   1.092887e-02
  4.039609e+00    4.723731e-01   1.148517e-02
  4.041819e+00    5.061781e-01   1.193893e-02
  4.044030e+00    4.876372e-01   1.176843e-02
  4.046240e+00    5.064605e-01   1.204447e-02
  4.048451e+00    4.523632e-01   1.143240e-02
  4.050661e+00    4.556633e-01   1.152386e-02
  4.052872e+00    5.035695e-01   1.216847e-02
  4.055082e+00    4.542664e-01   1.160937e-02
  4.057293e+00    4.403558e-01   1.148157e-02
  4.059503e+00    4.391462e-01   1.151780e-02
  4.061714e+00    4.474455e-01   1.168068e-02
  4.063924e+00    4.608539e-01   1.190974e-02
  4.066134e+00    5.028974e-01   1.249983e-02
  4.068345e+00    4.979052e-01   1.249752e-02
  4.070555e+00    4.848828e-01   1.239267e-02
  4.072766e+00    4.323166e-01   1.175915e-02
  4.074976e+00    4.833757e-01   1.249616e-02
  4.077187e+00    4.665710e-01   1.233810e-02
  4.079397e+00    4.730552e-01   1.248704e-02
  4.081608e+00    4.657709e-01   1.245494e-02
  4.083818e+00    4.489773e-01   1.229188e-02
  4.086029e+00    4.802339e-01   1.277958e-02
  4.088239e+00    5.042949e-01   1.316646e-02
  4.090449e+00    4.571883e-01   1.260439e-02
  4.092660e+00    4.749761e-01   1.291777e-02
  4.094870e+00    4.791509e-01   1.304669e-02
  4.097081e+00    4.619136e-01   1.287998e-02
  4.099291e+00    4.677978e-01   1.301549e-02
  4.101502e+00    4.589354e-01   1.293957e-02
  4.103712e+00    4.714923e-01   1.316435e-02
  4.105923e+00    4.959444e-01   1.355372e-02
  4.108133e+00    4.973917e-01   1.362565e-02
  4.110344e+00    4.776300e-01   1.340346e-02
  4.112554e+00    4.452680e-01   1.299250e-02
  4.114764e+00    4.767928e-01   1.349859e-02
  4.116975e+00    4.488666e-01   1.314896e-02
  4.119185e+00    4.461397e-01   1.316207e-02
  4.121396e+00    4.601680e-01   1.342277e-02
  4.123606e+00    4.693957e-01   1.361212e-02
  4.125817e+00    4.697576e-01   1.367463e-02
  4.128027e+00    4.627258e-01   1.362887e-02
  4.130238e+00    4.612028e-01   1.366500e-02
  4.132448e+00    4.988009e-01   1.427259e-02
  4.134659e+00    4.941007e-01   1.426630e-02
  4.136869e+00    5.175465e-01   1.466600e-02
  4.139080e+00    4.767971e-01   1.414028e-02
  4.141290e+00    5.267789e-01   1.492878e-02
  4.143500e+00    4.998662e-01   1.460950e-02
  4.145711e+00    4.880078e-01   1.450258e-02
  4.147921e+00    4.655609e-01   1.423000e-02
  4.150132e+00    4.703061e-01   1.437073e-02
  4.152342e+00    5.076954e-01   1.500335e-02
  4.154553e+00    4.689148e-01   1.448761e-02
  4.156763e+00    4.721160e-01   1.460884e-02
  4.158974e+00    4.593069e-01   1.448173e-02
  4.161184e+00    4.396424e-01   1.423868e-02
  4.163395e+00    4.646174e-01   1.471190e-02
  4.165605e+00    4.942982e-01   1.525384e-02
  4.167815e+00    5.213321e-01   1.574697e-02
  4.170026e+00    4.609703e-01   1.488547e-02
  4.172236e+00    5.101733e-01   1.574427e-02
  4.174447e+00    4.808826e-01   1.536883e-02
  4.176657e+00    4.735642e-01   1.533499e-02
  4.178868e+00    4.665902e-01   1.530748e-02
  4.181078e+00    5.032976e-01   1.598806e-02
  4.183289e+00    4.839514e-01   1.576742e-02
  4.185499e+00    4.618059e-01   1.549320e-02
  4.187710e+00    4.632815e-01   1.560895e-02
  4.189920e+00    4.641123e-01   1.571706e-02
  4.192130e+00    4.634064e-01   1.580102e-02
  4.194341e+00    4.357072e-01   1.541534e-02
  4.196551e+00    4.655666e-01   1.603585e-02
  4.198762e+00    5.038922e-01   1.678866e-02
  4.200972e+00    5.157763e-01   1.709563e-02
  4.203183e+00    5.021726e-01   1.697968e-02
  4.205393e+00    5.017584e-01   1.708579e-02
  4.207604e+00    4.600351e-01   1.647160e-02
  4.209814e+00    5.081776e-01   1.743038e-02
  4.212025e+00    5.330080e-01   1.797822e-02
  4.214235e+00    5.148641e-01   1.779438e-02
  4.216445e+00    4.559935e-01   1.686775e-02
  4.218656e+00    4.613996e-01   1.709415e-02
  4.220866e+00    5.109848e-01   1.812269e-02
  4.223077e+00    4.451412e-01   1.704477e-02
  4.225287e+00    5.084412e-01   1.835978e-02
  4.227498e+00    5.011110e-01   1.836996e-02
  4.229708e+00    4.408940e-01   1.737089e-02
  4.231919e+00    4.540167e-01   1.777344e-02
  4.234129e+00    4.554380e-01   1.795069e-02
  4.236340e+00    4.766869e-01   1.852122e-02
  4.238550e+00    5.268471e-01   1.964389e-02
  4.240761e+00    4.570042e-01   1.845694e-02
  4.242971e+00    4.703391e-01   1.889579e-02
  4.245181e+00    5.181649e-01   2.001952e-02
  4.247392e+00    4.257228e-01   1.831605e-02
  4.249602e+00    4.438190e-01   1.888651e-02
  4.251813e+00    4.835055e-01   1.990744e-02
  4.254023e+00    4.545408e-01   1.949617e-02
  4.256234e+00    5.175258e-01   2.102527e-02
  4.258444e+00    5.073217e-01   2.103549e-02
  4.260655e+00    4.935307e-01   2.097532e-02
  4.262865e+00    4.954085e-01   2.125351e-02
  4.265076e+00    4.436613e-01   2.034197e-02
  4.267286e+00    5.039656e-01   2.193685e-02
  4.269496e+00    5.168516e-01   2.248766e-02
  4.271707e+00    4.722115e-01   2.175928e-02
  4.273917e+00    4.929705e-01   2.252011e-02
  4.276128e+00    4.715731e-01   2.231882e-02
  4.278338e+00    5.118745e-01   2.356272e-02
  4.280549e+00    5.101369e-01   2.386084e-02
  4.282759e+00    4.036863e-01   2.153069e-02
  4.284970e+00    4.710534e-01   2.360191e-02
  4.287180e+00    5.357950e-01   2.547335e-02
  4.289391e+00    5.128640e-01   2.510941e-02
  4.291601e+00    5.012829e-01   2.502254e-02
  4.293811e+00    4.793338e-01   2.466005e-02
  4.296022e+00    5.191927e-01   2.587120e-02
  4.298232e+00    5.649342e-01   2.721275e-02
  4.300443e+00    4.115317e-01   2.341732e-02
  4.302653e+00    4.491841e-01   2.467748e-02
  4.304864e+00    4.640227e-01   2.529826e-02
  4.307074e+00    4.669967e-01   2.560780e-02
  4.309285e+00    5.333581e-01   2.761580e-02
  4.311495e+00    4.455881e-01   2.547714e-02
  4.313706e+00    5.013467e-01   2.727815e-02
  4.315916e+00    4.998192e-01   2.750464e-02
  4.318126e+00    4.793889e-01   2.720342e-02
  4.320337e+00    3.830846e-01   2.456411e-02
  4.322547e+00    4.522357e-01   2.697148e-02
  4.324758e+00    5.374179e-01   2.970820e-02
  4.326968e+00    4.414555e-01   2.722902e-02
  4.329179e+00    4.640887e-01   2.822602e-02
  4.331389e+00    4.002419e-01   2.651424e-02
  4.333600e+00    3.826495e-01   2.623426e-02
  4.335810e+00    4.204713e-01   2.782843e-02
  4.338021e+00    4.788523e-01   3.007674e-02
  4.340231e+00    5.126017e-01   3.151020e-02
  4.342442e+00    4.823914e-01   3.097694e-02
  4.344652e+00    4.493735e-01   3.030418e-02
  4.346862e+00    3.197389e-01   2.591984e-02
  4.349073e+00    5.292307e-01   3.383248e-02
  4.351283e+00    3.458406e-01   2.775861e-02
  4.353494e+00    4.224568e-01   3.115249e-02
  4.355704e+00    4.414463e-01   3.235840e-02
  4.357915e+00    3.922079e-01   3.100807e-02
  4.360125e+00    3.807319e-01   3.107234e-02
  4.362336e+00    4.681582e-01   3.508424e-02
  4.364546e+00    5.528637e-01   3.881912e-02
  4.366757e+00    4.401291e-01   3.532667e-02
  4.368967e+00    2.921855e-01   2.935606e-02
  4.371177e+00    4.159236e-01   3.577057e-02
  4.373388e+00    4.260533e-01   3.701200e-02
  4.375598e+00    5.198161e-01   4.181481e-02
  4.377809e+00    5.098732e-01   4.246262e-02
  4.380019e+00    5.512014e-01   4.525940e-02
  4.382230e+00    3.709248e-01   3.816499e-02
  4.384440e+00    4.636012e-01   4.389181e-02
  4.386651e+00    5.754679e-01   5.041268e-02
  4.388861e+00    4.077628e-01   4.385920e-02
  4.391072e+00    4.138377e-01   4.573556e-02
  4.393282e+00    4.296146e-01   4.840367e-02
  4.395492e+00    3.965079e-01   4.842891e-02
  4.397703e+00    5.154738e-01   5.774827e-02
  4.399913e+00    4.132855e-01   5.432386e-02
  4.402124e+00    4.556391e-01   6.027069e-02
  4.404334e+00    5.155433e-01   6.815206e-02
  4.406545e+00    9.930223e-02   3.213864e-02
  4.408755e+00    3.004947e-01   6.062949e-02
  4.410966e+00    4.071569e-01   7.810367e-02
  4.413176e+00    9.777175e-02   4.334635e-02
  4.415387e+00   -7.663683e-01            nan
  4.417597e+00   -1.753263e+00            nan
  4.419807e+00   -1.824666e-01            nan
