# == pyFAI calibration ==
# Distance Sample to Detector: 0.216 m
# PONI: 1.166e-01, 1.308e-01 m
# Rotations: 0.000000 0.000000 0.000000 rad
# 
# == Fit2d calibration ==
# Distance Sample-beamCenter: 216.000 mm
# Center: x=1744.293, y=1555.000 pix
# Tilt: 0.000 deg  TiltPlanRot: 0.000 deg
# 
# Detector Eiger 9M	 PixelSize= 7.500e-05, 7.500e-05 m
#    Detector has a mask: True 
#    Detector has a dark current: False 
#    detector has a flat field: False 
# 
# Wavelength: 9.8e-11 m
# Mask applied: from detector
# Dark current applied: False
# Flat field applied: False
# Polarization factor: None
# Normalization factor: 1.0
# 
# Headers of the input frame:
# {
# "_array_data.header_convention": "SLS_1.0",
# "_array_data.header_contents": "# Detector: Dectris Eiger 9M, S/N E-18-0102\r\n# Pixel_size 75e-6 m x 75e-6 m\r\n# Silicon sensor, thickness 0.000450 m\r\n# Exposure_time 0.024997 s\r\n# Exposure_period 0.025000 s\r\n# Count_cutoff 62318 counts\r\n# Wavelength 0.980106 A\r\n# Detector_distance 0.215992 m\r\n# Beam_xy (1555, 1744) pixels\r\n# Start_angle 0.000000 deg.\r\n# Angle_increment 0.000000 deg.",
# "Content-Type": "application/octet-stream;",
# "conversions": "x-CBF_BYTE_OFFSET",
# "Content-Transfer-Encoding": "BINARY",
# "X-Binary-Size": "10166614",
# "X-Binary-ID": "1",
# "X-Binary-Element-Type": "signed 32-bit integer",
# "X-Binary-Element-Byte-Order": "LITTLE_ENDIAN",
# "Content-MD5": "75YBjc4QnLpwijWAckTRVQ==",
# "X-Binary-Number-of-Elements": "10166590",
# "X-Binary-Size-Fastest-Dimension": "3110",
# "X-Binary-Size-Second-Dimension": "3269",
# "X-Binary-Size-Padding": "4095"
# }
# --> H:/Proxima2a_2019-04-05/RAW_DATA/C5_gel17_position5/C5_mesh_1_data.cbf/C5_mesh_1_data.cbf000029.dat
#        q_A^-1              I           sigma 
  1.105228e-03    1.105879e+00   5.690373e-01
  3.315685e-03    1.568416e+00   4.119799e-01
  5.526141e-03    1.536275e+00   3.152874e-01
  7.736597e-03    1.472712e+00   2.607828e-01
  9.947054e-03    1.584325e+00   2.384508e-01
  1.215751e-02    1.383318e+00   2.014789e-01
  1.436797e-02    1.101349e+00   1.653630e-01
  1.657842e-02    1.279136e+00   1.658834e-01
  1.878888e-02    1.375691e+00   1.615936e-01
  2.099934e-02    1.349487e+00   1.514211e-01
  2.320979e-02    1.334259e+00   1.432033e-01
  2.542025e-02    1.447796e+00   1.425487e-01
  2.763070e-02    1.382399e+00   1.336002e-01
  2.984116e-02    1.495973e+00   1.337329e-01
  3.205162e-02    1.303336e+00   1.204521e-01
  3.426207e-02    1.257487e+00   1.144265e-01
  3.647253e-02    1.494620e+00   1.209080e-01
  3.868299e-02    1.291350e+00   1.091359e-01
  4.089344e-02    1.286767e+00   1.059572e-01
  4.310390e-02    1.390365e+00   1.072725e-01
  4.531436e-02    1.267560e+00   9.989648e-02
  4.752481e-02    1.385302e+00   1.019744e-01
  4.973527e-02    1.401305e+00   1.002578e-01
  5.194572e-02    1.497830e+00   1.014225e-01
  5.415618e-02    1.351402e+00   9.434765e-02
  5.636664e-02    1.315438e+00   9.124316e-02
  5.857709e-02    1.418721e+00   9.295294e-02
  6.078755e-02    1.402840e+00   9.073219e-02
  6.299801e-02    1.435765e+00   9.016503e-02
  6.520846e-02    1.417532e+00   8.805967e-02
  6.741892e-02    1.418475e+00   8.662847e-02
  6.962938e-02    1.400563e+00   8.470668e-02
  7.183983e-02    1.452886e+00   8.493523e-02
  7.405029e-02    1.451850e+00   8.362615e-02
  7.626074e-02    1.282715e+00   7.745606e-02
  7.847120e-02    1.306513e+00   7.706033e-02
  8.068166e-02    1.296365e+00   7.570104e-02
  8.289211e-02    1.266442e+00   7.381751e-02
  8.510257e-02    1.281578e+00   7.328614e-02
  8.731303e-02    1.363247e+00   7.461944e-02
  8.952348e-02    1.487351e+00   7.697579e-02
  9.173394e-02    1.581187e+00   7.840172e-02
  9.394439e-02    1.477902e+00   7.489832e-02
  9.615485e-02    1.429392e+00   7.280570e-02
  9.836531e-02    1.331325e+00   6.946796e-02
  1.005758e-01    1.400115e+00   7.045327e-02
  1.027862e-01    1.464592e+00   7.127648e-02
  1.049967e-01    1.329783e+00   6.719708e-02
  1.072071e-01    1.413156e+00   6.855290e-02
  1.094176e-01    1.445709e+00   6.863298e-02
  1.116280e-01    1.533687e+00   6.998551e-02
  1.138385e-01    1.469671e+00   6.783962e-02
  1.160490e-01    1.584513e+00   6.976537e-02
  1.182594e-01    1.562844e+00   6.863461e-02
  1.204699e-01    1.437195e+00   6.521066e-02
  1.226803e-01    1.422687e+00   6.429081e-02
  1.248908e-01    1.586841e+00   6.729431e-02
  1.271012e-01    1.513401e+00   6.514339e-02
  1.293117e-01    1.425598e+00   6.268193e-02
  1.315222e-01    1.447053e+00   6.261747e-02
  1.337326e-01    1.442337e+00   6.199533e-02
  1.359431e-01    1.472270e+00   6.267198e-02
  1.381535e-01    1.492647e+00   6.395125e-02
  1.403640e-01    1.495713e+00   6.429332e-02
  1.425744e-01    1.491497e+00   6.430520e-02
  1.447849e-01    1.530857e+00   6.516320e-02
  1.469953e-01    1.473057e+00   6.388114e-02
  1.492058e-01    1.530076e+00   6.503008e-02
  1.514163e-01    1.515007e+00   6.460165e-02
  1.536267e-01    1.468227e+00   6.347226e-02
  1.558372e-01    1.564972e+00   6.538538e-02
  1.580476e-01    1.556978e+00   6.505994e-02
  1.602581e-01    1.507104e+00   6.384687e-02
  1.624685e-01    1.497467e+00   6.346816e-02
  1.646790e-01    1.516155e+00   6.367958e-02
  1.668895e-01    1.575215e+00   6.472056e-02
  1.690999e-01    1.639708e+00   6.583390e-02
  1.713104e-01    1.663576e+00   6.610550e-02
  1.735208e-01    1.776606e+00   6.810194e-02
  1.757313e-01    1.804921e+00   6.842732e-02
  1.779417e-01    1.754130e+00   6.723770e-02
  1.801522e-01    1.795758e+00   6.781415e-02
  1.823626e-01    1.725248e+00   6.624820e-02
  1.845731e-01    1.809700e+00   6.763048e-02
  1.867836e-01    1.841751e+00   6.799647e-02
  1.889940e-01    1.899897e+00   6.883584e-02
  1.912045e-01    2.017528e+00   7.069790e-02
  1.934149e-01    2.052870e+00   7.107580e-02
  1.956254e-01    1.927743e+00   6.864844e-02
  1.978358e-01    1.941584e+00   6.865836e-02
  2.000463e-01    1.827481e+00   6.638963e-02
  2.022568e-01    1.856571e+00   6.669626e-02
  2.044672e-01    1.910685e+00   6.742955e-02
  2.066777e-01    1.895406e+00   6.693646e-02
  2.088881e-01    1.984885e+00   6.827413e-02
  2.110986e-01    1.953942e+00   6.750757e-02
  2.133090e-01    1.880890e+00   6.601831e-02
  2.155195e-01    1.838693e+00   6.505702e-02
  2.177300e-01    1.824715e+00   6.430012e-02
  2.199404e-01    1.773062e+00   6.171335e-02
  2.221509e-01    1.880451e+00   6.251117e-02
  2.243613e-01    1.892335e+00   6.191342e-02
  2.265718e-01    1.971356e+00   6.249638e-02
  2.287822e-01    1.938512e+00   6.136018e-02
  2.309927e-01    2.029660e+00   6.221421e-02
  2.332031e-01    2.024512e+00   6.160346e-02
  2.354136e-01    2.121137e+00   6.254533e-02
  2.376241e-01    2.110604e+00   6.190563e-02
  2.398345e-01    2.067772e+00   6.082075e-02
  2.420450e-01    2.085859e+00   6.064960e-02
  2.442554e-01    2.062595e+00   5.989497e-02
  2.464659e-01    2.032958e+00   5.906386e-02
  2.486763e-01    2.035212e+00   5.870814e-02
  2.508868e-01    2.046887e+00   5.850488e-02
  2.530973e-01    2.046554e+00   5.813744e-02
  2.553077e-01    2.000252e+00   5.712738e-02
  2.575182e-01    1.957852e+00   5.618428e-02
  2.597286e-01    1.953853e+00   5.580057e-02
  2.619391e-01    2.017138e+00   5.637064e-02
  2.641495e-01    1.999820e+00   5.581751e-02
  2.663600e-01    1.878031e+00   5.379371e-02
  2.685704e-01    1.884763e+00   5.359790e-02
  2.707809e-01    1.885008e+00   5.331687e-02
  2.729914e-01    1.899407e+00   5.324120e-02
  2.752018e-01    1.968859e+00   5.392371e-02
  2.774123e-01    1.981292e+00   5.381740e-02
  2.796227e-01    1.977688e+00   5.350246e-02
  2.818332e-01    1.966359e+00   5.308288e-02
  2.840436e-01    1.918426e+00   5.217773e-02
  2.862541e-01    1.880946e+00   5.141716e-02
  2.884646e-01    1.900242e+00   5.143496e-02
  2.906750e-01    1.949456e+00   5.184974e-02
  2.928855e-01    1.850535e+00   5.028304e-02
  2.950959e-01    1.844749e+00   4.997375e-02
  2.973064e-01    1.843636e+00   4.973414e-02
  2.995168e-01    1.864714e+00   4.979110e-02
  3.017273e-01    1.848856e+00   4.936033e-02
  3.039377e-01    1.915937e+00   5.002780e-02
  3.061482e-01    1.882227e+00   4.937124e-02
  3.083587e-01    1.866971e+00   4.895791e-02
  3.105691e-01    1.791292e+00   4.775054e-02
  3.127796e-01    1.841500e+00   4.821155e-02
  3.149900e-01    1.812374e+00   4.762951e-02
  3.172005e-01    1.793989e+00   4.719352e-02
  3.194109e-01    1.793003e+00   4.698579e-02
  3.216214e-01    1.841092e+00   4.741744e-02
  3.238319e-01    1.818129e+00   4.693412e-02
  3.260423e-01    1.817711e+00   4.674178e-02
  3.282528e-01    1.851293e+00   4.698382e-02
  3.304632e-01    1.822810e+00   4.644037e-02
  3.326737e-01    1.812783e+00   4.613176e-02
  3.348841e-01    1.747743e+00   4.512098e-02
  3.370946e-01    1.809115e+00   4.573363e-02
  3.393050e-01    1.777514e+00   4.516074e-02
  3.415155e-01    1.790417e+00   4.515391e-02
  3.437260e-01    1.809533e+00   4.522609e-02
  3.459364e-01    1.774416e+00   4.461942e-02
  3.481469e-01    1.763157e+00   4.431529e-02
  3.503573e-01    1.702332e+00   4.338558e-02
  3.525678e-01    1.699352e+00   4.319308e-02
  3.547782e-01    1.725843e+00   4.337112e-02
  3.569887e-01    1.735515e+00   4.333839e-02
  3.591992e-01    1.718107e+00   4.296792e-02
  3.614096e-01    1.722486e+00   4.287346e-02
  3.636201e-01    1.766845e+00   4.326943e-02
  3.658305e-01    1.726025e+00   4.262080e-02
  3.680410e-01    1.747849e+00   4.274185e-02
  3.702514e-01    1.796107e+00   4.318221e-02
  3.724619e-01    1.775680e+00   4.278974e-02
  3.746724e-01    1.732712e+00   4.212780e-02
  3.768828e-01    1.759266e+00   4.230657e-02
  3.790933e-01    1.702169e+00   4.147877e-02
  3.813037e-01    1.685193e+00   4.113637e-02
  3.835142e-01    1.708973e+00   4.128954e-02
  3.857246e-01    1.743507e+00   4.156966e-02
  3.879351e-01    1.751637e+00   4.153160e-02
  3.901455e-01    1.738648e+00   4.124561e-02
  3.923560e-01    1.707236e+00   4.074143e-02
  3.945665e-01    1.682156e+00   4.031282e-02
  3.967769e-01    1.710425e+00   4.052281e-02
  3.989874e-01    1.713713e+00   4.043511e-02
  4.011978e-01    1.696119e+00   4.010329e-02
  4.034083e-01    1.667618e+00   3.964286e-02
  4.056187e-01    1.728014e+00   4.023001e-02
  4.078292e-01    1.755597e+00   4.042713e-02
  4.100397e-01    1.716965e+00   3.985777e-02
  4.122501e-01    1.725484e+00   3.983700e-02
  4.144606e-01    1.755118e+00   4.005846e-02
  4.166710e-01    1.748586e+00   3.986500e-02
  4.188815e-01    1.750384e+00   3.976765e-02
  4.210919e-01    1.741627e+00   3.955182e-02
  4.233024e-01    1.719671e+00   3.918608e-02
  4.255128e-01    1.740623e+00   3.931014e-02
  4.277233e-01    1.737052e+00   3.915696e-02
  4.299338e-01    1.751256e+00   3.920359e-02
  4.321442e-01    1.796255e+00   3.959047e-02
  4.343547e-01    1.704565e+00   3.845774e-02
  4.365651e-01    1.684965e+00   3.812735e-02
  4.387756e-01    1.665822e+00   3.780400e-02
  4.409860e-01    1.720990e+00   3.831843e-02
  4.431965e-01    1.701151e+00   3.799160e-02
  4.454070e-01    1.621941e+00   3.699336e-02
  4.476174e-01    1.622321e+00   3.689608e-02
  4.498279e-01    1.680155e+00   3.744583e-02
  4.520383e-01    1.647946e+00   3.698340e-02
  4.542488e-01    1.657680e+00   3.699244e-02
  4.564592e-01    1.666551e+00   3.699178e-02
  4.586697e-01    1.660057e+00   3.682166e-02
  4.608801e-01    1.632654e+00   3.641866e-02
  4.630906e-01    1.636773e+00   3.636801e-02
  4.653011e-01    1.648445e+00   3.640148e-02
  4.675115e-01    1.649841e+00   3.632097e-02
  4.697220e-01    1.658916e+00   3.632540e-02
  4.719324e-01    1.623657e+00   3.584431e-02
  4.741429e-01    1.662906e+00   3.618149e-02
  4.763533e-01    1.660568e+00   3.606337e-02
  4.785638e-01    1.632521e+00   3.566513e-02
  4.807743e-01    1.673159e+00   3.601449e-02
  4.829847e-01    1.608891e+00   3.522683e-02
  4.851952e-01    1.618044e+00   3.523748e-02
  4.874056e-01    1.635469e+00   3.533740e-02
  4.896161e-01    1.640858e+00   3.530778e-02
  4.918265e-01    1.637760e+00   3.518684e-02
  4.940370e-01    1.640082e+00   3.512484e-02
  4.962475e-01    1.619185e+00   3.481419e-02
  4.984579e-01    1.577410e+00   3.427745e-02
  5.006684e-01    1.629989e+00   3.475906e-02
  5.028788e-01    1.660334e+00   3.499615e-02
  5.050893e-01    1.609227e+00   3.436952e-02
  5.072997e-01    1.642944e+00   3.464383e-02
  5.095102e-01    1.590109e+00   3.400061e-02
  5.117206e-01    1.628148e+00   3.432306e-02
  5.139311e-01    1.630042e+00   3.426176e-02
  5.161416e-01    1.610910e+00   3.397962e-02
  5.183520e-01    1.587391e+00   3.365048e-02
  5.205625e-01    1.582956e+00   3.352473e-02
  5.227729e-01    1.572323e+00   3.333401e-02
  5.249834e-01    1.583037e+00   3.336975e-02
  5.271938e-01    1.606147e+00   3.353399e-02
  5.294043e-01    1.664852e+00   3.406254e-02
  5.316148e-01    1.702122e+00   3.436283e-02
  5.338252e-01    1.755649e+00   3.481919e-02
  5.360357e-01    1.744414e+00   3.462861e-02
  5.382461e-01    1.673907e+00   3.384488e-02
  5.404566e-01    1.680310e+00   3.383237e-02
  5.426670e-01    1.673911e+00   3.369181e-02
  5.448775e-01    1.698515e+00   3.386269e-02
  5.470879e-01    1.700182e+00   3.380376e-02
  5.492984e-01    1.670402e+00   3.343190e-02
  5.515089e-01    1.643798e+00   3.309103e-02
  5.537193e-01    1.725954e+00   3.383317e-02
  5.559298e-01    1.699431e+00   3.349860e-02
  5.581402e-01    1.723256e+00   3.365886e-02
  5.603507e-01    1.733596e+00   3.368623e-02
  5.625611e-01    1.751358e+00   3.378489e-02
  5.647716e-01    1.737550e+00   3.357837e-02
  5.669821e-01    1.773059e+00   3.384662e-02
  5.691925e-01    1.737908e+00   3.343752e-02
  5.714030e-01    1.681577e+00   3.282102e-02
  5.736134e-01    1.703258e+00   3.296167e-02
  5.758239e-01    1.667098e+00   3.254030e-02
  5.780343e-01    1.655649e+00   3.235977e-02
  5.802448e-01    1.646015e+00   3.219794e-02
  5.824552e-01    1.615975e+00   3.183585e-02
  5.846657e-01    1.594468e+00   3.155737e-02
  5.868762e-01    1.562208e+00   3.117145e-02
  5.890866e-01    1.607198e+00   3.155154e-02
  5.912971e-01    1.593788e+00   3.135457e-02
  5.935075e-01    1.605161e+00   3.140121e-02
  5.957180e-01    1.602281e+00   3.130865e-02
  5.979284e-01    1.558098e+00   3.081097e-02
  6.001389e-01    1.566099e+00   3.082704e-02
  6.023494e-01    1.572262e+00   3.082494e-02
  6.045598e-01    1.591116e+00   3.094606e-02
  6.067703e-01    1.601227e+00   3.098182e-02
  6.089807e-01    1.598115e+00   3.088946e-02
  6.111912e-01    1.612860e+00   3.096967e-02
  6.134016e-01    1.619516e+00   3.097162e-02
  6.156121e-01    1.610384e+00   3.082278e-02
  6.178226e-01    1.631326e+00   3.096113e-02
  6.200330e-01    1.657840e+00   3.115015e-02
  6.222435e-01    1.632038e+00   3.084559e-02
  6.244539e-01    1.628927e+00   3.075580e-02
  6.266644e-01    1.609798e+00   3.051508e-02
  6.288748e-01    1.611340e+00   3.047025e-02
  6.310853e-01    1.610195e+00   3.040028e-02
  6.332957e-01    1.637217e+00   3.059511e-02
  6.355062e-01    1.684584e+00   3.097425e-02
  6.377167e-01    1.624905e+00   3.036231e-02
  6.399271e-01    1.610182e+00   3.016649e-02
  6.421376e-01    1.614066e+00   3.014523e-02
  6.443480e-01    1.622535e+00   3.016669e-02
  6.465585e-01    1.695894e+00   3.078269e-02
  6.487689e-01    1.639512e+00   3.020953e-02
  6.509794e-01    1.610098e+00   2.988083e-02
  6.531899e-01    1.580363e+00   2.954797e-02
  6.554003e-01    1.552362e+00   2.922997e-02
  6.576108e-01    1.546654e+00   2.912186e-02
  6.598212e-01    1.541812e+00   2.902221e-02
  6.620317e-01    1.550487e+00   2.904980e-02
  6.642421e-01    1.523690e+00   2.874438e-02
  6.664526e-01    1.521379e+00   2.866968e-02
  6.686630e-01    1.508589e+00   2.849611e-02
  6.708735e-01    1.537453e+00   2.871466e-02
  6.730840e-01    1.541279e+00   2.869795e-02
  6.752944e-01    1.539541e+00   2.862963e-02
  6.775049e-01    1.553071e+00   2.870290e-02
  6.797153e-01    1.577150e+00   2.887222e-02
  6.819258e-01    1.547472e+00   2.854768e-02
  6.841362e-01    1.560745e+00   2.861830e-02
  6.863467e-01    1.552935e+00   2.849546e-02
  6.885572e-01    1.550599e+00   2.842301e-02
  6.907676e-01    1.544543e+00   2.831662e-02
  6.929781e-01    1.536076e+00   2.818871e-02
  6.951885e-01    1.534768e+00   2.812680e-02
  6.973990e-01    1.537747e+00   2.810429e-02
  6.996094e-01    1.563756e+00   2.829112e-02
  7.018199e-01    1.557538e+00   2.818526e-02
  7.040303e-01    1.516117e+00   2.775911e-02
  7.062408e-01    1.532116e+00   2.785632e-02
  7.084513e-01    1.519376e+00   2.769200e-02
  7.106617e-01    1.581962e+00   2.820748e-02
  7.128722e-01    1.544687e+00   2.782499e-02
  7.150826e-01    1.469846e+00   2.709575e-02
  7.172931e-01    1.470422e+00   2.705433e-02
  7.195035e-01    1.473499e+00   2.703605e-02
  7.217140e-01    1.502257e+00   2.734693e-02
  7.239245e-01    1.500065e+00   2.754826e-02
  7.261349e-01    1.504011e+00   2.769062e-02
  7.283454e-01    1.507597e+00   2.779446e-02
  7.305558e-01    1.490538e+00   2.768930e-02
  7.327663e-01    1.469784e+00   2.753690e-02
  7.349767e-01    1.503739e+00   2.786915e-02
  7.371872e-01    1.514918e+00   2.796161e-02
  7.393976e-01    1.473601e+00   2.756386e-02
  7.416081e-01    1.483033e+00   2.763625e-02
  7.438186e-01    1.487961e+00   2.754181e-02
  7.460290e-01    1.501355e+00   2.737821e-02
  7.482395e-01    1.524033e+00   2.741579e-02
  7.504499e-01    1.515559e+00   2.720580e-02
  7.526604e-01    1.506197e+00   2.700763e-02
  7.548708e-01    1.527750e+00   2.711211e-02
  7.570813e-01    1.522102e+00   2.701184e-02
  7.592918e-01    1.507155e+00   2.684446e-02
  7.615022e-01    1.498897e+00   2.673784e-02
  7.637127e-01    1.508693e+00   2.679298e-02
  7.659231e-01    1.511022e+00   2.678232e-02
  7.681336e-01    1.487015e+00   2.653798e-02
  7.703440e-01    1.528630e+00   2.687600e-02
  7.725545e-01    1.555094e+00   2.707695e-02
  7.747650e-01    1.527302e+00   2.679631e-02
  7.769754e-01    1.515060e+00   2.663699e-02
  7.791859e-01    1.528012e+00   2.669795e-02
  7.813963e-01    1.517058e+00   2.655051e-02
  7.836068e-01    1.543680e+00   2.673114e-02
  7.858172e-01    1.593210e+00   2.710583e-02
  7.880277e-01    1.554577e+00   2.672425e-02
  7.902381e-01    1.563800e+00   2.675470e-02
  7.924486e-01    1.549687e+00   2.658437e-02
  7.946591e-01    1.583811e+00   2.682741e-02
  7.968695e-01    1.609961e+00   2.699960e-02
  7.990800e-01    1.578859e+00   2.668974e-02
  8.012904e-01    1.588645e+00   2.672602e-02
  8.035009e-01    1.635854e+00   2.707194e-02
  8.057113e-01    1.637996e+00   2.704282e-02
  8.079218e-01    1.630036e+00   2.693050e-02
  8.101323e-01    1.596527e+00   2.660699e-02
  8.123427e-01    1.575085e+00   2.638266e-02
  8.145532e-01    1.571219e+00   2.630516e-02
  8.167636e-01    1.602934e+00   2.652465e-02
  8.189741e-01    1.600021e+00   2.645637e-02
  8.211845e-01    1.610834e+00   2.650112e-02
  8.233950e-01    1.578031e+00   2.618724e-02
  8.256054e-01    1.630715e+00   2.657667e-02
  8.278159e-01    1.609563e+00   2.636017e-02
  8.300264e-01    1.594861e+00   2.619699e-02
  8.322368e-01    1.613542e+00   2.630716e-02
  8.344473e-01    1.621147e+00   2.632597e-02
  8.366577e-01    1.583073e+00   2.597314e-02
  8.388682e-01    1.602516e+00   2.609037e-02
  8.410786e-01    1.622845e+00   2.621348e-02
  8.432891e-01    1.673737e+00   2.657905e-02
  8.454996e-01    1.643239e+00   2.629413e-02
  8.477100e-01    1.602064e+00   2.592138e-02
  8.499205e-01    1.662158e+00   2.636160e-02
  8.521309e-01    1.645596e+00   2.618904e-02
  8.543414e-01    1.637130e+00   2.608083e-02
  8.565518e-01    1.593006e+00   2.568692e-02
  8.587623e-01    1.577430e+00   2.552123e-02
  8.609727e-01    1.542740e+00   2.519990e-02
  8.631832e-01    1.541155e+00   2.514813e-02
  8.653937e-01    1.558014e+00   2.524642e-02
  8.676041e-01    1.593441e+00   2.549335e-02
  8.698146e-01    1.520037e+00   2.486117e-02
  8.720250e-01    1.547243e+00   2.504443e-02
  8.742355e-01    1.570053e+00   2.518997e-02
  8.764459e-01    1.531475e+00   2.484062e-02
  8.786564e-01    1.505402e+00   2.459155e-02
  8.808669e-01    1.522902e+00   2.469655e-02
  8.830773e-01    1.521969e+00   2.465183e-02
  8.852878e-01    1.549743e+00   2.483844e-02
  8.874982e-01    1.522327e+00   2.458205e-02
  8.897087e-01    1.517123e+00   2.450329e-02
  8.919191e-01    1.537933e+00   2.463377e-02
  8.941296e-01    1.569031e+00   2.484465e-02
  8.963401e-01    1.584132e+00   2.492768e-02
  8.985505e-01    1.567271e+00   2.475810e-02
  9.007610e-01    1.543694e+00   2.453508e-02
  9.029714e-01    1.528622e+00   2.437998e-02
  9.051819e-01    1.566435e+00   2.464283e-02
  9.073923e-01    1.561529e+00   2.456810e-02
  9.096028e-01    1.562231e+00   2.453911e-02
  9.118132e-01    1.566088e+00   2.453356e-02
  9.140237e-01    1.533406e+00   2.424036e-02
  9.162342e-01    1.544050e+00   2.429040e-02
  9.184446e-01    1.516427e+00   2.403733e-02
  9.206551e-01    1.511175e+00   2.396107e-02
  9.228655e-01    1.535436e+00   2.411813e-02
  9.250760e-01    1.555453e+00   2.423997e-02
  9.272864e-01    1.571599e+00   2.433156e-02
  9.294969e-01    1.546208e+00   2.409902e-02
  9.317074e-01    1.552411e+00   2.411319e-02
  9.339178e-01    1.563982e+00   2.416984e-02
  9.361283e-01    1.574899e+00   2.421828e-02
  9.383387e-01    1.568114e+00   2.413321e-02
  9.405492e-01    1.546904e+00   2.393594e-02
  9.427596e-01    1.584028e+00   2.418659e-02
  9.449701e-01    1.590082e+00   2.419985e-02
  9.471805e-01    1.603748e+00   2.426919e-02
  9.493910e-01    1.607643e+00   2.426530e-02
  9.516015e-01    1.639652e+00   2.447146e-02
  9.538119e-01    1.643961e+00   2.447002e-02
  9.560224e-01    1.645604e+00   2.444779e-02
  9.582328e-01    1.661426e+00   2.453206e-02
  9.604433e-01    1.701167e+00   2.478860e-02
  9.626537e-01    1.706577e+00   2.479459e-02
  9.648642e-01    1.721889e+00   2.487147e-02
  9.670747e-01    1.750394e+00   2.504189e-02
  9.692851e-01    1.793313e+00   2.531337e-02
  9.714956e-01    1.820215e+00   2.546657e-02
  9.737060e-01    1.824288e+00   2.546155e-02
  9.759165e-01    1.779052e+00   2.510846e-02
  9.781269e-01    1.781656e+00   2.509392e-02
  9.803374e-01    1.828656e+00   2.538762e-02
  9.825478e-01    1.741410e+00   2.474193e-02
  9.847583e-01    1.713048e+00   2.450626e-02
  9.869688e-01    1.745404e+00   2.470350e-02
  9.891792e-01    1.766775e+00   2.482126e-02
  9.913897e-01    1.773713e+00   2.483639e-02
  9.936001e-01    1.762350e+00   2.472429e-02
  9.958106e-01    1.705312e+00   2.428788e-02
  9.980210e-01    1.638543e+00   2.377672e-02
  1.000231e+00    1.638571e+00   2.390718e-02
  1.002442e+00    1.640131e+00   2.404564e-02
  1.004652e+00    1.643381e+00   2.413661e-02
  1.006863e+00    1.624977e+00   2.405086e-02
  1.009073e+00    1.613825e+00   2.400490e-02
  1.011284e+00    1.552429e+00   2.357534e-02
  1.013494e+00    1.488758e+00   2.310969e-02
  1.015705e+00    1.529304e+00   2.344440e-02
  1.017915e+00    1.521609e+00   2.340148e-02
  1.020126e+00    1.477627e+00   2.307638e-02
  1.022336e+00    1.480248e+00   2.310820e-02
  1.024547e+00    1.462106e+00   2.297707e-02
  1.026757e+00    1.441667e+00   2.282395e-02
  1.028967e+00    1.485362e+00   2.317478e-02
  1.031178e+00    1.522710e+00   2.347046e-02
  1.033388e+00    1.662659e+00   2.453056e-02
  1.035599e+00    1.681873e+00   2.467556e-02
  1.037809e+00    1.511440e+00   2.339519e-02
  1.040020e+00    1.456938e+00   2.297069e-02
  1.042230e+00    1.465427e+00   2.303942e-02
  1.044441e+00    1.480195e+00   2.315500e-02
  1.046651e+00    1.490336e+00   2.323436e-02
  1.048862e+00    1.465202e+00   2.303683e-02
  1.051072e+00    1.462289e+00   2.301158e-02
  1.053282e+00    1.473401e+00   2.309793e-02
  1.055493e+00    1.417057e+00   2.264779e-02
  1.057703e+00    1.411001e+00   2.259786e-02
  1.059914e+00    1.415600e+00   2.263050e-02
  1.062124e+00    1.417617e+00   2.264266e-02
  1.064335e+00    1.434609e+00   2.277458e-02
  1.066545e+00    1.437617e+00   2.279252e-02
  1.068756e+00    1.450732e+00   2.289259e-02
  1.070966e+00    1.401380e+00   2.249345e-02
  1.073177e+00    1.443146e+00   2.282016e-02
  1.075387e+00    1.455705e+00   2.291407e-02
  1.077597e+00    1.427318e+00   2.268239e-02
  1.079808e+00    1.430105e+00   2.257334e-02
  1.082018e+00    1.457151e+00   2.259708e-02
  1.084229e+00    1.688731e+00   2.420806e-02
  1.086439e+00    2.658619e+00   3.025618e-02
  1.088650e+00    2.911154e+00   3.155386e-02
  1.090860e+00    2.296504e+00   2.794062e-02
  1.093071e+00    1.699980e+00   2.397210e-02
  1.095281e+00    1.483181e+00   2.233331e-02
  1.097492e+00    1.450997e+00   2.203464e-02
  1.099702e+00    1.473390e+00   2.215201e-02
  1.101912e+00    1.564359e+00   2.277470e-02
  1.104123e+00    1.571886e+00   2.277899e-02
  1.106333e+00    1.553876e+00   2.260187e-02
  1.108544e+00    1.527678e+00   2.236478e-02
  1.110754e+00    1.458681e+00   2.181041e-02
  1.112965e+00    1.399329e+00   2.132185e-02
  1.115175e+00    1.381795e+00   2.114723e-02
  1.117386e+00    1.392008e+00   2.118628e-02
  1.119596e+00    1.364561e+00   2.093915e-02
  1.121807e+00    1.361209e+00   2.087527e-02
  1.124017e+00    1.362201e+00   2.084682e-02
  1.126228e+00    1.368860e+00   2.086239e-02
  1.128438e+00    1.389680e+00   2.098386e-02
  1.130648e+00    1.352132e+00   2.066469e-02
  1.132859e+00    1.352969e+00   2.063726e-02
  1.135069e+00    1.337599e+00   2.048569e-02
  1.137280e+00    1.324292e+00   2.035131e-02
  1.139490e+00    1.297744e+00   2.011431e-02
  1.141701e+00    1.312412e+00   2.019540e-02
  1.143911e+00    1.330001e+00   2.029906e-02
  1.146122e+00    1.314149e+00   2.014650e-02
  1.148332e+00    1.323399e+00   2.018605e-02
  1.150543e+00    1.306572e+00   2.002727e-02
  1.152753e+00    1.317852e+00   2.008337e-02
  1.154963e+00    1.308522e+00   1.998184e-02
  1.157174e+00    1.311319e+00   1.997372e-02
  1.159384e+00    1.292502e+00   1.980093e-02
  1.161595e+00    1.306727e+00   1.988042e-02
  1.163805e+00    1.336146e+00   2.007408e-02
  1.166016e+00    1.327432e+00   1.997950e-02
  1.168226e+00    1.336963e+00   2.002247e-02
  1.170437e+00    1.332121e+00   1.995791e-02
  1.172647e+00    1.320132e+00   1.983949e-02
  1.174858e+00    1.342129e+00   1.997621e-02
  1.177068e+00    1.386005e+00   2.027162e-02
  1.179278e+00    1.420266e+00   2.049146e-02
  1.181489e+00    1.412182e+00   2.040554e-02
  1.183699e+00    1.385398e+00   2.018328e-02
  1.185910e+00    1.312647e+00   1.961889e-02
  1.188120e+00    1.308592e+00   1.956233e-02
  1.190331e+00    1.325208e+00   1.965968e-02
  1.192541e+00    1.325625e+00   1.963569e-02
  1.194752e+00    1.305961e+00   1.946293e-02
  1.196962e+00    1.330908e+00   1.962239e-02
  1.199173e+00    1.333782e+00   1.961725e-02
  1.201383e+00    1.330869e+00   1.956884e-02
  1.203593e+00    1.328250e+00   1.952495e-02
  1.205804e+00    1.333064e+00   1.953456e-02
  1.208014e+00    1.301011e+00   1.927192e-02
  1.210225e+00    1.287008e+00   1.914320e-02
  1.212435e+00    1.286614e+00   1.911605e-02
  1.214646e+00    1.305404e+00   1.922947e-02
  1.216856e+00    1.315226e+00   1.927651e-02
  1.219067e+00    1.352881e+00   1.952604e-02
  1.221277e+00    1.343520e+00   1.943339e-02
  1.223488e+00    1.343627e+00   1.940850e-02
  1.225698e+00    1.321202e+00   1.921923e-02
  1.227909e+00    1.316730e+00   1.915688e-02
  1.230119e+00    1.322756e+00   1.916914e-02
  1.232329e+00    1.319320e+00   1.911386e-02
  1.234540e+00    1.322293e+00   1.910540e-02
  1.236750e+00    1.316762e+00   1.903551e-02
  1.238961e+00    1.339467e+00   1.917204e-02
  1.241171e+00    1.347509e+00   1.920538e-02
  1.243382e+00    1.320008e+00   1.898513e-02
  1.245592e+00    1.319240e+00   1.895579e-02
  1.247803e+00    1.297853e+00   1.877832e-02
  1.250013e+00    1.301378e+00   1.878067e-02
  1.252224e+00    1.341239e+00   1.904295e-02
  1.254434e+00    1.332997e+00   1.896078e-02
  1.256644e+00    1.301846e+00   1.871513e-02
  1.258855e+00    1.293412e+00   1.863163e-02
  1.261065e+00    1.303758e+00   1.868302e-02
  1.263276e+00    1.323932e+00   1.880429e-02
  1.265486e+00    1.312010e+00   1.869689e-02
  1.267697e+00    1.306886e+00   1.863769e-02
  1.269907e+00    1.289542e+00   1.849144e-02
  1.272118e+00    1.287105e+00   1.845190e-02
  1.274328e+00    1.297162e+00   1.850156e-02
  1.276539e+00    1.282225e+00   1.837255e-02
  1.278749e+00    1.281021e+00   1.834217e-02
  1.280959e+00    1.309959e+00   1.852602e-02
  1.283170e+00    1.311515e+00   1.851490e-02
  1.285380e+00    1.298065e+00   1.839771e-02
  1.287591e+00    1.287850e+00   1.830365e-02
  1.289801e+00    1.310604e+00   1.844372e-02
  1.292012e+00    1.294936e+00   1.831642e-02
  1.294222e+00    1.307266e+00   1.838741e-02
  1.296433e+00    1.331061e+00   1.853853e-02
  1.298643e+00    1.324494e+00   1.847642e-02
  1.300854e+00    1.291922e+00   1.823178e-02
  1.303064e+00    1.285284e+00   1.816609e-02
  1.305274e+00    1.331046e+00   1.846538e-02
  1.307485e+00    1.311137e+00   1.830556e-02
  1.309695e+00    1.301461e+00   1.821603e-02
  1.311906e+00    1.294227e+00   1.814409e-02
  1.314116e+00    1.311318e+00   1.824299e-02
  1.316327e+00    1.326443e+00   1.832640e-02
  1.318537e+00    1.323312e+00   1.828310e-02
  1.320748e+00    1.322100e+00   1.825338e-02
  1.322958e+00    1.330471e+00   1.829072e-02
  1.325169e+00    1.326176e+00   1.824032e-02
  1.327379e+00    1.349428e+00   1.837775e-02
  1.329589e+00    1.325160e+00   1.819087e-02
  1.331800e+00    1.326609e+00   1.818029e-02
  1.334010e+00    1.349040e+00   1.831270e-02
  1.336221e+00    1.345389e+00   1.826619e-02
  1.338431e+00    1.328091e+00   1.812771e-02
  1.340642e+00    1.309526e+00   1.806374e-02
  1.342852e+00    1.301981e+00   1.811050e-02
  1.345063e+00    1.303187e+00   1.816748e-02
  1.347273e+00    1.315662e+00   1.828904e-02
  1.349484e+00    1.311363e+00   1.828642e-02
  1.351694e+00    1.296445e+00   1.820435e-02
  1.353905e+00    1.304252e+00   1.827677e-02
  1.356115e+00    1.284430e+00   1.815203e-02
  1.358325e+00    1.265588e+00   1.803130e-02
  1.360536e+00    1.285034e+00   1.818061e-02
  1.362746e+00    1.362516e+00   1.873031e-02
  1.364957e+00    1.332582e+00   1.853106e-02
  1.367167e+00    1.306470e+00   1.835565e-02
  1.369378e+00    1.280579e+00   1.817871e-02
  1.371588e+00    1.303311e+00   1.834442e-02
  1.373799e+00    1.282751e+00   1.820273e-02
  1.376009e+00    1.285059e+00   1.822243e-02
  1.378220e+00    1.252335e+00   1.799136e-02
  1.380430e+00    1.285631e+00   1.823162e-02
  1.382640e+00    1.242256e+00   1.792233e-02
  1.384851e+00    1.244974e+00   1.794276e-02
  1.387061e+00    1.256863e+00   1.802851e-02
  1.389272e+00    1.279504e+00   1.819039e-02
  1.391482e+00    1.252918e+00   1.799974e-02
  1.393693e+00    1.236863e+00   1.788320e-02
  1.395903e+00    1.217599e+00   1.774193e-02
  1.398114e+00    1.245651e+00   1.794377e-02
  1.400324e+00    1.247146e+00   1.795244e-02
  1.402535e+00    1.258713e+00   1.803320e-02
  1.404745e+00    1.252007e+00   1.798276e-02
  1.406955e+00    1.258466e+00   1.802640e-02
  1.409166e+00    1.273650e+00   1.813152e-02
  1.411376e+00    1.253434e+00   1.798396e-02
  1.413587e+00    1.236504e+00   1.785832e-02
  1.415797e+00    1.219571e+00   1.773216e-02
  1.418008e+00    1.240086e+00   1.783930e-02
  1.420218e+00    1.243648e+00   1.771673e-02
  1.422429e+00    1.218934e+00   1.745625e-02
  1.424639e+00    1.208875e+00   1.732094e-02
  1.426850e+00    1.211482e+00   1.728619e-02
  1.429060e+00    1.227114e+00   1.734920e-02
  1.431270e+00    1.237755e+00   1.738050e-02
  1.433481e+00    1.246898e+00   1.740401e-02
  1.435691e+00    1.242502e+00   1.733530e-02
  1.437902e+00    1.220235e+00   1.714351e-02
  1.440112e+00    1.247267e+00   1.729734e-02
  1.442323e+00    1.234168e+00   1.717370e-02
  1.444533e+00    1.266878e+00   1.736726e-02
  1.446744e+00    1.272779e+00   1.737652e-02
  1.448954e+00    1.256766e+00   1.723683e-02
  1.451165e+00    1.224816e+00   1.698711e-02
  1.453375e+00    1.234311e+00   1.702515e-02
  1.455586e+00    1.227057e+00   1.694737e-02
  1.457796e+00    1.246001e+00   1.705045e-02
  1.460006e+00    1.231859e+00   1.692657e-02
  1.462217e+00    1.234693e+00   1.692017e-02
  1.464427e+00    1.235036e+00   1.689728e-02
  1.466638e+00    1.209377e+00   1.669609e-02
  1.468848e+00    1.241258e+00   1.688966e-02
  1.471059e+00    1.241954e+00   1.686962e-02
  1.473269e+00    1.240421e+00   1.683507e-02
  1.475480e+00    1.249092e+00   1.687025e-02
  1.477690e+00    1.237858e+00   1.677066e-02
  1.479901e+00    1.245750e+00   1.680041e-02
  1.482111e+00    1.240816e+00   1.674401e-02
  1.484321e+00    1.238261e+00   1.670393e-02
  1.486532e+00    1.236763e+00   1.667174e-02
  1.488742e+00    1.263994e+00   1.683164e-02
  1.490953e+00    1.232064e+00   1.659539e-02
  1.493163e+00    1.218448e+00   1.648154e-02
  1.495374e+00    1.226518e+00   1.651485e-02
  1.497584e+00    1.229575e+00   1.651404e-02
  1.499795e+00    1.227227e+00   1.647692e-02
  1.502005e+00    1.217333e+00   1.638905e-02
  1.504216e+00    1.197542e+00   1.623476e-02
  1.506426e+00    1.189273e+00   1.615837e-02
  1.508636e+00    1.193022e+00   1.616390e-02
  1.510847e+00    1.219733e+00   1.632234e-02
  1.513057e+00    1.252789e+00   1.651699e-02
  1.515268e+00    1.228390e+00   1.632993e-02
  1.517478e+00    1.217034e+00   1.622949e-02
  1.519689e+00    1.214622e+00   1.618884e-02
  1.521899e+00    1.218470e+00   1.619167e-02
  1.524110e+00    1.239703e+00   1.631193e-02
  1.526320e+00    1.222584e+00   1.617954e-02
  1.528531e+00    1.227220e+00   1.619063e-02
  1.530741e+00    1.205671e+00   1.602904e-02
  1.532951e+00    1.211471e+00   1.604826e-02
  1.535162e+00    1.208548e+00   1.611407e-02
  1.537372e+00    1.217397e+00   1.623898e-02
  1.539583e+00    1.224648e+00   1.632121e-02
  1.541793e+00    1.182198e+00   1.604259e-02
  1.544004e+00    1.203803e+00   1.618876e-02
  1.546214e+00    1.220413e+00   1.629858e-02
  1.548425e+00    1.228987e+00   1.635600e-02
  1.550635e+00    1.211253e+00   1.624711e-02
  1.552846e+00    1.189410e+00   1.610938e-02
  1.555056e+00    1.214175e+00   1.623525e-02
  1.557266e+00    1.206221e+00   1.607326e-02
  1.559477e+00    1.177917e+00   1.582605e-02
  1.561687e+00    1.186875e+00   1.585615e-02
  1.563898e+00    1.181993e+00   1.580678e-02
  1.566108e+00    1.216126e+00   1.601761e-02
  1.568319e+00    1.206234e+00   1.593697e-02
  1.570529e+00    1.212919e+00   1.595624e-02
  1.572740e+00    1.210330e+00   1.591197e-02
  1.574950e+00    1.194251e+00   1.578016e-02
  1.577161e+00    1.216950e+00   1.590419e-02
  1.579371e+00    1.251461e+00   1.610444e-02
  1.581582e+00    1.213780e+00   1.584060e-02
  1.583792e+00    1.202222e+00   1.574729e-02
  1.586002e+00    1.212492e+00   1.579700e-02
  1.588213e+00    1.222042e+00   1.584201e-02
  1.590423e+00    1.221615e+00   1.581936e-02
  1.592634e+00    1.202747e+00   1.567545e-02
  1.594844e+00    1.205264e+00   1.567078e-02
  1.597055e+00    1.195820e+00   1.558915e-02
  1.599265e+00    1.200265e+00   1.559772e-02
  1.601476e+00    1.231832e+00   1.578126e-02
  1.603686e+00    1.224873e+00   1.571700e-02
  1.605897e+00    1.181725e+00   1.541801e-02
  1.608107e+00    1.178405e+00   1.537724e-02
  1.610317e+00    1.183380e+00   1.539077e-02
  1.612528e+00    1.184580e+00   1.537980e-02
  1.614738e+00    1.173935e+00   1.529205e-02
  1.616949e+00    1.162779e+00   1.520072e-02
  1.619159e+00    1.159498e+00   1.516105e-02
  1.621370e+00    1.161436e+00   1.515568e-02
  1.623580e+00    1.158377e+00   1.511781e-02
  1.625791e+00    1.148065e+00   1.503257e-02
  1.628001e+00    1.135954e+00   1.493532e-02
  1.630212e+00    1.146027e+00   1.498399e-02
  1.632422e+00    1.135610e+00   1.489823e-02
  1.634632e+00    1.129473e+00   1.484101e-02
  1.636843e+00    1.109525e+00   1.469234e-02
  1.639053e+00    1.096613e+00   1.458987e-02
  1.641264e+00    1.130343e+00   1.479575e-02
  1.643474e+00    1.107744e+00   1.463014e-02
  1.645685e+00    1.104091e+00   1.458971e-02
  1.647895e+00    1.094382e+00   1.450927e-02
  1.650106e+00    1.114092e+00   1.462262e-02
  1.652316e+00    1.110644e+00   1.458376e-02
  1.654527e+00    1.090581e+00   1.443516e-02
  1.656737e+00    1.084542e+00   1.437895e-02
  1.658947e+00    1.072924e+00   1.428588e-02
  1.661158e+00    1.073522e+00   1.427399e-02
  1.663368e+00    1.091217e+00   1.437534e-02
  1.665579e+00    1.103435e+00   1.443956e-02
  1.667789e+00    1.092631e+00   1.435264e-02
  1.670000e+00    1.092776e+00   1.433824e-02
  1.672210e+00    1.075806e+00   1.421085e-02
  1.674421e+00    1.057183e+00   1.407230e-02
  1.676631e+00    1.083513e+00   1.423072e-02
  1.678842e+00    1.089152e+00   1.425202e-02
  1.681052e+00    1.072166e+00   1.412521e-02
  1.683263e+00    1.049870e+00   1.396272e-02
  1.685473e+00    1.034047e+00   1.384230e-02
  1.687683e+00    1.036771e+00   1.384543e-02
  1.689894e+00    1.079200e+00   1.411013e-02
  1.692104e+00    1.089474e+00   1.416214e-02
  1.694315e+00    1.105063e+00   1.424837e-02
  1.696525e+00    1.082201e+00   1.408499e-02
  1.698736e+00    1.046552e+00   1.383635e-02
  1.700946e+00    1.045913e+00   1.381711e-02
  1.703157e+00    1.005027e+00   1.353006e-02
  1.705367e+00    1.014689e+00   1.358072e-02
  1.707578e+00    1.028169e+00   1.365619e-02
  1.709788e+00    1.017164e+00   1.356900e-02
  1.711998e+00    9.993041e-01   1.343465e-02
  1.714209e+00    9.912833e-01   1.336653e-02
  1.716419e+00    9.763793e-01   1.325179e-02
  1.718630e+00    9.813378e-01   1.327148e-02
  1.720840e+00    9.833210e-01   1.327103e-02
  1.723051e+00    9.883491e-01   1.329128e-02
  1.725261e+00    1.000886e+00   1.336079e-02
  1.727472e+00    9.746289e-01   1.317052e-02
  1.729682e+00    9.884666e-01   1.325038e-02
  1.731893e+00    1.000510e+00   1.331703e-02
  1.734103e+00    9.661236e-01   1.307273e-02
  1.736313e+00    9.644011e-01   1.304730e-02
  1.738524e+00    9.798421e-01   1.313769e-02
  1.740734e+00    9.734190e-01   1.308103e-02
  1.742945e+00    9.538746e-01   1.293589e-02
  1.745155e+00    9.498852e-01   1.289564e-02
  1.747366e+00    9.541081e-01   1.291071e-02
  1.749576e+00    9.489822e-01   1.286255e-02
  1.751787e+00    9.686738e-01   1.298209e-02
  1.753997e+00    9.518177e-01   1.285546e-02
  1.756208e+00    9.632893e-01   1.291955e-02
  1.758418e+00    9.829915e-01   1.303783e-02
  1.760628e+00    9.719075e-01   1.295075e-02
  1.762839e+00    9.694584e-01   1.292117e-02
  1.765049e+00    9.671680e-01   1.289274e-02
  1.767260e+00    9.769735e-01   1.294501e-02
  1.769470e+00    1.023470e+00   1.323601e-02
  1.771681e+00    1.039512e+00   1.332563e-02
  1.773891e+00    1.009905e+00   1.312105e-02
  1.776102e+00    9.904365e-01   1.298079e-02
  1.778312e+00    1.047117e+00   1.333361e-02
  1.780523e+00    1.201517e+00   1.426846e-02
  1.782733e+00    1.218173e+00   1.435266e-02
  1.784944e+00    1.063435e+00   1.339644e-02
  1.787154e+00    9.426208e-01   1.259990e-02
  1.789364e+00    9.128813e-01   1.238715e-02
  1.791575e+00    9.203154e-01   1.242500e-02
  1.793785e+00    9.192027e-01   1.240512e-02
  1.795996e+00    9.124021e-01   1.234666e-02
  1.798206e+00    9.177933e-01   1.237059e-02
  1.800417e+00    8.959690e-01   1.221010e-02
  1.802627e+00    8.766094e-01   1.206575e-02
  1.804838e+00    9.064345e-01   1.225722e-02
  1.807048e+00    9.601932e-01   1.260224e-02
  1.809259e+00    9.944324e-01   1.281075e-02
  1.811469e+00    9.583345e-01   1.256072e-02
  1.813679e+00    9.022425e-01   1.217259e-02
  1.815890e+00    8.754275e-01   1.197577e-02
  1.818100e+00    8.710016e-01   1.193056e-02
  1.820311e+00    8.781570e-01   1.196484e-02
  1.822521e+00    8.539342e-01   1.178413e-02
  1.824732e+00    8.432141e-01   1.169549e-02
  1.826942e+00    8.457085e-01   1.170075e-02
  1.829153e+00    8.308310e-01   1.158605e-02
  1.831363e+00    8.379353e-01   1.162374e-02
  1.833574e+00    8.658884e-01   1.180446e-02
  1.835784e+00    8.529633e-01   1.170479e-02
  1.837994e+00    8.419892e-01   1.161778e-02
  1.840205e+00    8.361992e-01   1.156682e-02
  1.842415e+00    8.476157e-01   1.163394e-02
  1.844626e+00    8.276844e-01   1.148505e-02
  1.846836e+00    8.383534e-01   1.154762e-02
  1.849047e+00    8.252366e-01   1.144559e-02
  1.851257e+00    8.204581e-01   1.140308e-02
  1.853468e+00    8.255161e-01   1.142955e-02
  1.855678e+00    8.240881e-01   1.141097e-02
  1.857889e+00    8.325626e-01   1.146112e-02
  1.860099e+00    8.314562e-01   1.144502e-02
  1.862309e+00    8.269095e-01   1.140529e-02
  1.864520e+00    8.441367e-01   1.151499e-02
  1.866730e+00    8.318679e-01   1.142175e-02
  1.868941e+00    8.346214e-01   1.142980e-02
  1.871151e+00    8.301365e-01   1.138780e-02
  1.873362e+00    8.261536e-01   1.134928e-02
  1.875572e+00    8.292341e-01   1.135961e-02
  1.877783e+00    8.087983e-01   1.120759e-02
  1.879993e+00    8.317294e-01   1.135431e-02
  1.882204e+00    8.276072e-01   1.131535e-02
  1.884414e+00    8.068722e-01   1.116189e-02
  1.886624e+00    8.031118e-01   1.112502e-02
  1.888835e+00    8.245335e-01   1.126157e-02
  1.891045e+00    8.102745e-01   1.115309e-02
  1.893256e+00    7.964110e-01   1.104645e-02
  1.895466e+00    7.917185e-01   1.100300e-02
  1.897677e+00    7.919216e-01   1.099377e-02
  1.899887e+00    8.141166e-01   1.113592e-02
  1.902098e+00    8.075447e-01   1.108019e-02
  1.904308e+00    8.153237e-01   1.112297e-02
  1.906519e+00    8.249936e-01   1.117790e-02
  1.908729e+00    8.303917e-01   1.120382e-02
  1.910940e+00    7.979938e-01   1.097215e-02
  1.913150e+00    8.043290e-01   1.100517e-02
  1.915360e+00    8.000605e-01   1.096547e-02
  1.917571e+00    7.978960e-01   1.093991e-02
  1.919781e+00    8.163145e-01   1.105481e-02
  1.921992e+00    8.041152e-01   1.096138e-02
  1.924202e+00    8.007219e-01   1.092758e-02
  1.926413e+00    7.862287e-01   1.081812e-02
  1.928623e+00    7.926497e-01   1.085180e-02
  1.930834e+00    8.019671e-01   1.090504e-02
  1.933044e+00    7.760069e-01   1.071666e-02
  1.935255e+00    7.831877e-01   1.075595e-02
  1.937465e+00    7.877961e-01   1.077730e-02
  1.939675e+00    7.775791e-01   1.069654e-02
  1.941886e+00    7.836706e-01   1.072821e-02
  1.944096e+00    7.758688e-01   1.066466e-02
  1.946307e+00    7.739192e-01   1.064111e-02
  1.948517e+00    7.719234e-01   1.061710e-02
  1.950728e+00    7.675938e-01   1.057726e-02
  1.952938e+00    7.798395e-01   1.065129e-02
  1.955149e+00    7.873712e-01   1.069245e-02
  1.957359e+00    7.833797e-01   1.065535e-02
  1.959570e+00    7.803533e-01   1.062398e-02
  1.961780e+00    7.777481e-01   1.059641e-02
  1.963990e+00    7.640600e-01   1.049282e-02
  1.966201e+00    7.630947e-01   1.047628e-02
  1.968411e+00    7.714338e-01   1.052336e-02
  1.970622e+00    7.717460e-01   1.051548e-02
  1.972832e+00    7.713677e-01   1.050304e-02
  1.975043e+00    7.630551e-01   1.043641e-02
  1.977253e+00    7.592652e-01   1.040067e-02
  1.979464e+00    7.689382e-01   1.045676e-02
  1.981674e+00    7.631598e-01   1.040727e-02
  1.983885e+00    7.756544e-01   1.048214e-02
  1.986095e+00    7.574005e-01   1.034852e-02
  1.988305e+00    7.357656e-01   1.019002e-02
  1.990516e+00    7.641355e-01   1.037478e-02
  1.992726e+00    7.639417e-01   1.036389e-02
  1.994937e+00    7.688661e-01   1.038716e-02
  1.997147e+00    7.529540e-01   1.026954e-02
  1.999358e+00    7.524774e-01   1.025659e-02
  2.001568e+00    7.582943e-01   1.028542e-02
  2.003779e+00    7.548198e-01   1.025007e-02
  2.005989e+00    7.496492e-01   1.020305e-02
  2.008200e+00    7.588187e-01   1.025381e-02
  2.010410e+00    7.591956e-01   1.024470e-02
  2.012621e+00    7.530946e-01   1.019187e-02
  2.014831e+00    7.347050e-01   1.005544e-02
  2.017041e+00    7.305970e-01   1.001715e-02
  2.019252e+00    7.314973e-01   1.001358e-02
  2.021462e+00    7.339137e-01   1.002079e-02
  2.023673e+00    7.291484e-01   9.979046e-03
  2.025883e+00    7.191214e-01   9.900948e-03
  2.028094e+00    7.320449e-01   9.980061e-03
  2.030304e+00    7.426355e-01   1.004259e-02
  2.032515e+00    7.438589e-01   1.004166e-02
  2.034725e+00    7.391639e-01   1.000060e-02
  2.036936e+00    7.309332e-01   9.935609e-03
  2.039146e+00    7.171206e-01   9.831964e-03
  2.041356e+00    7.178981e-01   9.827886e-03
  2.043567e+00    7.369065e-01   9.947957e-03
  2.045777e+00    7.407257e-01   9.964553e-03
  2.047988e+00    7.249631e-01   9.848786e-03
  2.050198e+00    7.305621e-01   9.878430e-03
  2.052409e+00    7.435639e-01   9.958340e-03
  2.054619e+00    7.367151e-01   9.905068e-03
  2.056830e+00    7.518802e-01   9.999327e-03
  2.059040e+00    7.411498e-01   9.920242e-03
  2.061251e+00    7.358387e-01   9.877483e-03
  2.063461e+00    7.341422e-01   9.858529e-03
  2.065671e+00    7.406743e-01   9.893657e-03
  2.067882e+00    7.234992e-01   9.769410e-03
  2.070092e+00    7.081546e-01   9.656314e-03
  2.072303e+00    7.153868e-01   9.696520e-03
  2.074513e+00    7.410956e-01   9.859941e-03
  2.076724e+00    7.256580e-01   9.747365e-03
  2.078934e+00    7.281186e-01   9.754965e-03
  2.081145e+00    7.200337e-01   9.691705e-03
  2.083355e+00    7.397920e-01   9.814626e-03
  2.085566e+00    7.506762e-01   9.877592e-03
  2.087776e+00    7.351394e-01   9.765369e-03
  2.089986e+00    7.196257e-01   9.653113e-03
  2.092197e+00    7.134805e-01   9.602969e-03
  2.094407e+00    7.201640e-01   9.638743e-03
  2.096618e+00    7.107906e-01   9.567046e-03
  2.098828e+00    7.218573e-01   9.632012e-03
  2.101039e+00    7.273980e-01   9.659959e-03
  2.103249e+00    7.168812e-01   9.581305e-03
  2.105460e+00    6.901968e-01   9.392513e-03
  2.107670e+00    7.051484e-01   9.485102e-03
  2.109881e+00    7.203369e-01   9.577594e-03
  2.112091e+00    7.101105e-01   9.500484e-03
  2.114301e+00    7.172581e-01   9.539420e-03
  2.116512e+00    7.154191e-01   9.518464e-03
  2.118722e+00    6.925768e-01   9.356630e-03
  2.120933e+00    6.940739e-01   9.358011e-03
  2.123143e+00    7.319821e-01   9.601190e-03
  2.125354e+00    7.255859e-01   9.550586e-03
  2.127564e+00    7.066423e-01   9.416419e-03
  2.129775e+00    6.914257e-01   9.305903e-03
  2.131985e+00    7.010508e-01   9.361465e-03
  2.134196e+00    6.918425e-01   9.291331e-03
  2.136406e+00    7.017492e-01   9.348937e-03
  2.138617e+00    6.993247e-01   9.324388e-03
  2.140827e+00    6.837314e-01   9.235615e-03
  2.143037e+00    6.888546e-01   9.315030e-03
  2.145248e+00    6.858113e-01   9.316135e-03
  2.147458e+00    6.774037e-01   9.273680e-03
  2.149669e+00    7.170029e-01   9.552849e-03
  2.151879e+00    6.897616e-01   9.378804e-03
  2.154090e+00    6.771661e-01   9.299946e-03
  2.156300e+00    6.740614e-01   9.285076e-03
  2.158511e+00    6.754007e-01   9.299499e-03
  2.160721e+00    6.884258e-01   9.393531e-03
  2.162932e+00    6.751280e-01   9.306046e-03
  2.165142e+00    6.784833e-01   9.332120e-03
  2.167352e+00    6.788667e-01   9.337636e-03
  2.169563e+00    6.807309e-01   9.352371e-03
  2.171773e+00    6.744530e-01   9.311576e-03
  2.173984e+00    6.716207e-01   9.293383e-03
  2.176194e+00    6.629965e-01   9.234695e-03
  2.178405e+00    6.684602e-01   9.273357e-03
  2.180615e+00    6.768638e-01   9.332135e-03
  2.182826e+00    6.662596e-01   9.259418e-03
  2.185036e+00    6.657234e-01   9.255738e-03
  2.187247e+00    6.513321e-01   9.155105e-03
  2.189457e+00    6.801528e-01   9.355037e-03
  2.191667e+00    6.699822e-01   9.284679e-03
  2.193878e+00    6.669339e-01   9.262970e-03
  2.196088e+00    6.572295e-01   9.194665e-03
  2.198299e+00    6.504833e-01   9.146287e-03
  2.200509e+00    6.601542e-01   9.212976e-03
  2.202720e+00    6.698874e-01   9.279511e-03
  2.204930e+00    6.729195e-01   9.299253e-03
  2.207141e+00    6.773398e-01   9.328648e-03
  2.209351e+00    6.600558e-01   9.206999e-03
  2.211562e+00    6.739035e-01   9.301441e-03
  2.213772e+00    6.858128e-01   9.327440e-03
  2.215982e+00    6.601444e-01   9.107542e-03
  2.218193e+00    6.522122e-01   9.023535e-03
  2.220403e+00    6.583896e-01   9.041874e-03
  2.222614e+00    6.677192e-01   9.084865e-03
  2.224824e+00    6.526558e-01   8.962728e-03
  2.227035e+00    6.661613e-01   9.037611e-03
  2.229245e+00    6.659307e-01   9.019179e-03
  2.231456e+00    6.497678e-01   8.893678e-03
  2.233666e+00    6.476318e-01   8.864213e-03
  2.235877e+00    6.510397e-01   8.873452e-03
  2.238087e+00    6.607159e-01   8.925762e-03
  2.240298e+00    6.485558e-01   8.829694e-03
  2.242508e+00    6.568259e-01   8.870817e-03
  2.244718e+00    6.501764e-01   8.810210e-03
  2.246929e+00    6.553810e-01   8.831126e-03
  2.249139e+00    6.523252e-01   8.798277e-03
  2.251350e+00    6.405609e-01   8.707099e-03
  2.253560e+00    6.417077e-01   8.703548e-03
  2.255771e+00    6.538595e-01   8.774259e-03
  2.257981e+00    6.489506e-01   8.730222e-03
  2.260192e+00    6.396947e-01   8.656838e-03
  2.262402e+00    6.398844e-01   8.647474e-03
  2.264613e+00    6.336163e-01   8.594410e-03
  2.266823e+00    6.503817e-01   8.697093e-03
  2.269033e+00    6.445397e-01   8.647695e-03
  2.271244e+00    6.385984e-01   8.597557e-03
  2.273454e+00    6.404926e-01   8.600212e-03
  2.275665e+00    6.301343e-01   8.520325e-03
  2.277875e+00    6.353477e-01   8.545758e-03
  2.280086e+00    6.387483e-01   8.558718e-03
  2.282296e+00    6.497272e-01   8.622633e-03
  2.284507e+00    6.380666e-01   8.534940e-03
  2.286717e+00    6.341371e-01   8.499308e-03
  2.288928e+00    6.389158e-01   8.521559e-03
  2.291138e+00    6.386472e-01   8.510469e-03
  2.293348e+00    6.386541e-01   8.501097e-03
  2.295559e+00    6.323303e-01   8.449769e-03
  2.297769e+00    6.253093e-01   8.393670e-03
  2.299980e+00    6.507611e-01   8.553477e-03
  2.302190e+00    6.359422e-01   8.446536e-03
  2.304401e+00    6.334223e-01   8.420603e-03
  2.306611e+00    6.389889e-01   8.448401e-03
  2.308822e+00    6.311320e-01   8.388054e-03
  2.311032e+00    6.292245e-01   8.369026e-03
  2.313243e+00    6.302978e-01   8.369977e-03
  2.315453e+00    6.345796e-01   8.390868e-03
  2.317663e+00    6.249146e-01   8.317775e-03
  2.319874e+00    6.146223e-01   8.240478e-03
  2.322084e+00    6.154845e-01   8.237489e-03
  2.324295e+00    6.457283e-01   8.429218e-03
  2.326505e+00    6.405748e-01   8.386513e-03
  2.328716e+00    6.260409e-01   8.282387e-03
  2.330926e+00    6.215231e-01   8.243805e-03
  2.333137e+00    6.151265e-01   8.193067e-03
  2.335347e+00    6.202493e-01   8.218390e-03
  2.337558e+00    6.089265e-01   8.135007e-03
  2.339768e+00    6.022162e-01   8.081746e-03
  2.341979e+00    6.130683e-01   8.146034e-03
  2.344189e+00    6.157972e-01   8.155902e-03
  2.346399e+00    6.044955e-01   8.072422e-03
  2.348610e+00    6.203020e-01   8.168930e-03
  2.350820e+00    6.112463e-01   8.101054e-03
  2.353031e+00    6.048015e-01   8.050153e-03
  2.355241e+00    6.175002e-01   8.126261e-03
  2.357452e+00    6.106476e-01   8.072774e-03
  2.359662e+00    6.224619e-01   8.142328e-03
  2.361873e+00    6.126803e-01   8.069996e-03
  2.364083e+00    5.974220e-01   7.961083e-03
  2.366294e+00    6.077352e-01   8.021512e-03
  2.368504e+00    6.134548e-01   8.051203e-03
  2.370714e+00    5.996970e-01   7.952503e-03
  2.372925e+00    6.132544e-01   8.033930e-03
  2.375135e+00    5.955022e-01   7.908923e-03
  2.377346e+00    5.898147e-01   7.863341e-03
  2.379556e+00    6.172631e-01   8.036352e-03
  2.381767e+00    5.945919e-01   7.879719e-03
  2.383977e+00    6.033532e-01   7.929728e-03
  2.386188e+00    6.058671e-01   7.938392e-03
  2.388398e+00    6.101366e-01   7.958431e-03
  2.390609e+00    5.980405e-01   7.871531e-03
  2.392819e+00    5.870776e-01   7.791473e-03
  2.395029e+00    5.937424e-01   7.828034e-03
  2.397240e+00    5.959603e-01   7.834903e-03
  2.399450e+00    5.887787e-01   7.779912e-03
  2.401661e+00    5.806507e-01   7.718525e-03
  2.403871e+00    5.898311e-01   7.771695e-03
  2.406082e+00    5.922290e-01   7.780130e-03
  2.408292e+00    6.022536e-01   7.837986e-03
  2.410503e+00    5.880130e-01   7.737385e-03
  2.412713e+00    5.927712e-01   7.760932e-03
  2.414924e+00    5.888481e-01   7.727815e-03
  2.417134e+00    5.962026e-01   7.768367e-03
  2.419344e+00    5.899975e-01   7.720481e-03
  2.421555e+00    5.964116e-01   7.754882e-03
  2.423765e+00    5.858149e-01   7.678360e-03
  2.425976e+00    5.830340e-01   7.652413e-03
  2.428186e+00    5.845663e-01   7.655340e-03
  2.430397e+00    5.846576e-01   7.648515e-03
  2.432607e+00    5.879425e-01   7.662765e-03
  2.434818e+00    5.821521e-01   7.617475e-03
  2.437028e+00    5.618160e-01   7.476289e-03
  2.439239e+00    5.815386e-01   7.598793e-03
  2.441449e+00    5.833771e-01   7.603672e-03
  2.443659e+00    5.835856e-01   7.597711e-03
  2.445870e+00    5.794662e-01   7.583012e-03
  2.448080e+00    5.729682e-01   7.574863e-03
  2.450291e+00    5.811942e-01   7.645709e-03
  2.452501e+00    5.627393e-01   7.534391e-03
  2.454712e+00    5.479114e-01   7.442691e-03
  2.456922e+00    5.600717e-01   7.531384e-03
  2.459133e+00    5.427185e-01   7.419112e-03
  2.461343e+00    5.503182e-01   7.475157e-03
  2.463554e+00    5.556836e-01   7.514946e-03
  2.465764e+00    5.551447e-01   7.514427e-03
  2.467975e+00    5.482606e-01   7.469954e-03
  2.470185e+00    5.381665e-01   7.403076e-03
  2.472395e+00    5.366961e-01   7.394155e-03
  2.474606e+00    5.383050e-01   7.406768e-03
  2.476816e+00    5.334483e-01   7.374004e-03
  2.479027e+00    5.269737e-01   7.329951e-03
  2.481237e+00    5.325606e-01   7.368973e-03
  2.483448e+00    5.285007e-01   7.341134e-03
  2.485658e+00    5.279447e-01   7.337124e-03
  2.487869e+00    5.296258e-01   7.348832e-03
  2.490079e+00    5.284586e-01   7.340233e-03
  2.492290e+00    5.279723e-01   7.336410e-03
  2.494500e+00    5.219471e-01   7.293723e-03
  2.496710e+00    5.154369e-01   7.247400e-03
  2.498921e+00    5.298743e-01   7.347203e-03
  2.501131e+00    5.199491e-01   7.277153e-03
  2.503342e+00    5.151889e-01   7.242501e-03
  2.505552e+00    5.126128e-01   7.223282e-03
  2.507763e+00    5.071516e-01   7.183301e-03
  2.509973e+00    4.983498e-01   7.119339e-03
  2.512184e+00    5.014376e-01   7.139782e-03
  2.514394e+00    5.122690e-01   7.207261e-03
  2.516605e+00    5.236244e-01   7.239768e-03
  2.518815e+00    5.159065e-01   7.158166e-03
  2.521025e+00    5.188804e-01   7.157942e-03
  2.523236e+00    5.164957e-01   7.123639e-03
  2.525446e+00    5.224776e-01   7.149201e-03
  2.527657e+00    5.268900e-01   7.164733e-03
  2.529867e+00    5.098563e-01   7.033981e-03
  2.532078e+00    5.150410e-01   7.054751e-03
  2.534288e+00    5.111809e-01   7.014561e-03
  2.536499e+00    5.327021e-01   7.148663e-03
  2.538709e+00    5.324302e-01   7.135770e-03
  2.540920e+00    5.130124e-01   6.993919e-03
  2.543130e+00    5.085746e-01   6.953370e-03
  2.545340e+00    5.145537e-01   6.984172e-03
  2.547551e+00    5.008169e-01   6.880566e-03
  2.549761e+00    5.159388e-01   6.974156e-03
  2.551972e+00    5.076100e-01   6.908407e-03
  2.554182e+00    5.155508e-01   6.953111e-03
  2.556393e+00    5.070954e-01   6.886882e-03
  2.558603e+00    5.124239e-01   6.913973e-03
  2.560814e+00    5.088588e-01   6.881258e-03
  2.563024e+00    5.022036e-01   6.827686e-03
  2.565235e+00    5.121670e-01   6.885628e-03
  2.567445e+00    5.178850e-01   6.914415e-03
  2.569656e+00    5.062287e-01   6.826539e-03
  2.571866e+00    4.947076e-01   6.739262e-03
  2.574076e+00    4.985265e-01   6.756105e-03
  2.576287e+00    5.100912e-01   6.825748e-03
  2.578497e+00    5.010797e-01   6.757472e-03
  2.580708e+00    4.866331e-01   6.651480e-03
  2.582918e+00    4.921431e-01   6.681432e-03
  2.585129e+00    4.974637e-01   6.709850e-03
  2.587339e+00    4.842665e-01   6.612771e-03
  2.589550e+00    4.955526e-01   6.681978e-03
  2.591760e+00    4.994985e-01   6.700881e-03
  2.593971e+00    5.100362e-01   6.763685e-03
  2.596181e+00    4.748147e-01   6.519977e-03
  2.598391e+00    4.913022e-01   6.627112e-03
  2.600602e+00    4.878163e-01   6.597785e-03
  2.602812e+00    4.975742e-01   6.655980e-03
  2.605023e+00    4.942431e-01   6.626609e-03
  2.607233e+00    4.934042e-01   6.613948e-03
  2.609444e+00    4.892851e-01   6.579194e-03
  2.611654e+00    4.844151e-01   6.539191e-03
  2.613865e+00    4.885159e-01   6.559908e-03
  2.616075e+00    4.993154e-01   6.624923e-03
  2.618286e+00    5.071659e-01   6.669798e-03
  2.620496e+00    4.884876e-01   6.539263e-03
  2.622706e+00    4.850470e-01   6.510533e-03
  2.624917e+00    4.928767e-01   6.557098e-03
  2.627127e+00    4.856800e-01   6.503424e-03
  2.629338e+00    4.833550e-01   6.481972e-03
  2.631548e+00    4.916646e-01   6.531365e-03
  2.633759e+00    4.809140e-01   6.452560e-03
  2.635969e+00    4.823889e-01   6.455899e-03
  2.638180e+00    4.898268e-01   6.498568e-03
  2.640390e+00    4.852979e-01   6.461974e-03
  2.642601e+00    4.810079e-01   6.426800e-03
  2.644811e+00    4.924531e-01   6.495795e-03
  2.647021e+00    4.937184e-01   6.497612e-03
  2.649232e+00    4.875196e-01   6.450079e-03
  2.651442e+00    4.794933e-01   6.390367e-03
  2.653653e+00    4.890745e-01   6.447162e-03
  2.655863e+00    4.951720e-01   6.480584e-03
  2.658074e+00    4.930993e-01   6.460430e-03
  2.660284e+00    4.828286e-01   6.386520e-03
  2.662495e+00    4.741469e-01   6.322269e-03
  2.664705e+00    4.845317e-01   6.384608e-03
  2.666916e+00    4.893189e-01   6.409680e-03
  2.669126e+00    4.745775e-01   6.306085e-03
  2.671337e+00    4.678725e-01   6.254957e-03
  2.673547e+00    4.738968e-01   6.288862e-03
  2.675757e+00    4.710208e-01   6.263474e-03
  2.677968e+00    4.802294e-01   6.317951e-03
  2.680178e+00    4.772176e-01   6.291836e-03
  2.682389e+00    4.732822e-01   6.259549e-03
  2.684599e+00    4.831345e-01   6.318264e-03
  2.686810e+00    4.884129e-01   6.346094e-03
  2.689020e+00    4.713910e-01   6.228386e-03
  2.691231e+00    4.727373e-01   6.231083e-03
  2.693441e+00    4.660286e-01   6.180725e-03
  2.695652e+00    4.759518e-01   6.239760e-03
  2.697862e+00    4.886172e-01   6.315893e-03
  2.700072e+00    4.846051e-01   6.283887e-03
  2.702283e+00    4.732492e-01   6.203693e-03
  2.704493e+00    4.804250e-01   6.244317e-03
  2.706704e+00    4.805031e-01   6.238477e-03
  2.708914e+00    4.746717e-01   6.194624e-03
  2.711125e+00    4.648069e-01   6.123815e-03
  2.713335e+00    4.752911e-01   6.186476e-03
  2.715546e+00    4.807722e-01   6.215635e-03
  2.717756e+00    4.781876e-01   6.193056e-03
  2.719967e+00    4.760304e-01   6.172939e-03
  2.722177e+00    4.676554e-01   6.112382e-03
  2.724387e+00    4.673129e-01   6.104145e-03
  2.726598e+00    4.697421e-01   6.114047e-03
  2.728808e+00    4.740910e-01   6.136179e-03
  2.731019e+00    4.830507e-01   6.187791e-03
  2.733229e+00    4.783122e-01   6.151599e-03
  2.735440e+00    4.710937e-01   6.098830e-03
  2.737650e+00    4.618213e-01   6.032613e-03
  2.739861e+00    4.725519e-01   6.096308e-03
  2.742071e+00    4.678171e-01   6.060027e-03
  2.744282e+00    4.738125e-01   6.092553e-03
  2.746492e+00    4.684329e-01   6.051918e-03
  2.748702e+00    4.722684e-01   6.070789e-03
  2.750913e+00    4.565824e-01   5.963509e-03
  2.753123e+00    4.602225e-01   5.981228e-03
  2.755334e+00    4.554509e-01   5.944230e-03
  2.757544e+00    4.595633e-01   5.965398e-03
  2.759755e+00    4.628728e-01   5.981056e-03
  2.761965e+00    4.710329e-01   6.027630e-03
  2.764176e+00    4.741953e-01   6.041878e-03
  2.766386e+00    4.678821e-01   5.995811e-03
  2.768597e+00    4.702919e-01   6.005415e-03
  2.770807e+00    4.723779e-01   6.012891e-03
  2.773017e+00    4.740061e-01   6.017302e-03
  2.775228e+00    4.748922e-01   6.017166e-03
  2.777438e+00    4.785096e-01   6.034237e-03
  2.779649e+00    4.625203e-01   5.926781e-03
  2.781859e+00    4.503426e-01   5.842613e-03
  2.784070e+00    4.740047e-01   5.988306e-03
  2.786280e+00    4.724888e-01   5.972997e-03
  2.788491e+00    4.618399e-01   5.899558e-03
  2.790701e+00    4.729032e-01   5.964162e-03
  2.792912e+00    4.764259e-01   5.980390e-03
  2.795122e+00    4.644282e-01   5.898937e-03
  2.797333e+00    4.678716e-01   5.915246e-03
  2.799543e+00    4.680197e-01   5.910369e-03
  2.801753e+00    4.714980e-01   5.926462e-03
  2.803964e+00    4.757491e-01   5.947455e-03
  2.806174e+00    4.663492e-01   5.882311e-03
  2.808385e+00    4.513232e-01   5.780162e-03
  2.810595e+00    4.597657e-01   5.827184e-03
  2.812806e+00    4.708745e-01   5.890603e-03
  2.815016e+00    4.601463e-01   5.818435e-03
  2.817227e+00    4.649541e-01   5.874413e-03
  2.819437e+00    4.651915e-01   5.886921e-03
  2.821648e+00    4.554871e-01   5.827419e-03
  2.823858e+00    4.638300e-01   5.885836e-03
  2.826068e+00    4.670338e-01   5.911076e-03
  2.828279e+00    4.681948e-01   5.922448e-03
  2.830489e+00    4.544783e-01   5.838327e-03
  2.832700e+00    4.487858e-01   5.804123e-03
  2.834910e+00    4.550151e-01   5.846292e-03
  2.837121e+00    4.695489e-01   5.940641e-03
  2.839331e+00    4.770650e-01   5.989243e-03
  2.841542e+00    4.602431e-01   5.883710e-03
  2.843752e+00    4.499227e-01   5.818131e-03
  2.845963e+00    4.481831e-01   5.807260e-03
  2.848173e+00    4.464850e-01   5.796322e-03
  2.850383e+00    4.590227e-01   5.877437e-03
  2.852594e+00    4.576519e-01   5.868586e-03
  2.854804e+00    4.476813e-01   5.803802e-03
  2.857015e+00    4.517629e-01   5.829785e-03
  2.859225e+00    4.466731e-01   5.796591e-03
  2.861436e+00    4.519513e-01   5.830103e-03
  2.863646e+00    4.495537e-01   5.814658e-03
  2.865857e+00    4.581251e-01   5.870154e-03
  2.868067e+00    4.443533e-01   5.781487e-03
  2.870278e+00    4.480496e-01   5.805127e-03
  2.872488e+00    4.466785e-01   5.795087e-03
  2.874698e+00    4.476460e-01   5.800344e-03
  2.876909e+00    4.429045e-01   5.768242e-03
  2.879119e+00    4.551330e-01   5.845726e-03
  2.881330e+00    4.575983e-01   5.860071e-03
  2.883540e+00    4.524837e-01   5.825849e-03
  2.885751e+00    4.578547e-01   5.858697e-03
  2.887961e+00    4.534121e-01   5.828336e-03
  2.890172e+00    4.428750e-01   5.758638e-03
  2.892382e+00    4.530680e-01   5.822745e-03
  2.894593e+00    4.558294e-01   5.838654e-03
  2.896803e+00    4.554939e-01   5.834544e-03
  2.899014e+00    4.467015e-01   5.776064e-03
  2.901224e+00    4.440402e-01   5.756882e-03
  2.903434e+00    4.488984e-01   5.786368e-03
  2.905645e+00    4.379037e-01   5.712892e-03
  2.907855e+00    4.447764e-01   5.755480e-03
  2.910066e+00    4.429286e-01   5.741473e-03
  2.912276e+00    4.406865e-01   5.724853e-03
  2.914487e+00    4.376180e-01   5.702487e-03
  2.916697e+00    4.300276e-01   5.650653e-03
  2.918908e+00    4.419295e-01   5.726351e-03
  2.921118e+00    4.436938e-01   5.735117e-03
  2.923329e+00    4.590513e-01   5.831202e-03
  2.925539e+00    4.453613e-01   5.741371e-03
  2.927749e+00    4.412862e-01   5.712741e-03
  2.929960e+00    4.444681e-01   5.730579e-03
  2.932170e+00    4.503622e-01   5.766125e-03
  2.934381e+00    4.434911e-01   5.719593e-03
  2.936591e+00    4.346719e-01   5.659887e-03
  2.938802e+00    4.439427e-01   5.717276e-03
  2.941012e+00    4.418024e-01   5.701166e-03
  2.943223e+00    4.541515e-01   5.777597e-03
  2.945433e+00    4.521928e-01   5.761431e-03
  2.947644e+00    4.313935e-01   5.623337e-03
  2.949854e+00    4.262586e-01   5.585629e-03
  2.952064e+00    4.307740e-01   5.611022e-03
  2.954275e+00    4.516771e-01   5.741156e-03
  2.956485e+00    4.481373e-01   5.714463e-03
  2.958696e+00    4.435575e-01   5.680870e-03
  2.960906e+00    4.349803e-01   5.621588e-03
  2.963117e+00    4.425115e-01   5.665615e-03
  2.965327e+00    4.551811e-01   5.742234e-03
  2.967538e+00    4.515834e-01   5.716620e-03
  2.969748e+00    4.464251e-01   5.681062e-03
  2.971959e+00    4.377923e-01   5.622801e-03
  2.974169e+00    4.444648e-01   5.662915e-03
  2.976379e+00    4.466064e-01   5.673662e-03
  2.978590e+00    4.549600e-01   5.723338e-03
  2.980800e+00    4.398156e-01   5.624519e-03
  2.983011e+00    4.523411e-01   5.701262e-03
  2.985221e+00    4.423352e-01   5.634728e-03
  2.987432e+00    4.539235e-01   5.704956e-03
  2.989642e+00    4.537574e-01   5.701285e-03
  2.991853e+00    4.509807e-01   5.680554e-03
  2.994063e+00    4.279146e-01   5.530546e-03
  2.996274e+00    4.385469e-01   5.595705e-03
  2.998484e+00    4.443943e-01   5.630215e-03
  3.000694e+00    4.449324e-01   5.630200e-03
  3.002905e+00    4.558131e-01   5.695674e-03
  3.005115e+00    4.607270e-01   5.723312e-03
  3.007326e+00    4.465710e-01   5.631557e-03
  3.009536e+00    4.494136e-01   5.646213e-03
  3.011747e+00    4.475208e-01   5.631418e-03
  3.013957e+00    4.371469e-01   5.562632e-03
  3.016168e+00    4.364487e-01   5.555003e-03
  3.018378e+00    4.397849e-01   5.573191e-03
  3.020589e+00    4.357778e-01   5.544574e-03
  3.022799e+00    4.418777e-01   5.580133e-03
  3.025010e+00    4.516821e-01   5.638460e-03
  3.027220e+00    4.694279e-01   5.744984e-03
  3.029430e+00    4.564723e-01   5.661914e-03
  3.031641e+00    4.523026e-01   5.632835e-03
  3.033851e+00    4.486799e-01   5.606744e-03
  3.036062e+00    4.398494e-01   5.548533e-03
  3.038272e+00    4.468019e-01   5.588654e-03
  3.040483e+00    4.489851e-01   5.599104e-03
  3.042693e+00    4.509488e-01   5.608048e-03
  3.044904e+00    4.489101e-01   5.591358e-03
  3.047114e+00    4.430744e-01   5.550120e-03
  3.049325e+00    4.499703e-01   5.588758e-03
  3.051535e+00    4.510356e-01   5.590971e-03
  3.053745e+00    4.522947e-01   5.594018e-03
  3.055956e+00    4.384585e-01   5.503288e-03
  3.058166e+00    4.448537e-01   5.539026e-03
  3.060377e+00    4.370165e-01   5.485336e-03
  3.062587e+00    4.275416e-01   5.421020e-03
  3.064798e+00    4.348370e-01   5.462889e-03
  3.067008e+00    4.422797e-01   5.504751e-03
  3.069219e+00    4.469253e-01   5.529099e-03
  3.071429e+00    4.429830e-01   5.501165e-03
  3.073640e+00    4.483574e-01   5.531127e-03
  3.075850e+00    4.347919e-01   5.443262e-03
  3.078060e+00    4.270272e-01   5.391418e-03
  3.080271e+00    4.429131e-01   5.487332e-03
  3.082481e+00    4.339331e-01   5.428043e-03
  3.084692e+00    4.304092e-01   5.402633e-03
  3.086902e+00    4.234296e-01   5.355499e-03
  3.089113e+00    4.373361e-01   5.439196e-03
  3.091323e+00    4.532431e-01   5.533852e-03
  3.093534e+00    4.395210e-01   5.446096e-03
  3.095744e+00    4.341146e-01   5.409183e-03
  3.097955e+00    4.311553e-01   5.387220e-03
  3.100165e+00    4.247061e-01   5.343525e-03
  3.102375e+00    4.419696e-01   5.447648e-03
  3.104586e+00    4.383214e-01   5.421654e-03
  3.106796e+00    4.338547e-01   5.390495e-03
  3.109007e+00    4.484465e-01   5.477169e-03
  3.111217e+00    4.262103e-01   5.336049e-03
  3.113428e+00    4.369056e-01   5.399194e-03
  3.115638e+00    4.434922e-01   5.436510e-03
  3.117849e+00    4.363127e-01   5.388651e-03
  3.120059e+00    4.357665e-01   5.381845e-03
  3.122270e+00    4.398561e-01   5.403796e-03
  3.124480e+00    4.339702e-01   5.363890e-03
  3.126691e+00    4.282004e-01   5.324613e-03
  3.128901e+00    4.116645e-01   5.217792e-03
  3.131111e+00    4.313520e-01   5.337284e-03
  3.133322e+00    4.401752e-01   5.388202e-03
  3.135532e+00    4.261317e-01   5.298207e-03
  3.137743e+00    4.284307e-01   5.309069e-03
  3.139953e+00    4.417087e-01   5.387011e-03
  3.142164e+00    4.459632e-01   5.424979e-03
  3.144374e+00    4.371746e-01   5.399482e-03
  3.146585e+00    4.263042e-01   5.346231e-03
  3.148795e+00    4.304973e-01   5.383080e-03
  3.151006e+00    4.446595e-01   5.479489e-03
  3.153216e+00    4.370651e-01   5.439594e-03
  3.155426e+00    4.300611e-01   5.402070e-03
  3.157637e+00    4.240903e-01   5.369850e-03
  3.159847e+00    4.187510e-01   5.340687e-03
  3.162058e+00    4.313057e-01   5.424554e-03
  3.164268e+00    4.275998e-01   5.405193e-03
  3.166479e+00    4.389631e-01   5.480191e-03
  3.168689e+00    4.140238e-01   5.325528e-03
  3.170900e+00    4.271384e-01   5.412302e-03
  3.173110e+00    4.302324e-01   5.434752e-03
  3.175321e+00    4.326689e-01   5.452587e-03
  3.177531e+00    4.283443e-01   5.427971e-03
  3.179741e+00    4.441328e-01   5.529179e-03
  3.181952e+00    4.281024e-01   5.430592e-03
  3.184162e+00    4.223326e-01   5.396012e-03
  3.186373e+00    4.313521e-01   5.454909e-03
  3.188583e+00    4.234836e-01   5.406694e-03
  3.190794e+00    4.215942e-01   5.396350e-03
  3.193004e+00    4.255544e-01   5.422852e-03
  3.195215e+00    4.122805e-01   5.339082e-03
  3.197425e+00    4.186489e-01   5.381322e-03
  3.199636e+00    4.042567e-01   5.287303e-03
  3.201846e+00    4.092633e-01   5.319334e-03
  3.204056e+00    4.179069e-01   5.376086e-03
  3.206267e+00    4.092756e-01   5.321125e-03
  3.208477e+00    4.126916e-01   5.344148e-03
  3.210688e+00    4.255828e-01   5.427830e-03
  3.212898e+00    4.244308e-01   5.421049e-03
  3.215109e+00    4.193539e-01   5.389281e-03
  3.217319e+00    4.183370e-01   5.383356e-03
  3.219530e+00    4.081408e-01   5.317732e-03
  3.221740e+00    4.226032e-01   5.411679e-03
  3.223951e+00    4.152801e-01   5.365056e-03
  3.226161e+00    4.063004e-01   5.306929e-03
  3.228372e+00    4.114922e-01   5.341216e-03
  3.230582e+00    4.130869e-01   5.351704e-03
  3.232792e+00    4.262685e-01   5.436648e-03
  3.235003e+00    4.018605e-01   5.278951e-03
  3.237213e+00    4.172921e-01   5.379436e-03
  3.239424e+00    4.185189e-01   5.387327e-03
  3.241634e+00    4.155310e-01   5.368218e-03
  3.243845e+00    4.178780e-01   5.383397e-03
  3.246055e+00    4.047836e-01   5.298142e-03
  3.248266e+00    4.071464e-01   5.313760e-03
  3.250476e+00    4.123926e-01   5.347590e-03
  3.252687e+00    4.095220e-01   5.328871e-03
  3.254897e+00    4.097261e-01   5.330084e-03
  3.257107e+00    4.147508e-01   5.362340e-03
  3.259318e+00    4.177974e-01   5.381786e-03
  3.261528e+00    4.092266e-01   5.326150e-03
  3.263739e+00    4.177699e-01   5.380906e-03
  3.265949e+00    4.297054e-01   5.457121e-03
  3.268160e+00    4.105967e-01   5.334003e-03
  3.270370e+00    4.140970e-01   5.356161e-03
  3.272581e+00    4.192425e-01   5.389072e-03
  3.274791e+00    4.134962e-01   5.351492e-03
  3.277002e+00    4.120636e-01   5.341665e-03
  3.279212e+00    3.998600e-01   5.261600e-03
  3.281422e+00    4.154180e-01   5.362399e-03
  3.283633e+00    4.144734e-01   5.355638e-03
  3.285843e+00    4.130782e-01   5.346289e-03
  3.288054e+00    4.176254e-01   5.374680e-03
  3.290264e+00    4.196877e-01   5.387654e-03
  3.292475e+00    4.196529e-01   5.386583e-03
  3.294685e+00    4.269123e-01   5.432349e-03
  3.296896e+00    4.059530e-01   5.296569e-03
  3.299106e+00    4.088610e-01   5.314961e-03
  3.301317e+00    4.102616e-01   5.323052e-03
  3.303527e+00    3.962322e-01   5.230797e-03
  3.305737e+00    3.994993e-01   5.251293e-03
  3.307948e+00    4.106477e-01   5.323401e-03
  3.310158e+00    4.087928e-01   5.310528e-03
  3.312369e+00    3.961149e-01   5.226695e-03
  3.314579e+00    4.049539e-01   5.283772e-03
  3.316790e+00    4.077328e-01   5.301195e-03
  3.319000e+00    4.058488e-01   5.287751e-03
  3.321211e+00    4.246792e-01   5.408430e-03
  3.323421e+00    4.100420e-01   5.313232e-03
  3.325632e+00    4.083802e-01   5.301570e-03
  3.327842e+00    4.121897e-01   5.325335e-03
  3.330052e+00    4.030230e-01   5.264747e-03
  3.332263e+00    4.260032e-01   5.411730e-03
  3.334473e+00    4.074666e-01   5.291816e-03
  3.336684e+00    4.093829e-01   5.302971e-03
  3.338894e+00    4.109989e-01   5.312610e-03
  3.341105e+00    4.105584e-01   5.308550e-03
  3.343315e+00    3.995989e-01   5.236119e-03
  3.345526e+00    4.157535e-01   5.340010e-03
  3.347736e+00    4.156683e-01   5.338065e-03
  3.349947e+00    4.076989e-01   5.285732e-03
  3.352157e+00    4.066596e-01   5.277828e-03
  3.354368e+00    4.083504e-01   5.287520e-03
  3.356578e+00    4.080422e-01   5.284512e-03
  3.358788e+00    4.098628e-01   5.294978e-03
  3.360999e+00    4.022358e-01   5.244249e-03
  3.363209e+00    4.053019e-01   5.263200e-03
  3.365420e+00    4.141097e-01   5.318578e-03
  3.367630e+00    4.180591e-01   5.342853e-03
  3.369841e+00    4.123395e-01   5.304780e-03
  3.372051e+00    4.002433e-01   5.224449e-03
  3.374262e+00    3.962118e-01   5.195680e-03
  3.376472e+00    4.121851e-01   5.296948e-03
  3.378683e+00    4.015711e-01   5.225847e-03
  3.380893e+00    4.113712e-01   5.286893e-03
  3.383103e+00    4.076259e-01   5.260117e-03
  3.385314e+00    3.998620e-01   5.207573e-03
  3.387524e+00    3.900877e-01   5.140899e-03
  3.389735e+00    4.064001e-01   5.244656e-03
  3.391945e+00    4.113890e-01   5.273101e-03
  3.394156e+00    4.048609e-01   5.226912e-03
  3.396366e+00    4.132863e-01   5.277602e-03
  3.398577e+00    4.059808e-01   5.227737e-03
  3.400787e+00    4.020169e-01   5.213922e-03
  3.402998e+00    4.057431e-01   5.275901e-03
  3.405208e+00    3.979944e-01   5.245758e-03
  3.407418e+00    3.738091e-01   5.099113e-03
  3.409629e+00    3.748755e-01   5.119861e-03
  3.411839e+00    3.715727e-01   5.108634e-03
  3.414050e+00    3.885874e-01   5.235131e-03
  3.416260e+00    3.919975e-01   5.267708e-03
  3.418471e+00    3.831827e-01   5.217408e-03
  3.420681e+00    3.757958e-01   5.175206e-03
  3.422892e+00    3.705760e-01   5.146913e-03
  3.425102e+00    3.801419e-01   5.220636e-03
  3.427313e+00    3.730795e-01   5.178981e-03
  3.429523e+00    3.636089e-01   5.119653e-03
  3.431733e+00    3.562895e-01   5.074258e-03
  3.433944e+00    3.749025e-01   5.211518e-03
  3.436154e+00    3.798451e-01   5.251974e-03
  3.438365e+00    3.823812e-01   5.275423e-03
  3.440575e+00    3.745515e-01   5.227024e-03
  3.442786e+00    3.707275e-01   5.205787e-03
  3.444996e+00    3.680740e-01   5.192596e-03
  3.447207e+00    3.518353e-01   5.081867e-03
  3.449417e+00    3.569458e-01   5.158640e-03
  3.451628e+00    3.592838e-01   5.204562e-03
  3.453838e+00    3.494366e-01   5.153398e-03
  3.456049e+00    3.458400e-01   5.149988e-03
  3.458259e+00    3.559802e-01   5.246564e-03
  3.460469e+00    3.498936e-01   5.220860e-03
  3.462680e+00    3.648603e-01   5.350368e-03
  3.464890e+00    3.443239e-01   5.214901e-03
  3.467101e+00    3.499798e-01   5.274541e-03
  3.469311e+00    3.778674e-01   5.497389e-03
  3.471522e+00    3.805901e-01   5.533712e-03
  3.473732e+00    3.846595e-01   5.579269e-03
  3.475943e+00    3.861856e-01   5.606116e-03
  3.478153e+00    3.894499e-01   5.645227e-03
  3.480364e+00    3.970604e-01   5.715317e-03
  3.482574e+00    4.139389e-01   5.851076e-03
  3.484784e+00    4.168770e-01   5.886789e-03
  3.486995e+00    4.099262e-01   5.852495e-03
  3.489205e+00    4.257453e-01   5.979082e-03
  3.491416e+00    4.152495e-01   5.919608e-03
  3.493626e+00    4.074574e-01   5.877933e-03
  3.495837e+00    4.377379e-01   6.107111e-03
  3.498047e+00    4.326250e-01   6.085679e-03
  3.500258e+00    4.351270e-01   6.117522e-03
  3.502468e+00    4.490460e-01   6.228959e-03
  3.504679e+00    4.448722e-01   6.214165e-03
  3.506889e+00    4.591501e-01   6.327428e-03
  3.509099e+00    4.776821e-01   6.468328e-03
  3.511310e+00    4.711889e-01   6.438608e-03
  3.513520e+00    4.719717e-01   6.458215e-03
  3.515731e+00    4.906005e-01   6.598855e-03
  3.517941e+00    4.980323e-01   6.663165e-03
  3.520152e+00    4.888819e-01   6.615892e-03
  3.522362e+00    4.867211e-01   6.615513e-03
  3.524573e+00    5.026114e-01   6.736902e-03
  3.526783e+00    4.909130e-01   6.671109e-03
  3.528994e+00    5.002084e-01   6.746002e-03
  3.531204e+00    5.123464e-01   6.839714e-03
  3.533414e+00    5.319994e-01   6.981809e-03
  3.535625e+00    5.613150e-01   7.184366e-03
  3.537835e+00    5.240833e-01   6.954055e-03
  3.540046e+00    5.061162e-01   6.842458e-03
  3.542256e+00    5.178522e-01   6.928751e-03
  3.544467e+00    5.258886e-01   6.989859e-03
  3.546677e+00    5.122015e-01   6.905720e-03
  3.548888e+00    5.175115e-01   6.948757e-03
  3.551098e+00    5.081640e-01   6.892833e-03
  3.553309e+00    5.310311e-01   7.054329e-03
  3.555519e+00    5.290974e-01   7.052702e-03
  3.557729e+00    5.262792e-01   7.045524e-03
  3.559940e+00    5.215603e-01   7.025238e-03
  3.562150e+00    5.229099e-01   7.045891e-03
  3.564361e+00    5.371795e-01   7.154708e-03
  3.566571e+00    5.449942e-01   7.220529e-03
  3.568782e+00    5.249387e-01   7.100401e-03
  3.570992e+00    5.262898e-01   7.123149e-03
  3.573203e+00    5.166922e-01   7.071787e-03
  3.575413e+00    5.270799e-01   7.156181e-03
  3.577624e+00    5.142814e-01   7.082622e-03
  3.579834e+00    5.181395e-01   7.122728e-03
  3.582045e+00    5.244744e-01   7.180076e-03
  3.584255e+00    5.017540e-01   7.036430e-03
  3.586465e+00    5.036086e-01   7.062899e-03
  3.588676e+00    5.223806e-01   7.207323e-03
  3.590886e+00    5.450727e-01   7.376080e-03
  3.593097e+00    5.226243e-01   7.236864e-03
  3.595307e+00    5.229738e-01   7.253092e-03
  3.597518e+00    5.115921e-01   7.187597e-03
  3.599728e+00    5.243226e-01   7.290428e-03
  3.601939e+00    5.262777e-01   7.317956e-03
  3.604149e+00    5.275460e-01   7.341047e-03
  3.606360e+00    5.280337e-01   7.358522e-03
  3.608570e+00    5.090609e-01   7.238895e-03
  3.610780e+00    5.351821e-01   7.433358e-03
  3.612991e+00    5.147134e-01   7.299677e-03
  3.615201e+00    5.243809e-01   7.377533e-03
  3.617412e+00    5.527859e-01   7.582172e-03
  3.619622e+00    5.515525e-01   7.579770e-03
  3.621833e+00    5.130457e-01   7.316959e-03
  3.624043e+00    5.211080e-01   7.383579e-03
  3.626254e+00    5.277092e-01   7.439870e-03
  3.628464e+00    5.321348e-01   7.481931e-03
  3.630675e+00    5.399268e-01   7.550745e-03
  3.632885e+00    5.221270e-01   7.439494e-03
  3.635095e+00    5.298475e-01   7.508651e-03
  3.637306e+00    5.325038e-01   7.541808e-03
  3.639516e+00    5.196304e-01   7.464450e-03
  3.641727e+00    5.122226e-01   7.425303e-03
  3.643937e+00    5.157592e-01   7.465212e-03
  3.646148e+00    5.213404e-01   7.519916e-03
  3.648358e+00    5.421234e-01   7.683363e-03
  3.650569e+00    5.172227e-01   7.519322e-03
  3.652779e+00    5.255898e-01   7.594598e-03
  3.654990e+00    5.123714e-01   7.513093e-03
  3.657200e+00    5.212111e-01   7.592321e-03
  3.659410e+00    5.394371e-01   7.739030e-03
  3.661621e+00    5.314634e-01   7.696710e-03
  3.663831e+00    5.308550e-01   7.707412e-03
  3.666042e+00    5.397290e-01   7.786829e-03
  3.668252e+00    5.293745e-01   7.727035e-03
  3.670463e+00    5.019848e-01   7.539240e-03
  3.672673e+00    5.188965e-01   7.680468e-03
  3.674884e+00    5.161791e-01   7.675481e-03
  3.677094e+00    5.061198e-01   7.615515e-03
  3.679305e+00    5.075327e-01   7.641345e-03
  3.681515e+00    5.047663e-01   7.635708e-03
  3.683726e+00    4.984609e-01   7.603208e-03
  3.685936e+00    5.267739e-01   7.831823e-03
  3.688146e+00    5.362105e-01   7.917549e-03
  3.690357e+00    5.271066e-01   7.866015e-03
  3.692567e+00    4.943136e-01   7.633040e-03
  3.694778e+00    4.960215e-01   7.661727e-03
  3.696988e+00    5.113474e-01   7.794996e-03
  3.699199e+00    5.222262e-01   7.893631e-03
  3.701409e+00    5.051470e-01   7.779587e-03
  3.703620e+00    5.107833e-01   7.838921e-03
  3.705830e+00    5.336675e-01   8.029127e-03
  3.708041e+00    5.171993e-01   7.920801e-03
  3.710251e+00    5.041430e-01   7.836588e-03
  3.712461e+00    4.993435e-01   7.815523e-03
  3.714672e+00    5.134669e-01   7.941869e-03
  3.716882e+00    5.123551e-01   7.949898e-03
  3.719093e+00    5.206670e-01   8.031198e-03
  3.721303e+00    5.207660e-01   8.049000e-03
  3.723514e+00    5.047695e-01   7.941427e-03
  3.725724e+00    5.043678e-01   7.955165e-03
  3.727935e+00    4.833567e-01   7.804585e-03
  3.730145e+00    5.094497e-01   8.029669e-03
  3.732356e+00    5.152187e-01   8.092485e-03
  3.734566e+00    5.174023e-01   8.127225e-03
  3.736776e+00    5.029680e-01   8.030637e-03
  3.738987e+00    4.822319e-01   7.880489e-03
  3.741197e+00    4.923407e-01   7.980314e-03
  3.743408e+00    5.099438e-01   8.139716e-03
  3.745618e+00    4.939134e-01   8.028724e-03
  3.747829e+00    5.146460e-01   8.213633e-03
  3.750039e+00    5.087312e-01   8.184649e-03
  3.752250e+00    5.028427e-01   8.155457e-03
  3.754460e+00    4.673053e-01   7.879748e-03
  3.756671e+00    4.974472e-01   8.148456e-03
  3.758881e+00    5.052984e-01   8.231106e-03
  3.761091e+00    4.778035e-01   8.022590e-03
  3.763302e+00    4.937899e-01   8.174485e-03
  3.765512e+00    4.841263e-01   8.112947e-03
  3.767723e+00    4.858319e-01   8.146097e-03
  3.769933e+00    4.927586e-01   8.223062e-03
  3.772144e+00    4.845441e-01   8.173428e-03
  3.774354e+00    4.943038e-01   8.274901e-03
  3.776565e+00    4.849029e-01   8.215303e-03
  3.778775e+00    4.873533e-01   8.255671e-03
  3.780986e+00    5.040560e-01   8.416191e-03
  3.783196e+00    5.193815e-01   8.563779e-03
  3.785407e+00    4.934694e-01   8.367701e-03
  3.787617e+00    5.086647e-01   8.516368e-03
  3.789827e+00    5.164662e-01   8.602238e-03
  3.792038e+00    4.984950e-01   8.472087e-03
  3.794248e+00    4.997333e-01   8.503643e-03
  3.796459e+00    4.967771e-01   8.499771e-03
  3.798669e+00    4.902796e-01   8.465135e-03
  3.800880e+00    4.909602e-01   8.492248e-03
  3.803090e+00    5.099004e-01   8.676539e-03
  3.805301e+00    4.870698e-01   8.501871e-03
  3.807511e+00    4.891815e-01   8.542010e-03
  3.809722e+00    4.944464e-01   8.610045e-03
  3.811932e+00    4.960699e-01   8.646241e-03
  3.814142e+00    5.077785e-01   8.770783e-03
  3.816353e+00    4.814434e-01   8.562784e-03
  3.818563e+00    4.722962e-01   8.503521e-03
  3.820774e+00    4.697146e-01   8.502655e-03
  3.822984e+00    4.930008e-01   8.734201e-03
  3.825195e+00    4.825946e-01   8.664852e-03
  3.827405e+00    4.926732e-01   8.778632e-03
  3.829616e+00    5.027364e-01   8.892066e-03
  3.831826e+00    4.877852e-01   8.782722e-03
  3.834037e+00    4.934348e-01   8.857902e-03
  3.836247e+00    4.870985e-01   8.825246e-03
  3.838457e+00    4.768331e-01   8.756324e-03
  3.840668e+00    4.768609e-01   8.781253e-03
  3.842878e+00    4.763580e-01   8.801625e-03
  3.845089e+00    4.839921e-01   8.897144e-03
  3.847299e+00    5.066167e-01   9.128797e-03
  3.849510e+00    4.702083e-01   8.819906e-03
  3.851720e+00    4.857247e-01   8.985371e-03
  3.853931e+00    4.822666e-01   8.972105e-03
  3.856141e+00    5.002529e-01   9.157010e-03
  3.858352e+00    5.055760e-01   9.225097e-03
  3.860562e+00    4.915490e-01   9.115445e-03
  3.862772e+00    5.008755e-01   9.221261e-03
  3.864983e+00    4.868715e-01   9.110968e-03
  3.867193e+00    4.807024e-01   9.072607e-03
  3.869404e+00    4.691941e-01   8.982614e-03
  3.871614e+00    4.783922e-01   9.089932e-03
  3.873825e+00    4.799278e-01   9.124511e-03
  3.876035e+00    4.897617e-01   9.238073e-03
  3.878246e+00    4.905446e-01   9.271166e-03
  3.880456e+00    4.660121e-01   9.064591e-03
  3.882667e+00    4.598275e-01   9.032569e-03
  3.884877e+00    4.983683e-01   9.433407e-03
  3.887087e+00    4.686302e-01   9.176902e-03
  3.889298e+00    4.775990e-01   9.294238e-03
  3.891508e+00    4.985173e-01   9.526302e-03
  3.893719e+00    4.982884e-01   9.555408e-03
  3.895929e+00    4.957210e-01   9.562350e-03
  3.898140e+00    4.854822e-01   9.494609e-03
  3.900350e+00    4.636526e-01   9.309955e-03
  3.902561e+00    4.505716e-01   9.208671e-03
  3.904771e+00    4.824705e-01   9.561654e-03
  3.906982e+00    4.693957e-01   9.463634e-03
  3.909192e+00    4.769286e-01   9.572406e-03
  3.911403e+00    4.533888e-01   9.365917e-03
  3.913613e+00    4.899031e-01   9.769972e-03
  3.915823e+00    4.952756e-01   9.858556e-03
  3.918034e+00    4.687794e-01   9.625779e-03
  3.920244e+00    4.704958e-01   9.678386e-03
  3.922455e+00    4.789544e-01   9.800749e-03
  3.924665e+00    4.992794e-01   1.004343e-02
  3.926876e+00    4.890833e-01   9.977442e-03
  3.929086e+00    4.877257e-01   1.000101e-02
  3.931297e+00    4.598409e-01   9.744726e-03
  3.933507e+00    4.834457e-01   1.002044e-02
  3.935718e+00    4.860852e-01   1.007652e-02
  3.937928e+00    5.025886e-01   1.027603e-02
  3.940138e+00    4.877420e-01   1.015249e-02
  3.942349e+00    5.019954e-01   1.033004e-02
  3.944559e+00    5.183977e-01   1.052845e-02
  3.946770e+00    4.738812e-01   1.009602e-02
  3.948980e+00    4.843479e-01   1.023752e-02
  3.951191e+00    4.490228e-01   9.886830e-03
  3.953401e+00    4.607370e-01   1.004536e-02
  3.955612e+00    4.538852e-01   1.000109e-02
  3.957822e+00    4.541289e-01   1.003428e-02
  3.960033e+00    4.732902e-01   1.027601e-02
  3.962243e+00    4.920740e-01   1.051101e-02
  3.964453e+00    4.696062e-01   1.030087e-02
  3.966664e+00    4.677477e-01   1.031314e-02
  3.968874e+00    4.665785e-01   1.032814e-02
  3.971085e+00    4.931975e-01   1.064074e-02
  3.973295e+00    4.631019e-01   1.033196e-02
  3.975506e+00    4.757377e-01   1.049340e-02
  3.977716e+00    4.505224e-01   1.023265e-02
  3.979927e+00    4.706401e-01   1.048040e-02
  3.982137e+00    4.661669e-01   1.045241e-02
  3.984348e+00    4.357662e-01   1.012716e-02
  3.986558e+00    4.544412e-01   1.036346e-02
  3.988768e+00    4.467152e-01   1.029701e-02
  3.990979e+00    4.850865e-01   1.075304e-02
  3.993189e+00    4.512878e-01   1.039379e-02
  3.995400e+00    5.032341e-01   1.099973e-02
  3.997610e+00    4.943636e-01   1.093243e-02
  3.999821e+00    5.026112e-01   1.106155e-02
  4.002031e+00    4.962358e-01   1.102995e-02
  4.004242e+00    4.727086e-01   1.080332e-02
  4.006452e+00    5.162408e-01   1.133040e-02
  4.008663e+00    4.817619e-01   1.098539e-02
  4.010873e+00    4.731784e-01   1.092669e-02
  4.013084e+00    4.805268e-01   1.105188e-02
  4.015294e+00    4.746623e-01   1.102475e-02
  4.017504e+00    4.934885e-01   1.128362e-02
  4.019715e+00    4.569374e-01   1.089894e-02
  4.021925e+00    5.046825e-01   1.149799e-02
  4.024136e+00    4.936925e-01   1.141643e-02
  4.026346e+00    4.892513e-01   1.140921e-02
  4.028557e+00    4.642296e-01   1.115715e-02
  4.030767e+00    4.856941e-01   1.145783e-02
  4.032978e+00    4.586911e-01   1.117984e-02
  4.035188e+00    4.761898e-01   1.143697e-02
  4.037399e+00    4.589304e-01   1.127409e-02
  4.039609e+00    4.656888e-01   1.140372e-02
  4.041819e+00    4.397246e-01   1.112775e-02
  4.044030e+00    4.489659e-01   1.129213e-02
  4.046240e+00    4.562172e-01   1.143136e-02
  4.048451e+00    5.054595e-01   1.208460e-02
  4.050661e+00    4.257004e-01   1.113871e-02
  4.052872e+00    4.652179e-01   1.169587e-02
  4.055082e+00    4.420303e-01   1.145199e-02
  4.057293e+00    4.238213e-01   1.126377e-02
  4.059503e+00    4.598163e-01   1.178575e-02
  4.061714e+00    4.673989e-01   1.193833e-02
  4.063924e+00    4.534144e-01   1.181333e-02
  4.066134e+00    4.520160e-01   1.185063e-02
  4.068345e+00    4.405212e-01   1.175540e-02
  4.070555e+00    4.575055e-01   1.203749e-02
  4.072766e+00    4.702962e-01   1.226491e-02
  4.074976e+00    4.543743e-01   1.211555e-02
  4.077187e+00    4.665012e-01   1.233717e-02
  4.079397e+00    4.672250e-01   1.240971e-02
  4.081608e+00    4.740241e-01   1.256494e-02
  4.083818e+00    4.620817e-01   1.246997e-02
  4.086029e+00    4.567955e-01   1.246378e-02
  4.088239e+00    4.945039e-01   1.303803e-02
  4.090449e+00    4.820291e-01   1.294219e-02
  4.092660e+00    4.986504e-01   1.323577e-02
  4.094870e+00    5.037397e-01   1.337742e-02
  4.097081e+00    4.722170e-01   1.302274e-02
  4.099291e+00    4.743431e-01   1.310639e-02
  4.101502e+00    4.322988e-01   1.255846e-02
  4.103712e+00    4.804113e-01   1.328824e-02
  4.105923e+00    4.332456e-01   1.266800e-02
  4.108133e+00    4.464513e-01   1.290919e-02
  4.110344e+00    4.362527e-01   1.280971e-02
  4.112554e+00    4.273865e-01   1.272892e-02
  4.114764e+00    4.487807e-01   1.309602e-02
  4.116975e+00    4.826858e-01   1.363527e-02
  4.119185e+00    4.924696e-01   1.382867e-02
  4.121396e+00    4.652475e-01   1.349677e-02
  4.123606e+00    4.601145e-01   1.347691e-02
  4.125817e+00    4.654289e-01   1.361137e-02
  4.128027e+00    5.087159e-01   1.429013e-02
  4.130238e+00    5.072631e-01   1.433099e-02
  4.132448e+00    5.039462e-01   1.434599e-02
  4.134659e+00    4.458602e-01   1.355216e-02
  4.136869e+00    4.919126e-01   1.429816e-02
  4.139080e+00    4.306236e-01   1.343822e-02
  4.141290e+00    4.801318e-01   1.425256e-02
  4.143500e+00    4.257171e-01   1.348243e-02
  4.145711e+00    4.810430e-01   1.439860e-02
  4.147921e+00    5.146412e-01   1.496138e-02
  4.150132e+00    5.057606e-01   1.490263e-02
  4.152342e+00    4.481296e-01   1.409582e-02
  4.154553e+00    4.352438e-01   1.395747e-02
  4.156763e+00    5.296927e-01   1.547402e-02
  4.158974e+00    4.961360e-01   1.505110e-02
  4.161184e+00    4.874947e-01   1.499359e-02
  4.163395e+00    4.662326e-01   1.473766e-02
  4.165605e+00    5.025349e-01   1.538024e-02
  4.167815e+00    4.842086e-01   1.517617e-02
  4.170026e+00    5.001105e-01   1.550442e-02
  4.172236e+00    4.578206e-01   1.491473e-02
  4.174447e+00    4.538566e-01   1.493070e-02
  4.176657e+00    4.414520e-01   1.480571e-02
  4.178868e+00    4.728267e-01   1.540967e-02
  4.181078e+00    4.612216e-01   1.530493e-02
  4.183289e+00    4.652602e-01   1.546001e-02
  4.185499e+00    4.550624e-01   1.537981e-02
  4.187710e+00    4.730864e-01   1.577318e-02
  4.189920e+00    4.697521e-01   1.581216e-02
  4.192130e+00    4.994709e-01   1.640445e-02
  4.194341e+00    4.896812e-01   1.634234e-02
  4.196551e+00    4.895961e-01   1.644447e-02
  4.198762e+00    4.822460e-01   1.642427e-02
  4.200972e+00    4.834234e-01   1.655067e-02
  4.203183e+00    4.542534e-01   1.614920e-02
  4.205393e+00    4.548999e-01   1.626839e-02
  4.207604e+00    4.011377e-01   1.538103e-02
  4.209814e+00    5.217876e-01   1.766204e-02
  4.212025e+00    5.428346e-01   1.814317e-02
  4.214235e+00    4.917140e-01   1.738985e-02
  4.216445e+00    5.013766e-01   1.768683e-02
  4.218656e+00    4.744464e-01   1.733440e-02
  4.220866e+00    4.822614e-01   1.760598e-02
  4.223077e+00    4.701394e-01   1.751705e-02
  4.225287e+00    4.629040e-01   1.751809e-02
  4.227498e+00    5.091481e-01   1.851665e-02
  4.229708e+00    5.015954e-01   1.852824e-02
  4.231919e+00    4.875564e-01   1.841848e-02
  4.234129e+00    4.753908e-01   1.833928e-02
  4.236340e+00    4.663630e-01   1.832001e-02
  4.238550e+00    4.630430e-01   1.841580e-02
  4.240761e+00    4.757103e-01   1.883077e-02
  4.242971e+00    4.656237e-01   1.880087e-02
  4.245181e+00    4.630389e-01   1.892463e-02
  4.247392e+00    4.992154e-01   1.983379e-02
  4.249602e+00    4.516104e-01   1.905202e-02
  4.251813e+00    4.364122e-01   1.891327e-02
  4.254023e+00    3.491077e-01   1.708605e-02
  4.256234e+00    4.415796e-01   1.942155e-02
  4.258444e+00    4.732815e-01   2.031728e-02
  4.260655e+00    4.382600e-01   1.976600e-02
  4.262865e+00    4.301069e-01   1.980330e-02
  4.265076e+00    4.958486e-01   2.150469e-02
  4.267286e+00    4.687704e-01   2.115751e-02
  4.269496e+00    3.897515e-01   1.952714e-02
  4.271707e+00    4.239314e-01   2.061739e-02
  4.273917e+00    3.995557e-01   2.027411e-02
  4.276128e+00    5.188797e-01   2.341142e-02
  4.278338e+00    4.640399e-01   2.243541e-02
  4.280549e+00    4.104187e-01   2.140164e-02
  4.282759e+00    4.213218e-01   2.199609e-02
  4.284970e+00    4.449086e-01   2.293728e-02
  4.287180e+00    4.971360e-01   2.453714e-02
  4.289391e+00    5.648624e-01   2.635159e-02
  4.291601e+00    4.517432e-01   2.375411e-02
  4.293811e+00    4.792599e-01   2.465801e-02
  4.296022e+00    5.457865e-01   2.652548e-02
  4.298232e+00    4.618534e-01   2.460519e-02
  4.300443e+00    4.666928e-01   2.493768e-02
  4.302653e+00    4.460658e-01   2.459136e-02
  4.304864e+00    5.040773e-01   2.636761e-02
  4.307074e+00    5.041736e-01   2.660784e-02
  4.309285e+00    4.299807e-01   2.479528e-02
  4.311495e+00    4.438262e-01   2.542681e-02
  4.313706e+00    5.004744e-01   2.725437e-02
  4.315916e+00    4.677899e-01   2.660857e-02
  4.318126e+00    5.863284e-01   3.008490e-02
  4.320337e+00    4.916971e-01   2.782914e-02
  4.322547e+00    4.370955e-01   2.651699e-02
  4.324758e+00    4.034258e-01   2.573935e-02
  4.326968e+00    5.122846e-01   2.933197e-02
  4.329179e+00    4.646228e-01   2.824273e-02
  4.331389e+00    4.256322e-01   2.734163e-02
  4.333600e+00    4.340409e-01   2.794147e-02
  4.335810e+00    4.843306e-01   2.986639e-02
  4.338021e+00    5.191751e-01   3.131785e-02
  4.340231e+00    5.540780e-01   3.275903e-02
  4.342442e+00    5.211228e-01   3.219763e-02
  4.344652e+00    4.582197e-01   3.060074e-02
  4.346862e+00    4.202400e-01   2.971563e-02
  4.349073e+00    3.941036e-01   2.919571e-02
  4.351283e+00    3.469141e-01   2.780123e-02
  4.353494e+00    4.269769e-01   3.131873e-02
  4.355704e+00    3.868740e-01   3.029351e-02
  4.357915e+00    3.070044e-01   2.743334e-02
  4.360125e+00    4.435519e-01   3.353733e-02
  4.362336e+00    5.369003e-01   3.757153e-02
  4.364546e+00    4.399966e-01   3.463093e-02
  4.366757e+00    4.079718e-01   3.401179e-02
  4.368967e+00    5.382805e-01   3.984436e-02
  4.371177e+00    4.971506e-01   3.910955e-02
  4.373388e+00    4.771151e-01   3.916668e-02
  4.375598e+00    4.231511e-01   3.772792e-02
  4.377809e+00    4.575679e-01   4.022531e-02
  4.380019e+00    2.544743e-01   3.075326e-02
  4.382230e+00    2.087898e-01   2.863259e-02
  4.384440e+00    4.087386e-01   4.121447e-02
  4.386651e+00    4.534776e-01   4.475067e-02
  4.388861e+00    5.057488e-01   4.884384e-02
  4.391072e+00    5.911037e-01   5.466001e-02
  4.393282e+00    5.531917e-01   5.492704e-02
  4.395492e+00    3.991497e-01   4.859258e-02
  4.397703e+00    1.961592e-01   3.562554e-02
  4.399913e+00    3.089353e-01   4.696340e-02
  4.402124e+00    4.919983e-01   6.262960e-02
  4.404334e+00    4.348515e-01   6.259345e-02
  4.406545e+00    1.186117e-01   3.512771e-02
  4.408755e+00    1.476655e-01   4.249842e-02
  4.410966e+00    1.430281e-01   4.629793e-02
  4.413176e+00    5.108657e-02   3.133037e-02
  4.415387e+00   -7.664348e-01            nan
  4.417597e+00   -2.027282e+00            nan
  4.419807e+00   -3.766224e-01            nan
