# == pyFAI calibration ==
# Distance Sample to Detector: 0.216 m
# PONI: 1.166e-01, 1.308e-01 m
# Rotations: 0.000000 0.000000 0.000000 rad
# 
# == Fit2d calibration ==
# Distance Sample-beamCenter: 216.000 mm
# Center: x=1744.293, y=1555.000 pix
# Tilt: 0.000 deg  TiltPlanRot: 0.000 deg
# 
# Detector Eiger 9M	 PixelSize= 7.500e-05, 7.500e-05 m
#    Detector has a mask: True 
#    Detector has a dark current: False 
#    detector has a flat field: False 
# 
# Wavelength: 9.8e-11 m
# Mask applied: from detector
# Dark current applied: False
# Flat field applied: False
# Polarization factor: None
# Normalization factor: 1.0
# 
# Headers of the input frame:
# {
# "_array_data.header_convention": "SLS_1.0",
# "_array_data.header_contents": "# Detector: Dectris Eiger 9M, S/N E-18-0102\r\n# Pixel_size 75e-6 m x 75e-6 m\r\n# Silicon sensor, thickness 0.000450 m\r\n# Exposure_time 0.024997 s\r\n# Exposure_period 0.025000 s\r\n# Count_cutoff 62318 counts\r\n# Wavelength 0.980106 A\r\n# Detector_distance 0.215992 m\r\n# Beam_xy (1555, 1744) pixels\r\n# Start_angle 0.000000 deg.\r\n# Angle_increment 0.000000 deg.",
# "Content-Type": "application/octet-stream;",
# "conversions": "x-CBF_BYTE_OFFSET",
# "Content-Transfer-Encoding": "BINARY",
# "X-Binary-Size": "10166610",
# "X-Binary-ID": "1",
# "X-Binary-Element-Type": "signed 32-bit integer",
# "X-Binary-Element-Byte-Order": "LITTLE_ENDIAN",
# "Content-MD5": "OjGwpXuu7djDiQcVjYJsxw==",
# "X-Binary-Number-of-Elements": "10166590",
# "X-Binary-Size-Fastest-Dimension": "3110",
# "X-Binary-Size-Second-Dimension": "3269",
# "X-Binary-Size-Padding": "4095"
# }
# --> H:/Proxima2a_2019-04-05/RAW_DATA/C5_gel17_position5/C5_mesh_1_data.cbf/C5_mesh_1_data.cbf000008.dat
#        q_A^-1              I           sigma 
  1.105228e-03    1.133064e+00   5.759890e-01
  3.315685e-03    1.796991e+00   4.409795e-01
  5.526141e-03    1.748116e+00   3.363236e-01
  7.736597e-03    1.503721e+00   2.635141e-01
  9.947054e-03    1.294940e+00   2.155765e-01
  1.215751e-02    1.368565e+00   2.004017e-01
  1.436797e-02    1.374157e+00   1.847115e-01
  1.657842e-02    1.423883e+00   1.750176e-01
  1.878888e-02    1.192008e+00   1.504191e-01
  2.099934e-02    1.365572e+00   1.523208e-01
  2.320979e-02    1.451045e+00   1.493390e-01
  2.542025e-02    1.297774e+00   1.349612e-01
  2.763070e-02    1.428462e+00   1.358078e-01
  2.984116e-02    1.223062e+00   1.209207e-01
  3.205162e-02    1.360255e+00   1.230542e-01
  3.426207e-02    1.552293e+00   1.271340e-01
  3.647253e-02    1.449517e+00   1.190697e-01
  3.868299e-02    1.472610e+00   1.165439e-01
  4.089344e-02    1.411749e+00   1.109838e-01
  4.310390e-02    1.465850e+00   1.101460e-01
  4.531436e-02    1.481732e+00   1.080067e-01
  4.752481e-02    1.433431e+00   1.037307e-01
  4.973527e-02    1.403152e+00   1.003238e-01
  5.194572e-02    1.337463e+00   9.583933e-02
  5.415618e-02    1.362529e+00   9.473526e-02
  5.636664e-02    1.311106e+00   9.109282e-02
  5.857709e-02    1.381578e+00   9.172808e-02
  6.078755e-02    1.464907e+00   9.271763e-02
  6.299801e-02    1.449493e+00   9.059507e-02
  6.520846e-02    1.388522e+00   8.715396e-02
  6.741892e-02    1.468806e+00   8.815196e-02
  6.962938e-02    1.422644e+00   8.537182e-02
  7.183983e-02    1.493566e+00   8.611608e-02
  7.405029e-02    1.400778e+00   8.214214e-02
  7.626074e-02    1.401319e+00   8.095783e-02
  7.847120e-02    1.437238e+00   8.082363e-02
  8.068166e-02    1.447378e+00   7.998880e-02
  8.289211e-02    1.392146e+00   7.739436e-02
  8.510257e-02    1.385640e+00   7.620341e-02
  8.731303e-02    1.439223e+00   7.667058e-02
  8.952348e-02    1.444747e+00   7.586537e-02
  9.173394e-02    1.446914e+00   7.499895e-02
  9.394439e-02    1.382905e+00   7.245119e-02
  9.615485e-02    1.414457e+00   7.242434e-02
  9.836531e-02    1.491412e+00   7.352605e-02
  1.005758e-01    1.504846e+00   7.304081e-02
  1.027862e-01    1.451600e+00   7.095962e-02
  1.049967e-01    1.525276e+00   7.196714e-02
  1.072071e-01    1.479072e+00   7.013348e-02
  1.094176e-01    1.421370e+00   6.805279e-02
  1.116280e-01    1.489753e+00   6.897579e-02
  1.138385e-01    1.538519e+00   6.941044e-02
  1.160490e-01    1.570239e+00   6.945044e-02
  1.182594e-01    1.463356e+00   6.641411e-02
  1.204699e-01    1.453533e+00   6.558026e-02
  1.226803e-01    1.528639e+00   6.664180e-02
  1.248908e-01    1.509893e+00   6.564243e-02
  1.271012e-01    1.517606e+00   6.523382e-02
  1.293117e-01    1.529779e+00   6.493190e-02
  1.315222e-01    1.627788e+00   6.641284e-02
  1.337326e-01    1.569523e+00   6.467099e-02
  1.359431e-01    1.485397e+00   6.295078e-02
  1.381535e-01    1.480818e+00   6.369735e-02
  1.403640e-01    1.506572e+00   6.452628e-02
  1.425744e-01    1.565563e+00   6.588253e-02
  1.447849e-01    1.513144e+00   6.478508e-02
  1.469953e-01    1.481891e+00   6.407241e-02
  1.492058e-01    1.564382e+00   6.575506e-02
  1.514163e-01    1.563422e+00   6.562576e-02
  1.536267e-01    1.612267e+00   6.651289e-02
  1.558372e-01    1.575483e+00   6.560462e-02
  1.580476e-01    1.560660e+00   6.513683e-02
  1.602581e-01    1.618854e+00   6.617161e-02
  1.624685e-01    1.696045e+00   6.754542e-02
  1.646790e-01    1.706160e+00   6.755202e-02
  1.668895e-01    1.732280e+00   6.787056e-02
  1.690999e-01    1.705442e+00   6.714053e-02
  1.713104e-01    1.722987e+00   6.727558e-02
  1.735208e-01    1.768208e+00   6.794076e-02
  1.757313e-01    1.797212e+00   6.828106e-02
  1.779417e-01    1.753892e+00   6.723312e-02
  1.801522e-01    1.849829e+00   6.882753e-02
  1.823626e-01    1.859212e+00   6.877217e-02
  1.845731e-01    1.931937e+00   6.987723e-02
  1.867836e-01    1.897988e+00   6.902679e-02
  1.889940e-01    2.004568e+00   7.070661e-02
  1.912045e-01    1.964062e+00   6.975487e-02
  1.934149e-01    1.975965e+00   6.973174e-02
  1.956254e-01    1.980918e+00   6.958882e-02
  1.978358e-01    1.954258e+00   6.888208e-02
  2.000463e-01    2.028268e+00   6.994173e-02
  2.022568e-01    1.997328e+00   6.917842e-02
  2.044672e-01    1.996420e+00   6.892576e-02
  2.066777e-01    1.962413e+00   6.810939e-02
  2.088881e-01    1.918391e+00   6.712081e-02
  2.110986e-01    1.920814e+00   6.693285e-02
  2.133090e-01    1.862121e+00   6.568808e-02
  2.155195e-01    1.872098e+00   6.564534e-02
  2.177300e-01    1.894313e+00   6.551490e-02
  2.199404e-01    1.883875e+00   6.361262e-02
  2.221509e-01    1.985626e+00   6.423552e-02
  2.243613e-01    2.046152e+00   6.438056e-02
  2.265718e-01    2.041286e+00   6.359520e-02
  2.287822e-01    2.101102e+00   6.388162e-02
  2.309927e-01    2.041816e+00   6.240024e-02
  2.332031e-01    2.196035e+00   6.416001e-02
  2.354136e-01    2.157131e+00   6.307379e-02
  2.376241e-01    2.173790e+00   6.282540e-02
  2.398345e-01    2.140921e+00   6.188720e-02
  2.420450e-01    2.126946e+00   6.124403e-02
  2.442554e-01    2.096925e+00   6.039133e-02
  2.464659e-01    2.170168e+00   6.102451e-02
  2.486763e-01    2.061525e+00   5.908644e-02
  2.508868e-01    2.057050e+00   5.864994e-02
  2.530973e-01    2.042615e+00   5.808144e-02
  2.553077e-01    2.088049e+00   5.836765e-02
  2.575182e-01    2.096158e+00   5.813486e-02
  2.597286e-01    2.143172e+00   5.844150e-02
  2.619391e-01    2.071610e+00   5.712673e-02
  2.641495e-01    2.045038e+00   5.644501e-02
  2.663600e-01    2.113739e+00   5.706972e-02
  2.685704e-01    2.025389e+00   5.556147e-02
  2.707809e-01    1.974252e+00   5.456442e-02
  2.729914e-01    1.946270e+00   5.389400e-02
  2.752018e-01    1.970493e+00   5.394610e-02
  2.774123e-01    1.967827e+00   5.363421e-02
  2.796227e-01    2.020531e+00   5.407888e-02
  2.818332e-01    1.945917e+00   5.280622e-02
  2.840436e-01    1.968630e+00   5.285606e-02
  2.862541e-01    1.914618e+00   5.187534e-02
  2.884646e-01    1.915255e+00   5.163775e-02
  2.906750e-01    1.903557e+00   5.123570e-02
  2.928855e-01    1.920068e+00   5.121902e-02
  2.950959e-01    1.943749e+00   5.129715e-02
  2.973064e-01    1.925961e+00   5.083243e-02
  2.995168e-01    1.842991e+00   4.950024e-02
  3.017273e-01    1.862099e+00   4.953679e-02
  3.039377e-01    1.927266e+00   5.017548e-02
  3.061482e-01    1.871505e+00   4.923042e-02
  3.083587e-01    1.880102e+00   4.912977e-02
  3.105691e-01    1.928201e+00   4.954174e-02
  3.127796e-01    1.894053e+00   4.889467e-02
  3.149900e-01    1.917194e+00   4.898748e-02
  3.172005e-01    1.882734e+00   4.834674e-02
  3.194109e-01    1.806418e+00   4.716125e-02
  3.216214e-01    1.822405e+00   4.717617e-02
  3.238319e-01    1.842357e+00   4.724580e-02
  3.260423e-01    1.845788e+00   4.710141e-02
  3.282528e-01    1.818940e+00   4.657146e-02
  3.304632e-01    1.843886e+00   4.670805e-02
  3.326737e-01    1.864755e+00   4.678838e-02
  3.348841e-01    1.857824e+00   4.652025e-02
  3.370946e-01    1.796509e+00   4.557402e-02
  3.393050e-01    1.792461e+00   4.535020e-02
  3.415155e-01    1.775669e+00   4.496759e-02
  3.437260e-01    1.700262e+00   4.383929e-02
  3.459364e-01    1.766161e+00   4.451551e-02
  3.481469e-01    1.758189e+00   4.425282e-02
  3.503573e-01    1.730736e+00   4.374602e-02
  3.525678e-01    1.762258e+00   4.398528e-02
  3.547782e-01    1.780631e+00   4.405416e-02
  3.569887e-01    1.793516e+00   4.405663e-02
  3.591992e-01    1.818595e+00   4.420660e-02
  3.614096e-01    1.732740e+00   4.300090e-02
  3.636201e-01    1.730489e+00   4.282193e-02
  3.658305e-01    1.793142e+00   4.344154e-02
  3.680410e-01    1.804422e+00   4.342809e-02
  3.702514e-01    1.820473e+00   4.347412e-02
  3.724619e-01    1.790997e+00   4.297389e-02
  3.746724e-01    1.764225e+00   4.250918e-02
  3.768828e-01    1.726952e+00   4.191623e-02
  3.790933e-01    1.716287e+00   4.165041e-02
  3.813037e-01    1.728305e+00   4.165926e-02
  3.835142e-01    1.704496e+00   4.123542e-02
  3.857246e-01    1.734913e+00   4.146707e-02
  3.879351e-01    1.794439e+00   4.203597e-02
  3.901455e-01    1.838076e+00   4.240856e-02
  3.923560e-01    1.795174e+00   4.177754e-02
  3.945665e-01    1.756221e+00   4.119072e-02
  3.967769e-01    1.802859e+00   4.160336e-02
  3.989874e-01    1.746519e+00   4.082032e-02
  4.011978e-01    1.762872e+00   4.088482e-02
  4.034083e-01    1.776068e+00   4.091160e-02
  4.056187e-01    1.781404e+00   4.084677e-02
  4.078292e-01    1.828542e+00   4.125846e-02
  4.100397e-01    1.801472e+00   4.082687e-02
  4.122501e-01    1.817611e+00   4.088665e-02
  4.144606e-01    1.803128e+00   4.060268e-02
  4.166710e-01    1.736825e+00   3.973069e-02
  4.188815e-01    1.742139e+00   3.967387e-02
  4.210919e-01    1.794197e+00   4.014428e-02
  4.233024e-01    1.827923e+00   4.040064e-02
  4.255128e-01    1.828171e+00   4.028661e-02
  4.277233e-01    1.798419e+00   3.984263e-02
  4.299338e-01    1.760342e+00   3.930517e-02
  4.321442e-01    1.767789e+00   3.927550e-02
  4.343547e-01    1.788707e+00   3.939549e-02
  4.365651e-01    1.753442e+00   3.889439e-02
  4.387756e-01    1.706501e+00   3.826281e-02
  4.409860e-01    1.732014e+00   3.844095e-02
  4.431965e-01    1.713230e+00   3.812624e-02
  4.454070e-01    1.701136e+00   3.788572e-02
  4.476174e-01    1.705408e+00   3.782910e-02
  4.498279e-01    1.742356e+00   3.813265e-02
  4.520383e-01    1.738242e+00   3.798312e-02
  4.542488e-01    1.680712e+00   3.724854e-02
  4.564592e-01    1.741317e+00   3.781245e-02
  4.586697e-01    1.716326e+00   3.744049e-02
  4.608801e-01    1.729916e+00   3.748775e-02
  4.630906e-01    1.685445e+00   3.690479e-02
  4.653011e-01    1.704870e+00   3.701923e-02
  4.675115e-01    1.731391e+00   3.720780e-02
  4.697220e-01    1.703943e+00   3.681507e-02
  4.719324e-01    1.719177e+00   3.688362e-02
  4.741429e-01    1.678173e+00   3.634721e-02
  4.763533e-01    1.697474e+00   3.646190e-02
  4.785638e-01    1.685925e+00   3.624381e-02
  4.807743e-01    1.638470e+00   3.563919e-02
  4.829847e-01    1.678838e+00   3.598442e-02
  4.851952e-01    1.707911e+00   3.620281e-02
  4.874056e-01    1.666121e+00   3.566702e-02
  4.896161e-01    1.670870e+00   3.562921e-02
  4.918265e-01    1.737294e+00   3.624029e-02
  4.940370e-01    1.690291e+00   3.565846e-02
  4.962475e-01    1.677642e+00   3.543704e-02
  4.984579e-01    1.659819e+00   3.516143e-02
  5.006684e-01    1.630341e+00   3.476283e-02
  5.028788e-01    1.652313e+00   3.491150e-02
  5.050893e-01    1.632618e+00   3.461840e-02
  5.072997e-01    1.666360e+00   3.488986e-02
  5.095102e-01    1.603403e+00   3.414244e-02
  5.117206e-01    1.638350e+00   3.443044e-02
  5.139311e-01    1.651688e+00   3.448849e-02
  5.161416e-01    1.673102e+00   3.462931e-02
  5.183520e-01    1.669120e+00   3.450591e-02
  5.205625e-01    1.633643e+00   3.405724e-02
  5.227729e-01    1.645774e+00   3.410371e-02
  5.249834e-01    1.687367e+00   3.445182e-02
  5.271938e-01    1.715959e+00   3.466140e-02
  5.294043e-01    1.727014e+00   3.469264e-02
  5.316148e-01    1.731849e+00   3.466160e-02
  5.338252e-01    1.741328e+00   3.467689e-02
  5.360357e-01    1.750932e+00   3.469323e-02
  5.382461e-01    1.724523e+00   3.435278e-02
  5.404566e-01    1.745481e+00   3.448221e-02
  5.426670e-01    1.722681e+00   3.417910e-02
  5.448775e-01    1.705194e+00   3.392921e-02
  5.470879e-01    1.703622e+00   3.383793e-02
  5.492984e-01    1.733340e+00   3.405588e-02
  5.515089e-01    1.771462e+00   3.435200e-02
  5.537193e-01    1.780656e+00   3.436517e-02
  5.559298e-01    1.743343e+00   3.392861e-02
  5.581402e-01    1.766714e+00   3.408064e-02
  5.603507e-01    1.797674e+00   3.430315e-02
  5.625611e-01    1.771792e+00   3.398141e-02
  5.647716e-01    1.739591e+00   3.359810e-02
  5.669821e-01    1.731335e+00   3.344600e-02
  5.691925e-01    1.763260e+00   3.368051e-02
  5.714030e-01    1.738439e+00   3.337132e-02
  5.736134e-01    1.715852e+00   3.308331e-02
  5.758239e-01    1.668764e+00   3.255655e-02
  5.780343e-01    1.670035e+00   3.250005e-02
  5.802448e-01    1.683849e+00   3.256588e-02
  5.824552e-01    1.644910e+00   3.211960e-02
  5.846657e-01    1.582000e+00   3.143375e-02
  5.868762e-01    1.569204e+00   3.124117e-02
  5.890866e-01    1.602989e+00   3.151018e-02
  5.912971e-01    1.628095e+00   3.169024e-02
  5.935075e-01    1.631016e+00   3.165309e-02
  5.957180e-01    1.630598e+00   3.158411e-02
  5.979284e-01    1.591092e+00   3.113545e-02
  6.001389e-01    1.600256e+00   3.116141e-02
  6.023494e-01    1.638440e+00   3.146697e-02
  6.045598e-01    1.644227e+00   3.145831e-02
  6.067703e-01    1.674787e+00   3.168546e-02
  6.089807e-01    1.691100e+00   3.177540e-02
  6.111912e-01    1.661254e+00   3.143086e-02
  6.134016e-01    1.658510e+00   3.134226e-02
  6.156121e-01    1.636240e+00   3.106924e-02
  6.178226e-01    1.653249e+00   3.116847e-02
  6.200330e-01    1.642745e+00   3.100801e-02
  6.222435e-01    1.673127e+00   3.123146e-02
  6.244539e-01    1.649875e+00   3.095295e-02
  6.266644e-01    1.665034e+00   3.103416e-02
  6.288748e-01    1.662852e+00   3.095346e-02
  6.310853e-01    1.719127e+00   3.141176e-02
  6.332957e-01    1.708953e+00   3.125820e-02
  6.355062e-01    1.697864e+00   3.109611e-02
  6.377167e-01    1.688032e+00   3.094643e-02
  6.399271e-01    1.722400e+00   3.120000e-02
  6.421376e-01    1.727920e+00   3.119029e-02
  6.443480e-01    1.668106e+00   3.058742e-02
  6.465585e-01    1.645891e+00   3.032548e-02
  6.487689e-01    1.650430e+00   3.030994e-02
  6.509794e-01    1.586179e+00   2.965807e-02
  6.531899e-01    1.574984e+00   2.949763e-02
  6.554003e-01    1.590035e+00   2.958252e-02
  6.576108e-01    1.592526e+00   2.955055e-02
  6.598212e-01    1.554917e+00   2.914530e-02
  6.620317e-01    1.583424e+00   2.935672e-02
  6.642421e-01    1.583894e+00   2.930676e-02
  6.664526e-01    1.574362e+00   2.916462e-02
  6.686630e-01    1.595435e+00   2.930487e-02
  6.708735e-01    1.613634e+00   2.941747e-02
  6.730840e-01    1.587547e+00   2.912553e-02
  6.752944e-01    1.575680e+00   2.896368e-02
  6.775049e-01    1.609215e+00   2.921714e-02
  6.797153e-01    1.581326e+00   2.891041e-02
  6.819258e-01    1.581651e+00   2.886122e-02
  6.841362e-01    1.583343e+00   2.882474e-02
  6.863467e-01    1.561244e+00   2.857159e-02
  6.885572e-01    1.589352e+00   2.877600e-02
  6.907676e-01    1.541191e+00   2.828588e-02
  6.929781e-01    1.562152e+00   2.842695e-02
  6.951885e-01    1.570218e+00   2.844979e-02
  6.973990e-01    1.589198e+00   2.857058e-02
  6.996094e-01    1.602798e+00   2.864213e-02
  7.018199e-01    1.559200e+00   2.820030e-02
  7.040303e-01    1.544993e+00   2.802222e-02
  7.062408e-01    1.560245e+00   2.811085e-02
  7.084513e-01    1.596654e+00   2.838751e-02
  7.106617e-01    1.551604e+00   2.793552e-02
  7.128722e-01    1.546309e+00   2.783959e-02
  7.150826e-01    1.524041e+00   2.759074e-02
  7.172931e-01    1.552162e+00   2.779614e-02
  7.195035e-01    1.523834e+00   2.749397e-02
  7.217140e-01    1.539816e+00   2.768667e-02
  7.239245e-01    1.509896e+00   2.763839e-02
  7.261349e-01    1.521282e+00   2.784915e-02
  7.283454e-01    1.563488e+00   2.830499e-02
  7.305558e-01    1.546787e+00   2.820691e-02
  7.327663e-01    1.563594e+00   2.840208e-02
  7.349767e-01    1.574195e+00   2.851459e-02
  7.371872e-01    1.560298e+00   2.837730e-02
  7.393976e-01    1.592666e+00   2.865579e-02
  7.416081e-01    1.584863e+00   2.856931e-02
  7.438186e-01    1.521833e+00   2.785354e-02
  7.460290e-01    1.529643e+00   2.763491e-02
  7.482395e-01    1.549906e+00   2.764755e-02
  7.504499e-01    1.517277e+00   2.722120e-02
  7.526604e-01    1.523162e+00   2.715931e-02
  7.548708e-01    1.555993e+00   2.736158e-02
  7.570813e-01    1.541548e+00   2.718382e-02
  7.592918e-01    1.603385e+00   2.768820e-02
  7.615022e-01    1.551612e+00   2.720395e-02
  7.637127e-01    1.567635e+00   2.731135e-02
  7.659231e-01    1.537077e+00   2.701223e-02
  7.681336e-01    1.544483e+00   2.704593e-02
  7.703440e-01    1.559371e+00   2.714491e-02
  7.725545e-01    1.573868e+00   2.723990e-02
  7.747650e-01    1.640641e+00   2.777277e-02
  7.769754e-01    1.599182e+00   2.736652e-02
  7.791859e-01    1.608620e+00   2.739310e-02
  7.813963e-01    1.647027e+00   2.766447e-02
  7.836068e-01    1.649086e+00   2.762870e-02
  7.858172e-01    1.684840e+00   2.787440e-02
  7.880277e-01    1.692372e+00   2.788349e-02
  7.902381e-01    1.674686e+00   2.768703e-02
  7.924486e-01    1.657631e+00   2.749466e-02
  7.946591e-01    1.610931e+00   2.705614e-02
  7.968695e-01    1.611835e+00   2.701530e-02
  7.990800e-01    1.657600e+00   2.734716e-02
  8.012904e-01    1.680734e+00   2.748973e-02
  8.035009e-01    1.625930e+00   2.698972e-02
  8.057113e-01    1.651433e+00   2.715352e-02
  8.079218e-01    1.684591e+00   2.737742e-02
  8.101323e-01    1.696994e+00   2.743140e-02
  8.123427e-01    1.635224e+00   2.688160e-02
  8.145532e-01    1.647422e+00   2.693551e-02
  8.167636e-01    1.618185e+00   2.665055e-02
  8.189741e-01    1.614484e+00   2.657567e-02
  8.211845e-01    1.651300e+00   2.683190e-02
  8.233950e-01    1.642352e+00   2.671563e-02
  8.256054e-01    1.625710e+00   2.653585e-02
  8.278159e-01    1.652308e+00   2.670790e-02
  8.300264e-01    1.664641e+00   2.676395e-02
  8.322368e-01    1.613714e+00   2.630859e-02
  8.344473e-01    1.603674e+00   2.618369e-02
  8.366577e-01    1.627393e+00   2.633419e-02
  8.388682e-01    1.653186e+00   2.649963e-02
  8.410786e-01    1.628314e+00   2.625763e-02
  8.432891e-01    1.642837e+00   2.633255e-02
  8.454996e-01    1.636076e+00   2.623676e-02
  8.477100e-01    1.614182e+00   2.601922e-02
  8.499205e-01    1.616721e+00   2.599881e-02
  8.521309e-01    1.613746e+00   2.593436e-02
  8.543414e-01    1.638691e+00   2.609325e-02
  8.565518e-01    1.645872e+00   2.610968e-02
  8.587623e-01    1.618189e+00   2.584884e-02
  8.609727e-01    1.582156e+00   2.551980e-02
  8.631832e-01    1.563302e+00   2.532816e-02
  8.653937e-01    1.597395e+00   2.556352e-02
  8.676041e-01    1.575770e+00   2.535159e-02
  8.698146e-01    1.565183e+00   2.522766e-02
  8.720250e-01    1.559234e+00   2.514130e-02
  8.742355e-01    1.577039e+00   2.524594e-02
  8.764459e-01    1.555194e+00   2.503225e-02
  8.786564e-01    1.542343e+00   2.489143e-02
  8.808669e-01    1.577469e+00   2.513511e-02
  8.830773e-01    1.613884e+00   2.538530e-02
  8.852878e-01    1.596737e+00   2.521224e-02
  8.874982e-01    1.613126e+00   2.530450e-02
  8.897087e-01    1.599541e+00   2.516009e-02
  8.919191e-01    1.549531e+00   2.472649e-02
  8.941296e-01    1.547640e+00   2.467472e-02
  8.963401e-01    1.574160e+00   2.484909e-02
  8.985505e-01    1.567067e+00   2.475649e-02
  9.007610e-01    1.583689e+00   2.485087e-02
  9.029714e-01    1.571247e+00   2.471756e-02
  9.051819e-01    1.561855e+00   2.460679e-02
  9.073923e-01    1.570015e+00   2.463476e-02
  9.096028e-01    1.594719e+00   2.479295e-02
  9.118132e-01    1.596839e+00   2.477325e-02
  9.140237e-01    1.566660e+00   2.450179e-02
  9.162342e-01    1.585317e+00   2.461284e-02
  9.184446e-01    1.609495e+00   2.476397e-02
  9.206551e-01    1.594263e+00   2.461099e-02
  9.228655e-01    1.560305e+00   2.431266e-02
  9.250760e-01    1.605783e+00   2.462903e-02
  9.272864e-01    1.599026e+00   2.454295e-02
  9.294969e-01    1.603723e+00   2.454315e-02
  9.317074e-01    1.586740e+00   2.437834e-02
  9.339178e-01    1.601843e+00   2.446064e-02
  9.361283e-01    1.605680e+00   2.445381e-02
  9.383387e-01    1.623089e+00   2.455259e-02
  9.405492e-01    1.633233e+00   2.459479e-02
  9.427596e-01    1.685952e+00   2.495260e-02
  9.449701e-01    1.707845e+00   2.507997e-02
  9.471805e-01    1.683431e+00   2.486481e-02
  9.493910e-01    1.660714e+00   2.466257e-02
  9.516015e-01    1.647840e+00   2.453250e-02
  9.538119e-01    1.671798e+00   2.467631e-02
  9.560224e-01    1.723778e+00   2.502175e-02
  9.582328e-01    1.702291e+00   2.483195e-02
  9.604433e-01    1.738885e+00   2.506188e-02
  9.626537e-01    1.759284e+00   2.517458e-02
  9.648642e-01    1.749941e+00   2.507325e-02
  9.670747e-01    1.767103e+00   2.516113e-02
  9.692851e-01    1.790949e+00   2.529670e-02
  9.714956e-01    1.785725e+00   2.522413e-02
  9.737060e-01    1.842705e+00   2.558975e-02
  9.759165e-01    1.813188e+00   2.534818e-02
  9.781269e-01    1.858133e+00   2.562685e-02
  9.803374e-01    1.863590e+00   2.562897e-02
  9.825478e-01    1.788003e+00   2.507074e-02
  9.847583e-01    1.782417e+00   2.499752e-02
  9.869688e-01    1.777176e+00   2.492736e-02
  9.891792e-01    1.752115e+00   2.471805e-02
  9.913897e-01    1.775412e+00   2.484827e-02
  9.936001e-01    1.787907e+00   2.490290e-02
  9.958106e-01    1.834985e+00   2.519434e-02
  9.980210e-01    1.962586e+00   2.602179e-02
  1.000231e+00    1.992150e+00   2.636068e-02
  1.002442e+00    1.905331e+00   2.591689e-02
  1.004652e+00    1.749304e+00   2.490233e-02
  1.006863e+00    1.677453e+00   2.443614e-02
  1.009073e+00    1.610571e+00   2.398069e-02
  1.011284e+00    1.567596e+00   2.369019e-02
  1.013494e+00    1.583570e+00   2.383421e-02
  1.015705e+00    1.543397e+00   2.355220e-02
  1.017915e+00    1.539470e+00   2.353840e-02
  1.020126e+00    1.563297e+00   2.373590e-02
  1.022336e+00    1.534733e+00   2.352965e-02
  1.024547e+00    1.538104e+00   2.356664e-02
  1.026757e+00    1.528401e+00   2.350051e-02
  1.028967e+00    1.515141e+00   2.340596e-02
  1.031178e+00    1.497656e+00   2.327660e-02
  1.033388e+00    1.497614e+00   2.328127e-02
  1.035599e+00    1.522712e+00   2.347894e-02
  1.037809e+00    1.542410e+00   2.363362e-02
  1.040020e+00    1.492216e+00   2.324714e-02
  1.042230e+00    1.474559e+00   2.311111e-02
  1.044441e+00    1.487008e+00   2.320822e-02
  1.046651e+00    1.501930e+00   2.332457e-02
  1.048862e+00    1.466613e+00   2.304792e-02
  1.051072e+00    1.521959e+00   2.347638e-02
  1.053282e+00    1.525802e+00   2.350507e-02
  1.055493e+00    1.465643e+00   2.303278e-02
  1.057703e+00    1.436805e+00   2.280354e-02
  1.059914e+00    1.471024e+00   2.306926e-02
  1.062124e+00    1.489164e+00   2.320702e-02
  1.064335e+00    1.468443e+00   2.304158e-02
  1.066545e+00    1.473116e+00   2.307223e-02
  1.068756e+00    1.445701e+00   2.285286e-02
  1.070966e+00    1.429107e+00   2.271487e-02
  1.073177e+00    1.444856e+00   2.283369e-02
  1.075387e+00    1.432392e+00   2.272984e-02
  1.077597e+00    1.419119e+00   2.261716e-02
  1.079808e+00    1.400075e+00   2.233508e-02
  1.082018e+00    1.390653e+00   2.207546e-02
  1.084229e+00    1.402000e+00   2.205750e-02
  1.086439e+00    1.416019e+00   2.208126e-02
  1.088650e+00    1.408494e+00   2.194806e-02
  1.090860e+00    1.433249e+00   2.207294e-02
  1.093071e+00    1.414478e+00   2.186654e-02
  1.095281e+00    1.415950e+00   2.182125e-02
  1.097492e+00    1.396282e+00   2.161520e-02
  1.099702e+00    1.416111e+00   2.171717e-02
  1.101912e+00    1.398174e+00   2.153107e-02
  1.104123e+00    1.404912e+00   2.153518e-02
  1.106333e+00    1.375584e+00   2.126570e-02
  1.108544e+00    1.366391e+00   2.115125e-02
  1.110754e+00    1.405986e+00   2.141280e-02
  1.112965e+00    1.388210e+00   2.123698e-02
  1.115175e+00    1.397595e+00   2.126778e-02
  1.117386e+00    1.395351e+00   2.121171e-02
  1.119596e+00    1.381135e+00   2.106593e-02
  1.121807e+00    1.379660e+00   2.101627e-02
  1.124017e+00    1.375587e+00   2.094899e-02
  1.126228e+00    1.405498e+00   2.113976e-02
  1.128438e+00    1.397278e+00   2.104115e-02
  1.130648e+00    1.342461e+00   2.059067e-02
  1.132859e+00    1.351901e+00   2.062909e-02
  1.135069e+00    1.370439e+00   2.073565e-02
  1.137280e+00    1.361060e+00   2.063188e-02
  1.139490e+00    1.369925e+00   2.066613e-02
  1.141701e+00    1.360087e+00   2.055896e-02
  1.143911e+00    1.365701e+00   2.056968e-02
  1.146122e+00    1.387985e+00   2.070473e-02
  1.148332e+00    1.363002e+00   2.048587e-02
  1.150543e+00    1.353216e+00   2.038162e-02
  1.152753e+00    1.342367e+00   2.026931e-02
  1.154963e+00    1.343990e+00   2.025083e-02
  1.157174e+00    1.344701e+00   2.022636e-02
  1.159384e+00    1.335908e+00   2.013065e-02
  1.161595e+00    1.339664e+00   2.012943e-02
  1.163805e+00    1.349166e+00   2.017163e-02
  1.166016e+00    1.316942e+00   1.990042e-02
  1.168226e+00    1.352837e+00   2.014097e-02
  1.170437e+00    1.378659e+00   2.030353e-02
  1.172647e+00    1.368938e+00   2.020291e-02
  1.174858e+00    1.346444e+00   2.000831e-02
  1.177068e+00    1.408052e+00   2.043220e-02
  1.179278e+00    1.461306e+00   2.078542e-02
  1.181489e+00    1.431754e+00   2.054646e-02
  1.183699e+00    1.409634e+00   2.035904e-02
  1.185910e+00    1.384893e+00   2.015155e-02
  1.188120e+00    1.388324e+00   2.014947e-02
  1.190331e+00    1.365016e+00   1.995279e-02
  1.192541e+00    1.350238e+00   1.981713e-02
  1.194752e+00    1.356027e+00   1.983250e-02
  1.196962e+00    1.348545e+00   1.975198e-02
  1.199173e+00    1.334289e+00   1.962098e-02
  1.201383e+00    1.329747e+00   1.956058e-02
  1.203593e+00    1.362198e+00   1.977288e-02
  1.205804e+00    1.369337e+00   1.979854e-02
  1.208014e+00    1.341303e+00   1.956808e-02
  1.210225e+00    1.292506e+00   1.918404e-02
  1.212435e+00    1.340015e+00   1.950872e-02
  1.214646e+00    1.342185e+00   1.949849e-02
  1.216856e+00    1.339320e+00   1.945229e-02
  1.219067e+00    1.340752e+00   1.943831e-02
  1.221277e+00    1.343508e+00   1.943330e-02
  1.223488e+00    1.308628e+00   1.915405e-02
  1.225698e+00    1.303364e+00   1.908905e-02
  1.227909e+00    1.306124e+00   1.907956e-02
  1.230119e+00    1.326556e+00   1.919665e-02
  1.232329e+00    1.326787e+00   1.916787e-02
  1.234540e+00    1.361467e+00   1.938632e-02
  1.236750e+00    1.380068e+00   1.948773e-02
  1.238961e+00    1.356606e+00   1.929434e-02
  1.241171e+00    1.350828e+00   1.922901e-02
  1.243382e+00    1.350075e+00   1.920012e-02
  1.245592e+00    1.350621e+00   1.917991e-02
  1.247803e+00    1.344912e+00   1.911573e-02
  1.250013e+00    1.349347e+00   1.912366e-02
  1.252224e+00    1.377732e+00   1.930028e-02
  1.254434e+00    1.375084e+00   1.925777e-02
  1.256644e+00    1.379715e+00   1.926669e-02
  1.258855e+00    1.432497e+00   1.960781e-02
  1.261065e+00    1.408975e+00   1.942228e-02
  1.263276e+00    1.405307e+00   1.937359e-02
  1.265486e+00    1.362640e+00   1.905423e-02
  1.267697e+00    1.355576e+00   1.898170e-02
  1.269907e+00    1.363945e+00   1.901739e-02
  1.272118e+00    1.382799e+00   1.912554e-02
  1.274328e+00    1.383772e+00   1.910924e-02
  1.276539e+00    1.395380e+00   1.916608e-02
  1.278749e+00    1.358036e+00   1.888551e-02
  1.280959e+00    1.363418e+00   1.890025e-02
  1.283170e+00    1.370603e+00   1.892738e-02
  1.285380e+00    1.388124e+00   1.902522e-02
  1.287591e+00    1.386467e+00   1.899152e-02
  1.289801e+00    1.366356e+00   1.883194e-02
  1.292012e+00    1.368873e+00   1.883204e-02
  1.294222e+00    1.366491e+00   1.879934e-02
  1.296433e+00    1.360645e+00   1.874340e-02
  1.298643e+00    1.362464e+00   1.873940e-02
  1.300854e+00    1.345144e+00   1.860351e-02
  1.303064e+00    1.365783e+00   1.872634e-02
  1.305274e+00    1.368402e+00   1.872272e-02
  1.307485e+00    1.397262e+00   1.889717e-02
  1.309695e+00    1.411470e+00   1.897030e-02
  1.311906e+00    1.403122e+00   1.889198e-02
  1.314116e+00    1.380538e+00   1.871832e-02
  1.316327e+00    1.363911e+00   1.858343e-02
  1.318537e+00    1.400422e+00   1.880823e-02
  1.320748e+00    1.416152e+00   1.889148e-02
  1.322958e+00    1.431126e+00   1.896999e-02
  1.325169e+00    1.401124e+00   1.874869e-02
  1.327379e+00    1.361654e+00   1.846080e-02
  1.329589e+00    1.394132e+00   1.865826e-02
  1.331800e+00    1.381005e+00   1.854929e-02
  1.334010e+00    1.374199e+00   1.848267e-02
  1.336221e+00    1.411280e+00   1.870813e-02
  1.338431e+00    1.402362e+00   1.862769e-02
  1.340642e+00    1.396176e+00   1.865179e-02
  1.342852e+00    1.400490e+00   1.878313e-02
  1.345063e+00    1.387599e+00   1.874666e-02
  1.347273e+00    1.369410e+00   1.865886e-02
  1.349484e+00    1.414525e+00   1.899207e-02
  1.351694e+00    1.390361e+00   1.885220e-02
  1.353905e+00    1.382840e+00   1.881936e-02
  1.356115e+00    1.352343e+00   1.862574e-02
  1.358325e+00    1.348139e+00   1.861006e-02
  1.360536e+00    1.461425e+00   1.938824e-02
  1.362746e+00    1.646829e+00   2.059197e-02
  1.364957e+00    1.564382e+00   2.007825e-02
  1.367167e+00    1.434165e+00   1.923179e-02
  1.369378e+00    1.378397e+00   1.886026e-02
  1.371588e+00    1.328999e+00   1.852432e-02
  1.373799e+00    1.340922e+00   1.861089e-02
  1.376009e+00    1.337442e+00   1.859012e-02
  1.378220e+00    1.326371e+00   1.851554e-02
  1.380430e+00    1.343003e+00   1.863398e-02
  1.382640e+00    1.346474e+00   1.865895e-02
  1.384851e+00    1.336922e+00   1.859356e-02
  1.387061e+00    1.313632e+00   1.843116e-02
  1.389272e+00    1.292192e+00   1.828037e-02
  1.391482e+00    1.276183e+00   1.816608e-02
  1.393693e+00    1.280853e+00   1.819842e-02
  1.395903e+00    1.271022e+00   1.812696e-02
  1.398114e+00    1.283324e+00   1.821310e-02
  1.400324e+00    1.264412e+00   1.807629e-02
  1.402535e+00    1.272247e+00   1.812989e-02
  1.404745e+00    1.297734e+00   1.830819e-02
  1.406955e+00    1.323465e+00   1.848607e-02
  1.409166e+00    1.315994e+00   1.843045e-02
  1.411376e+00    1.327892e+00   1.851041e-02
  1.413587e+00    1.284776e+00   1.820356e-02
  1.415797e+00    1.287564e+00   1.821976e-02
  1.418008e+00    1.272794e+00   1.807303e-02
  1.420218e+00    1.253283e+00   1.778523e-02
  1.422429e+00    1.291459e+00   1.796802e-02
  1.424639e+00    1.275986e+00   1.779526e-02
  1.426850e+00    1.266460e+00   1.767407e-02
  1.429060e+00    1.244279e+00   1.747012e-02
  1.431270e+00    1.271259e+00   1.761415e-02
  1.433481e+00    1.268440e+00   1.755372e-02
  1.435691e+00    1.265430e+00   1.749450e-02
  1.437902e+00    1.267381e+00   1.747157e-02
  1.440112e+00    1.256193e+00   1.735912e-02
  1.442323e+00    1.250366e+00   1.728602e-02
  1.444533e+00    1.282354e+00   1.747303e-02
  1.446744e+00    1.280920e+00   1.743199e-02
  1.448954e+00    1.269997e+00   1.732734e-02
  1.451165e+00    1.234382e+00   1.705331e-02
  1.453375e+00    1.247688e+00   1.711715e-02
  1.455586e+00    1.264360e+00   1.720306e-02
  1.457796e+00    1.247372e+00   1.705981e-02
  1.460006e+00    1.263997e+00   1.714596e-02
  1.462217e+00    1.254658e+00   1.705642e-02
  1.464427e+00    1.249828e+00   1.699816e-02
  1.466638e+00    1.249534e+00   1.697104e-02
  1.468848e+00    1.224909e+00   1.677807e-02
  1.471059e+00    1.252634e+00   1.694198e-02
  1.473269e+00    1.248068e+00   1.688688e-02
  1.475480e+00    1.236711e+00   1.678644e-02
  1.477690e+00    1.250661e+00   1.685715e-02
  1.479901e+00    1.262276e+00   1.691147e-02
  1.482111e+00    1.253644e+00   1.683036e-02
  1.484321e+00    1.253518e+00   1.680651e-02
  1.486532e+00    1.240951e+00   1.669995e-02
  1.488742e+00    1.232446e+00   1.662027e-02
  1.490953e+00    1.249131e+00   1.670991e-02
  1.493163e+00    1.267256e+00   1.680841e-02
  1.495374e+00    1.259516e+00   1.673554e-02
  1.497584e+00    1.250424e+00   1.665348e-02
  1.499795e+00    1.226513e+00   1.647212e-02
  1.502005e+00    1.254556e+00   1.663772e-02
  1.504216e+00    1.247822e+00   1.657206e-02
  1.506426e+00    1.255764e+00   1.660393e-02
  1.508636e+00    1.261519e+00   1.662145e-02
  1.510847e+00    1.246783e+00   1.650236e-02
  1.513057e+00    1.233647e+00   1.639033e-02
  1.515268e+00    1.245766e+00   1.644500e-02
  1.517478e+00    1.225839e+00   1.628811e-02
  1.519689e+00    1.229425e+00   1.628716e-02
  1.521899e+00    1.244455e+00   1.636342e-02
  1.524110e+00    1.241155e+00   1.632146e-02
  1.526320e+00    1.260834e+00   1.643070e-02
  1.528531e+00    1.245152e+00   1.630848e-02
  1.530741e+00    1.255818e+00   1.635899e-02
  1.532951e+00    1.254082e+00   1.632805e-02
  1.535162e+00    1.270299e+00   1.652061e-02
  1.537372e+00    1.254394e+00   1.648390e-02
  1.539583e+00    1.248149e+00   1.647705e-02
  1.541793e+00    1.255145e+00   1.653013e-02
  1.544004e+00    1.266968e+00   1.660806e-02
  1.546214e+00    1.242665e+00   1.644651e-02
  1.548425e+00    1.218915e+00   1.628883e-02
  1.550635e+00    1.207406e+00   1.622129e-02
  1.552846e+00    1.209323e+00   1.624367e-02
  1.555056e+00    1.204352e+00   1.616945e-02
  1.557266e+00    1.210812e+00   1.610382e-02
  1.559477e+00    1.220966e+00   1.611262e-02
  1.561687e+00    1.262930e+00   1.635629e-02
  1.563898e+00    1.254245e+00   1.628272e-02
  1.566108e+00    1.270712e+00   1.637315e-02
  1.568319e+00    1.237394e+00   1.614151e-02
  1.570529e+00    1.238820e+00   1.612570e-02
  1.572740e+00    1.263536e+00   1.625795e-02
  1.574950e+00    1.259183e+00   1.620347e-02
  1.577161e+00    1.236155e+00   1.602923e-02
  1.579371e+00    1.230607e+00   1.596968e-02
  1.581582e+00    1.228943e+00   1.593924e-02
  1.583792e+00    1.231372e+00   1.593705e-02
  1.586002e+00    1.201232e+00   1.572350e-02
  1.588213e+00    1.231373e+00   1.590236e-02
  1.590423e+00    1.208003e+00   1.573098e-02
  1.592634e+00    1.226057e+00   1.582661e-02
  1.594844e+00    1.225373e+00   1.580097e-02
  1.597055e+00    1.224961e+00   1.577795e-02
  1.599265e+00    1.281331e+00   1.611583e-02
  1.601476e+00    1.295788e+00   1.618578e-02
  1.603686e+00    1.265157e+00   1.597336e-02
  1.605897e+00    1.239047e+00   1.578752e-02
  1.608107e+00    1.220356e+00   1.564855e-02
  1.610317e+00    1.242769e+00   1.577225e-02
  1.612528e+00    1.244415e+00   1.576345e-02
  1.614738e+00    1.218192e+00   1.557762e-02
  1.616949e+00    1.246924e+00   1.574112e-02
  1.619159e+00    1.247631e+00   1.572668e-02
  1.621370e+00    1.268075e+00   1.583617e-02
  1.623580e+00    1.289012e+00   1.594747e-02
  1.625791e+00    1.319736e+00   1.611734e-02
  1.628001e+00    1.329383e+00   1.615694e-02
  1.630212e+00    1.333715e+00   1.616448e-02
  1.632422e+00    1.270498e+00   1.575824e-02
  1.634632e+00    1.208457e+00   1.535116e-02
  1.636843e+00    1.194798e+00   1.524647e-02
  1.639053e+00    1.206038e+00   1.530050e-02
  1.641264e+00    1.207093e+00   1.528982e-02
  1.643474e+00    1.217166e+00   1.533568e-02
  1.645685e+00    1.169832e+00   1.501782e-02
  1.647895e+00    1.154301e+00   1.490118e-02
  1.650106e+00    1.146344e+00   1.483277e-02
  1.652316e+00    1.143109e+00   1.479538e-02
  1.654527e+00    1.122841e+00   1.464711e-02
  1.656737e+00    1.121789e+00   1.462378e-02
  1.658947e+00    1.108220e+00   1.451897e-02
  1.661158e+00    1.114367e+00   1.454298e-02
  1.663368e+00    1.107573e+00   1.448269e-02
  1.665579e+00    1.093671e+00   1.437554e-02
  1.667789e+00    1.107908e+00   1.445263e-02
  1.670000e+00    1.091612e+00   1.433061e-02
  1.672210e+00    1.081561e+00   1.424880e-02
  1.674421e+00    1.071715e+00   1.416870e-02
  1.676631e+00    1.055333e+00   1.404445e-02
  1.678842e+00    1.085975e+00   1.423121e-02
  1.681052e+00    1.072344e+00   1.412639e-02
  1.683263e+00    1.043378e+00   1.391947e-02
  1.685473e+00    1.076690e+00   1.412484e-02
  1.687683e+00    1.069161e+00   1.406005e-02
  1.689894e+00    1.045681e+00   1.388930e-02
  1.692104e+00    1.038592e+00   1.382747e-02
  1.694315e+00    1.051245e+00   1.389709e-02
  1.696525e+00    1.072566e+00   1.402213e-02
  1.698736e+00    1.076258e+00   1.403135e-02
  1.700946e+00    1.066492e+00   1.395237e-02
  1.703157e+00    1.049930e+00   1.382902e-02
  1.705367e+00    1.024738e+00   1.364780e-02
  1.707578e+00    1.029551e+00   1.366538e-02
  1.709788e+00    1.037714e+00   1.370537e-02
  1.711998e+00    1.041929e+00   1.371819e-02
  1.714209e+00    1.006719e+00   1.347020e-02
  1.716419e+00    9.959639e-01   1.338404e-02
  1.718630e+00    1.006434e+00   1.344010e-02
  1.720840e+00    1.027845e+00   1.356814e-02
  1.723051e+00    1.015690e+00   1.347387e-02
  1.725261e+00    1.000622e+00   1.335905e-02
  1.727472e+00    9.804598e-01   1.320985e-02
  1.729682e+00    9.682415e-01   1.311413e-02
  1.731893e+00    9.832845e-01   1.320189e-02
  1.734103e+00    9.876735e-01   1.321771e-02
  1.736313e+00    9.638103e-01   1.304332e-02
  1.738524e+00    9.634672e-01   1.302744e-02
  1.740734e+00    9.678769e-01   1.304374e-02
  1.742945e+00    9.566774e-01   1.295487e-02
  1.745155e+00    9.363222e-01   1.280326e-02
  1.747366e+00    9.553719e-01   1.291923e-02
  1.749576e+00    9.762691e-01   1.304618e-02
  1.751787e+00    9.861961e-01   1.309898e-02
  1.753997e+00    9.766062e-01   1.302177e-02
  1.756208e+00    9.790419e-01   1.302477e-02
  1.758418e+00    9.521073e-01   1.283139e-02
  1.760628e+00    9.672998e-01   1.292001e-02
  1.762839e+00    9.570141e-01   1.283798e-02
  1.765049e+00    9.724869e-01   1.292813e-02
  1.767260e+00    9.808657e-01   1.297078e-02
  1.769470e+00    9.403939e-01   1.268749e-02
  1.771681e+00    9.220904e-01   1.255047e-02
  1.773891e+00    9.094633e-01   1.245147e-02
  1.776102e+00    9.202734e-01   1.251256e-02
  1.778312e+00    9.188548e-01   1.249035e-02
  1.780523e+00    9.077480e-01   1.240215e-02
  1.782733e+00    9.018552e-01   1.234938e-02
  1.784944e+00    9.077030e-01   1.237666e-02
  1.787154e+00    9.125684e-01   1.239739e-02
  1.789364e+00    9.127659e-01   1.238638e-02
  1.791575e+00    9.032462e-01   1.230924e-02
  1.793785e+00    8.919109e-01   1.221956e-02
  1.795996e+00    9.014115e-01   1.227209e-02
  1.798206e+00    8.888681e-01   1.217409e-02
  1.800417e+00    9.073346e-01   1.228726e-02
  1.802627e+00    9.448560e-01   1.252663e-02
  1.804838e+00    9.937367e-01   1.283391e-02
  1.807048e+00    9.900062e-01   1.279645e-02
  1.809259e+00    9.246334e-01   1.235300e-02
  1.811469e+00    9.003555e-01   1.217481e-02
  1.813679e+00    8.909891e-01   1.209642e-02
  1.815890e+00    9.060149e-01   1.218319e-02
  1.818100e+00    8.960736e-01   1.210106e-02
  1.820311e+00    9.042786e-01   1.214147e-02
  1.822521e+00    9.340923e-01   1.232478e-02
  1.824732e+00    9.304962e-01   1.228592e-02
  1.826942e+00    8.999159e-01   1.206992e-02
  1.829153e+00    8.912246e-01   1.199975e-02
  1.831363e+00    9.102821e-01   1.211515e-02
  1.833574e+00    9.256417e-01   1.220498e-02
  1.835784e+00    8.976664e-01   1.200759e-02
  1.837994e+00    8.873499e-01   1.192662e-02
  1.840205e+00    8.802235e-01   1.186740e-02
  1.842415e+00    8.598359e-01   1.171750e-02
  1.844626e+00    8.613040e-01   1.171598e-02
  1.846836e+00    8.791678e-01   1.182536e-02
  1.849047e+00    8.679730e-01   1.173822e-02
  1.851257e+00    8.733569e-01   1.176493e-02
  1.853468e+00    8.734990e-01   1.175704e-02
  1.855678e+00    8.613877e-01   1.166636e-02
  1.857889e+00    8.925558e-01   1.186685e-02
  1.860099e+00    9.295444e-01   1.210129e-02
  1.862309e+00    8.917615e-01   1.184413e-02
  1.864520e+00    8.734841e-01   1.171344e-02
  1.866730e+00    8.724641e-01   1.169711e-02
  1.868941e+00    8.877283e-01   1.178784e-02
  1.871151e+00    8.774115e-01   1.170758e-02
  1.873362e+00    8.727588e-01   1.166501e-02
  1.875572e+00    8.549992e-01   1.153473e-02
  1.877783e+00    8.448483e-01   1.145465e-02
  1.879993e+00    8.467988e-01   1.145671e-02
  1.882204e+00    8.501371e-01   1.146833e-02
  1.884414e+00    8.575146e-01   1.150683e-02
  1.886624e+00    8.355064e-01   1.134720e-02
  1.888835e+00    8.309849e-01   1.130555e-02
  1.891045e+00    8.157318e-01   1.119057e-02
  1.893256e+00    8.090683e-01   1.113388e-02
  1.895466e+00    8.232500e-01   1.121996e-02
  1.897677e+00    8.222344e-01   1.120220e-02
  1.899887e+00    8.199618e-01   1.117583e-02
  1.902098e+00    8.141773e-01   1.112560e-02
  1.904308e+00    8.333627e-01   1.124532e-02
  1.906519e+00    8.288258e-01   1.120386e-02
  1.908729e+00    8.293127e-01   1.119651e-02
  1.910940e+00    8.354435e-01   1.122666e-02
  1.913150e+00    8.295768e-01   1.117655e-02
  1.915360e+00    8.476396e-01   1.128681e-02
  1.917571e+00    8.286396e-01   1.114869e-02
  1.919781e+00    8.236088e-01   1.110409e-02
  1.921992e+00    8.229648e-01   1.108912e-02
  1.924202e+00    8.168140e-01   1.103683e-02
  1.926413e+00    8.154138e-01   1.101708e-02
  1.928623e+00    8.135865e-01   1.099419e-02
  1.930834e+00    8.075258e-01   1.094276e-02
  1.933044e+00    8.115409e-01   1.095928e-02
  1.935255e+00    8.092374e-01   1.093337e-02
  1.937465e+00    8.208284e-01   1.100092e-02
  1.939675e+00    8.245660e-01   1.101498e-02
  1.941886e+00    8.023747e-01   1.085548e-02
  1.944096e+00    7.971632e-01   1.081003e-02
  1.946307e+00    7.949083e-01   1.078443e-02
  1.948517e+00    7.978151e-01   1.079370e-02
  1.950728e+00    7.986399e-01   1.078903e-02
  1.952938e+00    7.964346e-01   1.076405e-02
  1.955149e+00    7.757140e-01   1.061300e-02
  1.957359e+00    7.792086e-01   1.062694e-02
  1.959570e+00    7.741612e-01   1.058174e-02
  1.961780e+00    7.781906e-01   1.059942e-02
  1.963990e+00    7.884062e-01   1.065867e-02
  1.966201e+00    7.901973e-01   1.066070e-02
  1.968411e+00    7.968962e-01   1.069562e-02
  1.970622e+00    7.898477e-01   1.063808e-02
  1.972832e+00    7.968086e-01   1.067484e-02
  1.975043e+00    7.969016e-01   1.066535e-02
  1.977253e+00    7.732763e-01   1.049620e-02
  1.979464e+00    7.814312e-01   1.054136e-02
  1.981674e+00    7.766650e-01   1.049896e-02
  1.983885e+00    7.770773e-01   1.049175e-02
  1.986095e+00    7.783767e-01   1.049082e-02
  1.988305e+00    7.840034e-01   1.051876e-02
  1.990516e+00    7.821541e-01   1.049639e-02
  1.992726e+00    7.715384e-01   1.041531e-02
  1.994937e+00    7.751761e-01   1.042969e-02
  1.997147e+00    7.937494e-01   1.054407e-02
  1.999358e+00    7.836045e-01   1.046656e-02
  2.001568e+00    7.975039e-01   1.054800e-02
  2.003779e+00    7.797882e-01   1.041822e-02
  2.005989e+00    7.636532e-01   1.029791e-02
  2.008200e+00    7.777086e-01   1.038065e-02
  2.010410e+00    7.887178e-01   1.044200e-02
  2.012621e+00    7.670205e-01   1.028567e-02
  2.014831e+00    7.656160e-01   1.026478e-02
  2.017041e+00    7.589321e-01   1.020956e-02
  2.019252e+00    7.688884e-01   1.026631e-02
  2.021462e+00    7.569029e-01   1.017653e-02
  2.023673e+00    7.738779e-01   1.028057e-02
  2.025883e+00    7.680188e-01   1.023203e-02
  2.028094e+00    7.546664e-01   1.013311e-02
  2.030304e+00    7.512161e-01   1.010043e-02
  2.032515e+00    7.534242e-01   1.010603e-02
  2.034725e+00    7.323570e-01   9.954440e-03
  2.036936e+00    7.559509e-01   1.010420e-02
  2.039146e+00    7.623272e-01   1.013712e-02
  2.041356e+00    7.551743e-01   1.007983e-02
  2.043567e+00    7.495436e-01   1.003289e-02
  2.045777e+00    7.441520e-01   9.987588e-03
  2.047988e+00    7.475417e-01   1.000096e-02
  2.050198e+00    7.565506e-01   1.005261e-02
  2.052409e+00    7.472304e-01   9.982873e-03
  2.054619e+00    7.405571e-01   9.930867e-03
  2.056830e+00    7.438502e-01   9.945782e-03
  2.059040e+00    7.271693e-01   9.826251e-03
  2.061251e+00    7.354709e-01   9.874983e-03
  2.063461e+00    7.325249e-01   9.847697e-03
  2.065671e+00    7.304384e-01   9.825032e-03
  2.067882e+00    7.359684e-01   9.853234e-03
  2.070092e+00    7.287262e-01   9.795564e-03
  2.072303e+00    7.297453e-01   9.793358e-03
  2.074513e+00    7.215850e-01   9.729291e-03
  2.076724e+00    7.291836e-01   9.771003e-03
  2.078934e+00    7.391778e-01   9.828769e-03
  2.081145e+00    7.107822e-01   9.629255e-03
  2.083355e+00    7.335035e-01   9.772813e-03
  2.085566e+00    7.243492e-01   9.702845e-03
  2.087776e+00    7.247869e-01   9.696357e-03
  2.089986e+00    7.177225e-01   9.640332e-03
  2.092197e+00    7.259529e-01   9.686543e-03
  2.094407e+00    7.473873e-01   9.819230e-03
  2.096618e+00    7.429627e-01   9.781163e-03
  2.098828e+00    7.310539e-01   9.693188e-03
  2.101039e+00    7.214737e-01   9.620545e-03
  2.103249e+00    7.205918e-01   9.606050e-03
  2.105460e+00    7.091927e-01   9.520897e-03
  2.107670e+00    7.096013e-01   9.514998e-03
  2.109881e+00    7.238873e-01   9.601172e-03
  2.112091e+00    7.195864e-01   9.563658e-03
  2.114301e+00    7.059326e-01   9.463829e-03
  2.116512e+00    7.216173e-01   9.559577e-03
  2.118722e+00    7.202919e-01   9.542013e-03
  2.120933e+00    6.952601e-01   9.366028e-03
  2.123143e+00    7.107530e-01   9.460934e-03
  2.125354e+00    7.124410e-01   9.463680e-03
  2.127564e+00    7.025002e-01   9.388776e-03
  2.129775e+00    6.918232e-01   9.308581e-03
  2.131985e+00    7.050989e-01   9.388445e-03
  2.134196e+00    7.204715e-01   9.481614e-03
  2.136406e+00    7.177229e-01   9.454756e-03
  2.138617e+00    6.943746e-01   9.291329e-03
  2.140827e+00    6.958528e-01   9.317120e-03
  2.143037e+00    6.873088e-01   9.304577e-03
  2.145248e+00    6.997426e-01   9.410274e-03
  2.147458e+00    6.864581e-01   9.335455e-03
  2.149669e+00    6.992643e-01   9.433955e-03
  2.151879e+00    6.972033e-01   9.429240e-03
  2.154090e+00    7.024984e-01   9.472285e-03
  2.156300e+00    7.022098e-01   9.476963e-03
  2.158511e+00    6.985146e-01   9.457299e-03
  2.160721e+00    6.890380e-01   9.397708e-03
  2.162932e+00    6.969197e-01   9.455035e-03
  2.165142e+00    6.944296e-01   9.441149e-03
  2.167352e+00    6.959718e-01   9.454541e-03
  2.169563e+00    6.976816e-01   9.468103e-03
  2.171773e+00    6.868967e-01   9.397076e-03
  2.173984e+00    7.140735e-01   9.582575e-03
  2.176194e+00    6.965896e-01   9.465790e-03
  2.178405e+00    6.779413e-01   9.338887e-03
  2.180615e+00    6.732999e-01   9.307532e-03
  2.182826e+00    6.812529e-01   9.363028e-03
  2.185036e+00    6.792950e-01   9.349596e-03
  2.187247e+00    6.958656e-01   9.462913e-03
  2.189457e+00    6.827549e-01   9.372921e-03
  2.191667e+00    6.955366e-01   9.460084e-03
  2.193878e+00    6.966390e-01   9.467009e-03
  2.196088e+00    6.868042e-01   9.399258e-03
  2.198299e+00    6.937404e-01   9.445502e-03
  2.200509e+00    6.955456e-01   9.456720e-03
  2.202720e+00    7.034705e-01   9.509273e-03
  2.204930e+00    6.959454e-01   9.457014e-03
  2.207141e+00    7.026588e-01   9.501403e-03
  2.209351e+00    6.842994e-01   9.374556e-03
  2.211562e+00    6.726868e-01   9.293062e-03
  2.213772e+00    6.736583e-01   9.244411e-03
  2.215982e+00    6.797574e-01   9.241823e-03
  2.218193e+00    6.841828e-01   9.242061e-03
  2.220403e+00    6.785233e-01   9.179083e-03
  2.222614e+00    6.703187e-01   9.102540e-03
  2.224824e+00    6.757459e-01   9.119874e-03
  2.227035e+00    6.921888e-01   9.212487e-03
  2.229245e+00    6.826627e-01   9.131781e-03
  2.231456e+00    6.766729e-01   9.075931e-03
  2.233666e+00    6.820936e-01   9.097012e-03
  2.235877e+00    6.689429e-01   8.994623e-03
  2.238087e+00    6.668618e-01   8.967194e-03
  2.240298e+00    6.560335e-01   8.880444e-03
  2.242508e+00    6.621130e-01   8.906456e-03
  2.244718e+00    6.545070e-01   8.839496e-03
  2.246929e+00    6.606088e-01   8.866277e-03
  2.249139e+00    6.592811e-01   8.845060e-03
  2.251350e+00    6.514823e-01   8.781021e-03
  2.253560e+00    6.541284e-01   8.787368e-03
  2.255771e+00    6.626236e-01   8.832860e-03
  2.257981e+00    6.664488e-01   8.847144e-03
  2.260192e+00    6.604145e-01   8.795923e-03
  2.262402e+00    6.608624e-01   8.788074e-03
  2.264613e+00    6.673348e-01   8.820132e-03
  2.266823e+00    6.619054e-01   8.773813e-03
  2.269033e+00    6.585112e-01   8.740913e-03
  2.271244e+00    6.805533e-01   8.875469e-03
  2.273454e+00    7.326384e-01   9.198030e-03
  2.275665e+00    7.425398e-01   9.249115e-03
  2.277875e+00    7.203174e-01   9.099292e-03
  2.280086e+00    6.984019e-01   8.949477e-03
  2.282296e+00    6.641428e-01   8.717769e-03
  2.284507e+00    6.690618e-01   8.739777e-03
  2.286717e+00    6.503155e-01   8.607060e-03
  2.288928e+00    6.629314e-01   8.680221e-03
  2.291138e+00    6.564526e-01   8.628298e-03
  2.293348e+00    6.428648e-01   8.529080e-03
  2.295559e+00    6.414448e-01   8.510441e-03
  2.297769e+00    6.358873e-01   8.464389e-03
  2.299980e+00    6.311634e-01   8.423698e-03
  2.302190e+00    6.343524e-01   8.435971e-03
  2.304401e+00    6.433581e-01   8.486369e-03
  2.306611e+00    6.603289e-01   8.588314e-03
  2.308822e+00    6.595632e-01   8.574910e-03
  2.311032e+00    6.485795e-01   8.496768e-03
  2.313243e+00    6.442353e-01   8.462018e-03
  2.315453e+00    6.368734e-01   8.406031e-03
  2.317663e+00    6.387106e-01   8.409066e-03
  2.319874e+00    6.351693e-01   8.377091e-03
  2.322084e+00    6.390289e-01   8.393565e-03
  2.324295e+00    6.483505e-01   8.446337e-03
  2.326505e+00    6.349120e-01   8.349343e-03
  2.328716e+00    6.548076e-01   8.470531e-03
  2.330926e+00    6.440722e-01   8.392026e-03
  2.333137e+00    6.268672e-01   8.270883e-03
  2.335347e+00    6.254905e-01   8.253052e-03
  2.337558e+00    6.293079e-01   8.270014e-03
  2.339768e+00    6.341792e-01   8.293438e-03
  2.341979e+00    6.469517e-01   8.368128e-03
  2.344189e+00    6.316195e-01   8.260004e-03
  2.346399e+00    6.330343e-01   8.260791e-03
  2.348610e+00    6.245660e-01   8.196956e-03
  2.350820e+00    6.399514e-01   8.289094e-03
  2.353031e+00    6.159355e-01   8.123912e-03
  2.355241e+00    6.209642e-01   8.149025e-03
  2.357452e+00    6.300281e-01   8.199875e-03
  2.359662e+00    6.405008e-01   8.259462e-03
  2.361873e+00    6.384211e-01   8.237774e-03
  2.364083e+00    6.327468e-01   8.193066e-03
  2.366294e+00    6.184380e-01   8.091860e-03
  2.368504e+00    6.184114e-01   8.083644e-03
  2.370714e+00    6.242051e-01   8.113380e-03
  2.372925e+00    6.064239e-01   7.989075e-03
  2.375135e+00    6.068614e-01   7.983982e-03
  2.377346e+00    6.150222e-01   8.029615e-03
  2.379556e+00    6.086366e-01   7.980022e-03
  2.381767e+00    5.958005e-01   7.887704e-03
  2.383977e+00    6.165867e-01   8.016206e-03
  2.386188e+00    6.336123e-01   8.118145e-03
  2.388398e+00    6.124284e-01   7.973345e-03
  2.390609e+00    6.218737e-01   8.026857e-03
  2.392819e+00    6.076872e-01   7.927052e-03
  2.395029e+00    6.121322e-01   7.948347e-03
  2.397240e+00    6.110407e-01   7.933396e-03
  2.399450e+00    6.141843e-01   7.945995e-03
  2.401661e+00    5.907454e-01   7.785334e-03
  2.403871e+00    5.950471e-01   7.805989e-03
  2.406082e+00    5.903237e-01   7.767610e-03
  2.408292e+00    5.914243e-01   7.767190e-03
  2.410503e+00    6.041563e-01   7.842865e-03
  2.412713e+00    6.001467e-01   7.809081e-03
  2.414924e+00    5.780690e-01   7.656756e-03
  2.417134e+00    5.836195e-01   7.685943e-03
  2.419344e+00    5.828915e-01   7.673862e-03
  2.421555e+00    5.874082e-01   7.696113e-03
  2.423765e+00    6.033492e-01   7.792412e-03
  2.425976e+00    6.057082e-01   7.799800e-03
  2.428186e+00    6.003134e-01   7.757764e-03
  2.430397e+00    5.968989e-01   7.728180e-03
  2.432607e+00    6.048058e-01   7.771870e-03
  2.434818e+00    5.825064e-01   7.619815e-03
  2.437028e+00    5.700437e-01   7.530816e-03
  2.439239e+00    5.876541e-01   7.638652e-03
  2.441449e+00    5.782672e-01   7.570303e-03
  2.443659e+00    5.710934e-01   7.515964e-03
  2.445870e+00    5.670155e-01   7.501089e-03
  2.448080e+00    5.664800e-01   7.531860e-03
  2.450291e+00    5.591725e-01   7.499460e-03
  2.452501e+00    5.653069e-01   7.551552e-03
  2.454712e+00    5.778743e-01   7.643474e-03
  2.456922e+00    5.614659e-01   7.540774e-03
  2.459133e+00    5.596946e-01   7.534235e-03
  2.461343e+00    5.704989e-01   7.610989e-03
  2.463554e+00    5.551508e-01   7.511355e-03
  2.465764e+00    5.508873e-01   7.485558e-03
  2.467975e+00    5.633336e-01   7.571920e-03
  2.470185e+00    5.460188e-01   7.456904e-03
  2.472395e+00    5.403433e-01   7.419233e-03
  2.474606e+00    5.326419e-01   7.367707e-03
  2.476816e+00    5.356225e-01   7.389018e-03
  2.479027e+00    5.498425e-01   7.487288e-03
  2.481237e+00    5.520341e-01   7.502510e-03
  2.483448e+00    5.399051e-01   7.419911e-03
  2.485658e+00    5.488666e-01   7.481088e-03
  2.487869e+00    5.482652e-01   7.477042e-03
  2.490079e+00    5.363886e-01   7.395088e-03
  2.492290e+00    5.485534e-01   7.478032e-03
  2.494500e+00    5.517838e-01   7.499297e-03
  2.496710e+00    5.340617e-01   7.377181e-03
  2.498921e+00    5.348999e-01   7.381980e-03
  2.501131e+00    5.215381e-01   7.288251e-03
  2.503342e+00    5.309750e-01   7.352627e-03
  2.505552e+00    5.225524e-01   7.292968e-03
  2.507763e+00    5.284653e-01   7.332689e-03
  2.509973e+00    5.345977e-01   7.373713e-03
  2.512184e+00    5.302858e-01   7.342293e-03
  2.514394e+00    5.330518e-01   7.352002e-03
  2.516605e+00    5.308837e-01   7.289789e-03
  2.518815e+00    5.271415e-01   7.235691e-03
  2.521025e+00    5.257416e-01   7.205095e-03
  2.523236e+00    5.250490e-01   7.182399e-03
  2.525446e+00    5.160125e-01   7.104835e-03
  2.527657e+00    5.183722e-01   7.106575e-03
  2.529867e+00    5.153370e-01   7.071679e-03
  2.532078e+00    5.244727e-01   7.119059e-03
  2.534288e+00    5.022884e-01   6.953289e-03
  2.536499e+00    5.130258e-01   7.015396e-03
  2.538709e+00    5.290477e-01   7.113059e-03
  2.540920e+00    5.176210e-01   7.025264e-03
  2.543130e+00    5.135830e-01   6.987526e-03
  2.545340e+00    5.193897e-01   7.016911e-03
  2.547551e+00    5.054820e-01   6.912543e-03
  2.549761e+00    5.089141e-01   6.926516e-03
  2.551972e+00    5.150921e-01   6.959130e-03
  2.554182e+00    5.158112e-01   6.954861e-03
  2.556393e+00    5.231107e-01   6.994794e-03
  2.558603e+00    5.112211e-01   6.905851e-03
  2.560814e+00    5.076289e-01   6.872947e-03
  2.563024e+00    5.071210e-01   6.861017e-03
  2.565235e+00    5.214085e-01   6.947474e-03
  2.567445e+00    5.210457e-01   6.935492e-03
  2.569656e+00    5.076799e-01   6.836305e-03
  2.571866e+00    5.003211e-01   6.777397e-03
  2.574076e+00    5.140975e-01   6.860794e-03
  2.576287e+00    5.191878e-01   6.886354e-03
  2.578497e+00    5.089820e-01   6.810546e-03
  2.580708e+00    5.072582e-01   6.790964e-03
  2.582918e+00    5.096449e-01   6.799208e-03
  2.585129e+00    5.017360e-01   6.738592e-03
  2.587339e+00    4.957145e-01   6.690489e-03
  2.589550e+00    5.033233e-01   6.734162e-03
  2.591760e+00    5.097674e-01   6.769409e-03
  2.593971e+00    5.010387e-01   6.703761e-03
  2.596181e+00    5.053933e-01   6.726640e-03
  2.598391e+00    5.054191e-01   6.721656e-03
  2.600602e+00    4.974670e-01   6.662725e-03
  2.602812e+00    4.931688e-01   6.626459e-03
  2.605023e+00    4.936287e-01   6.622491e-03
  2.607233e+00    5.049697e-01   6.690999e-03
  2.609444e+00    5.177436e-01   6.767815e-03
  2.611654e+00    4.982410e-01   6.631870e-03
  2.613865e+00    4.987261e-01   6.628105e-03
  2.616075e+00    4.971202e-01   6.610355e-03
  2.618286e+00    5.057580e-01   6.660525e-03
  2.620496e+00    5.138083e-01   6.706589e-03
  2.622706e+00    4.962145e-01   6.585074e-03
  2.624917e+00    4.882185e-01   6.526037e-03
  2.627127e+00    4.921300e-01   6.546453e-03
  2.629338e+00    4.973946e-01   6.575444e-03
  2.631548e+00    5.000460e-01   6.586787e-03
  2.633759e+00    5.110710e-01   6.651802e-03
  2.635969e+00    4.947062e-01   6.537805e-03
  2.638180e+00    5.032861e-01   6.587245e-03
  2.640390e+00    5.061636e-01   6.599427e-03
  2.642601e+00    4.995509e-01   6.549501e-03
  2.644811e+00    4.998884e-01   6.544671e-03
  2.647021e+00    4.896806e-01   6.470992e-03
  2.649232e+00    4.871404e-01   6.447547e-03
  2.651442e+00    4.989617e-01   6.518810e-03
  2.653653e+00    4.958730e-01   6.491837e-03
  2.655863e+00    4.989340e-01   6.505148e-03
  2.658074e+00    4.914138e-01   6.449381e-03
  2.660284e+00    4.885497e-01   6.424243e-03
  2.662495e+00    4.917883e-01   6.438800e-03
  2.664705e+00    4.950357e-01   6.453458e-03
  2.666916e+00    4.918075e-01   6.425959e-03
  2.669126e+00    4.886984e-01   6.399193e-03
  2.671337e+00    4.911759e-01   6.408849e-03
  2.673547e+00    4.817704e-01   6.340893e-03
  2.675757e+00    5.021553e-01   6.467154e-03
  2.677968e+00    4.973595e-01   6.429655e-03
  2.680178e+00    4.933701e-01   6.397432e-03
  2.682389e+00    4.847950e-01   6.335237e-03
  2.684599e+00    4.980647e-01   6.415139e-03
  2.686810e+00    4.892331e-01   6.351425e-03
  2.689020e+00    4.912452e-01   6.358177e-03
  2.691231e+00    4.874636e-01   6.327411e-03
  2.693441e+00    4.776551e-01   6.257345e-03
  2.695652e+00    4.850842e-01   6.299345e-03
  2.697862e+00    4.783294e-01   6.249060e-03
  2.700072e+00    4.905275e-01   6.322150e-03
  2.702283e+00    4.829701e-01   6.267089e-03
  2.704493e+00    4.821270e-01   6.255376e-03
  2.706704e+00    4.770403e-01   6.215950e-03
  2.708914e+00    4.877829e-01   6.279590e-03
  2.711125e+00    4.798529e-01   6.222146e-03
  2.713335e+00    4.774826e-01   6.200724e-03
  2.715546e+00    4.845577e-01   6.240057e-03
  2.717756e+00    4.656515e-01   6.111360e-03
  2.719967e+00    4.748476e-01   6.165247e-03
  2.722177e+00    4.865677e-01   6.234751e-03
  2.724387e+00    4.774253e-01   6.169838e-03
  2.726598e+00    4.879535e-01   6.231426e-03
  2.728808e+00    4.762099e-01   6.149890e-03
  2.731019e+00    4.680566e-01   6.091011e-03
  2.733229e+00    4.826114e-01   6.179171e-03
  2.735440e+00    4.855905e-01   6.191945e-03
  2.737650e+00    4.867623e-01   6.193378e-03
  2.739861e+00    4.814157e-01   6.153213e-03
  2.742071e+00    4.810883e-01   6.145387e-03
  2.744282e+00    4.798572e-01   6.131286e-03
  2.746492e+00    4.914262e-01   6.198673e-03
  2.748702e+00    4.753677e-01   6.090687e-03
  2.750913e+00    4.792098e-01   6.109467e-03
  2.753123e+00    4.886434e-01   6.163163e-03
  2.755334e+00    4.750004e-01   6.070456e-03
  2.757544e+00    4.712957e-01   6.041078e-03
  2.759755e+00    4.646602e-01   5.992592e-03
  2.761965e+00    4.801037e-01   6.085385e-03
  2.764176e+00    4.778237e-01   6.064953e-03
  2.766386e+00    4.749753e-01   6.041087e-03
  2.768597e+00    4.697496e-01   6.001959e-03
  2.770807e+00    4.723347e-01   6.012613e-03
  2.773017e+00    4.678223e-01   5.977933e-03
  2.775228e+00    4.616446e-01   5.932636e-03
  2.777438e+00    4.898195e-01   6.105124e-03
  2.779649e+00    4.746942e-01   6.004270e-03
  2.781859e+00    4.710833e-01   5.975651e-03
  2.784070e+00    4.877425e-01   6.074456e-03
  2.786280e+00    4.802255e-01   6.021713e-03
  2.788491e+00    4.770261e-01   5.995753e-03
  2.790701e+00    4.830377e-01   6.027746e-03
  2.792912e+00    4.706084e-01   5.943760e-03
  2.795122e+00    4.631768e-01   5.890983e-03
  2.797333e+00    4.617257e-01   5.876270e-03
  2.799543e+00    4.764767e-01   5.963530e-03
  2.801753e+00    4.703766e-01   5.919411e-03
  2.803964e+00    4.651244e-01   5.880662e-03
  2.806174e+00    4.765572e-01   5.946343e-03
  2.808385e+00    4.700322e-01   5.898735e-03
  2.810595e+00    4.569346e-01   5.809247e-03
  2.812806e+00    4.640146e-01   5.847520e-03
  2.815016e+00    4.648713e-01   5.848236e-03
  2.817227e+00    4.661217e-01   5.881783e-03
  2.819437e+00    4.768729e-01   5.960375e-03
  2.821648e+00    4.480874e-01   5.779903e-03
  2.823858e+00    4.614383e-01   5.870630e-03
  2.826068e+00    4.667845e-01   5.909503e-03
  2.828279e+00    4.613470e-01   5.878968e-03
  2.830489e+00    4.734665e-01   5.959026e-03
  2.832700e+00    4.704756e-01   5.942747e-03
  2.834910e+00    4.558565e-01   5.851695e-03
  2.837121e+00    4.676081e-01   5.928358e-03
  2.839331e+00    4.529627e-01   5.835986e-03
  2.841542e+00    4.669171e-01   5.926203e-03
  2.843752e+00    4.637873e-01   5.907088e-03
  2.845963e+00    4.635544e-01   5.906004e-03
  2.848173e+00    4.671905e-01   5.929210e-03
  2.850383e+00    4.559523e-01   5.857760e-03
  2.852594e+00    4.589647e-01   5.876974e-03
  2.854804e+00    4.794841e-01   6.006423e-03
  2.857015e+00    4.637375e-01   5.906538e-03
  2.859225e+00    4.744857e-01   5.974328e-03
  2.861436e+00    4.660955e-01   5.920647e-03
  2.863646e+00    4.651280e-01   5.914505e-03
  2.865857e+00    4.610963e-01   5.889175e-03
  2.868067e+00    4.577752e-01   5.868135e-03
  2.870278e+00    4.597867e-01   5.880677e-03
  2.872488e+00    4.600466e-01   5.881155e-03
  2.874698e+00    4.778768e-01   5.993010e-03
  2.876909e+00    4.604615e-01   5.881459e-03
  2.879119e+00    4.674719e-01   5.924428e-03
  2.881330e+00    4.647385e-01   5.905626e-03
  2.883540e+00    4.531987e-01   5.830458e-03
  2.885751e+00    4.509698e-01   5.814477e-03
  2.887961e+00    4.571235e-01   5.852133e-03
  2.890172e+00    4.627892e-01   5.886688e-03
  2.892382e+00    4.583596e-01   5.856648e-03
  2.894593e+00    4.462891e-01   5.777248e-03
  2.896803e+00    4.433261e-01   5.756065e-03
  2.899014e+00    4.585277e-01   5.852026e-03
  2.901224e+00    4.617733e-01   5.870702e-03
  2.903434e+00    4.577151e-01   5.842912e-03
  2.905645e+00    4.542722e-01   5.818690e-03
  2.907855e+00    4.589221e-01   5.846291e-03
  2.910066e+00    4.599990e-01   5.851065e-03
  2.912276e+00    4.519164e-01   5.797340e-03
  2.914487e+00    4.490481e-01   5.776463e-03
  2.916697e+00    4.589815e-01   5.837793e-03
  2.918908e+00    4.521916e-01   5.792457e-03
  2.921118e+00    4.550242e-01   5.807885e-03
  2.923329e+00    4.538039e-01   5.797783e-03
  2.925539e+00    4.408747e-01   5.712371e-03
  2.927749e+00    4.425305e-01   5.720797e-03
  2.929960e+00    4.568425e-01   5.809786e-03
  2.932170e+00    4.510907e-01   5.770808e-03
  2.934381e+00    4.528259e-01   5.779456e-03
  2.936591e+00    4.379286e-01   5.681069e-03
  2.938802e+00    4.437206e-01   5.715835e-03
  2.941012e+00    4.487021e-01   5.745508e-03
  2.943223e+00    4.540968e-01   5.777266e-03
  2.945433e+00    4.492453e-01   5.742610e-03
  2.947644e+00    4.504064e-01   5.745907e-03
  2.949854e+00    4.548593e-01   5.769978e-03
  2.952064e+00    4.652176e-01   5.831042e-03
  2.954275e+00    4.453954e-01   5.701102e-03
  2.956485e+00    4.477036e-01   5.711689e-03
  2.958696e+00    4.469611e-01   5.702623e-03
  2.960906e+00    4.535178e-01   5.740126e-03
  2.963117e+00    4.519587e-01   5.725765e-03
  2.965327e+00    4.671033e-01   5.816960e-03
  2.967538e+00    4.535756e-01   5.729215e-03
  2.969748e+00    4.467543e-01   5.683165e-03
  2.971959e+00    4.495167e-01   5.697579e-03
  2.974169e+00    4.595599e-01   5.758288e-03
  2.976379e+00    4.606184e-01   5.761975e-03
  2.978590e+00    4.447417e-01   5.658702e-03
  2.980800e+00    4.401140e-01   5.626436e-03
  2.983011e+00    4.443716e-01   5.650796e-03
  2.985221e+00    4.497011e-01   5.681467e-03
  2.987432e+00    4.432153e-01   5.637258e-03
  2.989642e+00    4.489826e-01   5.671204e-03
  2.991853e+00    4.454148e-01   5.645397e-03
  2.994063e+00    4.373987e-01   5.591493e-03
  2.996274e+00    4.534087e-01   5.689729e-03
  2.998484e+00    4.478411e-01   5.652012e-03
  3.000694e+00    4.394128e-01   5.595186e-03
  3.002905e+00    4.319121e-01   5.544333e-03
  3.005115e+00    4.404189e-01   5.595741e-03
  3.007326e+00    4.416260e-01   5.600290e-03
  3.009536e+00    4.459344e-01   5.624313e-03
  3.011747e+00    4.363599e-01   5.560753e-03
  3.013957e+00    4.412047e-01   5.588386e-03
  3.016168e+00    4.400854e-01   5.578092e-03
  3.018378e+00    4.423747e-01   5.589581e-03
  3.020589e+00    4.389847e-01   5.564944e-03
  3.022799e+00    4.458791e-01   5.605344e-03
  3.025010e+00    4.533469e-01   5.648832e-03
  3.027220e+00    4.466173e-01   5.603691e-03
  3.029430e+00    4.489162e-01   5.614834e-03
  3.031641e+00    4.535158e-01   5.640387e-03
  3.033851e+00    4.594104e-01   5.673396e-03
  3.036062e+00    4.456359e-01   5.584908e-03
  3.038272e+00    4.477268e-01   5.594455e-03
  3.040483e+00    4.414281e-01   5.551768e-03
  3.042693e+00    4.384682e-01   5.529904e-03
  3.044904e+00    4.509653e-01   5.604133e-03
  3.047114e+00    4.433790e-01   5.552039e-03
  3.049325e+00    4.508160e-01   5.593999e-03
  3.051535e+00    4.508162e-01   5.589619e-03
  3.053745e+00    4.545814e-01   5.608134e-03
  3.055956e+00    4.555747e-01   5.609666e-03
  3.058166e+00    4.550487e-01   5.602143e-03
  3.060377e+00    4.490845e-01   5.560541e-03
  3.062587e+00    4.518524e-01   5.573017e-03
  3.064798e+00    4.641142e-01   5.643797e-03
  3.067008e+00    4.555617e-01   5.586813e-03
  3.069219e+00    4.492988e-01   5.543765e-03
  3.071429e+00    4.456943e-01   5.517973e-03
  3.073640e+00    4.565971e-01   5.581690e-03
  3.075850e+00    4.560478e-01   5.574747e-03
  3.078060e+00    4.480982e-01   5.522838e-03
  3.080271e+00    4.499255e-01   5.530605e-03
  3.082481e+00    4.511646e-01   5.534753e-03
  3.084692e+00    4.424509e-01   5.477706e-03
  3.086902e+00    4.366825e-01   5.438671e-03
  3.089113e+00    4.411675e-01   5.462961e-03
  3.091323e+00    4.577801e-01   5.561480e-03
  3.093534e+00    4.563262e-01   5.549236e-03
  3.095744e+00    4.356330e-01   5.418633e-03
  3.097955e+00    4.393612e-01   5.438229e-03
  3.100165e+00    4.530732e-01   5.519111e-03
  3.102375e+00    4.481536e-01   5.485624e-03
  3.104586e+00    4.397168e-01   5.430283e-03
  3.106796e+00    4.357554e-01   5.402303e-03
  3.109007e+00    4.324278e-01   5.378444e-03
  3.111217e+00    4.422364e-01   5.435431e-03
  3.113428e+00    4.511522e-01   5.486522e-03
  3.115638e+00    4.378418e-01   5.401778e-03
  3.117849e+00    4.358444e-01   5.385748e-03
  3.120059e+00    4.546676e-01   5.497322e-03
  3.122270e+00    4.343030e-01   5.369581e-03
  3.124480e+00    4.417590e-01   5.411806e-03
  3.126691e+00    4.466206e-01   5.437924e-03
  3.128901e+00    4.371790e-01   5.377056e-03
  3.131111e+00    4.394094e-01   5.386925e-03
  3.133322e+00    4.476099e-01   5.433509e-03
  3.135532e+00    4.421009e-01   5.396555e-03
  3.137743e+00    4.470792e-01   5.423393e-03
  3.139953e+00    4.361422e-01   5.352973e-03
  3.142164e+00    4.474859e-01   5.434218e-03
  3.144374e+00    4.397841e-01   5.415584e-03
  3.146585e+00    4.436493e-01   5.453898e-03
  3.148795e+00    4.414264e-01   5.450999e-03
  3.151006e+00    4.284796e-01   5.378879e-03
  3.153216e+00    4.377358e-01   5.443750e-03
  3.155426e+00    4.427138e-01   5.480947e-03
  3.157637e+00    4.452671e-01   5.502296e-03
  3.159847e+00    4.396452e-01   5.472314e-03
  3.162058e+00    4.423311e-01   5.493431e-03
  3.164268e+00    4.467700e-01   5.525051e-03
  3.166479e+00    4.394025e-01   5.482934e-03
  3.168689e+00    4.298078e-01   5.426080e-03
  3.170900e+00    4.402984e-01   5.495063e-03
  3.173110e+00    4.367165e-01   5.475548e-03
  3.175321e+00    4.244323e-01   5.400434e-03
  3.177531e+00    4.347754e-01   5.468571e-03
  3.179741e+00    4.438076e-01   5.527158e-03
  3.181952e+00    4.379132e-01   5.492458e-03
  3.184162e+00    4.355652e-01   5.479901e-03
  3.186373e+00    4.327280e-01   5.463600e-03
  3.188583e+00    4.412312e-01   5.518824e-03
  3.190794e+00    4.288459e-01   5.442563e-03
  3.193004e+00    4.313564e-01   5.459687e-03
  3.195215e+00    4.231651e-01   5.409111e-03
  3.197425e+00    4.351225e-01   5.486175e-03
  3.199636e+00    4.246581e-01   5.419071e-03
  3.201846e+00    4.265775e-01   5.430692e-03
  3.204056e+00    4.354550e-01   5.487795e-03
  3.206267e+00    4.403390e-01   5.519350e-03
  3.208477e+00    4.285026e-01   5.445584e-03
  3.210688e+00    4.237616e-01   5.416217e-03
  3.212898e+00    4.165950e-01   5.370760e-03
  3.215109e+00    4.302739e-01   5.458994e-03
  3.217319e+00    4.256095e-01   5.429949e-03
  3.219530e+00    4.126719e-01   5.347171e-03
  3.221740e+00    4.112011e-01   5.338179e-03
  3.223951e+00    4.185631e-01   5.386219e-03
  3.226161e+00    4.106235e-01   5.335073e-03
  3.228372e+00    4.205883e-01   5.399933e-03
  3.230582e+00    4.222452e-01   5.410712e-03
  3.232792e+00    4.219162e-01   5.408819e-03
  3.235003e+00    4.200694e-01   5.397218e-03
  3.237213e+00    4.105808e-01   5.336010e-03
  3.239424e+00    4.249229e-01   5.428382e-03
  3.241634e+00    4.282187e-01   5.449554e-03
  3.243845e+00    4.213436e-01   5.405702e-03
  3.246055e+00    4.125028e-01   5.348388e-03
  3.248266e+00    4.202060e-01   5.398320e-03
  3.250476e+00    4.198370e-01   5.395640e-03
  3.252687e+00    4.097144e-01   5.330135e-03
  3.254897e+00    4.227268e-01   5.413948e-03
  3.257107e+00    4.248339e-01   5.427171e-03
  3.259318e+00    4.188709e-01   5.388681e-03
  3.261528e+00    4.166517e-01   5.374272e-03
  3.263739e+00    4.110492e-01   5.337441e-03
  3.265949e+00    4.261227e-01   5.434322e-03
  3.268160e+00    4.319400e-01   5.470856e-03
  3.270370e+00    4.238978e-01   5.419197e-03
  3.272581e+00    4.269020e-01   5.438082e-03
  3.274791e+00    4.115440e-01   5.338837e-03
  3.277002e+00    4.271151e-01   5.438352e-03
  3.279212e+00    4.193553e-01   5.388335e-03
  3.281422e+00    4.186556e-01   5.383260e-03
  3.283633e+00    4.274104e-01   5.438573e-03
  3.285843e+00    4.125912e-01   5.343145e-03
  3.288054e+00    4.199704e-01   5.389759e-03
  3.290264e+00    4.256619e-01   5.425849e-03
  3.292475e+00    4.219587e-01   5.401386e-03
  3.294685e+00    4.104303e-01   5.326419e-03
  3.296896e+00    4.185477e-01   5.378109e-03
  3.299106e+00    4.241010e-01   5.413124e-03
  3.301317e+00    4.152719e-01   5.355448e-03
  3.303527e+00    4.134917e-01   5.343509e-03
  3.305737e+00    4.197014e-01   5.382424e-03
  3.307948e+00    4.276994e-01   5.432801e-03
  3.310158e+00    4.211554e-01   5.390240e-03
  3.312369e+00    4.113831e-01   5.326457e-03
  3.314579e+00    4.095949e-01   5.313983e-03
  3.316790e+00    4.104314e-01   5.318690e-03
  3.319000e+00    4.282493e-01   5.431721e-03
  3.321211e+00    4.277435e-01   5.427908e-03
  3.323421e+00    4.312722e-01   5.449047e-03
  3.325632e+00    4.329192e-01   5.458516e-03
  3.327842e+00    4.311026e-01   5.446160e-03
  3.330052e+00    4.104740e-01   5.313196e-03
  3.332263e+00    4.201722e-01   5.374566e-03
  3.334473e+00    4.299334e-01   5.435724e-03
  3.336684e+00    4.234723e-01   5.393459e-03
  3.338894e+00    4.192774e-01   5.365844e-03
  3.341105e+00    4.257686e-01   5.405993e-03
  3.343315e+00    4.213390e-01   5.376676e-03
  3.345526e+00    4.097089e-01   5.301058e-03
  3.347736e+00    4.140190e-01   5.327466e-03
  3.349947e+00    4.124262e-01   5.316284e-03
  3.352157e+00    4.107783e-01   5.304485e-03
  3.354368e+00    4.099032e-01   5.297561e-03
  3.356578e+00    4.153469e-01   5.331601e-03
  3.358788e+00    4.062730e-01   5.271740e-03
  3.360999e+00    4.127509e-01   5.312355e-03
  3.363209e+00    4.075549e-01   5.277813e-03
  3.365420e+00    4.231137e-01   5.376089e-03
  3.367630e+00    4.143251e-01   5.318939e-03
  3.369841e+00    4.136332e-01   5.313087e-03
  3.372051e+00    4.035645e-01   5.246083e-03
  3.374262e+00    4.090949e-01   5.279480e-03
  3.376472e+00    4.134637e-01   5.305150e-03
  3.378683e+00    4.080535e-01   5.267854e-03
  3.380893e+00    4.117550e-01   5.289372e-03
  3.383103e+00    4.181522e-01   5.327573e-03
  3.385314e+00    4.300729e-01   5.400722e-03
  3.387524e+00    4.213031e-01   5.342635e-03
  3.389735e+00    4.066991e-01   5.246611e-03
  3.391945e+00    3.998394e-01   5.198545e-03
  3.394156e+00    4.065833e-01   5.238007e-03
  3.396366e+00    4.088264e-01   5.249068e-03
  3.398577e+00    3.991084e-01   5.183280e-03
  3.400787e+00    4.104331e-01   5.268220e-03
  3.402998e+00    3.992275e-01   5.233381e-03
  3.405208e+00    3.987845e-01   5.250939e-03
  3.407418e+00    3.952601e-01   5.243384e-03
  3.409629e+00    3.971269e-01   5.269613e-03
  3.411839e+00    3.973058e-01   5.282557e-03
  3.414050e+00    3.951086e-01   5.278899e-03
  3.416260e+00    3.950131e-01   5.287921e-03
  3.418471e+00    3.815930e-01   5.206591e-03
  3.420681e+00    3.756613e-01   5.174267e-03
  3.422892e+00    3.952117e-01   5.315231e-03
  3.425102e+00    3.927084e-01   5.306244e-03
  3.427313e+00    3.797508e-01   5.225064e-03
  3.429523e+00    3.786916e-01   5.224769e-03
  3.431733e+00    3.803788e-01   5.242983e-03
  3.433944e+00    3.756075e-01   5.216447e-03
  3.436154e+00    3.578322e-01   5.097526e-03
  3.438365e+00    3.641047e-01   5.147791e-03
  3.440575e+00    3.615189e-01   5.135288e-03
  3.442786e+00    3.575582e-01   5.112492e-03
  3.444996e+00    3.640991e-01   5.164466e-03
  3.447207e+00    3.725838e-01   5.229547e-03
  3.449417e+00    3.844658e-01   5.353821e-03
  3.451628e+00    3.745150e-01   5.313734e-03
  3.453838e+00    3.671122e-01   5.282118e-03
  3.456049e+00    3.649439e-01   5.290331e-03
  3.458259e+00    3.678947e-01   5.333641e-03
  3.460469e+00    3.684860e-01   5.357784e-03
  3.462680e+00    3.680164e-01   5.373451e-03
  3.464890e+00    3.789164e-01   5.470563e-03
  3.467101e+00    3.758061e-01   5.465711e-03
  3.469311e+00    3.809806e-01   5.520021e-03
  3.471522e+00    3.820314e-01   5.544160e-03
  3.473732e+00    4.012062e-01   5.697994e-03
  3.475943e+00    4.006884e-01   5.710426e-03
  3.478153e+00    4.021552e-01   5.736560e-03
  3.480364e+00    4.227954e-01   5.897646e-03
  3.482574e+00    4.184085e-01   5.882579e-03
  3.484784e+00    4.237463e-01   5.935106e-03
  3.486995e+00    4.234775e-01   5.948418e-03
  3.489205e+00    4.488670e-01   6.139285e-03
  3.491416e+00    4.421347e-01   6.108240e-03
  3.493626e+00    4.371771e-01   6.088521e-03
  3.495837e+00    4.440994e-01   6.151351e-03
  3.498047e+00    4.586412e-01   6.265964e-03
  3.500258e+00    4.628995e-01   6.309743e-03
  3.502468e+00    4.590240e-01   6.297779e-03
  3.504679e+00    4.630910e-01   6.340156e-03
  3.506889e+00    4.627459e-01   6.352148e-03
  3.509099e+00    4.775382e-01   6.467359e-03
  3.511310e+00    4.903116e-01   6.567954e-03
  3.513520e+00    4.821528e-01   6.527490e-03
  3.515731e+00    4.918404e-01   6.607202e-03
  3.517941e+00    4.781099e-01   6.528568e-03
  3.520152e+00    4.807003e-01   6.560257e-03
  3.522362e+00    5.129528e-01   6.791454e-03
  3.524573e+00    4.993574e-01   6.715047e-03
  3.526783e+00    5.002248e-01   6.734088e-03
  3.528994e+00    5.165023e-01   6.855006e-03
  3.531204e+00    5.121893e-01   6.838677e-03
  3.533414e+00    5.328898e-01   6.987646e-03
  3.535625e+00    5.263161e-01   6.956790e-03
  3.537835e+00    5.433095e-01   7.080416e-03
  3.540046e+00    5.364605e-01   7.044621e-03
  3.542256e+00    5.460691e-01   7.115012e-03
  3.544467e+00    5.289016e-01   7.009880e-03
  3.546677e+00    5.437164e-01   7.114967e-03
  3.548888e+00    5.384223e-01   7.087759e-03
  3.551098e+00    5.423479e-01   7.120904e-03
  3.553309e+00    5.484383e-01   7.169022e-03
  3.555519e+00    5.354711e-01   7.095065e-03
  3.557729e+00    5.365647e-01   7.114021e-03
  3.559940e+00    5.311134e-01   7.089292e-03
  3.562150e+00    5.325255e-01   7.110391e-03
  3.564361e+00    5.362301e-01   7.148391e-03
  3.566571e+00    5.362661e-01   7.162469e-03
  3.568782e+00    5.413542e-01   7.210566e-03
  3.570992e+00    5.268177e-01   7.126729e-03
  3.573203e+00    5.323073e-01   7.177833e-03
  3.575413e+00    5.397872e-01   7.241947e-03
  3.577624e+00    5.319359e-01   7.203120e-03
  3.579834e+00    5.481368e-01   7.326048e-03
  3.582045e+00    5.385081e-01   7.275492e-03
  3.584255e+00    5.368898e-01   7.278613e-03
  3.586465e+00    5.297174e-01   7.243676e-03
  3.588676e+00    5.412213e-01   7.336171e-03
  3.590886e+00    5.268642e-01   7.251826e-03
  3.593097e+00    5.320057e-01   7.301514e-03
  3.595307e+00    5.489510e-01   7.431047e-03
  3.597518e+00    5.356392e-01   7.354576e-03
  3.599728e+00    5.434595e-01   7.422300e-03
  3.601939e+00    5.224206e-01   7.291078e-03
  3.604149e+00    5.330058e-01   7.378953e-03
  3.606360e+00    5.465497e-01   7.486400e-03
  3.608570e+00    5.458825e-01   7.496129e-03
  3.610780e+00    5.402677e-01   7.468623e-03
  3.612991e+00    5.259677e-01   7.379015e-03
  3.615201e+00    5.265706e-01   7.392977e-03
  3.617412e+00    5.456143e-01   7.532821e-03
  3.619622e+00    5.349695e-01   7.464921e-03
  3.621833e+00    5.284636e-01   7.426084e-03
  3.624043e+00    5.142114e-01   7.334583e-03
  3.626254e+00    5.240161e-01   7.413791e-03
  3.628464e+00    5.162201e-01   7.369211e-03
  3.630675e+00    5.258068e-01   7.451323e-03
  3.632885e+00    5.401642e-01   7.566916e-03
  3.635095e+00    5.348494e-01   7.544035e-03
  3.637306e+00    5.493315e-01   7.660015e-03
  3.639516e+00    5.536206e-01   7.704712e-03
  3.641727e+00    5.234042e-01   7.505928e-03
  3.643937e+00    5.228106e-01   7.516043e-03
  3.646148e+00    5.421360e-01   7.668480e-03
  3.648358e+00    5.274924e-01   7.578947e-03
  3.650569e+00    5.457675e-01   7.724039e-03
  3.652779e+00    5.250049e-01   7.590374e-03
  3.654990e+00    5.367484e-01   7.689699e-03
  3.657200e+00    5.388963e-01   7.720097e-03
  3.659410e+00    5.361100e-01   7.715117e-03
  3.661621e+00    5.252782e-01   7.651819e-03
  3.663831e+00    5.040147e-01   7.510044e-03
  3.666042e+00    5.157301e-01   7.611726e-03
  3.668252e+00    5.377331e-01   7.787770e-03
  3.670463e+00    5.349339e-01   7.782759e-03
  3.672673e+00    5.349188e-01   7.798120e-03
  3.674884e+00    5.181679e-01   7.690286e-03
  3.677094e+00    5.050920e-01   7.607759e-03
  3.679305e+00    5.314091e-01   7.819018e-03
  3.681515e+00    5.352456e-01   7.862851e-03
  3.683726e+00    5.158682e-01   7.734856e-03
  3.685936e+00    5.235279e-01   7.807638e-03
  3.688146e+00    5.289447e-01   7.863744e-03
  3.690357e+00    5.394343e-01   7.957459e-03
  3.692567e+00    5.264897e-01   7.877495e-03
  3.694778e+00    5.356598e-01   7.962004e-03
  3.696988e+00    5.201007e-01   7.861451e-03
  3.699199e+00    5.202243e-01   7.878478e-03
  3.701409e+00    5.231624e-01   7.917088e-03
  3.703620e+00    5.090295e-01   7.825458e-03
  3.705830e+00    5.237535e-01   7.954219e-03
  3.708041e+00    5.306714e-01   8.023261e-03
  3.710251e+00    5.367531e-01   8.086062e-03
  3.712461e+00    5.099426e-01   7.898047e-03
  3.714672e+00    4.989297e-01   7.828690e-03
  3.716882e+00    5.181409e-01   7.994576e-03
  3.719093e+00    5.087281e-01   7.938647e-03
  3.721303e+00    4.987455e-01   7.876985e-03
  3.723514e+00    5.106349e-01   7.987360e-03
  3.725724e+00    5.192698e-01   8.071865e-03
  3.727935e+00    5.153284e-01   8.058548e-03
  3.730145e+00    5.230265e-01   8.135960e-03
  3.732356e+00    5.280403e-01   8.192603e-03
  3.734566e+00    5.133623e-01   8.095432e-03
  3.736776e+00    5.003934e-01   8.010034e-03
  3.738987e+00    5.302134e-01   8.263267e-03
  3.741197e+00    5.099607e-01   8.121850e-03
  3.743408e+00    5.012434e-01   8.069966e-03
  3.745618e+00    5.078174e-01   8.140961e-03
  3.747829e+00    5.115356e-01   8.188781e-03
  3.750039e+00    4.969277e-01   8.089161e-03
  3.752250e+00    4.832863e-01   7.995287e-03
  3.754460e+00    5.002503e-01   8.152761e-03
  3.756671e+00    4.921806e-01   8.105209e-03
  3.758881e+00    5.022429e-01   8.206175e-03
  3.761091e+00    5.042256e-01   8.241437e-03
  3.763302e+00    4.889072e-01   8.133956e-03
  3.765512e+00    4.962820e-01   8.214135e-03
  3.767723e+00    5.023693e-01   8.283616e-03
  3.769933e+00    5.251579e-01   8.489076e-03
  3.772144e+00    5.206585e-01   8.472529e-03
  3.774354e+00    5.291750e-01   8.561830e-03
  3.776565e+00    5.024149e-01   8.362369e-03
  3.778775e+00    4.844566e-01   8.231049e-03
  3.780986e+00    4.867368e-01   8.270390e-03
  3.783196e+00    5.017460e-01   8.417139e-03
  3.785407e+00    5.086993e-01   8.495780e-03
  3.787617e+00    5.117090e-01   8.541846e-03
  3.789827e+00    4.980044e-01   8.447137e-03
  3.792038e+00    4.842934e-01   8.350485e-03
  3.794248e+00    4.719427e-01   8.263879e-03
  3.796459e+00    4.892042e-01   8.434653e-03
  3.798669e+00    5.095217e-01   8.629705e-03
  3.800880e+00    5.009150e-01   8.577900e-03
  3.803090e+00    4.812323e-01   8.429064e-03
  3.805301e+00    4.801941e-01   8.441687e-03
  3.807511e+00    4.941226e-01   8.585034e-03
  3.809722e+00    5.286880e-01   8.903147e-03
  3.811932e+00    5.060988e-01   8.733242e-03
  3.814142e+00    4.907879e-01   8.622810e-03
  3.816353e+00    4.733837e-01   8.490783e-03
  3.818563e+00    4.760187e-01   8.536903e-03
  3.820774e+00    4.966944e-01   8.743527e-03
  3.822984e+00    4.916533e-01   8.722192e-03
  3.825195e+00    5.061403e-01   8.873741e-03
  3.827405e+00    4.867046e-01   8.725331e-03
  3.829616e+00    5.201111e-01   9.044351e-03
  3.831826e+00    4.988802e-01   8.882074e-03
  3.834037e+00    4.891944e-01   8.819773e-03
  3.836247e+00    4.676715e-01   8.647518e-03
  3.838457e+00    4.752357e-01   8.741605e-03
  3.840668e+00    5.118806e-01   9.097958e-03
  3.842878e+00    4.922864e-01   8.947587e-03
  3.845089e+00    4.892912e-01   8.945714e-03
  3.847299e+00    4.949557e-01   9.023138e-03
  3.849510e+00    5.115625e-01   9.199514e-03
  3.851720e+00    4.857022e-01   8.985249e-03
  3.853931e+00    5.055038e-01   9.185677e-03
  3.856141e+00    5.056992e-01   9.206736e-03
  3.858352e+00    5.064960e-01   9.233510e-03
  3.860562e+00    4.853616e-01   9.057926e-03
  3.862772e+00    4.925846e-01   9.144589e-03
  3.864983e+00    4.809824e-01   9.055711e-03
  3.867193e+00    4.839430e-01   9.103059e-03
  3.869404e+00    5.046890e-01   9.316224e-03
  3.871614e+00    4.777147e-01   9.083470e-03
  3.873825e+00    4.954543e-01   9.270987e-03
  3.876035e+00    4.941998e-01   9.279821e-03
  3.878246e+00    5.126880e-01   9.478091e-03
  3.880456e+00    4.837345e-01   9.235350e-03
  3.882667e+00    4.788740e-01   9.217742e-03
  3.884877e+00    4.917418e-01   9.370477e-03
  3.887087e+00    5.048322e-01   9.524771e-03
  3.889298e+00    5.036114e-01   9.543938e-03
  3.891508e+00    5.277752e-01   9.801934e-03
  3.893719e+00    5.082359e-01   9.650330e-03
  3.895929e+00    4.714492e-01   9.325308e-03
  3.898140e+00    5.058981e-01   9.692195e-03
  3.900350e+00    4.986749e-01   9.655144e-03
  3.902561e+00    5.015208e-01   9.715378e-03
  3.904771e+00    4.828145e-01   9.565043e-03
  3.906982e+00    5.101295e-01   9.865738e-03
  3.909192e+00    5.027375e-01   9.827907e-03
  3.911403e+00    5.302511e-01   1.012877e-02
  3.913613e+00    4.935998e-01   9.806868e-03
  3.915823e+00    5.134166e-01   1.003744e-02
  3.918034e+00    4.923122e-01   9.864411e-03
  3.920244e+00    4.879419e-01   9.856198e-03
  3.922455e+00    4.848679e-01   9.861112e-03
  3.924665e+00    5.079378e-01   1.013009e-02
  3.926876e+00    4.616794e-01   9.694005e-03
  3.929086e+00    4.742021e-01   9.861258e-03
  3.931297e+00    5.109842e-01   1.027237e-02
  3.933507e+00    4.901090e-01   1.008930e-02
  3.935718e+00    4.844898e-01   1.005996e-02
  3.937928e+00    4.838431e-01   1.008263e-02
  3.940138e+00    4.672101e-01   9.936424e-03
  3.942349e+00    4.941110e-01   1.024868e-02
  3.944559e+00    4.820473e-01   1.015257e-02
  3.946770e+00    4.888986e-01   1.025472e-02
  3.948980e+00    4.797285e-01   1.018856e-02
  3.951191e+00    5.196731e-01   1.063620e-02
  3.953401e+00    5.084679e-01   1.055293e-02
  3.955612e+00    4.722599e-01   1.020149e-02
  3.957822e+00    4.474249e-01   9.960046e-03
  3.960033e+00    4.619552e-01   1.015216e-02
  3.962243e+00    4.911345e-01   1.050100e-02
  3.964453e+00    5.045614e-01   1.067724e-02
  3.966664e+00    4.856835e-01   1.050919e-02
  3.968874e+00    4.754308e-01   1.042555e-02
  3.971085e+00    4.616287e-01   1.029460e-02
  3.973295e+00    4.671249e-01   1.037678e-02
  3.975506e+00    4.902273e-01   1.065186e-02
  3.977716e+00    4.947003e-01   1.072269e-02
  3.979927e+00    4.634804e-01   1.040041e-02
  3.982137e+00    4.859026e-01   1.067129e-02
  3.984348e+00    4.893146e-01   1.073131e-02
  3.986558e+00    4.844981e-01   1.070078e-02
  3.988768e+00    4.722311e-01   1.058710e-02
  3.990979e+00    4.665475e-01   1.054547e-02
  3.993189e+00    4.713206e-01   1.062206e-02
  3.995400e+00    4.834811e-01   1.078165e-02
  3.997610e+00    4.974299e-01   1.096626e-02
  3.999821e+00    5.153410e-01   1.120074e-02
  4.002031e+00    4.976960e-01   1.104621e-02
  4.004242e+00    4.696636e-01   1.076844e-02
  4.006452e+00    5.046012e-01   1.120197e-02
  4.008663e+00    4.855117e-01   1.102804e-02
  4.010873e+00    4.841065e-01   1.105211e-02
  4.013084e+00    4.752767e-01   1.099131e-02
  4.015294e+00    4.573782e-01   1.082224e-02
  4.017504e+00    4.817430e-01   1.114846e-02
  4.019715e+00    4.826908e-01   1.120185e-02
  4.021925e+00    4.901440e-01   1.133133e-02
  4.024136e+00    4.581869e-01   1.099814e-02
  4.026346e+00    4.930406e-01   1.145332e-02
  4.028557e+00    4.577824e-01   1.107938e-02
  4.030767e+00    4.903677e-01   1.151285e-02
  4.032978e+00    4.584826e-01   1.117735e-02
  4.035188e+00    4.603568e-01   1.124508e-02
  4.037399e+00    4.904106e-01   1.165446e-02
  4.039609e+00    4.765064e-01   1.153530e-02
  4.041819e+00    4.869826e-01   1.171041e-02
  4.044030e+00    4.887833e-01   1.178223e-02
  4.046240e+00    4.709796e-01   1.161491e-02
  4.048451e+00    4.991240e-01   1.200869e-02
  4.050661e+00    4.857353e-01   1.189807e-02
  4.052872e+00    4.832114e-01   1.191997e-02
  4.055082e+00    5.061950e-01   1.225497e-02
  4.057293e+00    4.398802e-01   1.147528e-02
  4.059503e+00    4.732847e-01   1.195718e-02
  4.061714e+00    4.668635e-01   1.193145e-02
  4.063924e+00    4.599768e-01   1.189844e-02
  4.066134e+00    4.782450e-01   1.218959e-02
  4.068345e+00    4.935983e-01   1.244344e-02
  4.070555e+00    4.682176e-01   1.217781e-02
  4.072766e+00    4.793018e-01   1.238160e-02
  4.074976e+00    4.907447e-01   1.259117e-02
  4.077187e+00    4.784671e-01   1.249445e-02
  4.079397e+00    4.984258e-01   1.281743e-02
  4.081608e+00    4.717929e-01   1.253521e-02
  4.083818e+00    4.943288e-01   1.289773e-02
  4.086029e+00    4.677046e-01   1.261188e-02
  4.088239e+00    4.501374e-01   1.243934e-02
  4.090449e+00    4.825882e-01   1.294974e-02
  4.092660e+00    4.746626e-01   1.291352e-02
  4.094870e+00    4.773507e-01   1.302225e-02
  4.097081e+00    4.583774e-01   1.283053e-02
  4.099291e+00    4.780706e-01   1.315762e-02
  4.101502e+00    4.526968e-01   1.285145e-02
  4.103712e+00    4.497452e-01   1.285717e-02
  4.105923e+00    4.911345e-01   1.348774e-02
  4.108133e+00    4.354523e-01   1.274913e-02
  4.110344e+00    4.668892e-01   1.325182e-02
  4.112554e+00    4.666334e-01   1.330055e-02
  4.114764e+00    5.007817e-01   1.383390e-02
  4.116975e+00    4.863061e-01   1.368646e-02
  4.119185e+00    4.903040e-01   1.379821e-02
  4.121396e+00    4.633172e-01   1.346861e-02
  4.123606e+00    4.725566e-01   1.365799e-02
  4.125817e+00    4.586838e-01   1.351236e-02
  4.128027e+00    4.547633e-01   1.351123e-02
  4.130238e+00    4.805180e-01   1.394806e-02
  4.132448e+00    4.939085e-01   1.420243e-02
  4.134659e+00    4.744170e-01   1.397931e-02
  4.136869e+00    5.019431e-01   1.444312e-02
  4.139080e+00    5.051457e-01   1.455465e-02
  4.141290e+00    4.760734e-01   1.419206e-02
  4.143500e+00    4.748595e-01   1.423937e-02
  4.145711e+00    5.084866e-01   1.480393e-02
  4.147921e+00    4.259821e-01   1.361172e-02
  4.150132e+00    4.749244e-01   1.444118e-02
  4.152342e+00    4.338208e-01   1.386896e-02
  4.154553e+00    4.403741e-01   1.403956e-02
  4.156763e+00    5.165524e-01   1.528081e-02
  4.158974e+00    4.884816e-01   1.493473e-02
  4.161184e+00    4.596360e-01   1.455867e-02
  4.163395e+00    4.442805e-01   1.438646e-02
  4.165605e+00    4.936267e-01   1.524340e-02
  4.167815e+00    5.206717e-01   1.573704e-02
  4.170026e+00    5.053020e-01   1.558468e-02
  4.172236e+00    4.819808e-01   1.530325e-02
  4.174447e+00    4.367559e-01   1.464668e-02
  4.176657e+00    4.612997e-01   1.513499e-02
  4.178868e+00    4.413187e-01   1.488728e-02
  4.181078e+00    4.650860e-01   1.536911e-02
  4.183289e+00    4.145263e-01   1.459279e-02
  4.185499e+00    4.739387e-01   1.569548e-02
  4.187710e+00    4.914333e-01   1.607599e-02
  4.189920e+00    5.067716e-01   1.642334e-02
  4.192130e+00    5.536571e-01   1.727135e-02
  4.194341e+00    5.119663e-01   1.671026e-02
  4.196551e+00    4.901227e-01   1.645347e-02
  4.198762e+00    4.448934e-01   1.577522e-02
  4.200972e+00    4.972408e-01   1.678548e-02
  4.203183e+00    4.081067e-01   1.530716e-02
  4.205393e+00    4.587736e-01   1.633748e-02
  4.207604e+00    4.393167e-01   1.609631e-02
  4.209814e+00    4.733559e-01   1.682284e-02
  4.212025e+00    4.923647e-01   1.727884e-02
  4.214235e+00    4.735280e-01   1.706546e-02
  4.216445e+00    4.979487e-01   1.762616e-02
  4.218656e+00    4.311377e-01   1.652450e-02
  4.220866e+00    4.544342e-01   1.709023e-02
  4.223077e+00    4.577097e-01   1.728385e-02
  4.225287e+00    4.155328e-01   1.659781e-02
  4.227498e+00    4.772521e-01   1.792709e-02
  4.229708e+00    4.681861e-01   1.790055e-02
  4.231919e+00    4.960510e-01   1.857804e-02
  4.234129e+00    4.519618e-01   1.788189e-02
  4.236340e+00    5.114207e-01   1.918445e-02
  4.238550e+00    4.909667e-01   1.896312e-02
  4.240761e+00    4.516295e-01   1.834813e-02
  4.242971e+00    4.598005e-01   1.868296e-02
  4.245181e+00    4.830200e-01   1.932863e-02
  4.247392e+00    4.852796e-01   1.955479e-02
  4.249602e+00    4.983153e-01   2.001294e-02
  4.251813e+00    4.069338e-01   1.826319e-02
  4.254023e+00    4.543938e-01   1.949305e-02
  4.256234e+00    4.862634e-01   2.038071e-02
  4.258444e+00    4.610620e-01   2.005329e-02
  4.260655e+00    5.150656e-01   2.142795e-02
  4.262865e+00    4.075153e-01   1.927672e-02
  4.265076e+00    4.737767e-01   2.102035e-02
  4.267286e+00    4.856268e-01   2.153449e-02
  4.269496e+00    4.772445e-01   2.160842e-02
  4.271707e+00    4.372399e-01   2.093846e-02
  4.273917e+00    5.013732e-01   2.271108e-02
  4.276128e+00    4.806381e-01   2.253214e-02
  4.278338e+00    4.296461e-01   2.158784e-02
  4.280549e+00    3.943854e-01   2.097949e-02
  4.282759e+00    4.782868e-01   2.343565e-02
  4.284970e+00    4.439197e-01   2.291222e-02
  4.287180e+00    4.545687e-01   2.346338e-02
  4.289391e+00    4.562394e-01   2.368264e-02
  4.291601e+00    4.622996e-01   2.403002e-02
  4.293811e+00    5.327999e-01   2.599833e-02
  4.296022e+00    5.492564e-01   2.660982e-02
  4.298232e+00    4.694791e-01   2.480755e-02
  4.300443e+00    4.740607e-01   2.513367e-02
  4.302653e+00    4.650187e-01   2.510868e-02
  4.304864e+00    5.290174e-01   2.701243e-02
  4.307074e+00    4.717318e-01   2.573751e-02
  4.309285e+00    4.878277e-01   2.641024e-02
  4.311495e+00    4.983496e-01   2.694393e-02
  4.313706e+00    3.802141e-01   2.375545e-02
  4.315916e+00    3.998170e-01   2.459899e-02
  4.318126e+00    4.718254e-01   2.698850e-02
  4.320337e+00    4.386033e-01   2.628264e-02
  4.322547e+00    5.292905e-01   2.917989e-02
  4.324758e+00    4.552151e-01   2.734240e-02
  4.326968e+00    4.332444e-01   2.697427e-02
  4.329179e+00    4.258672e-01   2.703824e-02
  4.331389e+00    4.272973e-01   2.739603e-02
  4.333600e+00    4.214932e-01   2.753414e-02
  4.335810e+00    4.703984e-01   2.943395e-02
  4.338021e+00    3.318598e-01   2.503921e-02
  4.340231e+00    3.644649e-01   2.656868e-02
  4.342442e+00    4.441427e-01   2.972388e-02
  4.344652e+00    3.943106e-01   2.838691e-02
  4.346862e+00    3.576836e-01   2.741501e-02
  4.349073e+00    4.173429e-01   3.004397e-02
  4.351283e+00    3.901402e-01   2.948233e-02
  4.353494e+00    4.851131e-01   3.338362e-02
  4.355704e+00    4.780942e-01   3.367407e-02
  4.357915e+00    4.643203e-01   3.373913e-02
  4.360125e+00    3.926793e-01   3.155632e-02
  4.362336e+00    5.052910e-01   3.644845e-02
  4.364546e+00    4.990494e-01   3.688238e-02
  4.366757e+00    3.725000e-01   3.249955e-02
  4.368967e+00    3.400938e-01   3.167307e-02
  4.371177e+00    2.499346e-01   2.772733e-02
  4.373388e+00    4.288238e-01   3.713185e-02
  4.375598e+00    6.342665e-01   4.618917e-02
  4.377809e+00    4.050223e-01   3.784790e-02
  4.380019e+00    2.314818e-01   2.932909e-02
  4.382230e+00    2.603350e-01   3.197210e-02
  4.384440e+00    4.293350e-01   4.223934e-02
  4.386651e+00    3.688117e-01   4.035905e-02
  4.388861e+00    3.433314e-01   4.024385e-02
  4.391072e+00    4.640852e-01   4.843188e-02
  4.393282e+00    3.995382e-01   4.667785e-02
  4.395492e+00    3.809584e-01   4.747226e-02
  4.397703e+00    2.753329e-01   4.220644e-02
  4.399913e+00    6.717720e-01   6.925194e-02
  4.402124e+00    6.071307e-01   6.957845e-02
  4.404334e+00    3.308301e-01   5.459522e-02
  4.406545e+00    4.643548e-01   6.948858e-02
  4.408755e+00    1.364803e-01   4.086168e-02
  4.410966e+00    2.188322e-01   5.726590e-02
  4.413176e+00    1.856202e-01   5.968970e-02
  4.415387e+00   -6.209870e-01            nan
  4.417597e+00   -1.866404e+00            nan
  4.419807e+00    1.431295e-01   1.358686e-01
