# == pyFAI calibration ==
# Distance Sample to Detector: 0.216 m
# PONI: 1.166e-01, 1.308e-01 m
# Rotations: 0.000000 0.000000 0.000000 rad
# 
# == Fit2d calibration ==
# Distance Sample-beamCenter: 216.000 mm
# Center: x=1744.293, y=1555.000 pix
# Tilt: 0.000 deg  TiltPlanRot: 0.000 deg
# 
# Detector Eiger 9M	 PixelSize= 7.500e-05, 7.500e-05 m
#    Detector has a mask: True 
#    Detector has a dark current: False 
#    detector has a flat field: False 
# 
# Wavelength: 9.8e-11 m
# Mask applied: from detector
# Dark current applied: False
# Flat field applied: False
# Polarization factor: None
# Normalization factor: 1.0
# 
# Headers of the input frame:
# {
# "_array_data.header_convention": "SLS_1.0",
# "_array_data.header_contents": "# Detector: Dectris Eiger 9M, S/N E-18-0102\r\n# Pixel_size 75e-6 m x 75e-6 m\r\n# Silicon sensor, thickness 0.000450 m\r\n# Exposure_time 0.024997 s\r\n# Exposure_period 0.025000 s\r\n# Count_cutoff 62318 counts\r\n# Wavelength 0.980106 A\r\n# Detector_distance 0.215992 m\r\n# Beam_xy (1555, 1744) pixels\r\n# Start_angle 0.000000 deg.\r\n# Angle_increment 0.000000 deg.",
# "Content-Type": "application/octet-stream;",
# "conversions": "x-CBF_BYTE_OFFSET",
# "Content-Transfer-Encoding": "BINARY",
# "X-Binary-Size": "10166602",
# "X-Binary-ID": "1",
# "X-Binary-Element-Type": "signed 32-bit integer",
# "X-Binary-Element-Byte-Order": "LITTLE_ENDIAN",
# "Content-MD5": "fNElEcsbPZ3CiRJC/XAieg==",
# "X-Binary-Number-of-Elements": "10166590",
# "X-Binary-Size-Fastest-Dimension": "3110",
# "X-Binary-Size-Second-Dimension": "3269",
# "X-Binary-Size-Padding": "4095"
# }
# --> H:/Proxima2a_2019-04-05/RAW_DATA/C5_gel17_position5/C5_mesh_1_data.cbf/C5_mesh_1_data.cbf000071.dat
#        q_A^-1              I           sigma 
  1.105228e-03    7.361305e-01   4.642633e-01
  3.315685e-03    1.347073e+00   3.818044e-01
  5.526141e-03    1.684738e+00   3.301705e-01
  7.736597e-03    1.271398e+00   2.423042e-01
  9.947054e-03    1.426299e+00   2.262465e-01
  1.215751e-02    1.481958e+00   2.085386e-01
  1.436797e-02    1.481462e+00   1.917879e-01
  1.657842e-02    1.293101e+00   1.667864e-01
  1.878888e-02    1.245016e+00   1.537273e-01
  2.099934e-02    1.400054e+00   1.542320e-01
  2.320979e-02    1.670956e+00   1.602564e-01
  2.542025e-02    1.501001e+00   1.451443e-01
  2.763070e-02    1.351680e+00   1.321075e-01
  2.984116e-02    1.495965e+00   1.337326e-01
  3.205162e-02    1.389684e+00   1.243782e-01
  3.426207e-02    1.503411e+00   1.251163e-01
  3.647253e-02    1.586437e+00   1.245665e-01
  3.868299e-02    1.375605e+00   1.126400e-01
  4.089344e-02    1.393797e+00   1.102758e-01
  4.310390e-02    1.443716e+00   1.093112e-01
  4.531436e-02    1.496469e+00   1.085424e-01
  4.752481e-02    1.445704e+00   1.041738e-01
  4.973527e-02    1.498850e+00   1.036886e-01
  5.194572e-02    1.551717e+00   1.032308e-01
  5.415618e-02    1.469953e+00   9.839895e-02
  5.636664e-02    1.438852e+00   9.542742e-02
  5.857709e-02    1.553154e+00   9.725721e-02
  6.078755e-02    1.513872e+00   9.425446e-02
  6.299801e-02    1.515967e+00   9.264911e-02
  6.520846e-02    1.479781e+00   8.997241e-02
  6.741892e-02    1.519386e+00   8.965694e-02
  6.962938e-02    1.521194e+00   8.827925e-02
  7.183983e-02    1.543705e+00   8.754962e-02
  7.405029e-02    1.457829e+00   8.379816e-02
  7.626074e-02    1.435597e+00   8.194201e-02
  7.847120e-02    1.535938e+00   8.355275e-02
  8.068166e-02    1.470415e+00   8.062289e-02
  8.289211e-02    1.453517e+00   7.908183e-02
  8.510257e-02    1.553559e+00   8.068881e-02
  8.731303e-02    1.491573e+00   7.805255e-02
  8.952348e-02    1.472462e+00   7.658957e-02
  9.173394e-02    1.527954e+00   7.707063e-02
  9.394439e-02    1.509502e+00   7.569483e-02
  9.615485e-02    1.493941e+00   7.443143e-02
  9.836531e-02    1.517171e+00   7.415829e-02
  1.005758e-01    1.578463e+00   7.480603e-02
  1.027862e-01    1.581217e+00   7.405998e-02
  1.049967e-01    1.593150e+00   7.355095e-02
  1.072071e-01    1.582922e+00   7.255387e-02
  1.094176e-01    1.549842e+00   7.106180e-02
  1.116280e-01    1.507665e+00   6.938925e-02
  1.138385e-01    1.491477e+00   6.834104e-02
  1.160490e-01    1.497685e+00   6.782693e-02
  1.182594e-01    1.640705e+00   7.032352e-02
  1.204699e-01    1.587386e+00   6.853337e-02
  1.226803e-01    1.462114e+00   6.517560e-02
  1.248908e-01    1.564102e+00   6.681037e-02
  1.271012e-01    1.664957e+00   6.832739e-02
  1.293117e-01    1.559354e+00   6.555656e-02
  1.315222e-01    1.607702e+00   6.600183e-02
  1.337326e-01    1.610106e+00   6.550175e-02
  1.359431e-01    1.601104e+00   6.535663e-02
  1.381535e-01    1.542227e+00   6.500468e-02
  1.403640e-01    1.629586e+00   6.710893e-02
  1.425744e-01    1.638695e+00   6.740375e-02
  1.447849e-01    1.580909e+00   6.621988e-02
  1.469953e-01    1.618076e+00   6.695179e-02
  1.492058e-01    1.710985e+00   6.876714e-02
  1.514163e-01    1.644451e+00   6.730489e-02
  1.536267e-01    1.589548e+00   6.604259e-02
  1.558372e-01    1.602017e+00   6.615474e-02
  1.580476e-01    1.575581e+00   6.544746e-02
  1.602581e-01    1.591927e+00   6.561899e-02
  1.624685e-01    1.707007e+00   6.776335e-02
  1.646790e-01    1.666720e+00   6.676670e-02
  1.668895e-01    1.709320e+00   6.741927e-02
  1.690999e-01    1.698617e+00   6.700607e-02
  1.713104e-01    1.618520e+00   6.520418e-02
  1.735208e-01    1.738731e+00   6.737208e-02
  1.757313e-01    1.823507e+00   6.877873e-02
  1.779417e-01    1.897052e+00   6.992323e-02
  1.801522e-01    1.880900e+00   6.940319e-02
  1.823626e-01    1.805536e+00   6.777216e-02
  1.845731e-01    1.805833e+00   6.755820e-02
  1.867836e-01    1.874845e+00   6.860466e-02
  1.889940e-01    1.893119e+00   6.871295e-02
  1.912045e-01    1.945286e+00   6.942062e-02
  1.934149e-01    1.968437e+00   6.959879e-02
  1.956254e-01    2.009213e+00   7.008404e-02
  1.978358e-01    2.053179e+00   7.060391e-02
  2.000463e-01    1.990559e+00   6.928851e-02
  2.022568e-01    2.071814e+00   7.045653e-02
  2.044672e-01    2.015199e+00   6.924919e-02
  2.066777e-01    1.921511e+00   6.739584e-02
  2.088881e-01    2.007213e+00   6.865706e-02
  2.110986e-01    2.031962e+00   6.884216e-02
  2.133090e-01    2.010255e+00   6.825086e-02
  2.155195e-01    2.030612e+00   6.836803e-02
  2.177300e-01    1.956383e+00   6.657961e-02
  2.199404e-01    1.940712e+00   6.456508e-02
  2.221509e-01    1.909577e+00   6.299342e-02
  2.243613e-01    1.998373e+00   6.362444e-02
  2.265718e-01    2.015410e+00   6.319084e-02
  2.287822e-01    2.041360e+00   6.296687e-02
  2.309927e-01    2.165897e+00   6.426830e-02
  2.332031e-01    2.244194e+00   6.485971e-02
  2.354136e-01    2.264144e+00   6.461937e-02
  2.376241e-01    2.180868e+00   6.292761e-02
  2.398345e-01    2.156636e+00   6.211391e-02
  2.420450e-01    2.148161e+00   6.154871e-02
  2.442554e-01    2.113262e+00   6.062616e-02
  2.464659e-01    2.140276e+00   6.060278e-02
  2.486763e-01    2.076974e+00   5.930742e-02
  2.508868e-01    2.107461e+00   5.936424e-02
  2.530973e-01    2.192435e+00   6.017381e-02
  2.553077e-01    2.151454e+00   5.924723e-02
  2.575182e-01    2.106484e+00   5.827789e-02
  2.597286e-01    2.074568e+00   5.749851e-02
  2.619391e-01    2.116854e+00   5.774715e-02
  2.641495e-01    2.143744e+00   5.779116e-02
  2.663600e-01    2.114358e+00   5.707807e-02
  2.685704e-01    2.052011e+00   5.592544e-02
  2.707809e-01    1.993994e+00   5.483655e-02
  2.729914e-01    2.025387e+00   5.497848e-02
  2.752018e-01    2.079961e+00   5.542429e-02
  2.774123e-01    1.980778e+00   5.381042e-02
  2.796227e-01    2.037463e+00   5.430498e-02
  2.818332e-01    2.059537e+00   5.432602e-02
  2.840436e-01    1.976385e+00   5.296007e-02
  2.862541e-01    1.935534e+00   5.215794e-02
  2.884646e-01    1.919443e+00   5.169416e-02
  2.906750e-01    1.979579e+00   5.224879e-02
  2.928855e-01    2.019694e+00   5.253099e-02
  2.950959e-01    1.995578e+00   5.197658e-02
  2.973064e-01    1.960832e+00   5.129053e-02
  2.995168e-01    1.981123e+00   5.132174e-02
  3.017273e-01    1.982886e+00   5.111820e-02
  3.039377e-01    1.996303e+00   5.106625e-02
  3.061482e-01    1.941032e+00   5.013654e-02
  3.083587e-01    1.982008e+00   5.044368e-02
  3.105691e-01    1.949861e+00   4.981922e-02
  3.127796e-01    1.917669e+00   4.919853e-02
  3.149900e-01    1.920598e+00   4.903097e-02
  3.172005e-01    1.922967e+00   4.886056e-02
  3.194109e-01    1.887926e+00   4.821351e-02
  3.216214e-01    1.839234e+00   4.739350e-02
  3.238319e-01    1.888263e+00   4.783078e-02
  3.260423e-01    1.891412e+00   4.767998e-02
  3.282528e-01    1.912774e+00   4.775759e-02
  3.304632e-01    1.897608e+00   4.738363e-02
  3.326737e-01    1.835556e+00   4.642062e-02
  3.348841e-01    1.838454e+00   4.627708e-02
  3.370946e-01    1.873749e+00   4.654343e-02
  3.393050e-01    1.838548e+00   4.592951e-02
  3.415155e-01    1.853203e+00   4.593882e-02
  3.437260e-01    1.838116e+00   4.558188e-02
  3.459364e-01    1.867901e+00   4.577971e-02
  3.481469e-01    1.891734e+00   4.590270e-02
  3.503573e-01    1.866979e+00   4.543523e-02
  3.525678e-01    1.810710e+00   4.458586e-02
  3.547782e-01    1.864505e+00   4.507979e-02
  3.569887e-01    1.799558e+00   4.413077e-02
  3.591992e-01    1.815023e+00   4.416316e-02
  3.614096e-01    1.833454e+00   4.423293e-02
  3.636201e-01    1.814053e+00   4.384367e-02
  3.658305e-01    1.795418e+00   4.346911e-02
  3.680410e-01    1.828238e+00   4.371374e-02
  3.702514e-01    1.882302e+00   4.420621e-02
  3.724619e-01    1.870811e+00   4.392099e-02
  3.746724e-01    1.832171e+00   4.332004e-02
  3.768828e-01    1.790249e+00   4.267746e-02
  3.790933e-01    1.813245e+00   4.281075e-02
  3.813037e-01    1.764106e+00   4.208849e-02
  3.835142e-01    1.762760e+00   4.193429e-02
  3.857246e-01    1.730053e+00   4.140895e-02
  3.879351e-01    1.782345e+00   4.189407e-02
  3.901455e-01    1.794343e+00   4.190102e-02
  3.923560e-01    1.769341e+00   4.147583e-02
  3.945665e-01    1.730557e+00   4.088866e-02
  3.967769e-01    1.779966e+00   4.133838e-02
  3.989874e-01    1.791099e+00   4.133798e-02
  4.011978e-01    1.817193e+00   4.150996e-02
  4.034083e-01    1.808048e+00   4.127828e-02
  4.056187e-01    1.794802e+00   4.100011e-02
  4.078292e-01    1.773744e+00   4.063553e-02
  4.100397e-01    1.833704e+00   4.119048e-02
  4.122501e-01    1.810548e+00   4.080715e-02
  4.144606e-01    1.767043e+00   4.019434e-02
  4.166710e-01    1.803962e+00   4.049129e-02
  4.188815e-01    1.825309e+00   4.060987e-02
  4.210919e-01    1.790978e+00   4.010826e-02
  4.233024e-01    1.822569e+00   4.034143e-02
  4.255128e-01    1.828498e+00   4.029020e-02
  4.277233e-01    1.805107e+00   3.991664e-02
  4.299338e-01    1.804310e+00   3.979301e-02
  4.321442e-01    1.753420e+00   3.911556e-02
  4.343547e-01    1.764329e+00   3.912611e-02
  4.365651e-01    1.747124e+00   3.882425e-02
  4.387756e-01    1.785143e+00   3.913451e-02
  4.409860e-01    1.759313e+00   3.874271e-02
  4.431965e-01    1.798280e+00   3.906112e-02
  4.454070e-01    1.792093e+00   3.888539e-02
  4.476174e-01    1.789531e+00   3.875087e-02
  4.498279e-01    1.780057e+00   3.854303e-02
  4.520383e-01    1.764349e+00   3.826727e-02
  4.542488e-01    1.759588e+00   3.811257e-02
  4.564592e-01    1.730994e+00   3.770021e-02
  4.586697e-01    1.695697e+00   3.721482e-02
  4.608801e-01    1.637038e+00   3.646753e-02
  4.630906e-01    1.691132e+00   3.696698e-02
  4.653011e-01    1.754846e+00   3.755789e-02
  4.675115e-01    1.733997e+00   3.723582e-02
  4.697220e-01    1.677565e+00   3.652898e-02
  4.719324e-01    1.740930e+00   3.711623e-02
  4.741429e-01    1.739794e+00   3.700850e-02
  4.763533e-01    1.730268e+00   3.681246e-02
  4.785638e-01    1.723103e+00   3.664122e-02
  4.807743e-01    1.685642e+00   3.614860e-02
  4.829847e-01    1.694126e+00   3.614788e-02
  4.851952e-01    1.707790e+00   3.620155e-02
  4.874056e-01    1.670057e+00   3.570910e-02
  4.896161e-01    1.685656e+00   3.578653e-02
  4.918265e-01    1.651157e+00   3.533046e-02
  4.940370e-01    1.735547e+00   3.613264e-02
  4.962475e-01    1.706149e+00   3.573687e-02
  4.984579e-01    1.693123e+00   3.551243e-02
  5.006684e-01    1.678463e+00   3.527215e-02
  5.028788e-01    1.652605e+00   3.491459e-02
  5.050893e-01    1.667628e+00   3.498762e-02
  5.072997e-01    1.635847e+00   3.456894e-02
  5.095102e-01    1.689191e+00   3.504390e-02
  5.117206e-01    1.704800e+00   3.512174e-02
  5.139311e-01    1.710961e+00   3.510188e-02
  5.161416e-01    1.683347e+00   3.473519e-02
  5.183520e-01    1.653542e+00   3.434449e-02
  5.205625e-01    1.667438e+00   3.440771e-02
  5.227729e-01    1.629998e+00   3.393989e-02
  5.249834e-01    1.662652e+00   3.419855e-02
  5.271938e-01    1.744668e+00   3.495017e-02
  5.294043e-01    1.773464e+00   3.515609e-02
  5.316148e-01    1.794978e+00   3.528768e-02
  5.338252e-01    1.834018e+00   3.558786e-02
  5.360357e-01    1.772192e+00   3.490321e-02
  5.382461e-01    1.734292e+00   3.444995e-02
  5.404566e-01    1.734012e+00   3.436875e-02
  5.426670e-01    1.779509e+00   3.473827e-02
  5.448775e-01    1.736471e+00   3.423896e-02
  5.470879e-01    1.800191e+00   3.478376e-02
  5.492984e-01    1.745234e+00   3.417254e-02
  5.515089e-01    1.775395e+00   3.439011e-02
  5.537193e-01    1.817952e+00   3.472317e-02
  5.559298e-01    1.823013e+00   3.469522e-02
  5.581402e-01    1.805759e+00   3.445518e-02
  5.603507e-01    1.819099e+00   3.450695e-02
  5.625611e-01    1.821273e+00   3.445265e-02
  5.647716e-01    1.786224e+00   3.404544e-02
  5.669821e-01    1.776481e+00   3.387928e-02
  5.691925e-01    1.782781e+00   3.386644e-02
  5.714030e-01    1.776385e+00   3.373357e-02
  5.736134e-01    1.712433e+00   3.305033e-02
  5.758239e-01    1.740719e+00   3.325104e-02
  5.780343e-01    1.733278e+00   3.310972e-02
  5.802448e-01    1.674585e+00   3.247618e-02
  5.824552e-01    1.640769e+00   3.207915e-02
  5.846657e-01    1.619900e+00   3.180804e-02
  5.868762e-01    1.643079e+00   3.196809e-02
  5.890866e-01    1.694083e+00   3.239313e-02
  5.912971e-01    1.645796e+00   3.186205e-02
  5.935075e-01    1.624527e+00   3.159007e-02
  5.957180e-01    1.628607e+00   3.156481e-02
  5.979284e-01    1.660311e+00   3.180550e-02
  6.001389e-01    1.693936e+00   3.206054e-02
  6.023494e-01    1.672488e+00   3.179225e-02
  6.045598e-01    1.622578e+00   3.125053e-02
  6.067703e-01    1.651409e+00   3.146355e-02
  6.089807e-01    1.641364e+00   3.130464e-02
  6.111912e-01    1.670572e+00   3.151889e-02
  6.134016e-01    1.668783e+00   3.143917e-02
  6.156121e-01    1.681972e+00   3.150042e-02
  6.178226e-01    1.696338e+00   3.157204e-02
  6.200330e-01    1.681459e+00   3.137126e-02
  6.222435e-01    1.714035e+00   3.161094e-02
  6.244539e-01    1.688405e+00   3.131230e-02
  6.266644e-01    1.684311e+00   3.121329e-02
  6.288748e-01    1.735096e+00   3.161870e-02
  6.310853e-01    1.735388e+00   3.155997e-02
  6.332957e-01    1.751475e+00   3.164470e-02
  6.355062e-01    1.778280e+00   3.182400e-02
  6.377167e-01    1.746345e+00   3.147642e-02
  6.399271e-01    1.721007e+00   3.118740e-02
  6.421376e-01    1.676907e+00   3.072642e-02
  6.443480e-01    1.729734e+00   3.114731e-02
  6.465585e-01    1.675331e+00   3.059551e-02
  6.487689e-01    1.672356e+00   3.051062e-02
  6.509794e-01    1.620214e+00   2.997455e-02
  6.531899e-01    1.641091e+00   3.011033e-02
  6.554003e-01    1.628230e+00   2.993571e-02
  6.576108e-01    1.642454e+00   3.001022e-02
  6.598212e-01    1.611870e+00   2.967424e-02
  6.620317e-01    1.652583e+00   2.999098e-02
  6.642421e-01    1.620059e+00   2.963946e-02
  6.664526e-01    1.641200e+00   2.977725e-02
  6.686630e-01    1.622975e+00   2.955672e-02
  6.708735e-01    1.628026e+00   2.954836e-02
  6.730840e-01    1.616046e+00   2.938579e-02
  6.752944e-01    1.617153e+00   2.934236e-02
  6.775049e-01    1.634387e+00   2.944477e-02
  6.797153e-01    1.596937e+00   2.905275e-02
  6.819258e-01    1.648252e+00   2.946261e-02
  6.841362e-01    1.620528e+00   2.916126e-02
  6.863467e-01    1.566340e+00   2.861819e-02
  6.885572e-01    1.584104e+00   2.872844e-02
  6.907676e-01    1.591494e+00   2.874378e-02
  6.929781e-01    1.618369e+00   2.893394e-02
  6.951885e-01    1.622398e+00   2.891862e-02
  6.973990e-01    1.608192e+00   2.874084e-02
  6.996094e-01    1.592060e+00   2.854601e-02
  7.018199e-01    1.626102e+00   2.879894e-02
  7.040303e-01    1.601165e+00   2.852708e-02
  7.062408e-01    1.596819e+00   2.843843e-02
  7.084513e-01    1.588441e+00   2.831440e-02
  7.106617e-01    1.599078e+00   2.835967e-02
  7.128722e-01    1.568942e+00   2.804257e-02
  7.150826e-01    1.587757e+00   2.816159e-02
  7.172931e-01    1.581934e+00   2.806145e-02
  7.195035e-01    1.574695e+00   2.794902e-02
  7.217140e-01    1.609791e+00   2.830878e-02
  7.239245e-01    1.577080e+00   2.824661e-02
  7.261349e-01    1.537581e+00   2.799794e-02
  7.283454e-01    1.549895e+00   2.818167e-02
  7.305558e-01    1.579707e+00   2.850548e-02
  7.327663e-01    1.588647e+00   2.862873e-02
  7.349767e-01    1.572760e+00   2.850158e-02
  7.371872e-01    1.574394e+00   2.850521e-02
  7.393976e-01    1.600589e+00   2.872697e-02
  7.416081e-01    1.578485e+00   2.851176e-02
  7.438186e-01    1.552892e+00   2.813635e-02
  7.460290e-01    1.520989e+00   2.755663e-02
  7.482395e-01    1.536712e+00   2.752961e-02
  7.504499e-01    1.566428e+00   2.765859e-02
  7.526604e-01    1.574016e+00   2.760898e-02
  7.548708e-01    1.547038e+00   2.728272e-02
  7.570813e-01    1.561373e+00   2.735807e-02
  7.592918e-01    1.573987e+00   2.743318e-02
  7.615022e-01    1.582583e+00   2.747412e-02
  7.637127e-01    1.574999e+00   2.737542e-02
  7.659231e-01    1.581202e+00   2.739721e-02
  7.681336e-01    1.571536e+00   2.728177e-02
  7.703440e-01    1.559695e+00   2.714772e-02
  7.725545e-01    1.577925e+00   2.727500e-02
  7.747650e-01    1.607008e+00   2.748660e-02
  7.769754e-01    1.604620e+00   2.741301e-02
  7.791859e-01    1.608562e+00   2.739260e-02
  7.813963e-01    1.618032e+00   2.741988e-02
  7.836068e-01    1.585846e+00   2.709378e-02
  7.858172e-01    1.602309e+00   2.718312e-02
  7.880277e-01    1.589720e+00   2.702463e-02
  7.902381e-01    1.616298e+00   2.720008e-02
  7.924486e-01    1.639528e+00   2.734411e-02
  7.946591e-01    1.598976e+00   2.695556e-02
  7.968695e-01    1.601389e+00   2.692762e-02
  7.990800e-01    1.575661e+00   2.666271e-02
  8.012904e-01    1.604841e+00   2.686188e-02
  8.035009e-01    1.649792e+00   2.718704e-02
  8.057113e-01    1.632254e+00   2.699540e-02
  8.079218e-01    1.630102e+00   2.693102e-02
  8.101323e-01    1.621967e+00   2.681814e-02
  8.123427e-01    1.609742e+00   2.667132e-02
  8.145532e-01    1.647288e+00   2.693441e-02
  8.167636e-01    1.662841e+00   2.701577e-02
  8.189741e-01    1.625220e+00   2.666388e-02
  8.211845e-01    1.626867e+00   2.663268e-02
  8.233950e-01    1.636407e+00   2.666721e-02
  8.256054e-01    1.653787e+00   2.676403e-02
  8.278159e-01    1.657206e+00   2.674745e-02
  8.300264e-01    1.662038e+00   2.674301e-02
  8.322368e-01    1.673934e+00   2.679498e-02
  8.344473e-01    1.649219e+00   2.655292e-02
  8.366577e-01    1.631773e+00   2.636962e-02
  8.388682e-01    1.654211e+00   2.650783e-02
  8.410786e-01    1.668864e+00   2.658257e-02
  8.432891e-01    1.614649e+00   2.610567e-02
  8.454996e-01    1.658293e+00   2.641426e-02
  8.477100e-01    1.655829e+00   2.635275e-02
  8.499205e-01    1.660186e+00   2.634596e-02
  8.521309e-01    1.609022e+00   2.589639e-02
  8.543414e-01    1.621215e+00   2.595372e-02
  8.565518e-01    1.665883e+00   2.626791e-02
  8.587623e-01    1.622293e+00   2.588159e-02
  8.609727e-01    1.628225e+00   2.588867e-02
  8.631832e-01    1.635022e+00   2.590264e-02
  8.653937e-01    1.636318e+00   2.587310e-02
  8.676041e-01    1.608485e+00   2.561341e-02
  8.698146e-01    1.602269e+00   2.552478e-02
  8.720250e-01    1.600472e+00   2.547158e-02
  8.742355e-01    1.598763e+00   2.541924e-02
  8.764459e-01    1.621757e+00   2.556230e-02
  8.786564e-01    1.618347e+00   2.549737e-02
  8.808669e-01    1.595367e+00   2.527731e-02
  8.830773e-01    1.579092e+00   2.511019e-02
  8.852878e-01    1.553246e+00   2.486650e-02
  8.874982e-01    1.582025e+00   2.505938e-02
  8.897087e-01    1.605045e+00   2.520332e-02
  8.919191e-01    1.657503e+00   2.557344e-02
  8.941296e-01    1.669376e+00   2.562681e-02
  8.963401e-01    1.634582e+00   2.532151e-02
  8.985505e-01    1.658742e+00   2.547034e-02
  9.007610e-01    1.618752e+00   2.512446e-02
  9.029714e-01    1.598167e+00   2.492840e-02
  9.051819e-01    1.579678e+00   2.474678e-02
  9.073923e-01    1.582337e+00   2.473124e-02
  9.096028e-01    1.584943e+00   2.471684e-02
  9.118132e-01    1.571139e+00   2.457309e-02
  9.140237e-01    1.562408e+00   2.446851e-02
  9.162342e-01    1.626493e+00   2.493045e-02
  9.184446e-01    1.628387e+00   2.490887e-02
  9.206551e-01    1.619038e+00   2.480148e-02
  9.228655e-01    1.640066e+00   2.492632e-02
  9.250760e-01    1.669274e+00   2.511122e-02
  9.272864e-01    1.640553e+00   2.485960e-02
  9.294969e-01    1.631980e+00   2.475841e-02
  9.317074e-01    1.638718e+00   2.477442e-02
  9.339178e-01    1.645992e+00   2.479543e-02
  9.361283e-01    1.637179e+00   2.469251e-02
  9.383387e-01    1.607973e+00   2.443799e-02
  9.405492e-01    1.586441e+00   2.423992e-02
  9.427596e-01    1.625643e+00   2.450223e-02
  9.449701e-01    1.672772e+00   2.482111e-02
  9.471805e-01    1.674713e+00   2.480034e-02
  9.493910e-01    1.663919e+00   2.468636e-02
  9.516015e-01    1.706686e+00   2.496666e-02
  9.538119e-01    1.779638e+00   2.545977e-02
  9.560224e-01    1.749750e+00   2.520955e-02
  9.582328e-01    1.767421e+00   2.530251e-02
  9.604433e-01    1.807776e+00   2.555352e-02
  9.626537e-01    1.808647e+00   2.552531e-02
  9.648642e-01    1.803911e+00   2.545694e-02
  9.670747e-01    1.836823e+00   2.565271e-02
  9.692851e-01    1.829329e+00   2.556628e-02
  9.714956e-01    1.922996e+00   2.617568e-02
  9.737060e-01    1.988852e+00   2.658516e-02
  9.759165e-01    2.029063e+00   2.681471e-02
  9.781269e-01    2.014207e+00   2.668143e-02
  9.803374e-01    1.953640e+00   2.624089e-02
  9.825478e-01    1.833806e+00   2.538982e-02
  9.847583e-01    1.792370e+00   2.506723e-02
  9.869688e-01    1.793642e+00   2.504253e-02
  9.891792e-01    1.825401e+00   2.522972e-02
  9.913897e-01    1.800666e+00   2.502437e-02
  9.936001e-01    1.758499e+00   2.469728e-02
  9.958106e-01    1.698482e+00   2.423918e-02
  9.980210e-01    1.712129e+00   2.430475e-02
  1.000231e+00    1.715555e+00   2.446233e-02
  1.002442e+00    1.695546e+00   2.444849e-02
  1.004652e+00    1.700125e+00   2.454976e-02
  1.006863e+00    1.709151e+00   2.466592e-02
  1.009073e+00    1.701721e+00   2.464993e-02
  1.011284e+00    1.659265e+00   2.437305e-02
  1.013494e+00    1.606700e+00   2.400765e-02
  1.015705e+00    1.603897e+00   2.400935e-02
  1.017915e+00    1.704113e+00   2.476511e-02
  1.020126e+00    1.840093e+00   2.575159e-02
  1.022336e+00    2.109001e+00   2.758264e-02
  1.024547e+00    2.316666e+00   2.892257e-02
  1.026757e+00    2.028833e+00   2.707591e-02
  1.028967e+00    1.703844e+00   2.482079e-02
  1.031178e+00    1.604659e+00   2.409379e-02
  1.033388e+00    1.561913e+00   2.377580e-02
  1.035599e+00    1.602266e+00   2.408446e-02
  1.037809e+00    1.617121e+00   2.419923e-02
  1.040020e+00    1.640498e+00   2.437480e-02
  1.042230e+00    1.785994e+00   2.543481e-02
  1.044441e+00    2.009740e+00   2.698080e-02
  1.046651e+00    1.957999e+00   2.663151e-02
  1.048862e+00    1.801007e+00   2.554064e-02
  1.051072e+00    1.706786e+00   2.486109e-02
  1.053282e+00    1.611858e+00   2.415883e-02
  1.055493e+00    1.576029e+00   2.388439e-02
  1.057703e+00    1.542044e+00   2.362393e-02
  1.059914e+00    1.525066e+00   2.348920e-02
  1.062124e+00    1.553998e+00   2.370680e-02
  1.064335e+00    1.570923e+00   2.383205e-02
  1.066545e+00    1.508335e+00   2.334642e-02
  1.068756e+00    1.501943e+00   2.329312e-02
  1.070966e+00    1.525532e+00   2.346868e-02
  1.073177e+00    1.496434e+00   2.323769e-02
  1.075387e+00    1.460095e+00   2.294860e-02
  1.077597e+00    1.465906e+00   2.298695e-02
  1.079808e+00    1.477639e+00   2.294542e-02
  1.082018e+00    1.469197e+00   2.269032e-02
  1.084229e+00    1.429602e+00   2.227358e-02
  1.086439e+00    1.457602e+00   2.240314e-02
  1.088650e+00    1.420307e+00   2.203991e-02
  1.090860e+00    1.426076e+00   2.201764e-02
  1.093071e+00    1.430412e+00   2.198934e-02
  1.095281e+00    1.435514e+00   2.197149e-02
  1.097492e+00    1.424800e+00   2.183482e-02
  1.099702e+00    1.433703e+00   2.185164e-02
  1.101912e+00    1.439524e+00   2.184714e-02
  1.104123e+00    1.413290e+00   2.159929e-02
  1.106333e+00    1.431733e+00   2.169536e-02
  1.108544e+00    1.442525e+00   2.173253e-02
  1.110754e+00    1.410406e+00   2.144644e-02
  1.112965e+00    1.389065e+00   2.124351e-02
  1.115175e+00    1.393613e+00   2.123745e-02
  1.117386e+00    1.391324e+00   2.118109e-02
  1.119596e+00    1.413405e+00   2.131059e-02
  1.121807e+00    1.427206e+00   2.137534e-02
  1.124017e+00    1.399889e+00   2.113324e-02
  1.126228e+00    1.399176e+00   2.109216e-02
  1.128438e+00    1.404787e+00   2.109762e-02
  1.130648e+00    1.351890e+00   2.066285e-02
  1.132859e+00    1.363894e+00   2.072040e-02
  1.135069e+00    1.412655e+00   2.105257e-02
  1.137280e+00    1.383797e+00   2.080354e-02
  1.139490e+00    1.377160e+00   2.072061e-02
  1.141701e+00    1.402996e+00   2.088075e-02
  1.143911e+00    1.416636e+00   2.094974e-02
  1.146122e+00    1.442331e+00   2.110619e-02
  1.148332e+00    1.421392e+00   2.092007e-02
  1.150543e+00    1.383103e+00   2.060548e-02
  1.152753e+00    1.360760e+00   2.040770e-02
  1.154963e+00    1.353551e+00   2.032274e-02
  1.157174e+00    1.355947e+00   2.031076e-02
  1.159384e+00    1.355210e+00   2.027558e-02
  1.161595e+00    1.332986e+00   2.007920e-02
  1.163805e+00    1.350929e+00   2.018481e-02
  1.166016e+00    1.363292e+00   2.024758e-02
  1.168226e+00    1.375676e+00   2.031029e-02
  1.170437e+00    1.401784e+00   2.047309e-02
  1.172647e+00    1.419445e+00   2.057223e-02
  1.174858e+00    1.379858e+00   2.025507e-02
  1.177068e+00    1.375330e+00   2.019342e-02
  1.179278e+00    1.377511e+00   2.018068e-02
  1.181489e+00    1.376517e+00   2.014622e-02
  1.183699e+00    1.344289e+00   1.988156e-02
  1.185910e+00    1.361066e+00   1.997742e-02
  1.188120e+00    1.384159e+00   2.011924e-02
  1.190331e+00    1.381104e+00   2.007001e-02
  1.192541e+00    1.367944e+00   1.994665e-02
  1.194752e+00    1.352084e+00   1.980363e-02
  1.196962e+00    1.374412e+00   1.994052e-02
  1.199173e+00    1.356099e+00   1.978069e-02
  1.201383e+00    1.345977e+00   1.967959e-02
  1.203593e+00    1.350219e+00   1.968577e-02
  1.205804e+00    1.329433e+00   1.950794e-02
  1.208014e+00    1.317286e+00   1.939207e-02
  1.210225e+00    1.348671e+00   1.959642e-02
  1.212435e+00    1.321517e+00   1.937362e-02
  1.214646e+00    1.345195e+00   1.952032e-02
  1.216856e+00    1.344978e+00   1.949336e-02
  1.219067e+00    1.328596e+00   1.934998e-02
  1.221277e+00    1.352226e+00   1.949626e-02
  1.223488e+00    1.331784e+00   1.932276e-02
  1.225698e+00    1.364298e+00   1.953015e-02
  1.227909e+00    1.370893e+00   1.954694e-02
  1.230119e+00    1.302674e+00   1.902307e-02
  1.232329e+00    1.331738e+00   1.920359e-02
  1.234540e+00    1.322666e+00   1.910810e-02
  1.236750e+00    1.352443e+00   1.929168e-02
  1.238961e+00    1.339619e+00   1.917317e-02
  1.241171e+00    1.319118e+00   1.900195e-02
  1.243382e+00    1.346366e+00   1.917374e-02
  1.245592e+00    1.323406e+00   1.898570e-02
  1.247803e+00    1.316057e+00   1.890955e-02
  1.250013e+00    1.324107e+00   1.894397e-02
  1.252224e+00    1.346758e+00   1.908209e-02
  1.254434e+00    1.338460e+00   1.899959e-02
  1.256644e+00    1.319894e+00   1.884440e-02
  1.258855e+00    1.325158e+00   1.885889e-02
  1.261065e+00    1.351308e+00   1.902067e-02
  1.263276e+00    1.371085e+00   1.913623e-02
  1.265486e+00    1.359324e+00   1.903104e-02
  1.267697e+00    1.335731e+00   1.884226e-02
  1.269907e+00    1.337259e+00   1.883043e-02
  1.272118e+00    1.361659e+00   1.897878e-02
  1.274328e+00    1.346601e+00   1.885085e-02
  1.276539e+00    1.345491e+00   1.882033e-02
  1.278749e+00    1.341116e+00   1.876748e-02
  1.280959e+00    1.357774e+00   1.886109e-02
  1.283170e+00    1.336339e+00   1.868930e-02
  1.285380e+00    1.373769e+00   1.892658e-02
  1.287591e+00    1.343506e+00   1.869498e-02
  1.289801e+00    1.353613e+00   1.874390e-02
  1.292012e+00    1.367942e+00   1.882566e-02
  1.294222e+00    1.339036e+00   1.860951e-02
  1.296433e+00    1.360219e+00   1.874047e-02
  1.298643e+00    1.355374e+00   1.869056e-02
  1.300854e+00    1.390227e+00   1.891269e-02
  1.303064e+00    1.349406e+00   1.861376e-02
  1.305274e+00    1.334168e+00   1.848703e-02
  1.307485e+00    1.340008e+00   1.850597e-02
  1.309695e+00    1.348005e+00   1.853891e-02
  1.311906e+00    1.338730e+00   1.845338e-02
  1.314116e+00    1.364527e+00   1.860943e-02
  1.316327e+00    1.365313e+00   1.859299e-02
  1.318537e+00    1.362864e+00   1.855430e-02
  1.320748e+00    1.385009e+00   1.868263e-02
  1.322958e+00    1.378274e+00   1.861640e-02
  1.325169e+00    1.358245e+00   1.845955e-02
  1.327379e+00    1.387971e+00   1.863836e-02
  1.329589e+00    1.352924e+00   1.838044e-02
  1.331800e+00    1.352683e+00   1.835809e-02
  1.334010e+00    1.352435e+00   1.833573e-02
  1.336221e+00    1.385909e+00   1.853921e-02
  1.338431e+00    1.380115e+00   1.847933e-02
  1.340642e+00    1.377322e+00   1.852543e-02
  1.342852e+00    1.358412e+00   1.849881e-02
  1.345063e+00    1.344546e+00   1.845353e-02
  1.347273e+00    1.345440e+00   1.849485e-02
  1.349484e+00    1.367792e+00   1.867570e-02
  1.351694e+00    1.347632e+00   1.856025e-02
  1.353905e+00    1.386885e+00   1.884685e-02
  1.356115e+00    1.386479e+00   1.885934e-02
  1.358325e+00    1.367947e+00   1.874629e-02
  1.360536e+00    1.376077e+00   1.881365e-02
  1.362746e+00    1.348635e+00   1.863467e-02
  1.364957e+00    1.345250e+00   1.861894e-02
  1.367167e+00    1.326212e+00   1.849381e-02
  1.369378e+00    1.324290e+00   1.848635e-02
  1.371588e+00    1.344052e+00   1.862893e-02
  1.373799e+00    1.319346e+00   1.846056e-02
  1.376009e+00    1.299077e+00   1.832155e-02
  1.378220e+00    1.303635e+00   1.835616e-02
  1.380430e+00    1.305865e+00   1.837453e-02
  1.382640e+00    1.346746e+00   1.866084e-02
  1.384851e+00    1.321117e+00   1.848333e-02
  1.387061e+00    1.299135e+00   1.832918e-02
  1.389272e+00    1.297172e+00   1.831554e-02
  1.391482e+00    1.313718e+00   1.843129e-02
  1.393693e+00    1.328027e+00   1.853052e-02
  1.395903e+00    1.293507e+00   1.828661e-02
  1.398114e+00    1.275285e+00   1.815596e-02
  1.400324e+00    1.263051e+00   1.806656e-02
  1.402535e+00    1.255527e+00   1.801036e-02
  1.404745e+00    1.268387e+00   1.809999e-02
  1.406955e+00    1.286389e+00   1.822530e-02
  1.409166e+00    1.248461e+00   1.795133e-02
  1.411376e+00    1.258347e+00   1.801916e-02
  1.413587e+00    1.240002e+00   1.788356e-02
  1.415797e+00    1.236251e+00   1.785300e-02
  1.418008e+00    1.270533e+00   1.805696e-02
  1.420218e+00    1.264917e+00   1.786759e-02
  1.422429e+00    1.270415e+00   1.782105e-02
  1.424639e+00    1.251939e+00   1.762677e-02
  1.426850e+00    1.235330e+00   1.745549e-02
  1.429060e+00    1.246766e+00   1.748756e-02
  1.431270e+00    1.256560e+00   1.751205e-02
  1.433481e+00    1.241787e+00   1.736831e-02
  1.435691e+00    1.269728e+00   1.752418e-02
  1.437902e+00    1.269362e+00   1.748521e-02
  1.440112e+00    1.293098e+00   1.761227e-02
  1.442323e+00    1.255731e+00   1.732308e-02
  1.444533e+00    1.249442e+00   1.724735e-02
  1.446744e+00    1.263548e+00   1.731338e-02
  1.448954e+00    1.277326e+00   1.737724e-02
  1.451165e+00    1.303236e+00   1.752245e-02
  1.453375e+00    1.310264e+00   1.754117e-02
  1.455586e+00    1.290144e+00   1.737758e-02
  1.457796e+00    1.289731e+00   1.734707e-02
  1.460006e+00    1.293184e+00   1.734277e-02
  1.462217e+00    1.286780e+00   1.727339e-02
  1.464427e+00    1.264393e+00   1.709693e-02
  1.466638e+00    1.240084e+00   1.690673e-02
  1.468848e+00    1.271060e+00   1.709122e-02
  1.471059e+00    1.252814e+00   1.694320e-02
  1.473269e+00    1.269151e+00   1.702892e-02
  1.475480e+00    1.256282e+00   1.691874e-02
  1.477690e+00    1.227200e+00   1.669830e-02
  1.479901e+00    1.260077e+00   1.689672e-02
  1.482111e+00    1.253831e+00   1.683162e-02
  1.484321e+00    1.226090e+00   1.662163e-02
  1.486532e+00    1.251218e+00   1.676888e-02
  1.488742e+00    1.280025e+00   1.693803e-02
  1.490953e+00    1.278223e+00   1.690339e-02
  1.493163e+00    1.261175e+00   1.676803e-02
  1.495374e+00    1.269446e+00   1.680136e-02
  1.497584e+00    1.264324e+00   1.674578e-02
  1.499795e+00    1.268647e+00   1.675265e-02
  1.502005e+00    1.253832e+00   1.663294e-02
  1.504216e+00    1.239107e+00   1.651409e-02
  1.506426e+00    1.261499e+00   1.664180e-02
  1.508636e+00    1.268008e+00   1.666415e-02
  1.510847e+00    1.252389e+00   1.653942e-02
  1.513057e+00    1.234769e+00   1.639777e-02
  1.515268e+00    1.252802e+00   1.649139e-02
  1.517478e+00    1.255502e+00   1.648397e-02
  1.519689e+00    1.274545e+00   1.658337e-02
  1.521899e+00    1.252237e+00   1.641449e-02
  1.524110e+00    1.286908e+00   1.661956e-02
  1.526320e+00    1.290895e+00   1.662542e-02
  1.528531e+00    1.283021e+00   1.655463e-02
  1.530741e+00    1.252666e+00   1.633845e-02
  1.532951e+00    1.254986e+00   1.633394e-02
  1.535162e+00    1.243222e+00   1.634359e-02
  1.537372e+00    1.244171e+00   1.641659e-02
  1.539583e+00    1.241891e+00   1.643569e-02
  1.541793e+00    1.240075e+00   1.643059e-02
  1.544004e+00    1.249846e+00   1.649546e-02
  1.546214e+00    1.254488e+00   1.652456e-02
  1.548425e+00    1.241975e+00   1.644219e-02
  1.550635e+00    1.238479e+00   1.642869e-02
  1.552846e+00    1.236367e+00   1.642429e-02
  1.555056e+00    1.225880e+00   1.631334e-02
  1.557266e+00    1.232571e+00   1.624786e-02
  1.559477e+00    1.230764e+00   1.617716e-02
  1.561687e+00    1.256134e+00   1.631222e-02
  1.563898e+00    1.244937e+00   1.622220e-02
  1.566108e+00    1.264794e+00   1.633496e-02
  1.568319e+00    1.274135e+00   1.637938e-02
  1.570529e+00    1.280513e+00   1.639483e-02
  1.572740e+00    1.244780e+00   1.613684e-02
  1.574950e+00    1.247096e+00   1.612550e-02
  1.577161e+00    1.234096e+00   1.601587e-02
  1.579371e+00    1.255005e+00   1.612720e-02
  1.581582e+00    1.233283e+00   1.596736e-02
  1.583792e+00    1.246138e+00   1.603231e-02
  1.586002e+00    1.239681e+00   1.597317e-02
  1.588213e+00    1.222401e+00   1.584432e-02
  1.590423e+00    1.279058e+00   1.618700e-02
  1.592634e+00    1.250558e+00   1.598399e-02
  1.594844e+00    1.226890e+00   1.581074e-02
  1.597055e+00    1.237997e+00   1.586169e-02
  1.599265e+00    1.233595e+00   1.581281e-02
  1.601476e+00    1.249431e+00   1.589360e-02
  1.603686e+00    1.252277e+00   1.589184e-02
  1.605897e+00    1.236611e+00   1.577198e-02
  1.608107e+00    1.219220e+00   1.564128e-02
  1.610317e+00    1.234214e+00   1.571786e-02
  1.612528e+00    1.221535e+00   1.561787e-02
  1.614738e+00    1.217924e+00   1.557591e-02
  1.616949e+00    1.200845e+00   1.544754e-02
  1.619159e+00    1.232485e+00   1.563091e-02
  1.621370e+00    1.230603e+00   1.560045e-02
  1.623580e+00    1.198580e+00   1.537792e-02
  1.625791e+00    1.165132e+00   1.514390e-02
  1.628001e+00    1.169026e+00   1.515117e-02
  1.630212e+00    1.167698e+00   1.512500e-02
  1.632422e+00    1.166342e+00   1.509846e-02
  1.634632e+00    1.192769e+00   1.525117e-02
  1.636843e+00    1.169444e+00   1.508386e-02
  1.639053e+00    1.143077e+00   1.489577e-02
  1.641264e+00    1.145421e+00   1.489411e-02
  1.643474e+00    1.162465e+00   1.498713e-02
  1.645685e+00    1.147592e+00   1.487435e-02
  1.647895e+00    1.156893e+00   1.491790e-02
  1.650106e+00    1.158943e+00   1.491405e-02
  1.652316e+00    1.137082e+00   1.475633e-02
  1.654527e+00    1.108206e+00   1.455133e-02
  1.656737e+00    1.160068e+00   1.487118e-02
  1.658947e+00    1.149387e+00   1.478617e-02
  1.661158e+00    1.131588e+00   1.465494e-02
  1.663368e+00    1.125094e+00   1.459678e-02
  1.665579e+00    1.122754e+00   1.456543e-02
  1.667789e+00    1.121083e+00   1.453832e-02
  1.670000e+00    1.104728e+00   1.441643e-02
  1.672210e+00    1.113877e+00   1.446011e-02
  1.674421e+00    1.091014e+00   1.429571e-02
  1.676631e+00    1.091549e+00   1.428340e-02
  1.678842e+00    1.086226e+00   1.423286e-02
  1.681052e+00    1.090681e+00   1.424665e-02
  1.683263e+00    1.063592e+00   1.405367e-02
  1.685473e+00    1.050222e+00   1.395016e-02
  1.687683e+00    1.029455e+00   1.379649e-02
  1.689894e+00    1.062386e+00   1.399978e-02
  1.692104e+00    1.064503e+00   1.399891e-02
  1.694315e+00    1.055297e+00   1.392385e-02
  1.696525e+00    1.058260e+00   1.392831e-02
  1.698736e+00    1.043294e+00   1.381481e-02
  1.700946e+00    1.010558e+00   1.358157e-02
  1.703157e+00    1.033786e+00   1.372227e-02
  1.705367e+00    1.048649e+00   1.380611e-02
  1.707578e+00    1.013884e+00   1.356100e-02
  1.709788e+00    1.033746e+00   1.367914e-02
  1.711998e+00    1.031071e+00   1.364652e-02
  1.714209e+00    1.015391e+00   1.352809e-02
  1.716419e+00    9.981728e-01   1.339888e-02
  1.718630e+00    1.001484e+00   1.340701e-02
  1.720840e+00    1.031887e+00   1.359479e-02
  1.723051e+00    1.028843e+00   1.356084e-02
  1.725261e+00    1.014107e+00   1.344875e-02
  1.727472e+00    1.015723e+00   1.344530e-02
  1.729682e+00    1.026385e+00   1.350214e-02
  1.731893e+00    1.013878e+00   1.340570e-02
  1.734103e+00    1.009666e+00   1.336404e-02
  1.736313e+00    9.955977e-01   1.325669e-02
  1.738524e+00    9.878870e-01   1.319150e-02
  1.740734e+00    9.764256e-01   1.310121e-02
  1.742945e+00    9.811873e-01   1.311978e-02
  1.745155e+00    9.700468e-01   1.303177e-02
  1.747366e+00    9.807619e-01   1.308981e-02
  1.749576e+00    9.888974e-01   1.313028e-02
  1.751787e+00    9.699750e-01   1.299082e-02
  1.753997e+00    9.563856e-01   1.288626e-02
  1.756208e+00    9.644840e-01   1.292757e-02
  1.758418e+00    9.672716e-01   1.293317e-02
  1.760628e+00    9.522751e-01   1.281927e-02
  1.762839e+00    9.516629e-01   1.280204e-02
  1.765049e+00    9.494554e-01   1.277414e-02
  1.767260e+00    9.302341e-01   1.263158e-02
  1.769470e+00    9.492981e-01   1.274738e-02
  1.771681e+00    9.376453e-01   1.265589e-02
  1.773891e+00    9.347937e-01   1.262367e-02
  1.776102e+00    9.261859e-01   1.255270e-02
  1.778312e+00    9.333278e-01   1.258833e-02
  1.780523e+00    9.203540e-01   1.248798e-02
  1.782733e+00    9.206211e-01   1.247718e-02
  1.784944e+00    9.538281e-01   1.268723e-02
  1.787154e+00    9.320183e-01   1.252882e-02
  1.789364e+00    9.216838e-01   1.244674e-02
  1.791575e+00    9.138092e-01   1.238100e-02
  1.793785e+00    9.329916e-01   1.249780e-02
  1.795996e+00    9.583710e-01   1.265387e-02
  1.798206e+00    9.609100e-01   1.265783e-02
  1.800417e+00    9.680089e-01   1.269147e-02
  1.802627e+00    9.384398e-01   1.248405e-02
  1.804838e+00    9.228307e-01   1.236759e-02
  1.807048e+00    9.373335e-01   1.245135e-02
  1.809259e+00    9.268751e-01   1.236795e-02
  1.811469e+00    9.219661e-01   1.232005e-02
  1.813679e+00    9.309056e-01   1.236442e-02
  1.815890e+00    9.068503e-01   1.218881e-02
  1.818100e+00    9.020879e-01   1.214160e-02
  1.820311e+00    8.978992e-01   1.209859e-02
  1.822521e+00    8.847716e-01   1.199500e-02
  1.824732e+00    8.940699e-01   1.204302e-02
  1.826942e+00    8.982115e-01   1.205847e-02
  1.829153e+00    9.093855e-01   1.212139e-02
  1.831363e+00    9.012916e-01   1.205520e-02
  1.833574e+00    9.060217e-01   1.207492e-02
  1.835784e+00    9.037645e-01   1.204831e-02
  1.837994e+00    9.040608e-01   1.203838e-02
  1.840205e+00    9.096400e-01   1.206409e-02
  1.842415e+00    8.797592e-01   1.185248e-02
  1.844626e+00    8.615904e-01   1.171793e-02
  1.846836e+00    8.959242e-01   1.193750e-02
  1.849047e+00    9.036053e-01   1.197674e-02
  1.851257e+00    8.808160e-01   1.181506e-02
  1.853468e+00    8.994603e-01   1.193048e-02
  1.855678e+00    8.696569e-01   1.172223e-02
  1.857889e+00    8.719452e-01   1.172906e-02
  1.860099e+00    8.590303e-01   1.163325e-02
  1.862309e+00    8.482492e-01   1.155154e-02
  1.864520e+00    8.379107e-01   1.147246e-02
  1.866730e+00    8.361497e-01   1.145109e-02
  1.868941e+00    8.557220e-01   1.157338e-02
  1.871151e+00    8.544860e-01   1.155362e-02
  1.873362e+00    8.490787e-01   1.150566e-02
  1.875572e+00    8.495724e-01   1.149807e-02
  1.877783e+00    8.510315e-01   1.149649e-02
  1.879993e+00    8.295541e-01   1.133946e-02
  1.882204e+00    8.440962e-01   1.142752e-02
  1.884414e+00    8.357178e-01   1.135963e-02
  1.886624e+00    8.690293e-01   1.157259e-02
  1.888835e+00    8.706760e-01   1.157239e-02
  1.891045e+00    8.459333e-01   1.139586e-02
  1.893256e+00    8.304360e-01   1.127995e-02
  1.895466e+00    8.525057e-01   1.141759e-02
  1.897677e+00    8.164796e-01   1.116294e-02
  1.899887e+00    8.311453e-01   1.125177e-02
  1.902098e+00    8.427126e-01   1.131890e-02
  1.904308e+00    8.262928e-01   1.119753e-02
  1.906519e+00    8.099563e-01   1.107558e-02
  1.908729e+00    8.236331e-01   1.115812e-02
  1.910940e+00    8.259317e-01   1.116256e-02
  1.913150e+00    8.291324e-01   1.117356e-02
  1.915360e+00    8.222305e-01   1.111636e-02
  1.917571e+00    8.039214e-01   1.098115e-02
  1.919781e+00    8.047674e-01   1.097634e-02
  1.921992e+00    8.098518e-01   1.100040e-02
  1.924202e+00    8.130457e-01   1.101134e-02
  1.926413e+00    8.096573e-01   1.097812e-02
  1.928623e+00    7.925702e-01   1.085126e-02
  1.930834e+00    8.030266e-01   1.091223e-02
  1.933044e+00    8.175432e-01   1.099971e-02
  1.935255e+00    8.126315e-01   1.095629e-02
  1.937465e+00    7.913002e-01   1.080125e-02
  1.939675e+00    7.919510e-01   1.079493e-02
  1.941886e+00    7.935513e-01   1.079563e-02
  1.944096e+00    7.839954e-01   1.072039e-02
  1.946307e+00    7.654014e-01   1.058238e-02
  1.948517e+00    7.939933e-01   1.076780e-02
  1.950728e+00    8.012054e-01   1.080635e-02
  1.952938e+00    7.835143e-01   1.067639e-02
  1.955149e+00    7.805673e-01   1.064615e-02
  1.957359e+00    7.893438e-01   1.069582e-02
  1.959570e+00    7.881338e-01   1.067681e-02
  1.961780e+00    7.866021e-01   1.065655e-02
  1.963990e+00    7.883104e-01   1.065802e-02
  1.966201e+00    8.015866e-01   1.073726e-02
  1.968411e+00    7.901698e-01   1.065038e-02
  1.970622e+00    7.872270e-01   1.062042e-02
  1.972832e+00    7.836323e-01   1.058622e-02
  1.975043e+00    7.742236e-01   1.051250e-02
  1.977253e+00    7.900546e-01   1.060945e-02
  1.979464e+00    7.812643e-01   1.054025e-02
  1.981674e+00    7.791369e-01   1.051565e-02
  1.983885e+00    7.776146e-01   1.049538e-02
  1.986095e+00    7.680529e-01   1.042102e-02
  1.988305e+00    7.722596e-01   1.043968e-02
  1.990516e+00    7.666969e-01   1.039216e-02
  1.992726e+00    7.623990e-01   1.035342e-02
  1.994937e+00    7.724055e-01   1.041104e-02
  1.997147e+00    7.766665e-01   1.042998e-02
  1.999358e+00    7.654330e-01   1.034450e-02
  2.001568e+00    7.808239e-01   1.043711e-02
  2.003779e+00    7.689719e-01   1.034571e-02
  2.005989e+00    7.712913e-01   1.034928e-02
  2.008200e+00    7.852599e-01   1.043094e-02
  2.010410e+00    7.664395e-01   1.029346e-02
  2.012621e+00    7.568734e-01   1.021740e-02
  2.014831e+00    7.586839e-01   1.021820e-02
  2.017041e+00    7.744101e-01   1.031312e-02
  2.019252e+00    7.738926e-01   1.029968e-02
  2.021462e+00    7.579659e-01   1.018368e-02
  2.023673e+00    7.482998e-01   1.010925e-02
  2.025883e+00    7.507535e-01   1.011636e-02
  2.028094e+00    7.534902e-01   1.012519e-02
  2.030304e+00    7.710434e-01   1.023286e-02
  2.032515e+00    7.513069e-01   1.009182e-02
  2.034725e+00    7.490428e-01   1.006720e-02
  2.036936e+00    7.720950e-01   1.021152e-02
  2.039146e+00    7.659739e-01   1.016134e-02
  2.041356e+00    7.691134e-01   1.017242e-02
  2.043567e+00    7.581391e-01   1.009026e-02
  2.045777e+00    7.617683e-01   1.010510e-02
  2.047988e+00    7.652054e-01   1.011844e-02
  2.050198e+00    7.762077e-01   1.018236e-02
  2.052409e+00    7.663651e-01   1.010988e-02
  2.054619e+00    7.697758e-01   1.012488e-02
  2.056830e+00    7.761154e-01   1.015920e-02
  2.059040e+00    7.712002e-01   1.011935e-02
  2.061251e+00    7.812474e-01   1.017768e-02
  2.063461e+00    7.695366e-01   1.009340e-02
  2.065671e+00    7.649652e-01   1.005457e-02
  2.067882e+00    7.778816e-01   1.012992e-02
  2.070092e+00    7.762038e-01   1.010961e-02
  2.072303e+00    7.814400e-01   1.013431e-02
  2.074513e+00    7.802787e-01   1.011724e-02
  2.076724e+00    7.592725e-01   9.970585e-03
  2.078934e+00    7.558979e-01   9.939299e-03
  2.081145e+00    7.682689e-01   1.001108e-02
  2.083355e+00    7.468440e-01   9.861295e-03
  2.085566e+00    7.436062e-01   9.830971e-03
  2.087776e+00    7.300236e-01   9.731329e-03
  2.089986e+00    7.468387e-01   9.833919e-03
  2.092197e+00    7.389711e-01   9.773031e-03
  2.094407e+00    7.356011e-01   9.741492e-03
  2.096618e+00    7.198948e-01   9.628131e-03
  2.098828e+00    7.253997e-01   9.655618e-03
  2.101039e+00    7.276915e-01   9.661912e-03
  2.103249e+00    7.105051e-01   9.538590e-03
  2.105460e+00    7.202170e-01   9.594592e-03
  2.107670e+00    7.302710e-01   9.652598e-03
  2.109881e+00    7.171044e-01   9.556087e-03
  2.112091e+00    7.238901e-01   9.592206e-03
  2.114301e+00    7.131549e-01   9.512123e-03
  2.116512e+00    6.960421e-01   9.388665e-03
  2.118722e+00    7.030110e-01   9.426828e-03
  2.120933e+00    7.130587e-01   9.485157e-03
  2.123143e+00    7.071073e-01   9.436648e-03
  2.125354e+00    7.031968e-01   9.402083e-03
  2.127564e+00    7.003980e-01   9.374710e-03
  2.129775e+00    7.121364e-01   9.444239e-03
  2.131985e+00    7.189546e-01   9.480259e-03
  2.134196e+00    7.023404e-01   9.361565e-03
  2.136406e+00    6.980295e-01   9.324123e-03
  2.138617e+00    7.049224e-01   9.361624e-03
  2.140827e+00    6.917713e-01   9.289766e-03
  2.143037e+00    7.001181e-01   9.390871e-03
  2.145248e+00    6.915765e-01   9.355210e-03
  2.147458e+00    6.931306e-01   9.380717e-03
  2.149669e+00    6.847289e-01   9.335396e-03
  2.151879e+00    6.996695e-01   9.445885e-03
  2.154090e+00    7.097719e-01   9.521213e-03
  2.156300e+00    7.065656e-01   9.506306e-03
  2.158511e+00    7.038423e-01   9.493297e-03
  2.160721e+00    6.807767e-01   9.341209e-03
  2.162932e+00    7.018363e-01   9.488325e-03
  2.165142e+00    6.903696e-01   9.413509e-03
  2.167352e+00    6.965656e-01   9.458564e-03
  2.169563e+00    7.185881e-01   9.608919e-03
  2.171773e+00    6.893645e-01   9.413949e-03
  2.173984e+00    6.842283e-01   9.380202e-03
  2.176194e+00    6.865836e-01   9.397531e-03
  2.178405e+00    6.840339e-01   9.380764e-03
  2.180615e+00    6.862754e-01   9.396783e-03
  2.182826e+00    6.941395e-01   9.451158e-03
  2.185036e+00    6.971998e-01   9.472029e-03
  2.187247e+00    6.898749e-01   9.422084e-03
  2.189457e+00    6.833896e-01   9.377282e-03
  2.191667e+00    6.887521e-01   9.413831e-03
  2.193878e+00    6.965387e-01   9.466326e-03
  2.196088e+00    6.813756e-01   9.362048e-03
  2.198299e+00    6.799300e-01   9.351019e-03
  2.200509e+00    6.916332e-01   9.430073e-03
  2.202720e+00    6.905221e-01   9.421364e-03
  2.204930e+00    6.664017e-01   9.254112e-03
  2.207141e+00    6.744466e-01   9.308685e-03
  2.209351e+00    6.971709e-01   9.462306e-03
  2.211562e+00    6.950616e-01   9.446346e-03
  2.213772e+00    6.820555e-01   9.301862e-03
  2.215982e+00    6.778117e-01   9.228588e-03
  2.218193e+00    6.741482e-01   9.174029e-03
  2.220403e+00    6.796244e-01   9.186530e-03
  2.222614e+00    6.744894e-01   9.130826e-03
  2.224824e+00    6.615533e-01   9.023595e-03
  2.227035e+00    6.645861e-01   9.026942e-03
  2.229245e+00    6.697533e-01   9.045001e-03
  2.231456e+00    6.849973e-01   9.131599e-03
  2.233666e+00    6.667242e-01   8.993941e-03
  2.235877e+00    6.609522e-01   8.940749e-03
  2.238087e+00    6.759896e-01   9.028328e-03
  2.240298e+00    6.807703e-01   9.046327e-03
  2.242508e+00    6.740577e-01   8.986427e-03
  2.244718e+00    6.799729e-01   9.009823e-03
  2.246929e+00    6.647136e-01   8.893801e-03
  2.249139e+00    6.610757e-01   8.857079e-03
  2.251350e+00    6.559305e-01   8.810941e-03
  2.253560e+00    6.568781e-01   8.805824e-03
  2.255771e+00    6.772379e-01   8.929728e-03
  2.257981e+00    6.665679e-01   8.847938e-03
  2.260192e+00    6.690846e-01   8.853467e-03
  2.262402e+00    6.546043e-01   8.746370e-03
  2.264613e+00    6.572452e-01   8.753206e-03
  2.266823e+00    6.683688e-01   8.816521e-03
  2.269033e+00    6.662879e-01   8.792393e-03
  2.271244e+00    6.559671e-01   8.713691e-03
  2.273454e+00    6.692863e-01   8.791391e-03
  2.275665e+00    6.644439e-01   8.749198e-03
  2.277875e+00    6.725760e-01   8.792572e-03
  2.280086e+00    6.708968e-01   8.771458e-03
  2.282296e+00    6.720257e-01   8.769359e-03
  2.284507e+00    6.581045e-01   8.667901e-03
  2.286717e+00    6.802249e-01   8.802753e-03
  2.288928e+00    6.714562e-01   8.735875e-03
  2.291138e+00    6.621335e-01   8.665544e-03
  2.293348e+00    6.640005e-01   8.668141e-03
  2.295559e+00    6.687893e-01   8.689952e-03
  2.297769e+00    6.710575e-01   8.695303e-03
  2.299980e+00    6.672028e-01   8.660863e-03
  2.302190e+00    6.710495e-01   8.676543e-03
  2.304401e+00    6.616670e-01   8.606301e-03
  2.306611e+00    6.452650e-01   8.489798e-03
  2.308822e+00    6.520019e-01   8.525604e-03
  2.311032e+00    6.497152e-01   8.504196e-03
  2.313243e+00    6.584132e-01   8.554615e-03
  2.315453e+00    6.559952e-01   8.531300e-03
  2.317663e+00    6.351202e-01   8.385405e-03
  2.319874e+00    6.424922e-01   8.425228e-03
  2.322084e+00    6.442698e-01   8.427929e-03
  2.324295e+00    6.431708e-01   8.412520e-03
  2.326505e+00    6.479115e-01   8.434396e-03
  2.328716e+00    6.462914e-01   8.415269e-03
  2.330926e+00    6.495229e-01   8.427444e-03
  2.333137e+00    6.430483e-01   8.376967e-03
  2.335347e+00    6.308592e-01   8.288380e-03
  2.337558e+00    6.365780e-01   8.317662e-03
  2.339768e+00    6.352474e-01   8.300416e-03
  2.341979e+00    6.506017e-01   8.391697e-03
  2.344189e+00    6.395733e-01   8.311858e-03
  2.346399e+00    6.431329e-01   8.326408e-03
  2.348610e+00    6.566528e-01   8.404879e-03
  2.350820e+00    6.513444e-01   8.362566e-03
  2.353031e+00    6.393383e-01   8.276801e-03
  2.355241e+00    6.364347e-01   8.249922e-03
  2.357452e+00    6.180443e-01   8.121528e-03
  2.359662e+00    6.302578e-01   8.193150e-03
  2.361873e+00    6.349720e-01   8.215489e-03
  2.364083e+00    6.260880e-01   8.149838e-03
  2.366294e+00    6.280995e-01   8.154811e-03
  2.368504e+00    6.200977e-01   8.094667e-03
  2.370714e+00    6.175349e-01   8.069918e-03
  2.372925e+00    6.350401e-01   8.175374e-03
  2.375135e+00    6.210237e-01   8.076633e-03
  2.377346e+00    6.243567e-01   8.090306e-03
  2.379556e+00    6.259440e-01   8.092682e-03
  2.381767e+00    6.055568e-01   7.952039e-03
  2.383977e+00    6.046711e-01   7.938378e-03
  2.386188e+00    6.232907e-01   8.051737e-03
  2.388398e+00    6.203533e-01   8.024774e-03
  2.390609e+00    6.149882e-01   7.982301e-03
  2.392819e+00    6.086765e-01   7.933498e-03
  2.395029e+00    6.066034e-01   7.912362e-03
  2.397240e+00    6.134185e-01   7.948829e-03
  2.399450e+00    6.089792e-01   7.912239e-03
  2.401661e+00    6.104512e-01   7.914131e-03
  2.403871e+00    6.112957e-01   7.911835e-03
  2.406082e+00    5.906090e-01   7.769508e-03
  2.408292e+00    6.137224e-01   7.912233e-03
  2.410503e+00    6.106257e-01   7.884777e-03
  2.412713e+00    5.989310e-01   7.801133e-03
  2.414924e+00    6.275420e-01   7.977688e-03
  2.417134e+00    6.027117e-01   7.810651e-03
  2.419344e+00    6.149892e-01   7.882304e-03
  2.421555e+00    6.145279e-01   7.871773e-03
  2.423765e+00    6.122183e-01   7.849495e-03
  2.425976e+00    6.128646e-01   7.845737e-03
  2.428186e+00    6.054056e-01   7.790599e-03
  2.430397e+00    5.847443e-01   7.649095e-03
  2.432607e+00    5.956352e-01   7.712719e-03
  2.434818e+00    5.989131e-01   7.726352e-03
  2.437028e+00    5.833013e-01   7.617905e-03
  2.439239e+00    5.947911e-01   7.684893e-03
  2.441449e+00    5.886872e-01   7.638204e-03
  2.443659e+00    5.784495e-01   7.564216e-03
  2.445870e+00    5.746820e-01   7.551633e-03
  2.448080e+00    5.732811e-01   7.576935e-03
  2.450291e+00    5.713823e-01   7.580901e-03
  2.452501e+00    5.789764e-01   7.642291e-03
  2.454712e+00    5.669770e-01   7.571092e-03
  2.456922e+00    5.569956e-01   7.510673e-03
  2.459133e+00    5.526218e-01   7.486491e-03
  2.461343e+00    5.570084e-01   7.520457e-03
  2.463554e+00    5.693255e-01   7.606632e-03
  2.465764e+00    5.682803e-01   7.602803e-03
  2.467975e+00    5.764048e-01   7.659279e-03
  2.470185e+00    5.750993e-01   7.652880e-03
  2.472395e+00    5.584981e-01   7.542858e-03
  2.474606e+00    5.537265e-01   7.512120e-03
  2.476816e+00    5.517315e-01   7.499307e-03
  2.479027e+00    5.368309e-01   7.398192e-03
  2.481237e+00    5.380123e-01   7.406585e-03
  2.483448e+00    5.443470e-01   7.450386e-03
  2.485658e+00    5.317315e-01   7.363391e-03
  2.487869e+00    5.331295e-01   7.373113e-03
  2.490079e+00    5.282752e-01   7.338943e-03
  2.492290e+00    5.423740e-01   7.435794e-03
  2.494500e+00    5.315098e-01   7.360228e-03
  2.496710e+00    5.414250e-01   7.427860e-03
  2.498921e+00    5.541480e-01   7.513612e-03
  2.501131e+00    5.424777e-01   7.433126e-03
  2.503342e+00    5.403806e-01   7.417472e-03
  2.505552e+00    5.390612e-01   7.407258e-03
  2.507763e+00    5.292109e-01   7.337883e-03
  2.509973e+00    5.204435e-01   7.275441e-03
  2.512184e+00    5.244921e-01   7.302075e-03
  2.514394e+00    5.126728e-01   7.210108e-03
  2.516605e+00    5.298833e-01   7.282900e-03
  2.518815e+00    5.290992e-01   7.249110e-03
  2.521025e+00    5.321516e-01   7.248900e-03
  2.523236e+00    5.241759e-01   7.176407e-03
  2.525446e+00    5.318971e-01   7.213377e-03
  2.527657e+00    5.175579e-01   7.100983e-03
  2.529867e+00    5.272880e-01   7.153207e-03
  2.532078e+00    5.249696e-01   7.122427e-03
  2.534288e+00    5.282701e-01   7.130848e-03
  2.536499e+00    5.356401e-01   7.168355e-03
  2.538709e+00    5.388873e-01   7.178917e-03
  2.540920e+00    5.151314e-01   7.008342e-03
  2.543130e+00    5.227709e-01   7.049763e-03
  2.545340e+00    5.049824e-01   6.918902e-03
  2.547551e+00    5.195559e-01   7.008109e-03
  2.549761e+00    5.156878e-01   6.972453e-03
  2.551972e+00    5.245025e-01   7.022415e-03
  2.554182e+00    5.252605e-01   7.018289e-03
  2.556393e+00    5.213356e-01   6.982909e-03
  2.558603e+00    5.105661e-01   6.901425e-03
  2.560814e+00    5.115094e-01   6.899169e-03
  2.563024e+00    5.086254e-01   6.871193e-03
  2.565235e+00    5.120408e-01   6.884773e-03
  2.567445e+00    5.252372e-01   6.963328e-03
  2.569656e+00    5.069444e-01   6.831364e-03
  2.571866e+00    5.163651e-01   6.885180e-03
  2.574076e+00    5.100734e-01   6.833914e-03
  2.576287e+00    5.078498e-01   6.810735e-03
  2.578497e+00    5.139959e-01   6.843998e-03
  2.580708e+00    5.165448e-01   6.852855e-03
  2.582918e+00    5.086961e-01   6.792872e-03
  2.585129e+00    5.111099e-01   6.801252e-03
  2.587339e+00    5.037979e-01   6.744823e-03
  2.589550e+00    5.031059e-01   6.732698e-03
  2.591760e+00    5.209064e-01   6.842963e-03
  2.593971e+00    5.191801e-01   6.824056e-03
  2.596181e+00    5.176979e-01   6.808034e-03
  2.598391e+00    4.930202e-01   6.638704e-03
  2.600602e+00    5.047893e-01   6.711575e-03
  2.602812e+00    5.061142e-01   6.712863e-03
  2.605023e+00    5.101082e-01   6.732122e-03
  2.607233e+00    5.118552e-01   6.736485e-03
  2.609444e+00    5.007344e-01   6.655713e-03
  2.611654e+00    5.052992e-01   6.678669e-03
  2.613865e+00    5.062959e-01   6.678217e-03
  2.616075e+00    5.198919e-01   6.760051e-03
  2.618286e+00    5.249759e-01   6.785909e-03
  2.620496e+00    5.115576e-01   6.691881e-03
  2.622706e+00    5.058536e-01   6.648712e-03
  2.624917e+00    5.072195e-01   6.651831e-03
  2.627127e+00    4.889009e-01   6.524943e-03
  2.629338e+00    5.093082e-01   6.653721e-03
  2.631548e+00    5.087762e-01   6.644039e-03
  2.633759e+00    5.139168e-01   6.670297e-03
  2.635969e+00    5.075626e-01   6.622213e-03
  2.638180e+00    5.027602e-01   6.583806e-03
  2.640390e+00    5.061827e-01   6.599542e-03
  2.642601e+00    4.962364e-01   6.527761e-03
  2.644811e+00    4.928159e-01   6.498188e-03
  2.647021e+00    5.015542e-01   6.548977e-03
  2.649232e+00    4.958307e-01   6.504809e-03
  2.651442e+00    5.039499e-01   6.551300e-03
  2.653653e+00    5.108904e-01   6.589411e-03
  2.655863e+00    5.021004e-01   6.525758e-03
  2.658074e+00    5.045343e-01   6.534909e-03
  2.660284e+00    5.044200e-01   6.527760e-03
  2.662495e+00    4.944672e-01   6.456311e-03
  2.664705e+00    4.958329e-01   6.458654e-03
  2.666916e+00    4.929724e-01   6.433552e-03
  2.669126e+00    4.989643e-01   6.466059e-03
  2.671337e+00    4.994623e-01   6.462693e-03
  2.673547e+00    4.957500e-01   6.432227e-03
  2.675757e+00    4.997193e-01   6.451452e-03
  2.677968e+00    5.026699e-01   6.463895e-03
  2.680178e+00    5.004015e-01   6.442845e-03
  2.682389e+00    4.959983e-01   6.408023e-03
  2.684599e+00    4.961691e-01   6.402924e-03
  2.686810e+00    4.932089e-01   6.377187e-03
  2.689020e+00    4.781842e-01   6.273083e-03
  2.691231e+00    4.950475e-01   6.376423e-03
  2.693441e+00    4.971505e-01   6.383769e-03
  2.695652e+00    4.908816e-01   6.336880e-03
  2.697862e+00    4.869138e-01   6.304882e-03
  2.700072e+00    4.928520e-01   6.337117e-03
  2.702283e+00    4.935643e-01   6.335451e-03
  2.704493e+00    4.842065e-01   6.268848e-03
  2.706704e+00    4.864076e-01   6.276684e-03
  2.708914e+00    4.906090e-01   6.297756e-03
  2.711125e+00    4.700534e-01   6.158286e-03
  2.713335e+00    4.899952e-01   6.281445e-03
  2.715546e+00    4.787792e-01   6.202737e-03
  2.717756e+00    4.831588e-01   6.225165e-03
  2.719967e+00    4.956582e-01   6.298902e-03
  2.722177e+00    5.004905e-01   6.323322e-03
  2.724387e+00    4.807355e-01   6.191213e-03
  2.726598e+00    4.664443e-01   6.092531e-03
  2.728808e+00    4.780460e-01   6.161738e-03
  2.731019e+00    4.763587e-01   6.144778e-03
  2.733229e+00    4.805008e-01   6.165655e-03
  2.735440e+00    4.837688e-01   6.180324e-03
  2.737650e+00    4.769661e-01   6.130732e-03
  2.739861e+00    4.869990e-01   6.188792e-03
  2.742071e+00    4.836305e-01   6.161595e-03
  2.744282e+00    4.926403e-01   6.212424e-03
  2.746492e+00    4.765150e-01   6.103908e-03
  2.748702e+00    4.814042e-01   6.129228e-03
  2.750913e+00    4.829693e-01   6.133391e-03
  2.753123e+00    4.877208e-01   6.157335e-03
  2.755334e+00    4.816775e-01   6.112977e-03
  2.757544e+00    4.809810e-01   6.102825e-03
  2.759755e+00    4.859725e-01   6.128487e-03
  2.761965e+00    4.781603e-01   6.073072e-03
  2.764176e+00    4.696604e-01   6.012916e-03
  2.766386e+00    4.765354e-01   6.050991e-03
  2.768597e+00    4.889453e-01   6.123357e-03
  2.770807e+00    4.847198e-01   6.090940e-03
  2.773017e+00    4.837816e-01   6.079031e-03
  2.775228e+00    4.821555e-01   6.063015e-03
  2.777438e+00    4.658850e-01   5.954110e-03
  2.779649e+00    4.757512e-01   6.010923e-03
  2.781859e+00    4.772979e-01   6.014951e-03
  2.784070e+00    4.760076e-01   6.000941e-03
  2.786280e+00    4.863501e-01   6.059969e-03
  2.788491e+00    4.853484e-01   6.047839e-03
  2.790701e+00    4.728076e-01   5.963577e-03
  2.792912e+00    4.730761e-01   5.959308e-03
  2.795122e+00    4.914516e-01   6.068130e-03
  2.797333e+00    4.826226e-01   6.007783e-03
  2.799543e+00    4.662328e-01   5.899074e-03
  2.801753e+00    4.801415e-01   5.980535e-03
  2.803964e+00    4.720595e-01   5.924353e-03
  2.806174e+00    4.654411e-01   5.876584e-03
  2.808385e+00    4.674098e-01   5.882258e-03
  2.810595e+00    4.792744e-01   5.949540e-03
  2.812806e+00    4.792899e-01   5.943001e-03
  2.815016e+00    4.745132e-01   5.908577e-03
  2.817227e+00    4.737939e-01   5.929996e-03
  2.819437e+00    4.826232e-01   5.996194e-03
  2.821648e+00    4.715472e-01   5.929275e-03
  2.823858e+00    4.827657e-01   6.004770e-03
  2.826068e+00    4.740313e-01   5.955199e-03
  2.828279e+00    4.753384e-01   5.967454e-03
  2.830489e+00    4.634179e-01   5.895465e-03
  2.832700e+00    4.518241e-01   5.823735e-03
  2.834910e+00    4.745661e-01   5.970581e-03
  2.837121e+00    4.771227e-01   5.988359e-03
  2.839331e+00    4.893254e-01   6.065711e-03
  2.841542e+00    4.746287e-01   5.974954e-03
  2.843752e+00    4.637877e-01   5.907102e-03
  2.845963e+00    4.688770e-01   5.939797e-03
  2.848173e+00    4.747749e-01   5.977145e-03
  2.850383e+00    4.724858e-01   5.963008e-03
  2.852594e+00    4.677711e-01   5.933119e-03
  2.854804e+00    4.631162e-01   5.902993e-03
  2.857015e+00    4.777654e-01   5.995206e-03
  2.859225e+00    4.734495e-01   5.967815e-03
  2.861436e+00    4.604321e-01   5.884557e-03
  2.863646e+00    4.560710e-01   5.856648e-03
  2.865857e+00    4.651843e-01   5.915218e-03
  2.868067e+00    4.577841e-01   5.868193e-03
  2.870278e+00    4.599614e-01   5.881803e-03
  2.872488e+00    4.655261e-01   5.916080e-03
  2.874698e+00    4.652093e-01   5.913032e-03
  2.876909e+00    4.621227e-01   5.892078e-03
  2.879119e+00    4.467177e-01   5.791423e-03
  2.881330e+00    4.604468e-01   5.878272e-03
  2.883540e+00    4.625593e-01   5.890359e-03
  2.885751e+00    4.599251e-01   5.871936e-03
  2.887961e+00    4.570949e-01   5.851950e-03
  2.890172e+00    4.592156e-01   5.863920e-03
  2.892382e+00    4.609970e-01   5.873466e-03
  2.894593e+00    4.697916e-01   5.927393e-03
  2.896803e+00    4.731923e-01   5.946818e-03
  2.899014e+00    4.712607e-01   5.932710e-03
  2.901224e+00    4.685584e-01   5.913705e-03
  2.903434e+00    4.424240e-01   5.744480e-03
  2.905645e+00    4.585376e-01   5.845941e-03
  2.907855e+00    4.477701e-01   5.774818e-03
  2.910066e+00    4.540052e-01   5.812823e-03
  2.912276e+00    4.608497e-01   5.854337e-03
  2.914487e+00    4.643876e-01   5.874316e-03
  2.916697e+00    4.577289e-01   5.829815e-03
  2.918908e+00    4.559000e-01   5.816154e-03
  2.921118e+00    4.786881e-01   5.956994e-03
  2.923329e+00    4.523382e-01   5.788425e-03
  2.925539e+00    4.469381e-01   5.751508e-03
  2.927749e+00    4.527648e-01   5.786573e-03
  2.929960e+00    4.620503e-01   5.842816e-03
  2.932170e+00    4.516241e-01   5.774213e-03
  2.934381e+00    4.740312e-01   5.913205e-03
  2.936591e+00    4.821397e-01   5.960945e-03
  2.938802e+00    4.481592e-01   5.744375e-03
  2.941012e+00    4.602938e-01   5.819240e-03
  2.943223e+00    4.692909e-01   5.873128e-03
  2.945433e+00    4.598146e-01   5.809765e-03
  2.947644e+00    4.618865e-01   5.818681e-03
  2.949854e+00    4.508703e-01   5.744629e-03
  2.952064e+00    4.558180e-01   5.771826e-03
  2.954275e+00    4.563462e-01   5.770763e-03
  2.956485e+00    4.547625e-01   5.756537e-03
  2.958696e+00    4.591126e-01   5.779622e-03
  2.960906e+00    4.542370e-01   5.744678e-03
  2.963117e+00    4.513766e-01   5.722091e-03
  2.965327e+00    4.433891e-01   5.667379e-03
  2.967538e+00    4.540957e-01   5.732478e-03
  2.969748e+00    4.523988e-01   5.718951e-03
  2.971959e+00    4.672161e-01   5.808680e-03
  2.974169e+00    4.407133e-01   5.638981e-03
  2.976379e+00    4.459286e-01   5.669342e-03
  2.978590e+00    4.613792e-01   5.763569e-03
  2.980800e+00    4.603755e-01   5.754484e-03
  2.983011e+00    4.588401e-01   5.742062e-03
  2.985221e+00    4.551590e-01   5.715844e-03
  2.987432e+00    4.391578e-01   5.611403e-03
  2.989642e+00    4.469835e-01   5.658557e-03
  2.991853e+00    4.562018e-01   5.713341e-03
  2.994063e+00    4.542864e-01   5.698410e-03
  2.996274e+00    4.592946e-01   5.726553e-03
  2.998484e+00    4.459669e-01   5.640170e-03
  3.000694e+00    4.525079e-01   5.677925e-03
  3.002905e+00    4.655383e-01   5.756116e-03
  3.005115e+00    4.541661e-01   5.682417e-03
  3.007326e+00    4.593896e-01   5.711801e-03
  3.009536e+00    4.647700e-01   5.741868e-03
  3.011747e+00    4.553147e-01   5.680250e-03
  3.013957e+00    4.571033e-01   5.688175e-03
  3.016168e+00    4.617958e-01   5.714039e-03
  3.018378e+00    4.462557e-01   5.614040e-03
  3.020589e+00    4.562868e-01   5.673550e-03
  3.022799e+00    4.515125e-01   5.640646e-03
  3.025010e+00    4.620022e-01   5.702505e-03
  3.027220e+00    4.608802e-01   5.692458e-03
  3.029430e+00    4.468146e-01   5.601686e-03
  3.031641e+00    4.475256e-01   5.603018e-03
  3.033851e+00    4.391114e-01   5.546620e-03
  3.036062e+00    4.548663e-01   5.642470e-03
  3.038272e+00    4.584811e-01   5.661230e-03
  3.040483e+00    4.460966e-01   5.581047e-03
  3.042693e+00    4.590899e-01   5.658448e-03
  3.044904e+00    4.707861e-01   5.725967e-03
  3.047114e+00    4.478709e-01   5.580096e-03
  3.049325e+00    4.531195e-01   5.608276e-03
  3.051535e+00    4.565406e-01   5.624993e-03
  3.053745e+00    4.501410e-01   5.580681e-03
  3.055956e+00    4.538628e-01   5.599116e-03
  3.058166e+00    4.572654e-01   5.615774e-03
  3.060377e+00    4.330091e-01   5.460120e-03
  3.062587e+00    4.438720e-01   5.523571e-03
  3.064798e+00    4.542427e-01   5.583468e-03
  3.067008e+00    4.452882e-01   5.523446e-03
  3.069219e+00    4.510913e-01   5.554800e-03
  3.071429e+00    4.529903e-01   5.562964e-03
  3.073640e+00    4.445022e-01   5.507290e-03
  3.075850e+00    4.412387e-01   5.483467e-03
  3.078060e+00    4.528309e-01   5.551921e-03
  3.080271e+00    4.497543e-01   5.529557e-03
  3.082481e+00    4.420789e-01   5.478745e-03
  3.084692e+00    4.390971e-01   5.456887e-03
  3.086902e+00    4.339436e-01   5.421591e-03
  3.089113e+00    4.475320e-01   5.502238e-03
  3.091323e+00    4.471448e-01   5.496495e-03
  3.093534e+00    4.467667e-01   5.490800e-03
  3.095744e+00    4.483615e-01   5.497221e-03
  3.097955e+00    4.416574e-01   5.452431e-03
  3.100165e+00    4.503205e-01   5.502300e-03
  3.102375e+00    4.576750e-01   5.543600e-03
  3.104586e+00    4.514400e-01   5.502192e-03
  3.106796e+00    4.487132e-01   5.482028e-03
  3.109007e+00    4.481288e-01   5.475229e-03
  3.111217e+00    4.518541e-01   5.494216e-03
  3.113428e+00    4.451938e-01   5.450175e-03
  3.115638e+00    4.443825e-01   5.441961e-03
  3.117849e+00    4.470001e-01   5.454247e-03
  3.120059e+00    4.447600e-01   5.437099e-03
  3.122270e+00    4.427181e-01   5.421348e-03
  3.124480e+00    4.683554e-01   5.572319e-03
  3.126691e+00    4.628511e-01   5.535868e-03
  3.128901e+00    4.640988e-01   5.540122e-03
  3.131111e+00    4.542104e-01   5.476911e-03
  3.133322e+00    4.501547e-01   5.448930e-03
  3.135532e+00    4.413857e-01   5.392201e-03
  3.137743e+00    4.457675e-01   5.415418e-03
  3.139953e+00    4.408330e-01   5.381681e-03
  3.142164e+00    4.392508e-01   5.383995e-03
  3.144374e+00    4.340765e-01   5.380314e-03
  3.146585e+00    4.378232e-01   5.417974e-03
  3.148795e+00    4.473292e-01   5.487310e-03
  3.151006e+00    4.393746e-01   5.446832e-03
  3.153216e+00    4.442123e-01   5.483892e-03
  3.155426e+00    4.283342e-01   5.391205e-03
  3.157637e+00    4.417649e-01   5.480603e-03
  3.159847e+00    4.383605e-01   5.464304e-03
  3.162058e+00    4.398106e-01   5.477784e-03
  3.164268e+00    4.243564e-01   5.384660e-03
  3.166479e+00    4.306825e-01   5.428261e-03
  3.168689e+00    4.336705e-01   5.450395e-03
  3.170900e+00    4.303333e-01   5.432541e-03
  3.173110e+00    4.321892e-01   5.447077e-03
  3.175321e+00    4.373177e-01   5.481805e-03
  3.177531e+00    4.324395e-01   5.453858e-03
  3.179741e+00    4.327688e-01   5.457995e-03
  3.181952e+00    4.316588e-01   5.453089e-03
  3.184162e+00    4.433420e-01   5.528600e-03
  3.186373e+00    4.316935e-01   5.457078e-03
  3.188583e+00    4.340393e-01   5.473646e-03
  3.190794e+00    4.356188e-01   5.485380e-03
  3.193004e+00    4.389179e-01   5.507329e-03
  3.195215e+00    4.372983e-01   5.498694e-03
  3.197425e+00    4.332780e-01   5.474538e-03
  3.199636e+00    4.256385e-01   5.425324e-03
  3.201846e+00    4.319244e-01   5.464617e-03
  3.204056e+00    4.293234e-01   5.449039e-03
  3.206267e+00    4.321178e-01   5.467575e-03
  3.208477e+00    4.388073e-01   5.510661e-03
  3.210688e+00    4.287415e-01   5.447949e-03
  3.212898e+00    4.148353e-01   5.359417e-03
  3.215109e+00    4.280894e-01   5.445111e-03
  3.217319e+00    4.371129e-01   5.502841e-03
  3.219530e+00    4.333817e-01   5.479701e-03
  3.221740e+00    4.303745e-01   5.461211e-03
  3.223951e+00    4.272088e-01   5.441565e-03
  3.226161e+00    4.271428e-01   5.441331e-03
  3.228372e+00    4.312250e-01   5.467795e-03
  3.230582e+00    4.279400e-01   5.447062e-03
  3.232792e+00    4.433227e-01   5.544345e-03
  3.235003e+00    4.260066e-01   5.435223e-03
  3.237213e+00    4.320826e-01   5.473944e-03
  3.239424e+00    4.309770e-01   5.466931e-03
  3.241634e+00    4.396375e-01   5.521717e-03
  3.243845e+00    4.326875e-01   5.477983e-03
  3.246055e+00    4.324325e-01   5.476072e-03
  3.248266e+00    4.267456e-01   5.440168e-03
  3.250476e+00    4.460845e-01   5.561728e-03
  3.252687e+00    4.305435e-01   5.463946e-03
  3.254897e+00    4.211864e-01   5.404117e-03
  3.257107e+00    4.247404e-01   5.426531e-03
  3.259318e+00    4.380669e-01   5.510788e-03
  3.261528e+00    4.407572e-01   5.527527e-03
  3.263739e+00    4.383556e-01   5.511904e-03
  3.265949e+00    4.245870e-01   5.424526e-03
  3.268160e+00    4.186178e-01   5.385833e-03
  3.270370e+00    4.278554e-01   5.444415e-03
  3.272581e+00    4.246872e-01   5.423965e-03
  3.274791e+00    4.147800e-01   5.359784e-03
  3.277002e+00    4.204490e-01   5.395748e-03
  3.279212e+00    4.201282e-01   5.393295e-03
  3.281422e+00    4.223772e-01   5.407132e-03
  3.283633e+00    4.331486e-01   5.474957e-03
  3.285843e+00    4.433950e-01   5.538997e-03
  3.288054e+00    4.392410e-01   5.512051e-03
  3.290264e+00    4.201908e-01   5.390859e-03
  3.292475e+00    4.400466e-01   5.515916e-03
  3.294685e+00    4.285460e-01   5.442740e-03
  3.296896e+00    4.245685e-01   5.416639e-03
  3.299106e+00    4.422663e-01   5.527825e-03
  3.301317e+00    4.356668e-01   5.485385e-03
  3.303527e+00    4.259542e-01   5.423437e-03
  3.305737e+00    4.207418e-01   5.389106e-03
  3.307948e+00    4.217258e-01   5.394718e-03
  3.310158e+00    4.245846e-01   5.412128e-03
  3.312369e+00    4.389790e-01   5.502208e-03
  3.314579e+00    4.472174e-01   5.552666e-03
  3.316790e+00    4.307355e-01   5.448679e-03
  3.319000e+00    4.181185e-01   5.367102e-03
  3.321211e+00    4.216270e-01   5.388955e-03
  3.323421e+00    4.208140e-01   5.382564e-03
  3.325632e+00    4.170482e-01   5.357530e-03
  3.327842e+00    4.315954e-01   5.449263e-03
  3.330052e+00    4.218015e-01   5.386013e-03
  3.332263e+00    4.120416e-01   5.322316e-03
  3.334473e+00    4.245594e-01   5.401651e-03
  3.336684e+00    4.190909e-01   5.365477e-03
  3.338894e+00    4.250537e-01   5.402674e-03
  3.341105e+00    4.107088e-01   5.309544e-03
  3.343315e+00    4.139363e-01   5.329222e-03
  3.345526e+00    4.193140e-01   5.362828e-03
  3.347736e+00    4.225862e-01   5.382294e-03
  3.349947e+00    4.279224e-01   5.415246e-03
  3.352157e+00    4.199887e-01   5.363627e-03
  3.354368e+00    4.263978e-01   5.403079e-03
  3.356578e+00    4.229197e-01   5.380007e-03
  3.358788e+00    4.190205e-01   5.353787e-03
  3.360999e+00    4.277118e-01   5.407773e-03
  3.363209e+00    4.201297e-01   5.358640e-03
  3.365420e+00    4.041576e-01   5.254276e-03
  3.367630e+00    4.133918e-01   5.312955e-03
  3.369841e+00    4.063484e-01   5.266097e-03
  3.372051e+00    4.211678e-01   5.359260e-03
  3.374262e+00    4.055451e-01   5.256532e-03
  3.376472e+00    4.092890e-01   5.278299e-03
  3.378683e+00    4.120643e-01   5.293689e-03
  3.380893e+00    4.092899e-01   5.273507e-03
  3.383103e+00    4.203305e-01   5.341416e-03
  3.385314e+00    4.236318e-01   5.360148e-03
  3.387524e+00    4.059761e-01   5.244552e-03
  3.389735e+00    4.141923e-01   5.294703e-03
  3.391945e+00    4.124819e-01   5.280088e-03
  3.394156e+00    4.146065e-01   5.289456e-03
  3.396366e+00    4.084499e-01   5.246629e-03
  3.398577e+00    4.107684e-01   5.258469e-03
  3.400787e+00    4.176102e-01   5.314085e-03
  3.402998e+00    4.036340e-01   5.262159e-03
  3.405208e+00    4.050949e-01   5.292345e-03
  3.407418e+00    3.983357e-01   5.263716e-03
  3.409629e+00    4.102639e-01   5.356084e-03
  3.411839e+00    3.985940e-01   5.291118e-03
  3.414050e+00    3.935595e-01   5.268558e-03
  3.416260e+00    3.883614e-01   5.243193e-03
  3.418471e+00    3.869992e-01   5.243327e-03
  3.420681e+00    3.772128e-01   5.184952e-03
  3.422892e+00    3.846556e-01   5.243783e-03
  3.425102e+00    3.757233e-01   5.190214e-03
  3.427313e+00    3.729630e-01   5.178147e-03
  3.429523e+00    3.951907e-01   5.337356e-03
  3.431733e+00    3.726310e-01   5.189345e-03
  3.433944e+00    3.815344e-01   5.257409e-03
  3.436154e+00    3.921250e-01   5.336198e-03
  3.438365e+00    3.925482e-01   5.345086e-03
  3.440575e+00    3.876233e-01   5.317450e-03
  3.442786e+00    3.742584e-01   5.230549e-03
  3.444996e+00    3.786460e-01   5.266603e-03
  3.447207e+00    3.736331e-01   5.236947e-03
  3.449417e+00    3.626260e-01   5.199514e-03
  3.451628e+00    3.627663e-01   5.229742e-03
  3.453838e+00    3.640399e-01   5.259963e-03
  3.456049e+00    3.691915e-01   5.321026e-03
  3.458259e+00    3.645422e-01   5.309280e-03
  3.460469e+00    3.695337e-01   5.365375e-03
  3.462680e+00    3.721595e-01   5.403643e-03
  3.464890e+00    3.566858e-01   5.307658e-03
  3.467101e+00    3.767345e-01   5.472443e-03
  3.469311e+00    4.006392e-01   5.660620e-03
  3.471522e+00    3.915960e-01   5.613153e-03
  3.473732e+00    4.116246e-01   5.771506e-03
  3.475943e+00    4.075427e-01   5.759067e-03
  3.478153e+00    3.967096e-01   5.697576e-03
  3.480364e+00    4.214511e-01   5.888262e-03
  3.482574e+00    4.207893e-01   5.899299e-03
  3.484784e+00    4.116633e-01   5.849873e-03
  3.486995e+00    4.327459e-01   6.013171e-03
  3.489205e+00    4.284504e-01   5.998030e-03
  3.491416e+00    4.517812e-01   6.174510e-03
  3.493626e+00    4.365499e-01   6.084156e-03
  3.495837e+00    4.545818e-01   6.223526e-03
  3.498047e+00    4.500727e-01   6.207165e-03
  3.500258e+00    4.596026e-01   6.287226e-03
  3.502468e+00    4.616786e-01   6.315961e-03
  3.504679e+00    4.770854e-01   6.435216e-03
  3.506889e+00    4.745671e-01   6.432815e-03
  3.509099e+00    4.709676e-01   6.422694e-03
  3.511310e+00    4.792750e-01   6.493607e-03
  3.513520e+00    4.830872e-01   6.533832e-03
  3.515731e+00    4.840584e-01   6.554733e-03
  3.517941e+00    4.991956e-01   6.670905e-03
  3.520152e+00    5.071245e-01   6.738217e-03
  3.522362e+00    5.054805e-01   6.741785e-03
  3.524573e+00    5.222943e-01   6.867526e-03
  3.526783e+00    5.302233e-01   6.933078e-03
  3.528994e+00    5.212741e-01   6.886584e-03
  3.531204e+00    5.313548e-01   6.965466e-03
  3.533414e+00    5.335803e-01   6.992189e-03
  3.535625e+00    5.204648e-01   6.918008e-03
  3.537835e+00    5.357524e-01   7.030994e-03
  3.540046e+00    5.480702e-01   7.120428e-03
  3.542256e+00    5.446579e-01   7.105834e-03
  3.544467e+00    5.403480e-01   7.085287e-03
  3.546677e+00    5.414508e-01   7.100150e-03
  3.548888e+00    5.393643e-01   7.093980e-03
  3.551098e+00    5.258059e-01   7.011442e-03
  3.553309e+00    5.464059e-01   7.155733e-03
  3.555519e+00    5.341163e-01   7.086075e-03
  3.557729e+00    5.354644e-01   7.106736e-03
  3.559940e+00    5.341119e-01   7.109273e-03
  3.562150e+00    5.350454e-01   7.127188e-03
  3.564361e+00    5.312089e-01   7.114848e-03
  3.566571e+00    5.405962e-01   7.191309e-03
  3.568782e+00    5.495849e-01   7.265175e-03
  3.570992e+00    5.278237e-01   7.133522e-03
  3.573203e+00    5.499740e-01   7.295992e-03
  3.575413e+00    5.326190e-01   7.193691e-03
  3.577624e+00    5.468920e-01   7.303702e-03
  3.579834e+00    5.325469e-01   7.221119e-03
  3.582045e+00    5.270304e-01   7.197529e-03
  3.584255e+00    5.237949e-01   7.189295e-03
  3.586465e+00    5.401277e-01   7.314523e-03
  3.588676e+00    5.356998e-01   7.298642e-03
  3.590886e+00    5.293867e-01   7.269159e-03
  3.593097e+00    5.195526e-01   7.215586e-03
  3.595307e+00    5.313473e-01   7.310903e-03
  3.597518e+00    5.218015e-01   7.258988e-03
  3.599728e+00    5.299826e-01   7.329642e-03
  3.601939e+00    5.388453e-01   7.404812e-03
  3.604149e+00    5.348057e-01   7.391391e-03
  3.606360e+00    5.499101e-01   7.509418e-03
  3.608570e+00    5.470753e-01   7.504276e-03
  3.610780e+00    5.538598e-01   7.561997e-03
  3.612991e+00    5.422661e-01   7.492462e-03
  3.615201e+00    5.555146e-01   7.593434e-03
  3.617412e+00    5.376983e-01   7.477999e-03
  3.619622e+00    5.329079e-01   7.450536e-03
  3.621833e+00    5.247706e-01   7.400082e-03
  3.624043e+00    5.362281e-01   7.489940e-03
  3.626254e+00    5.433083e-01   7.549015e-03
  3.628464e+00    5.478870e-01   7.591891e-03
  3.630675e+00    5.307893e-01   7.486572e-03
  3.632885e+00    5.198358e-01   7.423168e-03
  3.635095e+00    5.418459e-01   7.593186e-03
  3.637306e+00    5.327793e-01   7.543765e-03
  3.639516e+00    5.559589e-01   7.720924e-03
  3.641727e+00    5.418414e-01   7.636993e-03
  3.643937e+00    5.329984e-01   7.588971e-03
  3.646148e+00    5.070136e-01   7.415881e-03
  3.648358e+00    5.233945e-01   7.549449e-03
  3.650569e+00    5.304713e-01   7.615040e-03
  3.652779e+00    5.418557e-01   7.711187e-03
  3.654990e+00    5.504236e-01   7.787076e-03
  3.657200e+00    5.438587e-01   7.755520e-03
  3.659410e+00    5.643126e-01   7.915467e-03
  3.661621e+00    5.389634e-01   7.750843e-03
  3.663831e+00    5.135700e-01   7.580915e-03
  3.666042e+00    5.360439e-01   7.760199e-03
  3.668252e+00    5.310916e-01   7.739520e-03
  3.670463e+00    5.407728e-01   7.825111e-03
  3.672673e+00    5.423959e-01   7.852431e-03
  3.674884e+00    5.411817e-01   7.859196e-03
  3.677094e+00    5.526966e-01   7.958198e-03
  3.679305e+00    5.621663e-01   8.042082e-03
  3.681515e+00    5.523215e-01   7.987369e-03
  3.683726e+00    5.221781e-01   7.781975e-03
  3.685936e+00    5.407851e-01   7.935300e-03
  3.688146e+00    5.175741e-01   7.778766e-03
  3.690357e+00    5.366080e-01   7.936566e-03
  3.692567e+00    5.417979e-01   7.991227e-03
  3.694778e+00    5.192916e-01   7.839432e-03
  3.696988e+00    5.273117e-01   7.915706e-03
  3.699199e+00    5.276324e-01   7.934404e-03
  3.701409e+00    5.361676e-01   8.014868e-03
  3.703620e+00    5.370451e-01   8.037935e-03
  3.705830e+00    5.247270e-01   7.961612e-03
  3.708041e+00    5.191298e-01   7.935548e-03
  3.710251e+00    5.123634e-01   7.900229e-03
  3.712461e+00    5.116054e-01   7.910864e-03
  3.714672e+00    5.486941e-01   8.209816e-03
  3.716882e+00    5.170289e-01   7.986059e-03
  3.719093e+00    5.031527e-01   7.894997e-03
  3.721303e+00    5.184495e-01   8.031044e-03
  3.723514e+00    4.968518e-01   7.878880e-03
  3.725724e+00    4.993572e-01   7.915564e-03
  3.727935e+00    5.030324e-01   7.961838e-03
  3.730145e+00    5.067869e-01   8.008654e-03
  3.732356e+00    5.126423e-01   8.072266e-03
  3.734566e+00    5.119254e-01   8.084077e-03
  3.736776e+00    5.207194e-01   8.171085e-03
  3.738987e+00    5.395252e-01   8.335505e-03
  3.741197e+00    5.311629e-01   8.288965e-03
  3.743408e+00    5.286217e-01   8.287464e-03
  3.745618e+00    4.966661e-01   8.051089e-03
  3.747829e+00    4.917211e-01   8.028616e-03
  3.750039e+00    5.011955e-01   8.123772e-03
  3.752250e+00    4.935120e-01   8.079463e-03
  3.754460e+00    4.793866e-01   7.980939e-03
  3.756671e+00    5.057905e-01   8.216498e-03
  3.758881e+00    5.369232e-01   8.484739e-03
  3.761091e+00    5.406924e-01   8.534231e-03
  3.763302e+00    5.228070e-01   8.411294e-03
  3.765512e+00    5.179274e-01   8.391324e-03
  3.767723e+00    5.377352e-01   8.570235e-03
  3.769933e+00    5.282957e-01   8.514438e-03
  3.772144e+00    5.089907e-01   8.377054e-03
  3.774354e+00    5.124739e-01   8.425645e-03
  3.776565e+00    5.164324e-01   8.478167e-03
  3.778775e+00    5.282486e-01   8.595023e-03
  3.780986e+00    5.286154e-01   8.618858e-03
  3.783196e+00    5.201431e-01   8.570067e-03
  3.785407e+00    5.277658e-01   8.653526e-03
  3.787617e+00    5.179347e-01   8.593674e-03
  3.789827e+00    5.035603e-01   8.494084e-03
  3.792038e+00    4.887820e-01   8.389132e-03
  3.794248e+00    4.959487e-01   8.471435e-03
  3.796459e+00    4.800835e-01   8.355681e-03
  3.798669e+00    4.901756e-01   8.464270e-03
  3.800880e+00    4.861306e-01   8.450321e-03
  3.803090e+00    5.109735e-01   8.685707e-03
  3.805301e+00    4.973101e-01   8.590747e-03
  3.807511e+00    5.104110e-01   8.725394e-03
  3.809722e+00    5.172559e-01   8.806394e-03
  3.811932e+00    4.918923e-01   8.609799e-03
  3.814142e+00    5.048594e-01   8.745531e-03
  3.816353e+00    5.132135e-01   8.840776e-03
  3.818563e+00    5.002150e-01   8.751228e-03
  3.820774e+00    4.922943e-01   8.704646e-03
  3.822984e+00    5.050269e-01   8.840090e-03
  3.825195e+00    5.084270e-01   8.893726e-03
  3.827405e+00    5.006689e-01   8.849602e-03
  3.829616e+00    4.948947e-01   8.822445e-03
  3.831826e+00    5.036466e-01   8.924396e-03
  3.834037e+00    4.891543e-01   8.819399e-03
  3.836247e+00    4.806958e-01   8.767068e-03
  3.838457e+00    4.872076e-01   8.851041e-03
  3.840668e+00    4.819916e-01   8.828369e-03
  3.842878e+00    4.980861e-01   9.000083e-03
  3.845089e+00    5.082999e-01   9.117838e-03
  3.847299e+00    4.964737e-01   9.037004e-03
  3.849510e+00    4.817146e-01   8.927112e-03
  3.851720e+00    5.035540e-01   9.148811e-03
  3.853931e+00    4.880877e-01   9.026124e-03
  3.856141e+00    4.899477e-01   9.062200e-03
  3.858352e+00    5.171128e-01   9.329733e-03
  3.860562e+00    4.901512e-01   9.102489e-03
  3.862772e+00    4.947675e-01   9.164859e-03
  3.864983e+00    4.966493e-01   9.202034e-03
  3.867193e+00    4.733425e-01   9.002819e-03
  3.869404e+00    5.031627e-01   9.302107e-03
  3.871614e+00    4.937772e-01   9.234969e-03
  3.873825e+00    4.788529e-01   9.114276e-03
  3.876035e+00    5.011472e-01   9.344830e-03
  3.878246e+00    5.007718e-01   9.367312e-03
  3.880456e+00    4.773027e-01   9.173708e-03
  3.882667e+00    4.976305e-01   9.396520e-03
  3.884877e+00    4.993506e-01   9.442736e-03
  3.887087e+00    5.004274e-01   9.483122e-03
  3.889298e+00    4.839509e-01   9.355823e-03
  3.891508e+00    4.987514e-01   9.528572e-03
  3.893719e+00    5.273703e-01   9.830271e-03
  3.895929e+00    4.905883e-01   9.512738e-03
  3.898140e+00    4.959067e-01   9.595983e-03
  3.900350e+00    4.797580e-01   9.470268e-03
  3.902561e+00    5.048316e-01   9.747352e-03
  3.904771e+00    4.933960e-01   9.669345e-03
  3.906982e+00    5.035008e-01   9.801456e-03
  3.909192e+00    4.868573e-01   9.671512e-03
  3.911403e+00    4.792821e-01   9.629624e-03
  3.913613e+00    4.804557e-01   9.675419e-03
  3.915823e+00    4.682656e-01   9.585950e-03
  3.918034e+00    4.832680e-01   9.773337e-03
  3.920244e+00    4.822300e-01   9.798322e-03
  3.922455e+00    4.743870e-01   9.753961e-03
  3.924665e+00    4.672710e-01   9.716134e-03
  3.926876e+00    5.007557e-01   1.009581e-02
  3.929086e+00    4.872961e-01   9.996625e-03
  3.931297e+00    5.044701e-01   1.020656e-02
  3.933507e+00    5.215041e-01   1.040746e-02
  3.935718e+00    4.568566e-01   9.768910e-03
  3.937928e+00    4.842854e-01   1.008719e-02
  3.940138e+00    4.532819e-01   9.787239e-03
  3.942349e+00    4.934256e-01   1.024148e-02
  3.944559e+00    4.795819e-01   1.012663e-02
  3.946770e+00    4.700667e-01   1.005531e-02
  3.948980e+00    4.740179e-01   1.012774e-02
  3.951191e+00    4.546526e-01   9.948587e-03
  3.953401e+00    4.911729e-01   1.037184e-02
  3.955612e+00    4.798623e-01   1.028327e-02
  3.957822e+00    4.659724e-01   1.016436e-02
  3.960033e+00    4.988621e-01   1.054996e-02
  3.962243e+00    4.626894e-01   1.019235e-02
  3.964453e+00    4.656018e-01   1.025684e-02
  3.966664e+00    4.764747e-01   1.040892e-02
  3.968874e+00    4.739896e-01   1.040986e-02
  3.971085e+00    4.711559e-01   1.040021e-02
  3.973295e+00    4.830307e-01   1.055195e-02
  3.975506e+00    4.523727e-01   1.023246e-02
  3.977716e+00    4.486375e-01   1.021116e-02
  3.979927e+00    5.245759e-01   1.106462e-02
  3.982137e+00    5.082521e-01   1.091405e-02
  3.984348e+00    4.688897e-01   1.050502e-02
  3.986558e+00    4.886887e-01   1.074687e-02
  3.988768e+00    4.882874e-01   1.076553e-02
  3.990979e+00    5.110900e-01   1.103751e-02
  3.993189e+00    4.760299e-01   1.067495e-02
  3.995400e+00    4.854094e-01   1.080315e-02
  3.997610e+00    4.975528e-01   1.096770e-02
  3.999821e+00    4.704807e-01   1.070212e-02
  4.002031e+00    4.947116e-01   1.101301e-02
  4.004242e+00    4.853847e-01   1.094718e-02
  4.006452e+00    5.068802e-01   1.122720e-02
  4.008663e+00    4.845572e-01   1.101728e-02
  4.010873e+00    4.942636e-01   1.116740e-02
  4.013084e+00    4.737657e-01   1.097387e-02
  4.015294e+00    5.013545e-01   1.133062e-02
  4.017504e+00    4.923897e-01   1.127089e-02
  4.019715e+00    4.916297e-01   1.130516e-02
  4.021925e+00    4.909805e-01   1.134102e-02
  4.024136e+00    4.833531e-01   1.129608e-02
  4.026346e+00    4.805840e-01   1.130776e-02
  4.028557e+00    4.597332e-01   1.110295e-02
  4.030767e+00    4.704478e-01   1.127652e-02
  4.032978e+00    4.905551e-01   1.156168e-02
  4.035188e+00    5.206518e-01   1.195895e-02
  4.037399e+00    4.833837e-01   1.157059e-02
  4.039609e+00    4.971704e-01   1.178285e-02
  4.041819e+00    4.691378e-01   1.149387e-02
  4.044030e+00    4.926061e-01   1.182818e-02
  4.046240e+00    4.572555e-01   1.144453e-02
  4.048451e+00    4.503592e-01   1.140695e-02
  4.050661e+00    4.877837e-01   1.192311e-02
  4.052872e+00    5.072730e-01   1.221312e-02
  4.055082e+00    4.445349e-01   1.148440e-02
  4.057293e+00    4.669196e-01   1.182259e-02
  4.059503e+00    5.053500e-01   1.235559e-02
  4.061714e+00    4.996218e-01   1.234295e-02
  4.063924e+00    4.786995e-01   1.213821e-02
  4.066134e+00    4.790899e-01   1.220041e-02
  4.068345e+00    4.974553e-01   1.249189e-02
  4.070555e+00    4.787692e-01   1.231422e-02
  4.072766e+00    4.537765e-01   1.204753e-02
  4.074976e+00    4.778210e-01   1.242410e-02
  4.077187e+00    4.782514e-01   1.249168e-02
  4.079397e+00    4.826914e-01   1.261345e-02
  4.081608e+00    4.748011e-01   1.257511e-02
  4.083818e+00    5.042434e-01   1.302641e-02
  4.086029e+00    5.017785e-01   1.306320e-02
  4.088239e+00    4.762805e-01   1.279546e-02
  4.090449e+00    4.576019e-01   1.261000e-02
  4.092660e+00    4.680903e-01   1.282384e-02
  4.094870e+00    4.802209e-01   1.306124e-02
  4.097081e+00    4.938019e-01   1.331716e-02
  4.099291e+00    5.237895e-01   1.377228e-02
  4.101502e+00    4.890889e-01   1.335805e-02
  4.103712e+00    4.607170e-01   1.301320e-02
  4.105923e+00    4.725209e-01   1.322953e-02
  4.108133e+00    4.768685e-01   1.334180e-02
  4.110344e+00    4.997090e-01   1.370960e-02
  4.112554e+00    4.833319e-01   1.353635e-02
  4.114764e+00    5.401301e-01   1.436728e-02
  4.116975e+00    5.052056e-01   1.394973e-02
  4.119185e+00    4.770553e-01   1.361064e-02
  4.121396e+00    4.892632e-01   1.384050e-02
  4.123606e+00    4.655249e-01   1.355602e-02
  4.125817e+00    4.567557e-01   1.348384e-02
  4.128027e+00    4.769980e-01   1.383765e-02
  4.130238e+00    4.767854e-01   1.389374e-02
  4.132448e+00    4.737633e-01   1.390982e-02
  4.134659e+00    5.024577e-01   1.438639e-02
  4.136869e+00    4.878604e-01   1.423930e-02
  4.139080e+00    4.736756e-01   1.409379e-02
  4.141290e+00    4.651500e-01   1.402833e-02
  4.143500e+00    4.827204e-01   1.435682e-02
  4.145711e+00    4.983886e-01   1.465600e-02
  4.147921e+00    4.781729e-01   1.442150e-02
  4.150132e+00    5.221440e-01   1.514199e-02
  4.152342e+00    4.620394e-01   1.431311e-02
  4.154553e+00    4.391666e-01   1.402024e-02
  4.156763e+00    5.203514e-01   1.533696e-02
  4.158974e+00    4.792414e-01   1.479265e-02
  4.161184e+00    4.980016e-01   1.515406e-02
  4.163395e+00    5.486461e-01   1.598722e-02
  4.165605e+00    5.266645e-01   1.574527e-02
  4.167815e+00    5.036309e-01   1.547754e-02
  4.170026e+00    5.115935e-01   1.568126e-02
  4.172236e+00    5.119296e-01   1.577165e-02
  4.174447e+00    4.750538e-01   1.527533e-02
  4.176657e+00    4.657202e-01   1.520735e-02
  4.178868e+00    4.442358e-01   1.493633e-02
  4.181078e+00    4.591901e-01   1.527145e-02
  4.183289e+00    4.983933e-01   1.600077e-02
  4.185499e+00    4.872344e-01   1.591423e-02
  4.187710e+00    4.894296e-01   1.604313e-02
  4.189920e+00    5.358884e-01   1.688877e-02
  4.192130e+00    5.214493e-01   1.676137e-02
  4.194341e+00    5.136343e-01   1.673752e-02
  4.196551e+00    4.398933e-01   1.558739e-02
  4.198762e+00    5.350823e-01   1.730040e-02
  4.200972e+00    5.118700e-01   1.703073e-02
  4.203183e+00    4.830946e-01   1.665406e-02
  4.205393e+00    5.154068e-01   1.731665e-02
  4.207604e+00    4.908246e-01   1.701370e-02
  4.209814e+00    4.855952e-01   1.703903e-02
  4.212025e+00    4.925629e-01   1.728245e-02
  4.214235e+00    4.458927e-01   1.655997e-02
  4.216445e+00    4.405584e-01   1.657930e-02
  4.218656e+00    4.160950e-01   1.623355e-02
  4.220866e+00    4.542941e-01   1.708771e-02
  4.223077e+00    4.854544e-01   1.780004e-02
  4.225287e+00    4.624816e-01   1.751019e-02
  4.227498e+00    4.566764e-01   1.753668e-02
  4.229708e+00    4.991696e-01   1.848334e-02
  4.231919e+00    4.980559e-01   1.861533e-02
  4.234129e+00    5.321919e-01   1.940439e-02
  4.236340e+00    5.006667e-01   1.898164e-02
  4.238550e+00    5.246631e-01   1.960307e-02
  4.240761e+00    4.728955e-01   1.877512e-02
  4.242971e+00    4.832810e-01   1.915384e-02
  4.245181e+00    4.206852e-01   1.803854e-02
  4.247392e+00    5.274837e-01   2.038733e-02
  4.249602e+00    4.697589e-01   1.943097e-02
  4.251813e+00    4.773182e-01   1.977954e-02
  4.254023e+00    4.879099e-01   2.019915e-02
  4.256234e+00    4.923598e-01   2.050824e-02
  4.258444e+00    4.505674e-01   1.982348e-02
  4.260655e+00    4.598234e-01   2.024661e-02
  4.262865e+00    4.269424e-01   1.973017e-02
  4.265076e+00    4.504701e-01   2.049674e-02
  4.267286e+00    5.934841e-01   2.380604e-02
  4.269496e+00    4.737143e-01   2.152854e-02
  4.271707e+00    4.821319e-01   2.198682e-02
  4.273917e+00    5.327513e-01   2.341107e-02
  4.276128e+00    4.785024e-01   2.248173e-02
  4.278338e+00    4.985439e-01   2.325475e-02
  4.280549e+00    4.154080e-01   2.153149e-02
  4.282759e+00    4.312900e-01   2.225468e-02
  4.284970e+00    4.870008e-01   2.399808e-02
  4.287180e+00    4.069098e-01   2.219944e-02
  4.289391e+00    4.636241e-01   2.387345e-02
  4.291601e+00    4.682045e-01   2.418302e-02
  4.293811e+00    4.515069e-01   2.393317e-02
  4.296022e+00    5.246705e-01   2.600712e-02
  4.298232e+00    4.576724e-01   2.449381e-02
  4.300443e+00    4.504410e-01   2.449896e-02
  4.302653e+00    5.041354e-01   2.614368e-02
  4.304864e+00    4.704977e-01   2.547458e-02
  4.307074e+00    4.450240e-01   2.499823e-02
  4.309285e+00    4.806521e-01   2.621541e-02
  4.311495e+00    4.780449e-01   2.638865e-02
  4.313706e+00    4.249871e-01   2.511520e-02
  4.315916e+00    4.922777e-01   2.729671e-02
  4.318126e+00    4.239796e-01   2.558265e-02
  4.320337e+00    3.657276e-01   2.400108e-02
  4.322547e+00    5.008914e-01   2.838536e-02
  4.324758e+00    4.514137e-01   2.722778e-02
  4.326968e+00    5.366472e-01   3.002113e-02
  4.329179e+00    4.285412e-01   2.712355e-02
  4.331389e+00    4.020868e-01   2.657526e-02
  4.333600e+00    5.041947e-01   3.011464e-02
  4.335810e+00    5.172135e-01   3.086300e-02
  4.338021e+00    4.874152e-01   3.034510e-02
  4.340231e+00    4.529119e-01   2.961902e-02
  4.342442e+00    4.739893e-01   3.070563e-02
  4.344652e+00    4.232813e-01   2.941111e-02
  4.346862e+00    4.597431e-01   3.108097e-02
  4.349073e+00    5.123221e-01   3.328738e-02
  4.351283e+00    3.763803e-01   2.895940e-02
  4.353494e+00    3.949698e-01   3.012103e-02
  4.355704e+00    4.482215e-01   3.260643e-02
  4.357915e+00    4.466738e-01   3.309067e-02
  4.360125e+00    3.759261e-01   3.087659e-02
  4.362336e+00    3.945572e-01   3.220742e-02
  4.364546e+00    4.185155e-01   3.377616e-02
  4.366757e+00    4.134533e-01   3.423910e-02
  4.368967e+00    3.409770e-01   3.171217e-02
  4.371177e+00    4.515000e-01   3.726877e-02
  4.373388e+00    3.781558e-01   3.486961e-02
  4.375598e+00    3.973175e-01   3.655880e-02
  4.377809e+00    5.021968e-01   4.214038e-02
  4.380019e+00    4.852550e-01   4.246480e-02
  4.382230e+00    4.369676e-01   4.142323e-02
  4.384440e+00    3.371506e-01   3.743276e-02
  4.386651e+00    3.591201e-01   3.982226e-02
  4.388861e+00    3.903157e-01   4.291080e-02
  4.391072e+00    2.773427e-01   3.744276e-02
  4.393282e+00    3.678844e-01   4.478805e-02
  4.395492e+00    5.152555e-01   5.520805e-02
  4.397703e+00    3.921047e-01   5.036563e-02
  4.399913e+00    3.782293e-01   5.196681e-02
  4.402124e+00    4.603020e-01   6.058467e-02
  4.404334e+00    2.025814e-01   4.271894e-02
  4.406545e+00    1.144059e-01   3.449496e-02
  4.408755e+00    4.741563e-01   7.615551e-02
  4.410966e+00    4.237233e-01   7.968549e-02
  4.413176e+00    3.759225e-03   8.497173e-03
  4.415387e+00   -4.373037e-01            nan
  4.417597e+00   -1.610717e+00            nan
  4.419807e+00    1.431295e-01   1.358686e-01
