# == pyFAI calibration ==
# Distance Sample to Detector: 0.216 m
# PONI: 1.166e-01, 1.308e-01 m
# Rotations: 0.000000 0.000000 0.000000 rad
# 
# == Fit2d calibration ==
# Distance Sample-beamCenter: 216.000 mm
# Center: x=1744.293, y=1555.000 pix
# Tilt: 0.000 deg  TiltPlanRot: 0.000 deg
# 
# Detector Eiger 9M	 PixelSize= 7.500e-05, 7.500e-05 m
#    Detector has a mask: True 
#    Detector has a dark current: False 
#    detector has a flat field: False 
# 
# Wavelength: 9.8e-11 m
# Mask applied: from detector
# Dark current applied: False
# Flat field applied: False
# Polarization factor: None
# Normalization factor: 1.0
# 
# Headers of the input frame:
# {
# "_array_data.header_convention": "SLS_1.0",
# "_array_data.header_contents": "# Detector: Dectris Eiger 9M, S/N E-18-0102\r\n# Pixel_size 75e-6 m x 75e-6 m\r\n# Silicon sensor, thickness 0.000450 m\r\n# Exposure_time 0.024997 s\r\n# Exposure_period 0.025000 s\r\n# Count_cutoff 62318 counts\r\n# Wavelength 0.980106 A\r\n# Detector_distance 0.215992 m\r\n# Beam_xy (1555, 1744) pixels\r\n# Start_angle 0.000000 deg.\r\n# Angle_increment 0.000000 deg.",
# "Content-Type": "application/octet-stream;",
# "conversions": "x-CBF_BYTE_OFFSET",
# "Content-Transfer-Encoding": "BINARY",
# "X-Binary-Size": "10166600",
# "X-Binary-ID": "1",
# "X-Binary-Element-Type": "signed 32-bit integer",
# "X-Binary-Element-Byte-Order": "LITTLE_ENDIAN",
# "Content-MD5": "eMd1btftPCQy8+kP/FBDXw==",
# "X-Binary-Number-of-Elements": "10166590",
# "X-Binary-Size-Fastest-Dimension": "3110",
# "X-Binary-Size-Second-Dimension": "3269",
# "X-Binary-Size-Padding": "4095"
# }
# --> H:/Proxima2a_2019-04-05/RAW_DATA/C5_gel17_position5/C5_mesh_1_data.cbf/C5_mesh_1_data.cbf000014.dat
#        q_A^-1              I           sigma 
  1.105228e-03    1.805268e+00   7.270393e-01
  3.315685e-03    1.660656e+00   4.239213e-01
  5.526141e-03    1.386010e+00   2.994714e-01
  7.736597e-03    1.312446e+00   2.461846e-01
  9.947054e-03    1.318738e+00   2.175484e-01
  1.215751e-02    1.322781e+00   1.970210e-01
  1.436797e-02    1.195404e+00   1.722793e-01
  1.657842e-02    1.312633e+00   1.680413e-01
  1.878888e-02    1.396686e+00   1.628219e-01
  2.099934e-02    1.391755e+00   1.537742e-01
  2.320979e-02    1.535630e+00   1.536301e-01
  2.542025e-02    1.500796e+00   1.451344e-01
  2.763070e-02    1.547347e+00   1.413462e-01
  2.984116e-02    1.408960e+00   1.297854e-01
  3.205162e-02    1.419037e+00   1.256849e-01
  3.426207e-02    1.334181e+00   1.178643e-01
  3.647253e-02    1.429402e+00   1.182407e-01
  3.868299e-02    1.474630e+00   1.166238e-01
  4.089344e-02    1.497743e+00   1.143140e-01
  4.310390e-02    1.483230e+00   1.107970e-01
  4.531436e-02    1.377661e+00   1.041447e-01
  4.752481e-02    1.374344e+00   1.015703e-01
  4.973527e-02    1.444353e+00   1.017861e-01
  5.194572e-02    1.457160e+00   1.000361e-01
  5.415618e-02    1.423922e+00   9.684603e-02
  5.636664e-02    1.443575e+00   9.558393e-02
  5.857709e-02    1.527759e+00   9.645882e-02
  6.078755e-02    1.490792e+00   9.353321e-02
  6.299801e-02    1.449090e+00   9.058248e-02
  6.520846e-02    1.535101e+00   9.163875e-02
  6.741892e-02    1.530873e+00   8.999521e-02
  6.962938e-02    1.611980e+00   9.087537e-02
  7.183983e-02    1.490183e+00   8.601850e-02
  7.405029e-02    1.460394e+00   8.387185e-02
  7.626074e-02    1.477983e+00   8.314288e-02
  7.847120e-02    1.514166e+00   8.295848e-02
  8.068166e-02    1.482686e+00   8.095858e-02
  8.289211e-02    1.438627e+00   7.867574e-02
  8.510257e-02    1.479686e+00   7.874703e-02
  8.731303e-02    1.477307e+00   7.767836e-02
  8.952348e-02    1.524299e+00   7.792605e-02
  9.173394e-02    1.583098e+00   7.844907e-02
  9.394439e-02    1.600619e+00   7.794591e-02
  9.615485e-02    1.578951e+00   7.651985e-02
  9.836531e-02    1.503002e+00   7.381118e-02
  1.005758e-01    1.500639e+00   7.293861e-02
  1.027862e-01    1.552415e+00   7.338239e-02
  1.049967e-01    1.578651e+00   7.321551e-02
  1.072071e-01    1.518948e+00   7.107261e-02
  1.094176e-01    1.577060e+00   7.168305e-02
  1.116280e-01    1.540669e+00   7.014462e-02
  1.138385e-01    1.519565e+00   6.898155e-02
  1.160490e-01    1.521535e+00   6.836487e-02
  1.182594e-01    1.478707e+00   6.676155e-02
  1.204699e-01    1.472957e+00   6.601699e-02
  1.226803e-01    1.495321e+00   6.591154e-02
  1.248908e-01    1.582582e+00   6.720392e-02
  1.271012e-01    1.571459e+00   6.638116e-02
  1.293117e-01    1.582831e+00   6.604819e-02
  1.315222e-01    1.578700e+00   6.540383e-02
  1.337326e-01    1.561370e+00   6.450279e-02
  1.359431e-01    1.630812e+00   6.596017e-02
  1.381535e-01    1.558314e+00   6.534286e-02
  1.403640e-01    1.567098e+00   6.580967e-02
  1.425744e-01    1.647130e+00   6.757700e-02
  1.447849e-01    1.685757e+00   6.838053e-02
  1.469953e-01    1.582679e+00   6.621545e-02
  1.492058e-01    1.584681e+00   6.618030e-02
  1.514163e-01    1.626594e+00   6.693845e-02
  1.536267e-01    1.568825e+00   6.561069e-02
  1.558372e-01    1.608595e+00   6.629042e-02
  1.580476e-01    1.650311e+00   6.698158e-02
  1.602581e-01    1.658415e+00   6.697528e-02
  1.624685e-01    1.673814e+00   6.710129e-02
  1.646790e-01    1.679518e+00   6.702253e-02
  1.668895e-01    1.647725e+00   6.619339e-02
  1.690999e-01    1.673341e+00   6.650565e-02
  1.713104e-01    1.746733e+00   6.773757e-02
  1.735208e-01    1.845653e+00   6.941268e-02
  1.757313e-01    1.826819e+00   6.884119e-02
  1.779417e-01    1.869269e+00   6.940931e-02
  1.801522e-01    1.896277e+00   6.968630e-02
  1.823626e-01    1.886161e+00   6.926881e-02
  1.845731e-01    1.864795e+00   6.865225e-02
  1.867836e-01    1.897268e+00   6.901371e-02
  1.889940e-01    1.859644e+00   6.810272e-02
  1.912045e-01    1.876578e+00   6.818363e-02
  1.934149e-01    1.986313e+00   6.991407e-02
  1.956254e-01    2.042905e+00   7.066922e-02
  1.978358e-01    1.991057e+00   6.952760e-02
  2.000463e-01    2.061806e+00   7.051760e-02
  2.022568e-01    2.051754e+00   7.011464e-02
  2.044672e-01    1.981100e+00   6.866080e-02
  2.066777e-01    1.955836e+00   6.799514e-02
  2.088881e-01    2.032798e+00   6.909324e-02
  2.110986e-01    2.003512e+00   6.835852e-02
  2.133090e-01    1.970861e+00   6.757882e-02
  2.155195e-01    1.909553e+00   6.629877e-02
  2.177300e-01    1.918285e+00   6.592813e-02
  2.199404e-01    1.994735e+00   6.545757e-02
  2.221509e-01    1.994744e+00   6.438287e-02
  2.243613e-01    2.000277e+00   6.365476e-02
  2.265718e-01    1.974336e+00   6.254360e-02
  2.287822e-01    2.023215e+00   6.268640e-02
  2.309927e-01    2.152233e+00   6.406524e-02
  2.332031e-01    2.146406e+00   6.343090e-02
  2.354136e-01    2.172307e+00   6.329527e-02
  2.376241e-01    2.169276e+00   6.276014e-02
  2.398345e-01    2.168259e+00   6.228106e-02
  2.420450e-01    2.126684e+00   6.124027e-02
  2.442554e-01    2.167289e+00   6.139621e-02
  2.464659e-01    2.263748e+00   6.232635e-02
  2.486763e-01    2.146714e+00   6.029491e-02
  2.508868e-01    2.098936e+00   5.924403e-02
  2.530973e-01    2.169974e+00   5.986480e-02
  2.553077e-01    2.149094e+00   5.921471e-02
  2.575182e-01    2.153076e+00   5.891887e-02
  2.597286e-01    2.144406e+00   5.845830e-02
  2.619391e-01    2.123345e+00   5.783565e-02
  2.641495e-01    2.067484e+00   5.675393e-02
  2.663600e-01    2.135715e+00   5.736560e-02
  2.685704e-01    2.130103e+00   5.697966e-02
  2.707809e-01    2.074209e+00   5.592866e-02
  2.729914e-01    2.021359e+00   5.492380e-02
  2.752018e-01    2.064904e+00   5.522332e-02
  2.774123e-01    2.085201e+00   5.521059e-02
  2.796227e-01    2.028982e+00   5.419187e-02
  2.818332e-01    1.957947e+00   5.296920e-02
  2.840436e-01    1.943728e+00   5.252069e-02
  2.862541e-01    1.963858e+00   5.253818e-02
  2.884646e-01    1.984751e+00   5.256625e-02
  2.906750e-01    1.944789e+00   5.178764e-02
  2.928855e-01    1.949066e+00   5.160432e-02
  2.950959e-01    1.993293e+00   5.194681e-02
  2.973064e-01    1.912816e+00   5.065867e-02
  2.995168e-01    1.895082e+00   5.019488e-02
  3.017273e-01    1.967103e+00   5.091435e-02
  3.039377e-01    1.937503e+00   5.030856e-02
  3.061482e-01    1.921968e+00   4.988973e-02
  3.083587e-01    1.918129e+00   4.962414e-02
  3.105691e-01    1.919793e+00   4.943361e-02
  3.127796e-01    1.917871e+00   4.920114e-02
  3.149900e-01    1.908772e+00   4.887977e-02
  3.172005e-01    1.883245e+00   4.835329e-02
  3.194109e-01    1.899927e+00   4.836649e-02
  3.216214e-01    1.899058e+00   4.815811e-02
  3.238319e-01    1.931237e+00   4.837200e-02
  3.260423e-01    1.889527e+00   4.765622e-02
  3.282528e-01    1.896184e+00   4.755004e-02
  3.304632e-01    1.873406e+00   4.708048e-02
  3.326737e-01    1.885592e+00   4.704905e-02
  3.348841e-01    1.913843e+00   4.721641e-02
  3.370946e-01    1.887493e+00   4.671381e-02
  3.393050e-01    1.830226e+00   4.582546e-02
  3.415155e-01    1.861858e+00   4.604595e-02
  3.437260e-01    1.881025e+00   4.611085e-02
  3.459364e-01    1.843250e+00   4.547663e-02
  3.481469e-01    1.826855e+00   4.510868e-02
  3.503573e-01    1.819505e+00   4.485385e-02
  3.525678e-01    1.852015e+00   4.509151e-02
  3.547782e-01    1.771400e+00   4.393985e-02
  3.569887e-01    1.756433e+00   4.359878e-02
  3.591992e-01    1.864357e+00   4.475933e-02
  3.614096e-01    1.847476e+00   4.440176e-02
  3.636201e-01    1.796076e+00   4.362590e-02
  3.658305e-01    1.776872e+00   4.324401e-02
  3.680410e-01    1.822130e+00   4.364065e-02
  3.702514e-01    1.841855e+00   4.372869e-02
  3.724619e-01    1.845954e+00   4.362823e-02
  3.746724e-01    1.808387e+00   4.303796e-02
  3.768828e-01    1.745845e+00   4.214487e-02
  3.790933e-01    1.821767e+00   4.291122e-02
  3.813037e-01    1.791899e+00   4.241875e-02
  3.835142e-01    1.798507e+00   4.235733e-02
  3.857246e-01    1.818105e+00   4.244966e-02
  3.879351e-01    1.767594e+00   4.172035e-02
  3.901455e-01    1.863633e+00   4.270237e-02
  3.923560e-01    1.811930e+00   4.197205e-02
  3.945665e-01    1.799831e+00   4.169901e-02
  3.967769e-01    1.769881e+00   4.122112e-02
  3.989874e-01    1.749144e+00   4.085096e-02
  4.011978e-01    1.786128e+00   4.115363e-02
  4.034083e-01    1.773767e+00   4.088508e-02
  4.056187e-01    1.802766e+00   4.109097e-02
  4.078292e-01    1.802953e+00   4.096874e-02
  4.100397e-01    1.849042e+00   4.136239e-02
  4.122501e-01    1.828262e+00   4.100628e-02
  4.144606e-01    1.800127e+00   4.056887e-02
  4.166710e-01    1.812575e+00   4.058785e-02
  4.188815e-01    1.805851e+00   4.039285e-02
  4.210919e-01    1.817410e+00   4.040313e-02
  4.233024e-01    1.806018e+00   4.015785e-02
  4.255128e-01    1.807691e+00   4.006030e-02
  4.277233e-01    1.820316e+00   4.008445e-02
  4.299338e-01    1.833846e+00   4.011738e-02
  4.321442e-01    1.792935e+00   3.955387e-02
  4.343547e-01    1.774925e+00   3.924341e-02
  4.365651e-01    1.791453e+00   3.931370e-02
  4.387756e-01    1.794282e+00   3.923456e-02
  4.409860e-01    1.780074e+00   3.897063e-02
  4.431965e-01    1.782548e+00   3.888989e-02
  4.454070e-01    1.737717e+00   3.829091e-02
  4.476174e-01    1.707382e+00   3.785098e-02
  4.498279e-01    1.755605e+00   3.827738e-02
  4.520383e-01    1.719524e+00   3.777804e-02
  4.542488e-01    1.718432e+00   3.766420e-02
  4.564592e-01    1.707354e+00   3.744189e-02
  4.586697e-01    1.726850e+00   3.755511e-02
  4.608801e-01    1.727606e+00   3.746272e-02
  4.630906e-01    1.708664e+00   3.715812e-02
  4.653011e-01    1.747676e+00   3.748110e-02
  4.675115e-01    1.713467e+00   3.701471e-02
  4.697220e-01    1.745289e+00   3.725904e-02
  4.719324e-01    1.710580e+00   3.679129e-02
  4.741429e-01    1.700164e+00   3.658457e-02
  4.763533e-01    1.705588e+00   3.654896e-02
  4.785638e-01    1.721286e+00   3.662190e-02
  4.807743e-01    1.748297e+00   3.681428e-02
  4.829847e-01    1.704036e+00   3.625347e-02
  4.851952e-01    1.717625e+00   3.630563e-02
  4.874056e-01    1.697090e+00   3.599695e-02
  4.896161e-01    1.704749e+00   3.598862e-02
  4.918265e-01    1.704062e+00   3.589201e-02
  4.940370e-01    1.727197e+00   3.604563e-02
  4.962475e-01    1.699638e+00   3.566860e-02
  4.984579e-01    1.689512e+00   3.547454e-02
  5.006684e-01    1.713232e+00   3.563559e-02
  5.028788e-01    1.731237e+00   3.573558e-02
  5.050893e-01    1.676467e+00   3.508022e-02
  5.072997e-01    1.707974e+00   3.532280e-02
  5.095102e-01    1.731213e+00   3.547713e-02
  5.117206e-01    1.668754e+00   3.474847e-02
  5.139311e-01    1.652079e+00   3.449256e-02
  5.161416e-01    1.686881e+00   3.477164e-02
  5.183520e-01    1.652411e+00   3.433273e-02
  5.205625e-01    1.650371e+00   3.423117e-02
  5.227729e-01    1.653900e+00   3.418780e-02
  5.249834e-01    1.700616e+00   3.458680e-02
  5.271938e-01    1.745667e+00   3.496017e-02
  5.294043e-01    1.753824e+00   3.496089e-02
  5.316148e-01    1.738299e+00   3.472608e-02
  5.338252e-01    1.812445e+00   3.537792e-02
  5.360357e-01    1.767381e+00   3.485581e-02
  5.382461e-01    1.770934e+00   3.481195e-02
  5.404566e-01    1.769560e+00   3.471927e-02
  5.426670e-01    1.768308e+00   3.462877e-02
  5.448775e-01    1.794512e+00   3.480646e-02
  5.470879e-01    1.799157e+00   3.477378e-02
  5.492984e-01    1.782763e+00   3.453799e-02
  5.515089e-01    1.790433e+00   3.453547e-02
  5.537193e-01    1.777031e+00   3.433016e-02
  5.559298e-01    1.785984e+00   3.434104e-02
  5.581402e-01    1.811822e+00   3.451297e-02
  5.603507e-01    1.838347e+00   3.468904e-02
  5.625611e-01    1.811642e+00   3.436143e-02
  5.647716e-01    1.813941e+00   3.430856e-02
  5.669821e-01    1.832499e+00   3.440929e-02
  5.691925e-01    1.808262e+00   3.410761e-02
  5.714030e-01    1.777020e+00   3.373960e-02
  5.736134e-01    1.726450e+00   3.318532e-02
  5.758239e-01    1.735020e+00   3.319657e-02
  5.780343e-01    1.709534e+00   3.288214e-02
  5.802448e-01    1.683280e+00   3.256039e-02
  5.824552e-01    1.662074e+00   3.228674e-02
  5.846657e-01    1.670012e+00   3.229627e-02
  5.868762e-01    1.662426e+00   3.215579e-02
  5.890866e-01    1.601245e+00   3.149303e-02
  5.912971e-01    1.635188e+00   3.175920e-02
  5.935075e-01    1.620180e+00   3.154777e-02
  5.957180e-01    1.660701e+00   3.187431e-02
  5.979284e-01    1.658998e+00   3.179293e-02
  6.001389e-01    1.671285e+00   3.184547e-02
  6.023494e-01    1.635898e+00   3.144256e-02
  6.045598e-01    1.660658e+00   3.161509e-02
  6.067703e-01    1.694216e+00   3.186874e-02
  6.089807e-01    1.690906e+00   3.177356e-02
  6.111912e-01    1.716017e+00   3.194472e-02
  6.134016e-01    1.724061e+00   3.195565e-02
  6.156121e-01    1.695028e+00   3.162245e-02
  6.178226e-01    1.709318e+00   3.169261e-02
  6.200330e-01    1.700357e+00   3.154705e-02
  6.222435e-01    1.746479e+00   3.190873e-02
  6.244539e-01    1.682571e+00   3.125814e-02
  6.266644e-01    1.747007e+00   3.178892e-02
  6.288748e-01    1.729467e+00   3.156739e-02
  6.310853e-01    1.731407e+00   3.152375e-02
  6.332957e-01    1.728430e+00   3.143584e-02
  6.355062e-01    1.707635e+00   3.118546e-02
  6.377167e-01    1.691723e+00   3.098026e-02
  6.399271e-01    1.713449e+00   3.111882e-02
  6.421376e-01    1.709066e+00   3.101966e-02
  6.443480e-01    1.717656e+00   3.103837e-02
  6.465585e-01    1.717448e+00   3.097770e-02
  6.487689e-01    1.708770e+00   3.084098e-02
  6.509794e-01    1.711345e+00   3.080600e-02
  6.531899e-01    1.703519e+00   3.067770e-02
  6.554003e-01    1.657965e+00   3.020783e-02
  6.576108e-01    1.627881e+00   2.987678e-02
  6.598212e-01    1.616695e+00   2.971864e-02
  6.620317e-01    1.637259e+00   2.985159e-02
  6.642421e-01    1.646230e+00   2.987790e-02
  6.664526e-01    1.638588e+00   2.975356e-02
  6.686630e-01    1.620654e+00   2.953558e-02
  6.708735e-01    1.642792e+00   2.968206e-02
  6.730840e-01    1.616200e+00   2.938719e-02
  6.752944e-01    1.606842e+00   2.924868e-02
  6.775049e-01    1.616250e+00   2.928093e-02
  6.797153e-01    1.628064e+00   2.933452e-02
  6.819258e-01    1.608281e+00   2.910319e-02
  6.841362e-01    1.606122e+00   2.903132e-02
  6.863467e-01    1.636814e+00   2.925492e-02
  6.885572e-01    1.625746e+00   2.910360e-02
  6.907676e-01    1.602042e+00   2.883887e-02
  6.929781e-01    1.619985e+00   2.894839e-02
  6.951885e-01    1.601783e+00   2.873429e-02
  6.973990e-01    1.613389e+00   2.878725e-02
  6.996094e-01    1.592980e+00   2.855425e-02
  7.018199e-01    1.580343e+00   2.839086e-02
  7.040303e-01    1.581518e+00   2.835151e-02
  7.062408e-01    1.610163e+00   2.855701e-02
  7.084513e-01    1.617142e+00   2.856906e-02
  7.106617e-01    1.601081e+00   2.837742e-02
  7.128722e-01    1.616431e+00   2.846380e-02
  7.150826e-01    1.597123e+00   2.824453e-02
  7.172931e-01    1.607438e+00   2.828675e-02
  7.195035e-01    1.570375e+00   2.791067e-02
  7.217140e-01    1.573622e+00   2.798894e-02
  7.239245e-01    1.551046e+00   2.801249e-02
  7.261349e-01    1.548320e+00   2.809555e-02
  7.283454e-01    1.552188e+00   2.820252e-02
  7.305558e-01    1.554445e+00   2.827664e-02
  7.327663e-01    1.578979e+00   2.854149e-02
  7.349767e-01    1.553821e+00   2.832945e-02
  7.371872e-01    1.572490e+00   2.848796e-02
  7.393976e-01    1.578234e+00   2.852566e-02
  7.416081e-01    1.561277e+00   2.835592e-02
  7.438186e-01    1.586197e+00   2.843645e-02
  7.460290e-01    1.555840e+00   2.787058e-02
  7.482395e-01    1.553461e+00   2.767922e-02
  7.504499e-01    1.580674e+00   2.778409e-02
  7.526604e-01    1.546632e+00   2.736775e-02
  7.548708e-01    1.588545e+00   2.764630e-02
  7.570813e-01    1.577093e+00   2.749544e-02
  7.592918e-01    1.602904e+00   2.768403e-02
  7.615022e-01    1.587192e+00   2.751411e-02
  7.637127e-01    1.556561e+00   2.721470e-02
  7.659231e-01    1.574652e+00   2.734041e-02
  7.681336e-01    1.582513e+00   2.737688e-02
  7.703440e-01    1.561200e+00   2.716083e-02
  7.725545e-01    1.570020e+00   2.720658e-02
  7.747650e-01    1.610863e+00   2.751957e-02
  7.769754e-01    1.601505e+00   2.738637e-02
  7.791859e-01    1.554147e+00   2.692531e-02
  7.813963e-01    1.546333e+00   2.680548e-02
  7.836068e-01    1.575692e+00   2.700688e-02
  7.858172e-01    1.639741e+00   2.749880e-02
  7.880277e-01    1.619250e+00   2.727448e-02
  7.902381e-01    1.619956e+00   2.723083e-02
  7.924486e-01    1.595478e+00   2.697429e-02
  7.946591e-01    1.588323e+00   2.686560e-02
  7.968695e-01    1.612080e+00   2.701735e-02
  7.990800e-01    1.676206e+00   2.750023e-02
  8.012904e-01    1.670349e+00   2.740466e-02
  8.035009e-01    1.657321e+00   2.724900e-02
  8.057113e-01    1.651595e+00   2.715486e-02
  8.079218e-01    1.644178e+00   2.704706e-02
  8.101323e-01    1.639157e+00   2.695988e-02
  8.123427e-01    1.598994e+00   2.658215e-02
  8.145532e-01    1.618383e+00   2.669704e-02
  8.167636e-01    1.650735e+00   2.691724e-02
  8.189741e-01    1.640573e+00   2.678953e-02
  8.211845e-01    1.641137e+00   2.674923e-02
  8.233950e-01    1.660892e+00   2.686598e-02
  8.256054e-01    1.662104e+00   2.683124e-02
  8.278159e-01    1.663944e+00   2.680177e-02
  8.300264e-01    1.654551e+00   2.668271e-02
  8.322368e-01    1.643773e+00   2.655248e-02
  8.344473e-01    1.639493e+00   2.647450e-02
  8.366577e-01    1.677899e+00   2.673971e-02
  8.388682e-01    1.673883e+00   2.666499e-02
  8.410786e-01    1.698217e+00   2.681532e-02
  8.432891e-01    1.695157e+00   2.674860e-02
  8.454996e-01    1.611650e+00   2.604016e-02
  8.477100e-01    1.635256e+00   2.618851e-02
  8.499205e-01    1.629476e+00   2.610116e-02
  8.521309e-01    1.627803e+00   2.604706e-02
  8.543414e-01    1.650754e+00   2.618912e-02
  8.565518e-01    1.639848e+00   2.606184e-02
  8.587623e-01    1.623347e+00   2.589000e-02
  8.609727e-01    1.625717e+00   2.586872e-02
  8.631832e-01    1.651868e+00   2.603574e-02
  8.653937e-01    1.650016e+00   2.598117e-02
  8.676041e-01    1.657779e+00   2.600291e-02
  8.698146e-01    1.622126e+00   2.568248e-02
  8.720250e-01    1.600052e+00   2.546824e-02
  8.742355e-01    1.594400e+00   2.538453e-02
  8.764459e-01    1.614934e+00   2.550849e-02
  8.786564e-01    1.586338e+00   2.524395e-02
  8.808669e-01    1.597902e+00   2.529738e-02
  8.830773e-01    1.602894e+00   2.529873e-02
  8.852878e-01    1.606535e+00   2.528947e-02
  8.874982e-01    1.626288e+00   2.540752e-02
  8.897087e-01    1.630430e+00   2.540186e-02
  8.919191e-01    1.614669e+00   2.524086e-02
  8.941296e-01    1.608596e+00   2.515594e-02
  8.963401e-01    1.585333e+00   2.493715e-02
  8.985505e-01    1.588434e+00   2.492467e-02
  9.007610e-01    1.599931e+00   2.497799e-02
  9.029714e-01    1.604784e+00   2.497994e-02
  9.051819e-01    1.636382e+00   2.518702e-02
  9.073923e-01    1.612540e+00   2.496617e-02
  9.096028e-01    1.584874e+00   2.471630e-02
  9.118132e-01    1.619288e+00   2.494677e-02
  9.140237e-01    1.608762e+00   2.482884e-02
  9.162342e-01    1.587147e+00   2.462706e-02
  9.184446e-01    1.586760e+00   2.458844e-02
  9.206551e-01    1.594197e+00   2.461047e-02
  9.228655e-01    1.640853e+00   2.493230e-02
  9.250760e-01    1.615017e+00   2.469975e-02
  9.272864e-01    1.649702e+00   2.492881e-02
  9.294969e-01    1.644534e+00   2.485346e-02
  9.317074e-01    1.639452e+00   2.477998e-02
  9.339178e-01    1.611626e+00   2.453522e-02
  9.361283e-01    1.633506e+00   2.466477e-02
  9.383387e-01    1.666344e+00   2.487758e-02
  9.405492e-01    1.671497e+00   2.488124e-02
  9.427596e-01    1.674582e+00   2.486832e-02
  9.449701e-01    1.710900e+00   2.510240e-02
  9.471805e-01    1.703773e+00   2.501459e-02
  9.493910e-01    1.708178e+00   2.501250e-02
  9.516015e-01    1.730099e+00   2.513736e-02
  9.538119e-01    1.695633e+00   2.485163e-02
  9.560224e-01    1.666514e+00   2.460261e-02
  9.582328e-01    1.730486e+00   2.503672e-02
  9.604433e-01    1.784523e+00   2.538866e-02
  9.626537e-01    1.756108e+00   2.515183e-02
  9.648642e-01    1.792060e+00   2.537319e-02
  9.670747e-01    1.802159e+00   2.540950e-02
  9.692851e-01    1.822230e+00   2.551662e-02
  9.714956e-01    1.896369e+00   2.599384e-02
  9.737060e-01    1.876077e+00   2.582044e-02
  9.759165e-01    1.898299e+00   2.593626e-02
  9.781269e-01    1.933536e+00   2.614165e-02
  9.803374e-01    1.946937e+00   2.619580e-02
  9.825478e-01    1.912689e+00   2.593016e-02
  9.847583e-01    1.858172e+00   2.552322e-02
  9.869688e-01    1.829592e+00   2.529229e-02
  9.891792e-01    1.758418e+00   2.476249e-02
  9.913897e-01    1.775173e+00   2.484660e-02
  9.936001e-01    1.760546e+00   2.471163e-02
  9.958106e-01    1.725246e+00   2.442941e-02
  9.980210e-01    1.693787e+00   2.417422e-02
  1.000231e+00    1.678803e+00   2.419891e-02
  1.002442e+00    1.654820e+00   2.415309e-02
  1.004652e+00    1.657087e+00   2.423704e-02
  1.006863e+00    1.646193e+00   2.420738e-02
  1.009073e+00    1.622096e+00   2.406633e-02
  1.011284e+00    1.600191e+00   2.393522e-02
  1.013494e+00    1.606804e+00   2.400843e-02
  1.015705e+00    1.618418e+00   2.411779e-02
  1.017915e+00    1.658358e+00   2.443039e-02
  1.020126e+00    1.698401e+00   2.474030e-02
  1.022336e+00    1.681017e+00   2.462551e-02
  1.024547e+00    1.609092e+00   2.410437e-02
  1.026757e+00    1.586803e+00   2.394528e-02
  1.028967e+00    1.537534e+00   2.357831e-02
  1.031178e+00    1.529833e+00   2.352529e-02
  1.033388e+00    1.589697e+00   2.398633e-02
  1.035599e+00    1.563156e+00   2.378872e-02
  1.037809e+00    1.659582e+00   2.451483e-02
  1.040020e+00    1.749134e+00   2.516893e-02
  1.042230e+00    1.809276e+00   2.560012e-02
  1.044441e+00    1.715693e+00   2.492905e-02
  1.046651e+00    1.728360e+00   2.502104e-02
  1.048862e+00    1.740136e+00   2.510530e-02
  1.051072e+00    1.758905e+00   2.523778e-02
  1.053282e+00    1.722836e+00   2.497667e-02
  1.055493e+00    1.638590e+00   2.435385e-02
  1.057703e+00    1.594475e+00   2.402219e-02
  1.059914e+00    1.563994e+00   2.378711e-02
  1.062124e+00    1.545810e+00   2.364429e-02
  1.064335e+00    1.517519e+00   2.342346e-02
  1.066545e+00    1.480151e+00   2.312724e-02
  1.068756e+00    1.562868e+00   2.376084e-02
  1.070966e+00    1.597968e+00   2.401940e-02
  1.073177e+00    1.716062e+00   2.488454e-02
  1.075387e+00    1.687191e+00   2.466883e-02
  1.077597e+00    1.514060e+00   2.336151e-02
  1.079808e+00    1.457536e+00   2.278879e-02
  1.082018e+00    1.462994e+00   2.264236e-02
  1.084229e+00    1.429975e+00   2.227650e-02
  1.086439e+00    1.429582e+00   2.218675e-02
  1.088650e+00    1.450412e+00   2.227226e-02
  1.090860e+00    1.451114e+00   2.221008e-02
  1.093071e+00    1.452068e+00   2.215517e-02
  1.095281e+00    1.446310e+00   2.205396e-02
  1.097492e+00    1.408042e+00   2.170603e-02
  1.099702e+00    1.432025e+00   2.183885e-02
  1.101912e+00    1.430667e+00   2.177981e-02
  1.104123e+00    1.432168e+00   2.174306e-02
  1.106333e+00    1.435592e+00   2.172459e-02
  1.108544e+00    1.420318e+00   2.156460e-02
  1.110754e+00    1.411076e+00   2.145153e-02
  1.112965e+00    1.421650e+00   2.149123e-02
  1.115175e+00    1.400296e+00   2.128833e-02
  1.117386e+00    1.404595e+00   2.128185e-02
  1.119596e+00    1.413940e+00   2.131464e-02
  1.121807e+00    1.431700e+00   2.140896e-02
  1.124017e+00    1.394041e+00   2.108905e-02
  1.126228e+00    1.393758e+00   2.105129e-02
  1.128438e+00    1.386522e+00   2.096000e-02
  1.130648e+00    1.407455e+00   2.108320e-02
  1.132859e+00    1.385850e+00   2.088654e-02
  1.135069e+00    1.377373e+00   2.078801e-02
  1.137280e+00    1.373313e+00   2.072457e-02
  1.139490e+00    1.354299e+00   2.054791e-02
  1.141701e+00    1.371261e+00   2.064323e-02
  1.143911e+00    1.399337e+00   2.082144e-02
  1.146122e+00    1.416975e+00   2.091984e-02
  1.148332e+00    1.405336e+00   2.080158e-02
  1.150543e+00    1.394122e+00   2.068738e-02
  1.152753e+00    1.363553e+00   2.042865e-02
  1.154963e+00    1.341874e+00   2.023488e-02
  1.157174e+00    1.369994e+00   2.041569e-02
  1.159384e+00    1.353314e+00   2.026139e-02
  1.161595e+00    1.359567e+00   2.027840e-02
  1.163805e+00    1.370132e+00   2.032776e-02
  1.166016e+00    1.406880e+00   2.056871e-02
  1.168226e+00    1.429564e+00   2.070425e-02
  1.170437e+00    1.430805e+00   2.068395e-02
  1.172647e+00    1.407312e+00   2.048413e-02
  1.174858e+00    1.366205e+00   2.015461e-02
  1.177068e+00    1.360894e+00   2.008716e-02
  1.179278e+00    1.371365e+00   2.013561e-02
  1.181489e+00    1.382265e+00   2.018823e-02
  1.183699e+00    1.372182e+00   2.008676e-02
  1.185910e+00    1.378025e+00   2.010152e-02
  1.188120e+00    1.350893e+00   1.987600e-02
  1.190331e+00    1.366680e+00   1.996493e-02
  1.192541e+00    1.358657e+00   1.987882e-02
  1.194752e+00    1.378331e+00   1.999492e-02
  1.196962e+00    1.387195e+00   2.003305e-02
  1.199173e+00    1.369458e+00   1.987788e-02
  1.201383e+00    1.329593e+00   1.955944e-02
  1.203593e+00    1.348456e+00   1.967292e-02
  1.205804e+00    1.334912e+00   1.954808e-02
  1.208014e+00    1.356017e+00   1.967511e-02
  1.210225e+00    1.338453e+00   1.952204e-02
  1.212435e+00    1.354220e+00   1.961186e-02
  1.214646e+00    1.339306e+00   1.947757e-02
  1.216856e+00    1.328253e+00   1.937176e-02
  1.219067e+00    1.336818e+00   1.940976e-02
  1.221277e+00    1.360773e+00   1.955778e-02
  1.223488e+00    1.318503e+00   1.922618e-02
  1.225698e+00    1.345625e+00   1.939604e-02
  1.227909e+00    1.367164e+00   1.952031e-02
  1.230119e+00    1.364903e+00   1.947214e-02
  1.232329e+00    1.358411e+00   1.939496e-02
  1.234540e+00    1.358393e+00   1.936444e-02
  1.236750e+00    1.331860e+00   1.914435e-02
  1.238961e+00    1.358511e+00   1.930785e-02
  1.241171e+00    1.347220e+00   1.920332e-02
  1.243382e+00    1.333131e+00   1.907927e-02
  1.245592e+00    1.341657e+00   1.911615e-02
  1.247803e+00    1.335140e+00   1.904615e-02
  1.250013e+00    1.334857e+00   1.902071e-02
  1.252224e+00    1.338472e+00   1.902331e-02
  1.254434e+00    1.340299e+00   1.901263e-02
  1.256644e+00    1.349990e+00   1.905803e-02
  1.258855e+00    1.362958e+00   1.912597e-02
  1.261065e+00    1.349903e+00   1.901078e-02
  1.263276e+00    1.338369e+00   1.890656e-02
  1.265486e+00    1.317819e+00   1.873822e-02
  1.267697e+00    1.361775e+00   1.902505e-02
  1.269907e+00    1.352529e+00   1.893765e-02
  1.272118e+00    1.356819e+00   1.894503e-02
  1.274328e+00    1.322674e+00   1.868262e-02
  1.276539e+00    1.341193e+00   1.879025e-02
  1.278749e+00    1.338464e+00   1.874892e-02
  1.280959e+00    1.364095e+00   1.890494e-02
  1.283170e+00    1.336691e+00   1.869177e-02
  1.285380e+00    1.375134e+00   1.893597e-02
  1.287591e+00    1.364715e+00   1.884197e-02
  1.289801e+00    1.332450e+00   1.859682e-02
  1.292012e+00    1.323002e+00   1.851383e-02
  1.294222e+00    1.324611e+00   1.850900e-02
  1.296433e+00    1.330598e+00   1.853530e-02
  1.298643e+00    1.345121e+00   1.861973e-02
  1.300854e+00    1.343987e+00   1.859552e-02
  1.303064e+00    1.342153e+00   1.856364e-02
  1.305274e+00    1.350049e+00   1.859674e-02
  1.307485e+00    1.354360e+00   1.860481e-02
  1.309695e+00    1.376649e+00   1.873482e-02
  1.311906e+00    1.366945e+00   1.864685e-02
  1.314116e+00    1.361262e+00   1.858716e-02
  1.316327e+00    1.367180e+00   1.860568e-02
  1.318537e+00    1.377103e+00   1.865100e-02
  1.320748e+00    1.351030e+00   1.845201e-02
  1.322958e+00    1.384263e+00   1.865680e-02
  1.325169e+00    1.384298e+00   1.863576e-02
  1.327379e+00    1.382925e+00   1.860444e-02
  1.329589e+00    1.368889e+00   1.848857e-02
  1.331800e+00    1.366265e+00   1.845003e-02
  1.334010e+00    1.374667e+00   1.848581e-02
  1.336221e+00    1.373542e+00   1.845631e-02
  1.338431e+00    1.387877e+00   1.853123e-02
  1.340642e+00    1.380316e+00   1.854555e-02
  1.342852e+00    1.372024e+00   1.859126e-02
  1.345063e+00    1.363760e+00   1.858493e-02
  1.347273e+00    1.336953e+00   1.843644e-02
  1.349484e+00    1.319803e+00   1.834516e-02
  1.351694e+00    1.325808e+00   1.840935e-02
  1.353905e+00    1.345412e+00   1.856291e-02
  1.356115e+00    1.360404e+00   1.868117e-02
  1.358325e+00    1.350563e+00   1.862678e-02
  1.360536e+00    1.351636e+00   1.864583e-02
  1.362746e+00    1.346249e+00   1.861818e-02
  1.364957e+00    1.337749e+00   1.856694e-02
  1.367167e+00    1.320777e+00   1.845588e-02
  1.369378e+00    1.310695e+00   1.839123e-02
  1.371588e+00    1.314065e+00   1.841994e-02
  1.373799e+00    1.311943e+00   1.840868e-02
  1.376009e+00    1.313754e+00   1.842477e-02
  1.378220e+00    1.304938e+00   1.836532e-02
  1.380430e+00    1.296154e+00   1.830609e-02
  1.382640e+00    1.315498e+00   1.844307e-02
  1.384851e+00    1.296069e+00   1.830726e-02
  1.387061e+00    1.321023e+00   1.848293e-02
  1.389272e+00    1.302953e+00   1.835632e-02
  1.391482e+00    1.278416e+00   1.818198e-02
  1.393693e+00    1.271001e+00   1.812830e-02
  1.395903e+00    1.265233e+00   1.808564e-02
  1.398114e+00    1.267799e+00   1.810259e-02
  1.400324e+00    1.296158e+00   1.830180e-02
  1.402535e+00    1.277379e+00   1.816643e-02
  1.404745e+00    1.256206e+00   1.801289e-02
  1.406955e+00    1.269260e+00   1.810353e-02
  1.409166e+00    1.315230e+00   1.842509e-02
  1.411376e+00    1.311853e+00   1.839827e-02
  1.413587e+00    1.275808e+00   1.813994e-02
  1.415797e+00    1.243506e+00   1.790532e-02
  1.418008e+00    1.263076e+00   1.800390e-02
  1.420218e+00    1.265616e+00   1.787252e-02
  1.422429e+00    1.261298e+00   1.775698e-02
  1.424639e+00    1.280017e+00   1.782333e-02
  1.426850e+00    1.248825e+00   1.755059e-02
  1.429060e+00    1.288287e+00   1.777636e-02
  1.431270e+00    1.287795e+00   1.772838e-02
  1.433481e+00    1.274703e+00   1.759700e-02
  1.435691e+00    1.255251e+00   1.742400e-02
  1.437902e+00    1.280354e+00   1.756076e-02
  1.440112e+00    1.266923e+00   1.743311e-02
  1.442323e+00    1.261426e+00   1.736232e-02
  1.444533e+00    1.268463e+00   1.737813e-02
  1.446744e+00    1.294495e+00   1.752413e-02
  1.448954e+00    1.285739e+00   1.743437e-02
  1.451165e+00    1.294461e+00   1.746338e-02
  1.453375e+00    1.262294e+00   1.721707e-02
  1.455586e+00    1.246637e+00   1.708204e-02
  1.457796e+00    1.321171e+00   1.755722e-02
  1.460006e+00    1.307864e+00   1.744095e-02
  1.462217e+00    1.261580e+00   1.710342e-02
  1.464427e+00    1.262570e+00   1.708457e-02
  1.466638e+00    1.268357e+00   1.709837e-02
  1.468848e+00    1.291873e+00   1.723060e-02
  1.471059e+00    1.267690e+00   1.704350e-02
  1.473269e+00    1.257333e+00   1.694945e-02
  1.475480e+00    1.270448e+00   1.701386e-02
  1.477690e+00    1.249063e+00   1.684638e-02
  1.479901e+00    1.275209e+00   1.699788e-02
  1.482111e+00    1.268000e+00   1.692645e-02
  1.484321e+00    1.275632e+00   1.695412e-02
  1.486532e+00    1.264677e+00   1.685883e-02
  1.488742e+00    1.289411e+00   1.700003e-02
  1.490953e+00    1.251125e+00   1.672327e-02
  1.493163e+00    1.273108e+00   1.684715e-02
  1.495374e+00    1.273846e+00   1.683048e-02
  1.497584e+00    1.256726e+00   1.669538e-02
  1.499795e+00    1.264414e+00   1.672469e-02
  1.502005e+00    1.265001e+00   1.670684e-02
  1.504216e+00    1.257353e+00   1.663523e-02
  1.506426e+00    1.259518e+00   1.662874e-02
  1.508636e+00    1.242000e+00   1.649236e-02
  1.510847e+00    1.268844e+00   1.664770e-02
  1.513057e+00    1.272017e+00   1.664326e-02
  1.515268e+00    1.307699e+00   1.684882e-02
  1.517478e+00    1.318802e+00   1.689441e-02
  1.519689e+00    1.319445e+00   1.687294e-02
  1.521899e+00    1.326774e+00   1.689594e-02
  1.524110e+00    1.338104e+00   1.694694e-02
  1.526320e+00    1.318235e+00   1.680056e-02
  1.528531e+00    1.286300e+00   1.657576e-02
  1.530741e+00    1.283322e+00   1.653716e-02
  1.532951e+00    1.275330e+00   1.646581e-02
  1.535162e+00    1.254655e+00   1.641856e-02
  1.537372e+00    1.247775e+00   1.644037e-02
  1.539583e+00    1.224916e+00   1.632298e-02
  1.541793e+00    1.219474e+00   1.629354e-02
  1.544004e+00    1.244620e+00   1.646093e-02
  1.546214e+00    1.242435e+00   1.644498e-02
  1.548425e+00    1.239219e+00   1.642395e-02
  1.550635e+00    1.240970e+00   1.644520e-02
  1.552846e+00    1.239523e+00   1.644524e-02
  1.555056e+00    1.252842e+00   1.649175e-02
  1.557266e+00    1.261107e+00   1.643487e-02
  1.559477e+00    1.239921e+00   1.623724e-02
  1.561687e+00    1.252154e+00   1.628635e-02
  1.563898e+00    1.261967e+00   1.633278e-02
  1.566108e+00    1.283651e+00   1.645629e-02
  1.568319e+00    1.259359e+00   1.628414e-02
  1.570529e+00    1.261926e+00   1.627540e-02
  1.572740e+00    1.268861e+00   1.629219e-02
  1.574950e+00    1.241914e+00   1.609197e-02
  1.577161e+00    1.233722e+00   1.601343e-02
  1.579371e+00    1.263855e+00   1.618398e-02
  1.581582e+00    1.251287e+00   1.608348e-02
  1.583792e+00    1.244024e+00   1.601872e-02
  1.586002e+00    1.240457e+00   1.597814e-02
  1.588213e+00    1.231577e+00   1.590370e-02
  1.590423e+00    1.234192e+00   1.590058e-02
  1.592634e+00    1.228851e+00   1.584464e-02
  1.594844e+00    1.236202e+00   1.587062e-02
  1.597055e+00    1.257641e+00   1.598703e-02
  1.599265e+00    1.257992e+00   1.596841e-02
  1.601476e+00    1.222935e+00   1.572419e-02
  1.603686e+00    1.221617e+00   1.569608e-02
  1.605897e+00    1.244098e+00   1.581966e-02
  1.608107e+00    1.223652e+00   1.566968e-02
  1.610317e+00    1.209674e+00   1.556082e-02
  1.612528e+00    1.236331e+00   1.571216e-02
  1.614738e+00    1.231605e+00   1.566316e-02
  1.616949e+00    1.225530e+00   1.560550e-02
  1.619159e+00    1.209271e+00   1.548303e-02
  1.621370e+00    1.201966e+00   1.541786e-02
  1.623580e+00    1.184087e+00   1.528465e-02
  1.625791e+00    1.174568e+00   1.520509e-02
  1.628001e+00    1.163071e+00   1.511253e-02
  1.630212e+00    1.175981e+00   1.517855e-02
  1.632422e+00    1.178459e+00   1.517670e-02
  1.634632e+00    1.181823e+00   1.518103e-02
  1.636843e+00    1.183025e+00   1.517119e-02
  1.639053e+00    1.128410e+00   1.479990e-02
  1.641264e+00    1.148397e+00   1.491344e-02
  1.643474e+00    1.158798e+00   1.496347e-02
  1.645685e+00    1.144478e+00   1.485416e-02
  1.647895e+00    1.161874e+00   1.494998e-02
  1.650106e+00    1.138000e+00   1.477869e-02
  1.652316e+00    1.129002e+00   1.470380e-02
  1.654527e+00    1.122893e+00   1.464744e-02
  1.656737e+00    1.120640e+00   1.461628e-02
  1.658947e+00    1.140023e+00   1.472581e-02
  1.661158e+00    1.127767e+00   1.463018e-02
  1.663368e+00    1.140887e+00   1.469886e-02
  1.665579e+00    1.160804e+00   1.481018e-02
  1.667789e+00    1.122307e+00   1.454625e-02
  1.670000e+00    1.103173e+00   1.440631e-02
  1.672210e+00    1.095072e+00   1.433751e-02
  1.674421e+00    1.100157e+00   1.435548e-02
  1.676631e+00    1.102267e+00   1.435335e-02
  1.678842e+00    1.118982e+00   1.444586e-02
  1.681052e+00    1.089432e+00   1.423850e-02
  1.683263e+00    1.080841e+00   1.416717e-02
  1.685473e+00    1.085096e+00   1.417986e-02
  1.687683e+00    1.082194e+00   1.414550e-02
  1.689894e+00    1.070643e+00   1.405409e-02
  1.692104e+00    1.093277e+00   1.418683e-02
  1.694315e+00    1.061455e+00   1.396443e-02
  1.696525e+00    1.064018e+00   1.396615e-02
  1.698736e+00    1.064600e+00   1.395516e-02
  1.700946e+00    1.052576e+00   1.386104e-02
  1.703157e+00    1.045812e+00   1.380187e-02
  1.705367e+00    1.048693e+00   1.380640e-02
  1.707578e+00    1.063950e+00   1.389179e-02
  1.709788e+00    1.050049e+00   1.378661e-02
  1.711998e+00    1.035958e+00   1.367882e-02
  1.714209e+00    1.032014e+00   1.363835e-02
  1.716419e+00    1.037460e+00   1.366002e-02
  1.718630e+00    1.031353e+00   1.360548e-02
  1.720840e+00    1.020334e+00   1.351848e-02
  1.723051e+00    1.009576e+00   1.343326e-02
  1.725261e+00    1.000034e+00   1.335511e-02
  1.727472e+00    9.917961e-01   1.328598e-02
  1.729682e+00    1.013371e+00   1.341626e-02
  1.731893e+00    1.036388e+00   1.355370e-02
  1.734103e+00    1.026688e+00   1.347623e-02
  1.736313e+00    1.004009e+00   1.331257e-02
  1.738524e+00    9.876980e-01   1.319024e-02
  1.740734e+00    9.947571e-01   1.322363e-02
  1.742945e+00    9.848420e-01   1.314418e-02
  1.745155e+00    1.006503e+00   1.327440e-02
  1.747366e+00    9.933044e-01   1.317324e-02
  1.749576e+00    9.805604e-01   1.307483e-02
  1.751787e+00    9.691564e-01   1.298531e-02
  1.753997e+00    9.683248e-01   1.296646e-02
  1.756208e+00    9.654614e-01   1.293412e-02
  1.758418e+00    9.520136e-01   1.283075e-02
  1.760628e+00    9.511219e-01   1.281152e-02
  1.762839e+00    9.445988e-01   1.275442e-02
  1.765049e+00    9.394788e-01   1.270685e-02
  1.767260e+00    9.434834e-01   1.272120e-02
  1.769470e+00    9.478949e-01   1.273797e-02
  1.771681e+00    9.457837e-01   1.271068e-02
  1.773891e+00    9.300380e-01   1.259153e-02
  1.776102e+00    9.389175e-01   1.263867e-02
  1.778312e+00    9.263737e-01   1.254137e-02
  1.780523e+00    9.117349e-01   1.242934e-02
  1.782733e+00    9.310314e-01   1.254754e-02
  1.784944e+00    9.475723e-01   1.264557e-02
  1.787154e+00    9.273918e-01   1.249767e-02
  1.789364e+00    9.239661e-01   1.246214e-02
  1.791575e+00    9.318653e-01   1.250271e-02
  1.793785e+00    9.659243e-01   1.271647e-02
  1.795996e+00    9.374475e-01   1.251500e-02
  1.798206e+00    9.419715e-01   1.253246e-02
  1.800417e+00    9.951637e-01   1.286823e-02
  1.802627e+00    1.055132e+00   1.323744e-02
  1.804838e+00    1.107752e+00   1.355017e-02
  1.807048e+00    1.076439e+00   1.334337e-02
  1.809259e+00    9.786857e-01   1.270897e-02
  1.811469e+00    9.191043e-01   1.230091e-02
  1.813679e+00    9.198382e-01   1.229071e-02
  1.815890e+00    9.176458e-01   1.226113e-02
  1.818100e+00    9.094229e-01   1.219088e-02
  1.820311e+00    8.990104e-01   1.210604e-02
  1.822521e+00    9.228892e-01   1.225067e-02
  1.824732e+00    8.915199e-01   1.202585e-02
  1.826942e+00    8.827074e-01   1.195394e-02
  1.829153e+00    8.854697e-01   1.196095e-02
  1.831363e+00    8.883957e-01   1.196863e-02
  1.833574e+00    8.664007e-01   1.180798e-02
  1.835784e+00    8.494585e-01   1.168070e-02
  1.837994e+00    8.746267e-01   1.184078e-02
  1.840205e+00    9.217796e-01   1.214430e-02
  1.842415e+00    9.110444e-01   1.206139e-02
  1.844626e+00    8.578044e-01   1.169217e-02
  1.846836e+00    8.673401e-01   1.174554e-02
  1.849047e+00    8.661151e-01   1.172564e-02
  1.851257e+00    8.873966e-01   1.185911e-02
  1.853468e+00    9.175227e-01   1.204965e-02
  1.855678e+00    9.282155e-01   1.211047e-02
  1.857889e+00    8.972135e-01   1.189780e-02
  1.860099e+00    8.860596e-01   1.181484e-02
  1.862309e+00    8.869058e-01   1.181183e-02
  1.864520e+00    8.603737e-01   1.162522e-02
  1.866730e+00    8.712305e-01   1.168883e-02
  1.868941e+00    8.702338e-01   1.167111e-02
  1.871151e+00    8.663707e-01   1.163369e-02
  1.873362e+00    8.768017e-01   1.169197e-02
  1.875572e+00    9.055559e-01   1.187087e-02
  1.877783e+00    8.850557e-01   1.172405e-02
  1.879993e+00    8.561258e-01   1.151964e-02
  1.882204e+00    8.478760e-01   1.145307e-02
  1.884414e+00    8.398644e-01   1.138779e-02
  1.886624e+00    8.468045e-01   1.142366e-02
  1.888835e+00    8.451086e-01   1.140120e-02
  1.891045e+00    8.515773e-01   1.143381e-02
  1.893256e+00    8.499167e-01   1.141149e-02
  1.895466e+00    8.327910e-01   1.128480e-02
  1.897677e+00    8.325760e-01   1.127242e-02
  1.899887e+00    8.424700e-01   1.132817e-02
  1.902098e+00    8.329095e-01   1.125288e-02
  1.904308e+00    8.032725e-01   1.104045e-02
  1.906519e+00    8.080515e-01   1.106254e-02
  1.908729e+00    7.917517e-01   1.094004e-02
  1.910940e+00    8.144146e-01   1.108445e-02
  1.913150e+00    8.210903e-01   1.111925e-02
  1.915360e+00    8.053044e-01   1.100134e-02
  1.917571e+00    8.106714e-01   1.102714e-02
  1.919781e+00    8.340899e-01   1.117451e-02
  1.921992e+00    8.076903e-01   1.098573e-02
  1.924202e+00    8.036464e-01   1.094751e-02
  1.926413e+00    8.007476e-01   1.091755e-02
  1.928623e+00    7.961056e-01   1.087542e-02
  1.930834e+00    8.304321e-01   1.109687e-02
  1.933044e+00    8.217891e-01   1.102825e-02
  1.935255e+00    8.208808e-01   1.101175e-02
  1.937465e+00    8.229968e-01   1.101546e-02
  1.939675e+00    7.934970e-01   1.080546e-02
  1.941886e+00    8.234975e-01   1.099743e-02
  1.944096e+00    8.297102e-01   1.102851e-02
  1.946307e+00    7.951024e-01   1.078576e-02
  1.948517e+00    7.617446e-01   1.054687e-02
  1.950728e+00    8.024682e-01   1.081485e-02
  1.952938e+00    8.042346e-01   1.081663e-02
  1.955149e+00    7.979702e-01   1.076418e-02
  1.957359e+00    7.848127e-01   1.066509e-02
  1.959570e+00    7.887589e-01   1.068103e-02
  1.961780e+00    7.877513e-01   1.066434e-02
  1.963990e+00    7.962810e-01   1.071176e-02
  1.966201e+00    8.035541e-01   1.075044e-02
  1.968411e+00    8.016933e-01   1.072775e-02
  1.970622e+00    7.994952e-01   1.070287e-02
  1.972832e+00    7.917467e-01   1.064088e-02
  1.975043e+00    7.935845e-01   1.064313e-02
  1.977253e+00    7.880014e-01   1.059565e-02
  1.979464e+00    7.958261e-01   1.063803e-02
  1.981674e+00    7.770854e-01   1.050179e-02
  1.983885e+00    7.905039e-01   1.058199e-02
  1.986095e+00    7.830406e-01   1.052222e-02
  1.988305e+00    7.762075e-01   1.046632e-02
  1.990516e+00    7.834885e-01   1.050534e-02
  1.992726e+00    7.846584e-01   1.050348e-02
  1.994937e+00    7.757940e-01   1.043386e-02
  1.997147e+00    7.655386e-01   1.035501e-02
  1.999358e+00    7.523522e-01   1.025572e-02
  2.001568e+00    7.677698e-01   1.034949e-02
  2.003779e+00    7.577838e-01   1.027017e-02
  2.005989e+00    7.512800e-01   1.021414e-02
  2.008200e+00    7.548399e-01   1.022690e-02
  2.010410e+00    7.742916e-01   1.034605e-02
  2.012621e+00    7.741518e-01   1.033336e-02
  2.014831e+00    7.813660e-01   1.036983e-02
  2.017041e+00    7.741997e-01   1.031174e-02
  2.019252e+00    7.725835e-01   1.029096e-02
  2.021462e+00    7.572625e-01   1.017895e-02
  2.023673e+00    7.605633e-01   1.019174e-02
  2.025883e+00    7.763672e-01   1.028749e-02
  2.028094e+00    7.450518e-01   1.006836e-02
  2.030304e+00    7.433378e-01   1.004733e-02
  2.032515e+00    7.603091e-01   1.015208e-02
  2.034725e+00    7.668030e-01   1.018586e-02
  2.036936e+00    7.562660e-01   1.010631e-02
  2.039146e+00    7.531794e-01   1.007613e-02
  2.041356e+00    7.430666e-01   9.998683e-03
  2.043567e+00    7.537527e-01   1.006102e-02
  2.045777e+00    7.546149e-01   1.005755e-02
  2.047988e+00    7.531123e-01   1.003817e-02
  2.050198e+00    7.554971e-01   1.004559e-02
  2.052409e+00    7.711058e-01   1.014110e-02
  2.054619e+00    7.698264e-01   1.012522e-02
  2.056830e+00    7.623985e-01   1.006902e-02
  2.059040e+00    7.663516e-01   1.008749e-02
  2.061251e+00    7.846226e-01   1.019964e-02
  2.063461e+00    7.646709e-01   1.006145e-02
  2.065671e+00    7.563439e-01   9.997741e-03
  2.067882e+00    7.550596e-01   9.980220e-03
  2.070092e+00    7.429392e-01   9.890620e-03
  2.072303e+00    7.606276e-01   9.998430e-03
  2.074513e+00    7.717101e-01   1.006154e-02
  2.076724e+00    7.621013e-01   9.989133e-03
  2.078934e+00    7.645041e-01   9.995727e-03
  2.081145e+00    7.443172e-01   9.853801e-03
  2.083355e+00    7.378894e-01   9.801988e-03
  2.085566e+00    7.514206e-01   9.882488e-03
  2.087776e+00    7.481490e-01   9.851390e-03
  2.089986e+00    7.483237e-01   9.843692e-03
  2.092197e+00    7.712499e-01   9.984171e-03
  2.094407e+00    8.062450e-01   1.019853e-02
  2.096618e+00    7.642336e-01   9.920216e-03
  2.098828e+00    7.473226e-01   9.800449e-03
  2.101039e+00    7.385900e-01   9.733989e-03
  2.103249e+00    7.349601e-01   9.701356e-03
  2.105460e+00    7.309766e-01   9.666004e-03
  2.107670e+00    7.201983e-01   9.585806e-03
  2.109881e+00    7.075798e-01   9.492408e-03
  2.112091e+00    7.105280e-01   9.503269e-03
  2.114301e+00    7.152151e-01   9.525836e-03
  2.116512e+00    7.308445e-01   9.620508e-03
  2.118722e+00    7.173915e-01   9.522785e-03
  2.120933e+00    6.934785e-01   9.354017e-03
  2.123143e+00    7.115574e-01   9.466281e-03
  2.125354e+00    7.115408e-01   9.457706e-03
  2.127564e+00    7.085864e-01   9.429351e-03
  2.129775e+00    6.983624e-01   9.352474e-03
  2.131985e+00    7.145292e-01   9.451015e-03
  2.134196e+00    7.031718e-01   9.367113e-03
  2.136406e+00    6.922099e-01   9.285176e-03
  2.138617e+00    6.973602e-01   9.311270e-03
  2.140827e+00    7.039325e-01   9.371058e-03
  2.143037e+00    6.974838e-01   9.373200e-03
  2.145248e+00    6.934816e-01   9.368075e-03
  2.147458e+00    7.007723e-01   9.432284e-03
  2.149669e+00    7.077945e-01   9.491331e-03
  2.151879e+00    6.974608e-01   9.430977e-03
  2.154090e+00    7.115744e-01   9.533281e-03
  2.156300e+00    6.987982e-01   9.453925e-03
  2.158511e+00    6.811820e-01   9.339218e-03
  2.160721e+00    7.125126e-01   9.556435e-03
  2.162932e+00    7.236348e-01   9.634560e-03
  2.165142e+00    7.110595e-01   9.553527e-03
  2.167352e+00    7.045890e-01   9.512892e-03
  2.169563e+00    7.148107e-01   9.583620e-03
  2.171773e+00    7.049204e-01   9.519570e-03
  2.173984e+00    6.994677e-01   9.484089e-03
  2.176194e+00    6.918578e-01   9.433561e-03
  2.178405e+00    6.928958e-01   9.441317e-03
  2.180615e+00    6.829212e-01   9.373818e-03
  2.182826e+00    6.815497e-01   9.365045e-03
  2.185036e+00    6.892942e-01   9.418177e-03
  2.187247e+00    6.919682e-01   9.436361e-03
  2.189457e+00    6.913630e-01   9.431836e-03
  2.191667e+00    7.052872e-01   9.526158e-03
  2.193878e+00    6.901669e-01   9.422932e-03
  2.196088e+00    6.848052e-01   9.385569e-03
  2.198299e+00    6.967685e-01   9.466088e-03
  2.200509e+00    6.876644e-01   9.403005e-03
  2.202720e+00    6.917708e-01   9.429852e-03
  2.204930e+00    6.999010e-01   9.483865e-03
  2.207141e+00    6.942453e-01   9.444332e-03
  2.209351e+00    7.007666e-01   9.486682e-03
  2.211562e+00    6.682980e-01   9.262708e-03
  2.213772e+00    6.673888e-01   9.201283e-03
  2.215982e+00    6.844673e-01   9.273789e-03
  2.218193e+00    6.900797e-01   9.281797e-03
  2.220403e+00    6.687440e-01   9.112710e-03
  2.222614e+00    6.598487e-01   9.031168e-03
  2.224824e+00    6.743883e-01   9.110707e-03
  2.227035e+00    6.874015e-01   9.180574e-03
  2.229245e+00    6.799220e-01   9.113430e-03
  2.231456e+00    6.785818e-01   9.088726e-03
  2.233666e+00    6.850401e-01   9.116634e-03
  2.235877e+00    6.758349e-01   9.040852e-03
  2.238087e+00    6.839512e-01   9.081352e-03
  2.240298e+00    6.842487e-01   9.069404e-03
  2.242508e+00    6.732178e-01   8.980830e-03
  2.244718e+00    6.702669e-01   8.945300e-03
  2.246929e+00    6.655076e-01   8.899093e-03
  2.249139e+00    6.636252e-01   8.874148e-03
  2.251350e+00    6.656428e-01   8.875932e-03
  2.253560e+00    6.498290e-01   8.758455e-03
  2.255771e+00    6.636090e-01   8.839424e-03
  2.257981e+00    6.599588e-01   8.803962e-03
  2.260192e+00    6.599793e-01   8.793011e-03
  2.262402e+00    6.622400e-01   8.797226e-03
  2.264613e+00    6.733961e-01   8.860103e-03
  2.266823e+00    6.760305e-01   8.866927e-03
  2.269033e+00    6.762199e-01   8.857666e-03
  2.271244e+00    6.871529e-01   8.918409e-03
  2.273454e+00    6.883425e-01   8.915675e-03
  2.275665e+00    6.907794e-01   8.920913e-03
  2.277875e+00    6.723230e-01   8.790922e-03
  2.280086e+00    6.774645e-01   8.814281e-03
  2.282296e+00    6.854029e-01   8.856195e-03
  2.284507e+00    6.769956e-01   8.791454e-03
  2.286717e+00    6.532678e-01   8.626571e-03
  2.288928e+00    6.626387e-01   8.678304e-03
  2.291138e+00    6.600270e-01   8.651758e-03
  2.293348e+00    6.524924e-01   8.592709e-03
  2.295559e+00    6.519684e-01   8.579971e-03
  2.297769e+00    6.637352e-01   8.647718e-03
  2.299980e+00    6.675348e-01   8.663035e-03
  2.302190e+00    6.479917e-01   8.526178e-03
  2.304401e+00    6.379126e-01   8.450395e-03
  2.306611e+00    6.352869e-01   8.423891e-03
  2.308822e+00    6.338144e-01   8.405860e-03
  2.311032e+00    6.447166e-01   8.471413e-03
  2.313243e+00    6.424397e-01   8.450219e-03
  2.315453e+00    6.375002e-01   8.410153e-03
  2.317663e+00    6.511641e-01   8.490662e-03
  2.319874e+00    6.460902e-01   8.448783e-03
  2.322084e+00    6.453300e-01   8.434872e-03
  2.324295e+00    6.383213e-01   8.380737e-03
  2.326505e+00    6.391478e-01   8.377162e-03
  2.328716e+00    6.507416e-01   8.444187e-03
  2.330926e+00    6.449981e-01   8.398042e-03
  2.333137e+00    6.546750e-01   8.452346e-03
  2.335347e+00    6.358278e-01   8.320975e-03
  2.337558e+00    6.369922e-01   8.320345e-03
  2.339768e+00    6.517386e-01   8.407483e-03
  2.341979e+00    6.444312e-01   8.351803e-03
  2.344189e+00    6.472634e-01   8.361677e-03
  2.346399e+00    6.424493e-01   8.321988e-03
  2.348610e+00    6.405188e-01   8.300992e-03
  2.350820e+00    6.425868e-01   8.306144e-03
  2.353031e+00    6.402528e-01   8.282717e-03
  2.355241e+00    6.454166e-01   8.307923e-03
  2.357452e+00    6.439999e-01   8.290306e-03
  2.359662e+00    6.519769e-01   8.333129e-03
  2.361873e+00    6.427710e-01   8.265797e-03
  2.364083e+00    6.255418e-01   8.146284e-03
  2.366294e+00    6.255345e-01   8.138144e-03
  2.368504e+00    6.260287e-01   8.133279e-03
  2.370714e+00    6.326725e-01   8.168227e-03
  2.372925e+00    6.393037e-01   8.202786e-03
  2.375135e+00    6.263751e-01   8.111345e-03
  2.377346e+00    6.189683e-01   8.055327e-03
  2.379556e+00    6.315944e-01   8.129114e-03
  2.381767e+00    6.317365e-01   8.122101e-03
  2.383977e+00    6.287081e-01   8.094646e-03
  2.386188e+00    6.260042e-01   8.069236e-03
  2.388398e+00    6.332493e-01   8.107754e-03
  2.390609e+00    6.333601e-01   8.100648e-03
  2.392819e+00    6.080717e-01   7.929566e-03
  2.395029e+00    6.233146e-01   8.020597e-03
  2.397240e+00    6.244947e-01   8.020283e-03
  2.399450e+00    6.272153e-01   8.029825e-03
  2.401661e+00    6.168546e-01   7.955533e-03
  2.403871e+00    6.200816e-01   7.968479e-03
  2.406082e+00    6.175517e-01   7.944752e-03
  2.408292e+00    6.099737e-01   7.888042e-03
  2.410503e+00    6.159654e-01   7.919163e-03
  2.412713e+00    6.054250e-01   7.843333e-03
  2.414924e+00    6.132121e-01   7.886061e-03
  2.417134e+00    5.981826e-01   7.781265e-03
  2.419344e+00    6.041117e-01   7.812283e-03
  2.421555e+00    5.972224e-01   7.760144e-03
  2.423765e+00    6.008533e-01   7.776288e-03
  2.425976e+00    5.887555e-01   7.689875e-03
  2.428186e+00    5.953418e-01   7.725561e-03
  2.430397e+00    6.017258e-01   7.759368e-03
  2.432607e+00    5.888276e-01   7.668530e-03
  2.434818e+00    5.951712e-01   7.702176e-03
  2.437028e+00    5.850090e-01   7.629048e-03
  2.439239e+00    5.917117e-01   7.664974e-03
  2.441449e+00    5.936660e-01   7.670428e-03
  2.443659e+00    6.064014e-01   7.744805e-03
  2.445870e+00    5.906349e-01   7.655738e-03
  2.448080e+00    5.961958e-01   7.726884e-03
  2.450291e+00    5.824008e-01   7.653653e-03
  2.452501e+00    5.812731e-01   7.657446e-03
  2.454712e+00    5.590317e-01   7.517842e-03
  2.456922e+00    5.596457e-01   7.528530e-03
  2.459133e+00    5.493005e-01   7.463957e-03
  2.461343e+00    5.600240e-01   7.540779e-03
  2.463554e+00    5.715477e-01   7.621469e-03
  2.465764e+00    5.618009e-01   7.559339e-03
  2.467975e+00    5.631435e-01   7.570656e-03
  2.470185e+00    5.484056e-01   7.473174e-03
  2.472395e+00    5.556699e-01   7.523722e-03
  2.474606e+00    5.551409e-01   7.521701e-03
  2.476816e+00    5.467743e-01   7.465541e-03
  2.479027e+00    5.393808e-01   7.415745e-03
  2.481237e+00    5.446411e-01   7.452072e-03
  2.483448e+00    5.507378e-01   7.493986e-03
  2.485658e+00    5.668835e-01   7.602882e-03
  2.487869e+00    5.578253e-01   7.541955e-03
  2.490079e+00    5.447113e-01   7.452237e-03
  2.492290e+00    5.431201e-01   7.440926e-03
  2.494500e+00    5.319482e-01   7.363250e-03
  2.496710e+00    5.382264e-01   7.405901e-03
  2.498921e+00    5.247330e-01   7.311480e-03
  2.501131e+00    5.249841e-01   7.312291e-03
  2.503342e+00    5.305814e-01   7.349906e-03
  2.505552e+00    5.322110e-01   7.360044e-03
  2.507763e+00    5.343086e-01   7.373127e-03
  2.509973e+00    5.307124e-01   7.346873e-03
  2.512184e+00    5.293530e-01   7.335831e-03
  2.514394e+00    5.153417e-01   7.228864e-03
  2.516605e+00    5.270581e-01   7.263442e-03
  2.518815e+00    5.391818e-01   7.317855e-03
  2.521025e+00    5.370740e-01   7.282355e-03
  2.523236e+00    5.395735e-01   7.281040e-03
  2.525446e+00    5.336192e-01   7.225048e-03
  2.527657e+00    5.185588e-01   7.107844e-03
  2.529867e+00    5.308552e-01   7.177359e-03
  2.532078e+00    5.406585e-01   7.228072e-03
  2.534288e+00    5.346108e-01   7.173525e-03
  2.536499e+00    5.358230e-01   7.169588e-03
  2.538709e+00    5.203366e-01   7.054257e-03
  2.540920e+00    5.128771e-01   6.992986e-03
  2.543130e+00    5.265926e-01   7.075483e-03
  2.545340e+00    5.358788e-01   7.127409e-03
  2.547551e+00    5.352117e-01   7.112925e-03
  2.549761e+00    5.314066e-01   7.077922e-03
  2.551972e+00    5.203211e-01   6.994371e-03
  2.554182e+00    5.314347e-01   7.059401e-03
  2.556393e+00    5.342186e-01   7.068666e-03
  2.558603e+00    5.289347e-01   7.024472e-03
  2.560814e+00    5.259204e-01   6.995684e-03
  2.563024e+00    5.230550e-01   6.967976e-03
  2.565235e+00    5.300340e-01   7.004701e-03
  2.567445e+00    5.321107e-01   7.008749e-03
  2.569656e+00    5.168684e-01   6.897894e-03
  2.571866e+00    5.202959e-01   6.911355e-03
  2.574076e+00    5.028511e-01   6.785356e-03
  2.576287e+00    5.036327e-01   6.782402e-03
  2.578497e+00    5.016314e-01   6.761177e-03
  2.580708e+00    5.197851e-01   6.874307e-03
  2.582918e+00    5.147910e-01   6.833453e-03
  2.585129e+00    5.230448e-01   6.880181e-03
  2.587339e+00    5.290315e-01   6.911672e-03
  2.589550e+00    5.201440e-01   6.845768e-03
  2.591760e+00    5.086882e-01   6.762249e-03
  2.593971e+00    5.127802e-01   6.781854e-03
  2.596181e+00    5.100726e-01   6.757702e-03
  2.598391e+00    5.194541e-01   6.814344e-03
  2.600602e+00    5.153839e-01   6.781651e-03
  2.602812e+00    5.097186e-01   6.736727e-03
  2.605023e+00    5.120223e-01   6.744733e-03
  2.607233e+00    5.222884e-01   6.804786e-03
  2.609444e+00    5.160503e-01   6.756746e-03
  2.611654e+00    5.039777e-01   6.669933e-03
  2.613865e+00    5.005747e-01   6.640384e-03
  2.616075e+00    5.084923e-01   6.685518e-03
  2.618286e+00    5.207983e-01   6.758847e-03
  2.620496e+00    5.076368e-01   6.666189e-03
  2.622706e+00    5.091303e-01   6.670213e-03
  2.624917e+00    5.063039e-01   6.645822e-03
  2.627127e+00    5.081909e-01   6.652421e-03
  2.629338e+00    5.108113e-01   6.663525e-03
  2.631548e+00    5.101618e-01   6.653098e-03
  2.633759e+00    4.949721e-01   6.546200e-03
  2.635969e+00    5.017754e-01   6.584343e-03
  2.638180e+00    5.033670e-01   6.587780e-03
  2.640390e+00    4.978451e-01   6.544963e-03
  2.642601e+00    5.101036e-01   6.618330e-03
  2.644811e+00    5.136331e-01   6.634013e-03
  2.647021e+00    5.080312e-01   6.591134e-03
  2.649232e+00    5.083784e-01   6.586596e-03
  2.651442e+00    5.069841e-01   6.571013e-03
  2.653653e+00    5.062173e-01   6.559191e-03
  2.655863e+00    5.069275e-01   6.557066e-03
  2.658074e+00    5.026740e-01   6.522833e-03
  2.660284e+00    5.112860e-01   6.572040e-03
  2.662495e+00    4.990474e-01   6.486148e-03
  2.664705e+00    5.062999e-01   6.526460e-03
  2.666916e+00    5.055723e-01   6.515258e-03
  2.669126e+00    5.015703e-01   6.482934e-03
  2.671337e+00    4.905230e-01   6.404589e-03
  2.673547e+00    5.079518e-01   6.510903e-03
  2.675757e+00    4.953207e-01   6.423009e-03
  2.677968e+00    5.052502e-01   6.480441e-03
  2.680178e+00    5.043917e-01   6.468493e-03
  2.682389e+00    4.953720e-01   6.403983e-03
  2.684599e+00    4.900429e-01   6.363269e-03
  2.686810e+00    5.043086e-01   6.448537e-03
  2.689020e+00    4.877859e-01   6.335768e-03
  2.691231e+00    4.872370e-01   6.325921e-03
  2.693441e+00    4.900320e-01   6.337895e-03
  2.695652e+00    5.024117e-01   6.410866e-03
  2.697862e+00    4.901929e-01   6.326082e-03
  2.700072e+00    4.850312e-01   6.286653e-03
  2.702283e+00    4.750267e-01   6.215317e-03
  2.704493e+00    5.027668e-01   6.387859e-03
  2.706704e+00    4.934778e-01   6.322150e-03
  2.708914e+00    4.865153e-01   6.271427e-03
  2.711125e+00    4.899147e-01   6.287032e-03
  2.713335e+00    4.844827e-01   6.246029e-03
  2.715546e+00    4.786327e-01   6.201781e-03
  2.717756e+00    4.883042e-01   6.258223e-03
  2.719967e+00    4.935964e-01   6.285794e-03
  2.722177e+00    4.856687e-01   6.228993e-03
  2.724387e+00    4.723316e-01   6.136843e-03
  2.726598e+00    4.739863e-01   6.141591e-03
  2.728808e+00    4.873559e-01   6.221438e-03
  2.731019e+00    4.844989e-01   6.197067e-03
  2.733229e+00    4.897039e-01   6.224417e-03
  2.735440e+00    4.892827e-01   6.215435e-03
  2.737650e+00    4.972235e-01   6.259581e-03
  2.739861e+00    4.803007e-01   6.146083e-03
  2.742071e+00    4.902282e-01   6.203476e-03
  2.744282e+00    4.976274e-01   6.243795e-03
  2.746492e+00    4.990098e-01   6.246310e-03
  2.748702e+00    4.939100e-01   6.208344e-03
  2.750913e+00    4.830588e-01   6.133963e-03
  2.753123e+00    4.758207e-01   6.081744e-03
  2.755334e+00    4.838424e-01   6.126706e-03
  2.757544e+00    4.708585e-01   6.038266e-03
  2.759755e+00    4.926348e-01   6.170333e-03
  2.761965e+00    4.907914e-01   6.152770e-03
  2.764176e+00    4.830008e-01   6.097719e-03
  2.766386e+00    4.811619e-01   6.080294e-03
  2.768597e+00    4.850029e-01   6.098623e-03
  2.770807e+00    4.749584e-01   6.029306e-03
  2.773017e+00    4.763145e-01   6.031928e-03
  2.775228e+00    4.799269e-01   6.048979e-03
  2.777438e+00    4.750792e-01   6.012576e-03
  2.779649e+00    4.804353e-01   6.040443e-03
  2.781859e+00    4.876526e-01   6.079838e-03
  2.784070e+00    4.893281e-01   6.084337e-03
  2.786280e+00    4.811608e-01   6.027558e-03
  2.788491e+00    4.684907e-01   5.941891e-03
  2.790701e+00    4.788449e-01   6.001512e-03
  2.792912e+00    4.890819e-01   6.059293e-03
  2.795122e+00    4.935442e-01   6.081031e-03
  2.797333e+00    4.915441e-01   6.063061e-03
  2.799543e+00    4.764248e-01   5.963207e-03
  2.801753e+00    4.707025e-01   5.921458e-03
  2.803964e+00    4.772993e-01   5.957128e-03
  2.806174e+00    4.773891e-01   5.951539e-03
  2.808385e+00    4.957748e-01   6.058103e-03
  2.810595e+00    4.950471e-01   6.046656e-03
  2.812806e+00    4.785217e-01   5.938247e-03
  2.815016e+00    4.761450e-01   5.918712e-03
  2.817227e+00    4.800017e-01   5.968734e-03
  2.819437e+00    4.790920e-01   5.974208e-03
  2.821648e+00    4.782595e-01   5.971318e-03
  2.823858e+00    4.846444e-01   6.016452e-03
  2.826068e+00    4.746425e-01   5.959034e-03
  2.828279e+00    4.717773e-01   5.945066e-03
  2.830489e+00    4.599675e-01   5.873472e-03
  2.832700e+00    4.646458e-01   5.905787e-03
  2.834910e+00    4.694073e-01   5.938047e-03
  2.837121e+00    4.774862e-01   5.990637e-03
  2.839331e+00    4.732479e-01   5.965239e-03
  2.841542e+00    4.769889e-01   5.989776e-03
  2.843752e+00    4.751560e-01   5.979043e-03
  2.845963e+00    4.773709e-01   5.993384e-03
  2.848173e+00    4.726796e-01   5.963935e-03
  2.850383e+00    4.604255e-01   5.886429e-03
  2.852594e+00    4.478215e-01   5.805200e-03
  2.854804e+00    4.618494e-01   5.894919e-03
  2.857015e+00    4.609284e-01   5.888631e-03
  2.859225e+00    4.587322e-01   5.874319e-03
  2.861436e+00    4.679426e-01   5.932348e-03
  2.863646e+00    4.646169e-01   5.911262e-03
  2.865857e+00    4.654402e-01   5.916848e-03
  2.868067e+00    4.775717e-01   5.993677e-03
  2.870278e+00    4.588696e-01   5.874809e-03
  2.872488e+00    4.699560e-01   5.944159e-03
  2.874698e+00    4.739663e-01   5.968439e-03
  2.876909e+00    4.671878e-01   5.924257e-03
  2.879119e+00    4.740907e-01   5.966227e-03
  2.881330e+00    4.570509e-01   5.856573e-03
  2.883540e+00    4.638944e-01   5.898854e-03
  2.885751e+00    4.586374e-01   5.863693e-03
  2.887961e+00    4.650156e-01   5.902435e-03
  2.890172e+00    4.693420e-01   5.928223e-03
  2.892382e+00    4.649256e-01   5.898443e-03
  2.894593e+00    4.736793e-01   5.951873e-03
  2.896803e+00    4.649923e-01   5.895069e-03
  2.899014e+00    4.684683e-01   5.915104e-03
  2.901224e+00    4.725769e-01   5.938995e-03
  2.903434e+00    4.581970e-01   5.845998e-03
  2.905645e+00    4.444354e-01   5.755342e-03
  2.907855e+00    4.748808e-01   5.947051e-03
  2.910066e+00    4.796792e-01   5.974931e-03
  2.912276e+00    4.646454e-01   5.878413e-03
  2.914487e+00    4.589657e-01   5.839911e-03
  2.916697e+00    4.651833e-01   5.877098e-03
  2.918908e+00    4.562339e-01   5.818291e-03
  2.921118e+00    4.634551e-01   5.861440e-03
  2.923329e+00    4.630667e-01   5.856658e-03
  2.925539e+00    4.496842e-01   5.769161e-03
  2.927749e+00    4.570699e-01   5.814015e-03
  2.929960e+00    4.495924e-01   5.763507e-03
  2.932170e+00    4.677612e-01   5.876456e-03
  2.934381e+00    4.651465e-01   5.857563e-03
  2.936591e+00    4.688470e-01   5.878174e-03
  2.938802e+00    4.733800e-01   5.903793e-03
  2.941012e+00    4.534428e-01   5.775794e-03
  2.943223e+00    4.544235e-01   5.779339e-03
  2.945433e+00    4.566449e-01   5.789699e-03
  2.947644e+00    4.650422e-01   5.838531e-03
  2.949854e+00    4.397117e-01   5.673098e-03
  2.952064e+00    4.537531e-01   5.758733e-03
  2.954275e+00    4.490026e-01   5.724139e-03
  2.956485e+00    4.598473e-01   5.788640e-03
  2.958696e+00    4.466239e-01   5.700471e-03
  2.960906e+00    4.591893e-01   5.775895e-03
  2.963117e+00    4.688002e-01   5.831470e-03
  2.965327e+00    4.637887e-01   5.796308e-03
  2.967538e+00    4.476815e-01   5.691851e-03
  2.969748e+00    4.463170e-01   5.680378e-03
  2.971959e+00    4.498770e-01   5.699866e-03
  2.974169e+00    4.673884e-01   5.807122e-03
  2.976379e+00    4.582849e-01   5.747371e-03
  2.978590e+00    4.608085e-01   5.760001e-03
  2.980800e+00    4.684928e-01   5.804983e-03
  2.983011e+00    4.655758e-01   5.784068e-03
  2.985221e+00    4.603984e-01   5.748627e-03
  2.987432e+00    4.688399e-01   5.797939e-03
  2.989642e+00    4.519634e-01   5.690006e-03
  2.991853e+00    4.557906e-01   5.710765e-03
  2.994063e+00    4.532591e-01   5.691962e-03
  2.996274e+00    4.633435e-01   5.751727e-03
  2.998484e+00    4.658550e-01   5.764558e-03
  3.000694e+00    4.611519e-01   5.731917e-03
  3.002905e+00    4.478340e-01   5.645607e-03
  3.005115e+00    4.645684e-01   5.747103e-03
  3.007326e+00    4.617666e-01   5.726577e-03
  3.009536e+00    4.689197e-01   5.767429e-03
  3.011747e+00    4.707436e-01   5.775683e-03
  3.013957e+00    4.507557e-01   5.648577e-03
  3.016168e+00    4.575260e-01   5.687533e-03
  3.018378e+00    4.568369e-01   5.680205e-03
  3.020589e+00    4.584995e-01   5.687301e-03
  3.022799e+00    4.488523e-01   5.624012e-03
  3.025010e+00    4.467753e-01   5.607740e-03
  3.027220e+00    4.515805e-01   5.634730e-03
  3.029430e+00    4.578983e-01   5.670742e-03
  3.031641e+00    4.405220e-01   5.559003e-03
  3.033851e+00    4.505086e-01   5.618135e-03
  3.036062e+00    4.667160e-01   5.715490e-03
  3.038272e+00    4.527336e-01   5.625643e-03
  3.040483e+00    4.433821e-01   5.564060e-03
  3.042693e+00    4.408090e-01   5.544635e-03
  3.044904e+00    4.482195e-01   5.587040e-03
  3.047114e+00    4.474849e-01   5.577692e-03
  3.049325e+00    4.473084e-01   5.572194e-03
  3.051535e+00    4.612297e-01   5.653799e-03
  3.053745e+00    4.641965e-01   5.667143e-03
  3.055956e+00    4.487650e-01   5.567594e-03
  3.058166e+00    4.544341e-01   5.598351e-03
  3.060377e+00    4.520526e-01   5.578892e-03
  3.062587e+00    4.515876e-01   5.571391e-03
  3.064798e+00    4.536644e-01   5.579899e-03
  3.067008e+00    4.405339e-01   5.493893e-03
  3.069219e+00    4.382625e-01   5.475244e-03
  3.071429e+00    4.456699e-01   5.517824e-03
  3.073640e+00    4.541858e-01   5.566944e-03
  3.075850e+00    4.583528e-01   5.588803e-03
  3.078060e+00    4.614815e-01   5.604705e-03
  3.080271e+00    4.468239e-01   5.511514e-03
  3.082481e+00    4.529508e-01   5.545689e-03
  3.084692e+00    4.577726e-01   5.571742e-03
  3.086902e+00    4.526810e-01   5.537385e-03
  3.089113e+00    4.540898e-01   5.542425e-03
  3.091323e+00    4.466096e-01   5.493200e-03
  3.093534e+00    4.402494e-01   5.450613e-03
  3.095744e+00    4.463754e-01   5.485023e-03
  3.097955e+00    4.349717e-01   5.411007e-03
  3.100165e+00    4.546259e-01   5.528541e-03
  3.102375e+00    4.469371e-01   5.478184e-03
  3.104586e+00    4.520797e-01   5.506090e-03
  3.106796e+00    4.437172e-01   5.451430e-03
  3.109007e+00    4.438504e-01   5.449022e-03
  3.111217e+00    4.521478e-01   5.496009e-03
  3.113428e+00    4.591065e-01   5.534671e-03
  3.115638e+00    4.393873e-01   5.411300e-03
  3.117849e+00    4.480970e-01   5.460931e-03
  3.120059e+00    4.405160e-01   5.411096e-03
  3.122270e+00    4.393879e-01   5.400915e-03
  3.124480e+00    4.645082e-01   5.549394e-03
  3.126691e+00    4.613419e-01   5.526832e-03
  3.128901e+00    4.384176e-01   5.384666e-03
  3.131111e+00    4.446595e-01   5.419009e-03
  3.133322e+00    4.433019e-01   5.407296e-03
  3.135532e+00    4.422912e-01   5.397741e-03
  3.137743e+00    4.415989e-01   5.390021e-03
  3.139953e+00    4.449579e-01   5.406810e-03
  3.142164e+00    4.490772e-01   5.443876e-03
  3.144374e+00    4.359512e-01   5.391930e-03
  3.146585e+00    4.471961e-01   5.475654e-03
  3.148795e+00    4.466277e-01   5.483021e-03
  3.151006e+00    4.325208e-01   5.404171e-03
  3.153216e+00    4.427193e-01   5.474664e-03
  3.155426e+00    4.551807e-01   5.557593e-03
  3.157637e+00    4.363400e-01   5.446855e-03
  3.159847e+00    4.355062e-01   5.446485e-03
  3.162058e+00    4.557378e-01   5.576073e-03
  3.164268e+00    4.487635e-01   5.537355e-03
  3.166479e+00    4.267013e-01   5.403116e-03
  3.168689e+00    4.399405e-01   5.489653e-03
  3.170900e+00    4.390555e-01   5.487308e-03
  3.173110e+00    4.573583e-01   5.603435e-03
  3.175321e+00    4.452705e-01   5.531435e-03
  3.177531e+00    4.373250e-01   5.484577e-03
  3.179741e+00    4.333846e-01   5.461878e-03
  3.181952e+00    4.412918e-01   5.513592e-03
  3.184162e+00    4.309098e-01   5.450542e-03
  3.186373e+00    4.366107e-01   5.488063e-03
  3.188583e+00    4.378412e-01   5.497568e-03
  3.190794e+00    4.486206e-01   5.566636e-03
  3.193004e+00    4.262764e-01   5.427458e-03
  3.195215e+00    4.326474e-01   5.469364e-03
  3.197425e+00    4.296571e-01   5.451618e-03
  3.199636e+00    4.414178e-01   5.524958e-03
  3.201846e+00    4.244153e-01   5.416925e-03
  3.204056e+00    4.361344e-01   5.492068e-03
  3.206267e+00    4.439605e-01   5.541997e-03
  3.208477e+00    4.346675e-01   5.484629e-03
  3.210688e+00    4.356700e-01   5.491769e-03
  3.212898e+00    4.348353e-01   5.487095e-03
  3.215109e+00    4.407329e-01   5.524934e-03
  3.217319e+00    4.375489e-01   5.505595e-03
  3.219530e+00    4.320046e-01   5.470980e-03
  3.221740e+00    4.455170e-01   5.556462e-03
  3.223951e+00    4.273773e-01   5.442638e-03
  3.226161e+00    4.299364e-01   5.459085e-03
  3.228372e+00    4.419043e-01   5.535083e-03
  3.230582e+00    4.468220e-01   5.565950e-03
  3.232792e+00    4.392038e-01   5.518521e-03
  3.235003e+00    4.376543e-01   5.509024e-03
  3.237213e+00    4.337675e-01   5.484615e-03
  3.239424e+00    4.277506e-01   5.446429e-03
  3.241634e+00    4.376508e-01   5.509231e-03
  3.243845e+00    4.366449e-01   5.502966e-03
  3.246055e+00    4.384860e-01   5.514278e-03
  3.248266e+00    4.320325e-01   5.473757e-03
  3.250476e+00    4.295204e-01   5.457517e-03
  3.252687e+00    4.290619e-01   5.454516e-03
  3.254897e+00    4.173375e-01   5.379357e-03
  3.257107e+00    4.369189e-01   5.503789e-03
  3.259318e+00    4.290541e-01   5.453798e-03
  3.261528e+00    4.315342e-01   5.469411e-03
  3.263739e+00    4.300608e-01   5.459483e-03
  3.265949e+00    4.393521e-01   5.518031e-03
  3.268160e+00    4.447223e-01   5.551233e-03
  3.270370e+00    4.267580e-01   5.437438e-03
  3.272581e+00    4.305646e-01   5.461358e-03
  3.274791e+00    4.376924e-01   5.505832e-03
  3.277002e+00    4.305955e-01   5.460461e-03
  3.279212e+00    4.275589e-01   5.440781e-03
  3.281422e+00    4.372167e-01   5.501304e-03
  3.283633e+00    4.360601e-01   5.493337e-03
  3.285843e+00    4.399785e-01   5.517616e-03
  3.288054e+00    4.262260e-01   5.429769e-03
  3.290264e+00    4.228045e-01   5.407607e-03
  3.292475e+00    4.345286e-01   5.481217e-03
  3.294685e+00    4.265068e-01   5.429767e-03
  3.296896e+00    4.257994e-01   5.424508e-03
  3.299106e+00    4.259313e-01   5.424768e-03
  3.301317e+00    4.306683e-01   5.453827e-03
  3.303527e+00    4.410445e-01   5.518660e-03
  3.305737e+00    4.230309e-01   5.403754e-03
  3.307948e+00    4.115772e-01   5.329427e-03
  3.310158e+00    4.233046e-01   5.403949e-03
  3.312369e+00    4.400804e-01   5.509114e-03
  3.314579e+00    4.315586e-01   5.454590e-03
  3.316790e+00    4.284794e-01   5.434379e-03
  3.319000e+00    4.348634e-01   5.473523e-03
  3.321211e+00    4.078368e-01   5.300105e-03
  3.323421e+00    4.154074e-01   5.347867e-03
  3.325632e+00    4.261473e-01   5.415672e-03
  3.327842e+00    4.167042e-01   5.354427e-03
  3.330052e+00    4.294325e-01   5.434484e-03
  3.332263e+00    4.409023e-01   5.505571e-03
  3.334473e+00    4.208634e-01   5.378086e-03
  3.336684e+00    4.142826e-01   5.334633e-03
  3.338894e+00    4.213880e-01   5.379315e-03
  3.341105e+00    4.270877e-01   5.414375e-03
  3.343315e+00    4.249194e-01   5.399460e-03
  3.345526e+00    4.353891e-01   5.464661e-03
  3.347736e+00    4.098681e-01   5.300694e-03
  3.349947e+00    4.278100e-01   5.414511e-03
  3.352157e+00    4.293989e-01   5.423391e-03
  3.354368e+00    4.145260e-01   5.327372e-03
  3.356578e+00    4.117497e-01   5.308455e-03
  3.358788e+00    4.139566e-01   5.321349e-03
  3.360999e+00    4.049067e-01   5.261643e-03
  3.363209e+00    4.115124e-01   5.303374e-03
  3.365420e+00    4.051145e-01   5.260490e-03
  3.367630e+00    4.345224e-01   5.447025e-03
  3.369841e+00    4.264721e-01   5.394931e-03
  3.372051e+00    4.253043e-01   5.385515e-03
  3.374262e+00    4.210726e-01   5.356210e-03
  3.376472e+00    4.199840e-01   5.346832e-03
  3.378683e+00    4.272033e-01   5.390027e-03
  3.380893e+00    4.467804e-01   5.509745e-03
  3.383103e+00    4.255603e-01   5.374591e-03
  3.385314e+00    4.298721e-01   5.399436e-03
  3.387524e+00    4.347700e-01   5.427363e-03
  3.389735e+00    4.141228e-01   5.294263e-03
  3.391945e+00    4.197050e-01   5.326130e-03
  3.394156e+00    4.266661e-01   5.365804e-03
  3.396366e+00    4.244613e-01   5.348502e-03
  3.398577e+00    4.079992e-01   5.240713e-03
  3.400787e+00    3.946545e-01   5.165962e-03
  3.402998e+00    4.067378e-01   5.282354e-03
  3.405208e+00    3.989453e-01   5.252001e-03
  3.407418e+00    3.934997e-01   5.231696e-03
  3.409629e+00    4.031877e-01   5.309663e-03
  3.411839e+00    4.052342e-01   5.335026e-03
  3.414050e+00    3.951498e-01   5.279187e-03
  3.416260e+00    3.947952e-01   5.286442e-03
  3.418471e+00    3.853449e-01   5.232131e-03
  3.420681e+00    3.871267e-01   5.252624e-03
  3.422892e+00    3.873648e-01   5.262215e-03
  3.425102e+00    3.925355e-01   5.305059e-03
  3.427313e+00    3.755406e-01   5.196035e-03
  3.429523e+00    3.811060e-01   5.241378e-03
  3.431733e+00    3.565986e-01   5.076468e-03
  3.433944e+00    3.809583e-01   5.253438e-03
  3.436154e+00    3.785280e-01   5.242871e-03
  3.438365e+00    3.824722e-01   5.276050e-03
  3.440575e+00    3.775942e-01   5.248199e-03
  3.442786e+00    3.752455e-01   5.237424e-03
  3.444996e+00    3.783514e-01   5.264577e-03
  3.447207e+00    3.703194e-01   5.213633e-03
  3.449417e+00    3.816645e-01   5.334294e-03
  3.451628e+00    3.732548e-01   5.304788e-03
  3.453838e+00    3.635651e-01   5.256542e-03
  3.456049e+00    3.611162e-01   5.262495e-03
  3.458259e+00    3.774532e-01   5.402492e-03
  3.460469e+00    3.662402e-01   5.341421e-03
  3.462680e+00    3.634223e-01   5.339818e-03
  3.464890e+00    3.652530e-01   5.371038e-03
  3.467101e+00    3.706419e-01   5.428011e-03
  3.469311e+00    3.864099e-01   5.559196e-03
  3.471522e+00    3.919799e-01   5.615896e-03
  3.473732e+00    4.021362e-01   5.704600e-03
  3.475943e+00    4.154264e-01   5.814479e-03
  3.478153e+00    3.959816e-01   5.692364e-03
  3.480364e+00    4.209699e-01   5.884893e-03
  3.482574e+00    4.256220e-01   5.933078e-03
  3.484784e+00    4.248300e-01   5.942681e-03
  3.486995e+00    4.398137e-01   6.062066e-03
  3.489205e+00    4.394894e-01   6.074836e-03
  3.491416e+00    4.434933e-01   6.117596e-03
  3.493626e+00    4.503456e-01   6.179535e-03
  3.495837e+00    4.600573e-01   6.260925e-03
  3.498047e+00    4.593906e-01   6.271063e-03
  3.500258e+00    4.755865e-01   6.395617e-03
  3.502468e+00    4.640178e-01   6.331970e-03
  3.504679e+00    4.714613e-01   6.397158e-03
  3.506889e+00    4.916539e-01   6.547574e-03
  3.509099e+00    4.785267e-01   6.474041e-03
  3.511310e+00    4.968797e-01   6.611802e-03
  3.513520e+00    4.890946e-01   6.574315e-03
  3.515731e+00    5.037612e-01   6.686813e-03
  3.517941e+00    4.873508e-01   6.591300e-03
  3.520152e+00    5.111307e-01   6.764755e-03
  3.522362e+00    5.068300e-01   6.750804e-03
  3.524573e+00    5.251398e-01   6.886189e-03
  3.526783e+00    5.394170e-01   6.992919e-03
  3.528994e+00    5.378772e-01   6.995428e-03
  3.531204e+00    5.338058e-01   6.981468e-03
  3.533414e+00    5.330739e-01   6.988908e-03
  3.535625e+00    5.453098e-01   7.081187e-03
  3.537835e+00    5.406925e-01   7.063344e-03
  3.540046e+00    5.494738e-01   7.129535e-03
  3.542256e+00    5.559332e-01   7.178994e-03
  3.544467e+00    5.509340e-01   7.154373e-03
  3.546677e+00    5.609599e-01   7.226922e-03
  3.548888e+00    5.557510e-01   7.200919e-03
  3.551098e+00    5.606731e-01   7.240207e-03
  3.553309e+00    5.520151e-01   7.192366e-03
  3.555519e+00    5.530640e-01   7.210657e-03
  3.557729e+00    5.506408e-01   7.206747e-03
  3.559940e+00    5.519939e-01   7.227310e-03
  3.562150e+00    5.525967e-01   7.243128e-03
  3.564361e+00    5.472611e-01   7.221550e-03
  3.566571e+00    5.526503e-01   7.271061e-03
  3.568782e+00    5.417053e-01   7.212917e-03
  3.570992e+00    5.294690e-01   7.144605e-03
  3.573203e+00    5.514293e-01   7.305663e-03
  3.575413e+00    5.339463e-01   7.202636e-03
  3.577624e+00    5.418169e-01   7.269745e-03
  3.579834e+00    5.269309e-01   7.182919e-03
  3.582045e+00    5.335589e-01   7.241976e-03
  3.584255e+00    5.434076e-01   7.322660e-03
  3.586465e+00    5.506052e-01   7.385115e-03
  3.588676e+00    5.355400e-01   7.297567e-03
  3.590886e+00    5.315015e-01   7.283656e-03
  3.593097e+00    5.462859e-01   7.398880e-03
  3.595307e+00    5.609928e-01   7.512089e-03
  3.597518e+00    5.424309e-01   7.401070e-03
  3.599728e+00    5.545693e-01   7.497771e-03
  3.601939e+00    5.471649e-01   7.461741e-03
  3.604149e+00    5.600199e-01   7.563632e-03
  3.606360e+00    5.430174e-01   7.462196e-03
  3.608570e+00    5.546240e-01   7.555914e-03
  3.610780e+00    5.243074e-01   7.357487e-03
  3.612991e+00    5.274202e-01   7.389168e-03
  3.615201e+00    5.428711e-01   7.506536e-03
  3.617412e+00    5.622429e-01   7.646727e-03
  3.619622e+00    5.585195e-01   7.627480e-03
  3.621833e+00    5.457578e-01   7.546621e-03
  3.624043e+00    5.548756e-01   7.619056e-03
  3.626254e+00    5.506958e-01   7.600181e-03
  3.628464e+00    5.434010e-01   7.560757e-03
  3.630675e+00    5.253202e-01   7.447877e-03
  3.632885e+00    5.502703e-01   7.637380e-03
  3.635095e+00    5.409719e-01   7.587085e-03
  3.637306e+00    5.279395e-01   7.509400e-03
  3.639516e+00    5.313535e-01   7.548178e-03
  3.641727e+00    5.312726e-01   7.562097e-03
  3.643937e+00    5.557361e-01   7.749132e-03
  3.646148e+00    5.332597e-01   7.605449e-03
  3.648358e+00    5.237964e-01   7.552346e-03
  3.650569e+00    5.217480e-01   7.552158e-03
  3.652779e+00    5.466895e-01   7.745506e-03
  3.654990e+00    5.607905e-01   7.860068e-03
  3.657200e+00    5.515500e-01   7.810170e-03
  3.659410e+00    5.531003e-01   7.836442e-03
  3.661621e+00    5.303271e-01   7.688493e-03
  3.663831e+00    5.477751e-01   7.829282e-03
  3.666042e+00    5.210032e-01   7.650575e-03
  3.668252e+00    5.274060e-01   7.712615e-03
  3.670463e+00    5.230995e-01   7.696179e-03
  3.672673e+00    5.275599e-01   7.744308e-03
  3.674884e+00    5.259578e-01   7.747869e-03
  3.677094e+00    5.181355e-01   7.705335e-03
  3.679305e+00    5.421895e-01   7.897940e-03
  3.681515e+00    5.082958e-01   7.662378e-03
  3.683726e+00    5.546197e-01   8.020045e-03
  3.685936e+00    5.529860e-01   8.024350e-03
  3.688146e+00    5.187654e-01   7.787730e-03
  3.690357e+00    5.131968e-01   7.761539e-03
  3.692567e+00    5.200685e-01   7.829303e-03
  3.694778e+00    5.285885e-01   7.909289e-03
  3.696988e+00    5.379068e-01   7.994819e-03
  3.699199e+00    5.363249e-01   7.999516e-03
  3.701409e+00    5.066747e-01   7.791341e-03
  3.703620e+00    5.081894e-01   7.818996e-03
  3.705830e+00    5.081093e-01   7.834510e-03
  3.708041e+00    5.489507e-01   8.160271e-03
  3.710251e+00    5.525953e-01   8.204524e-03
  3.712461e+00    5.479622e-01   8.187173e-03
  3.714672e+00    5.490363e-01   8.212361e-03
  3.716882e+00    5.318760e-01   8.099904e-03
  3.719093e+00    5.341604e-01   8.134645e-03
  3.721303e+00    5.372771e-01   8.175573e-03
  3.723514e+00    5.157824e-01   8.027578e-03
  3.725724e+00    5.164337e-01   8.049795e-03
  3.727935e+00    5.103607e-01   8.019592e-03
  3.730145e+00    5.211916e-01   8.121677e-03
  3.732356e+00    5.347899e-01   8.244792e-03
  3.734566e+00    5.202993e-01   8.149938e-03
  3.736776e+00    5.207741e-01   8.171501e-03
  3.738987e+00    5.434458e-01   8.365754e-03
  3.741197e+00    5.433704e-01   8.383691e-03
  3.743408e+00    5.358923e-01   8.344236e-03
  3.745618e+00    5.086846e-01   8.147907e-03
  3.747829e+00    5.260088e-01   8.303829e-03
  3.750039e+00    5.113845e-01   8.205965e-03
  3.752250e+00    5.041552e-01   8.166077e-03
  3.754460e+00    5.180716e-01   8.296723e-03
  3.756671e+00    5.262674e-01   8.381180e-03
  3.758881e+00    5.092705e-01   8.263394e-03
  3.761091e+00    5.077769e-01   8.270392e-03
  3.763302e+00    5.102560e-01   8.309674e-03
  3.765512e+00    5.045840e-01   8.282545e-03
  3.767723e+00    5.383302e-01   8.574953e-03
  3.769933e+00    5.310212e-01   8.536383e-03
  3.772144e+00    5.037327e-01   8.333679e-03
  3.774354e+00    5.038936e-01   8.354787e-03
  3.776565e+00    5.143011e-01   8.460693e-03
  3.778775e+00    5.018464e-01   8.377528e-03
  3.780986e+00    4.790652e-01   8.204937e-03
  3.783196e+00    5.109431e-01   8.493893e-03
  3.785407e+00    5.008822e-01   8.430291e-03
  3.787617e+00    5.140261e-01   8.561124e-03
  3.789827e+00    4.935446e-01   8.409245e-03
  3.792038e+00    4.969711e-01   8.459058e-03
  3.794248e+00    4.994181e-01   8.501023e-03
  3.796459e+00    5.157774e-01   8.660748e-03
  3.798669e+00    5.175818e-01   8.697626e-03
  3.800880e+00    5.346026e-01   8.861663e-03
  3.803090e+00    4.920968e-01   8.523750e-03
  3.805301e+00    5.141640e-01   8.735092e-03
  3.807511e+00    4.974901e-01   8.614302e-03
  3.809722e+00    5.121276e-01   8.762562e-03
  3.811932e+00    5.257879e-01   8.901496e-03
  3.814142e+00    5.088407e-01   8.780004e-03
  3.816353e+00    5.198239e-01   8.897460e-03
  3.818563e+00    5.030012e-01   8.775579e-03
  3.820774e+00    5.154397e-01   8.906969e-03
  3.822984e+00    4.875107e-01   8.685411e-03
  3.825195e+00    4.919647e-01   8.748570e-03
  3.827405e+00    5.078866e-01   8.913153e-03
  3.829616e+00    4.834268e-01   8.719623e-03
  3.831826e+00    5.093719e-01   8.974941e-03
  3.834037e+00    5.084342e-01   8.991540e-03
  3.836247e+00    5.015181e-01   8.954923e-03
  3.838457e+00    4.859952e-01   8.840054e-03
  3.840668e+00    5.031473e-01   9.020037e-03
  3.842878e+00    4.976779e-01   8.996396e-03
  3.845089e+00    4.915637e-01   8.966474e-03
  3.847299e+00    5.161178e-01   9.214018e-03
  3.849510e+00    4.883216e-01   8.988138e-03
  3.851720e+00    4.993985e-01   9.110999e-03
  3.853931e+00    5.062886e-01   9.192855e-03
  3.856141e+00    4.880432e-01   9.044577e-03
  3.858352e+00    4.932314e-01   9.111775e-03
  3.860562e+00    4.827464e-01   9.033452e-03
  3.862772e+00    5.164163e-01   9.363212e-03
  3.864983e+00    4.916199e-01   9.155294e-03
  3.867193e+00    5.188811e-01   9.425969e-03
  3.869404e+00    4.945133e-01   9.221804e-03
  3.871614e+00    5.194222e-01   9.471712e-03
  3.873825e+00    5.032673e-01   9.343795e-03
  3.876035e+00    5.095700e-01   9.423022e-03
  3.878246e+00    5.130351e-01   9.481313e-03
  3.880456e+00    5.123872e-01   9.504904e-03
  3.882667e+00    4.831666e-01   9.258975e-03
  3.884877e+00    5.094905e-01   9.538099e-03
  3.887087e+00    4.912553e-01   9.395858e-03
  3.889298e+00    5.056021e-01   9.562819e-03
  3.891508e+00    4.892178e-01   9.437035e-03
  3.893719e+00    5.143496e-01   9.708177e-03
  3.895929e+00    4.829130e-01   9.438018e-03
  3.898140e+00    4.968584e-01   9.605177e-03
  3.900350e+00    4.901214e-01   9.572021e-03
  3.902561e+00    4.945748e-01   9.647834e-03
  3.904771e+00    4.988438e-01   9.722522e-03
  3.906982e+00    5.029452e-01   9.796074e-03
  3.909192e+00    5.053480e-01   9.853444e-03
  3.911403e+00    4.962077e-01   9.798157e-03
  3.913613e+00    5.250057e-01   1.011405e-02
  3.915823e+00    4.673843e-01   9.576949e-03
  3.918034e+00    4.711770e-01   9.650276e-03
  3.920244e+00    4.872530e-01   9.849272e-03
  3.922455e+00    4.795610e-01   9.806978e-03
  3.924665e+00    4.770369e-01   9.817147e-03
  3.926876e+00    5.028782e-01   1.011716e-02
  3.929086e+00    5.055709e-01   1.018231e-02
  3.931297e+00    4.926455e-01   1.008631e-02
  3.933507e+00    4.895916e-01   1.008397e-02
  3.935718e+00    5.020636e-01   1.024079e-02
  3.937928e+00    5.068115e-01   1.031915e-02
  3.940138e+00    4.975846e-01   1.025437e-02
  3.942349e+00    4.879387e-01   1.018442e-02
  3.944559e+00    4.895709e-01   1.023152e-02
  3.946770e+00    5.156709e-01   1.053173e-02
  3.948980e+00    4.877430e-01   1.027344e-02
  3.951191e+00    4.964762e-01   1.039597e-02
  3.953401e+00    5.178580e-01   1.064996e-02
  3.955612e+00    5.078695e-01   1.057908e-02
  3.957822e+00    5.012365e-01   1.054197e-02
  3.960033e+00    4.616201e-01   1.014860e-02
  3.962243e+00    4.852136e-01   1.043746e-02
  3.964453e+00    4.751603e-01   1.036154e-02
  3.966664e+00    4.893640e-01   1.054880e-02
  3.968874e+00    4.989346e-01   1.068024e-02
  3.971085e+00    5.107415e-01   1.082835e-02
  3.973295e+00    5.055739e-01   1.079533e-02
  3.975506e+00    4.764354e-01   1.050107e-02
  3.977716e+00    4.959460e-01   1.073614e-02
  3.979927e+00    5.014182e-01   1.081768e-02
  3.982137e+00    5.050293e-01   1.087929e-02
  3.984348e+00    5.018485e-01   1.086797e-02
  3.986558e+00    4.850086e-01   1.070634e-02
  3.988768e+00    4.776967e-01   1.064822e-02
  3.990979e+00    4.808896e-01   1.070627e-02
  3.993189e+00    4.745994e-01   1.065899e-02
  3.995400e+00    4.782405e-01   1.072310e-02
  3.997610e+00    5.069306e-01   1.107053e-02
  3.999821e+00    4.575098e-01   1.055358e-02
  4.002031e+00    4.941299e-01   1.100643e-02
  4.004242e+00    4.895126e-01   1.099369e-02
  4.006452e+00    4.957643e-01   1.110355e-02
  4.008663e+00    4.726188e-01   1.088058e-02
  4.010873e+00    4.881348e-01   1.109800e-02
  4.013084e+00    4.980208e-01   1.125128e-02
  4.015294e+00    4.922624e-01   1.122729e-02
  4.017504e+00    5.162944e-01   1.154136e-02
  4.019715e+00    4.841644e-01   1.121898e-02
  4.021925e+00    4.771765e-01   1.118035e-02
  4.024136e+00    5.187923e-01   1.170298e-02
  4.026346e+00    5.074589e-01   1.161956e-02
  4.028557e+00    4.939933e-01   1.150928e-02
  4.030767e+00    4.784464e-01   1.137198e-02
  4.032978e+00    4.913028e-01   1.157045e-02
  4.035188e+00    4.657907e-01   1.131145e-02
  4.037399e+00    4.517659e-01   1.118570e-02
  4.039609e+00    4.613068e-01   1.134999e-02
  4.041819e+00    4.724673e-01   1.153448e-02
  4.044030e+00    5.030665e-01   1.195310e-02
  4.046240e+00    5.234478e-01   1.224473e-02
  4.048451e+00    5.054647e-01   1.208473e-02
  4.050661e+00    5.050119e-01   1.213194e-02
  4.052872e+00    4.861735e-01   1.195640e-02
  4.055082e+00    4.909683e-01   1.206918e-02
  4.057293e+00    4.410833e-01   1.149107e-02
  4.059503e+00    5.032365e-01   1.232966e-02
  4.061714e+00    5.229256e-01   1.262753e-02
  4.063924e+00    4.652256e-01   1.196620e-02
  4.066134e+00    4.487638e-01   1.180800e-02
  4.068345e+00    4.632795e-01   1.205511e-02
  4.070555e+00    4.629852e-01   1.210956e-02
  4.072766e+00    4.794017e-01   1.238293e-02
  4.074976e+00    4.833311e-01   1.249552e-02
  4.077187e+00    5.234000e-01   1.306805e-02
  4.079397e+00    4.407530e-01   1.205305e-02
  4.081608e+00    5.037427e-01   1.295265e-02
  4.083818e+00    4.905310e-01   1.284819e-02
  4.086029e+00    4.781474e-01   1.275186e-02
  4.088239e+00    4.653393e-01   1.264759e-02
  4.090449e+00    4.904349e-01   1.305446e-02
  4.092660e+00    4.798005e-01   1.298339e-02
  4.094870e+00    4.763299e-01   1.300816e-02
  4.097081e+00    4.285251e-01   1.240589e-02
  4.099291e+00    4.905409e-01   1.332794e-02
  4.101502e+00    5.361236e-01   1.398551e-02
  4.103712e+00    5.403244e-01   1.409261e-02
  4.105923e+00    4.664357e-01   1.314434e-02
  4.108133e+00    4.574047e-01   1.306653e-02
  4.110344e+00    4.626654e-01   1.319181e-02
  4.112554e+00    4.939281e-01   1.368394e-02
  4.114764e+00    4.788791e-01   1.352796e-02
  4.116975e+00    4.875848e-01   1.370449e-02
  4.119185e+00    4.791530e-01   1.364030e-02
  4.121396e+00    4.983335e-01   1.396829e-02
  4.123606e+00    5.033173e-01   1.409555e-02
  4.125817e+00    4.854174e-01   1.390047e-02
  4.128027e+00    4.990115e-01   1.415338e-02
  4.130238e+00    4.849596e-01   1.401240e-02
  4.132448e+00    4.949406e-01   1.421727e-02
  4.134659e+00    5.125684e-01   1.453030e-02
  4.136869e+00    5.235011e-01   1.475023e-02
  4.139080e+00    4.984625e-01   1.445780e-02
  4.141290e+00    5.371454e-01   1.507514e-02
  4.143500e+00    4.584170e-01   1.399069e-02
  4.145711e+00    5.352001e-01   1.518755e-02
  4.147921e+00    5.268999e-01   1.513853e-02
  4.150132e+00    4.570018e-01   1.416614e-02
  4.152342e+00    4.962378e-01   1.483296e-02
  4.154553e+00    4.855390e-01   1.474211e-02
  4.156763e+00    5.055147e-01   1.511665e-02
  4.158974e+00    5.204459e-01   1.541543e-02
  4.161184e+00    5.007433e-01   1.519590e-02
  4.163395e+00    5.077780e-01   1.538017e-02
  4.165605e+00    5.207087e-01   1.565609e-02
  4.167815e+00    4.994331e-01   1.541273e-02
  4.170026e+00    5.097693e-01   1.565347e-02
  4.172236e+00    5.327662e-01   1.608913e-02
  4.174447e+00    5.031286e-01   1.572032e-02
  4.176657e+00    5.585279e-01   1.665380e-02
  4.178868e+00    5.387929e-01   1.644954e-02
  4.181078e+00    5.093055e-01   1.608304e-02
  4.183289e+00    5.203665e-01   1.634969e-02
  4.185499e+00    4.984758e-01   1.609687e-02
  4.187710e+00    4.578426e-01   1.551703e-02
  4.189920e+00    4.530240e-01   1.552822e-02
  4.192130e+00    4.946414e-01   1.632477e-02
  4.194341e+00    4.575902e-01   1.579789e-02
  4.196551e+00    4.692653e-01   1.609936e-02
  4.198762e+00    5.438169e-01   1.744105e-02
  4.200972e+00    4.935291e-01   1.672282e-02
  4.203183e+00    4.930149e-01   1.682412e-02
  4.205393e+00    5.192935e-01   1.738170e-02
  4.207604e+00    5.078831e-01   1.730689e-02
  4.209814e+00    5.257392e-01   1.772944e-02
  4.212025e+00    4.700313e-01   1.688237e-02
  4.214235e+00    4.374333e-01   1.640214e-02
  4.216445e+00    4.827125e-01   1.735450e-02
  4.218656e+00    4.637671e-01   1.713819e-02
  4.220866e+00    4.900535e-01   1.774757e-02
  4.223077e+00    4.851727e-01   1.779474e-02
  4.225287e+00    5.503089e-01   1.910080e-02
  4.227498e+00    4.625897e-01   1.764995e-02
  4.229708e+00    4.660884e-01   1.786015e-02
  4.231919e+00    5.397829e-01   1.937932e-02
  4.234129e+00    5.184621e-01   1.915284e-02
  4.236340e+00    4.969336e-01   1.891083e-02
  4.238550e+00    4.545020e-01   1.824521e-02
  4.240761e+00    4.629457e-01   1.857679e-02
  4.242971e+00    3.836077e-01   1.706474e-02
  4.245181e+00    4.692090e-01   1.905010e-02
  4.247392e+00    4.700653e-01   1.924627e-02
  4.249602e+00    4.810269e-01   1.966207e-02
  4.251813e+00    5.137856e-01   2.052169e-02
  4.254023e+00    4.427244e-01   1.924131e-02
  4.256234e+00    4.625019e-01   1.987606e-02
  4.258444e+00    5.294272e-01   2.148869e-02
  4.260655e+00    5.942710e-01   2.301683e-02
  4.262865e+00    4.606056e-01   2.049357e-02
  4.265076e+00    4.572900e-01   2.065164e-02
  4.267286e+00    4.776498e-01   2.135720e-02
  4.269496e+00    4.410127e-01   2.077171e-02
  4.271707e+00    4.681486e-01   2.166564e-02
  4.273917e+00    4.916820e-01   2.249062e-02
  4.276128e+00    4.566432e-01   2.196272e-02
  4.278338e+00    4.541934e-01   2.219551e-02
  4.280549e+00    4.704232e-01   2.291340e-02
  4.282759e+00    5.415801e-01   2.493749e-02
  4.284970e+00    5.497105e-01   2.549694e-02
  4.287180e+00    4.676479e-01   2.379867e-02
  4.289391e+00    4.509609e-01   2.354498e-02
  4.291601e+00    5.399591e-01   2.596990e-02
  4.293811e+00    5.220757e-01   2.573623e-02
  4.296022e+00    4.969197e-01   2.530996e-02
  4.298232e+00    4.966866e-01   2.551614e-02
  4.300443e+00    4.751311e-01   2.516238e-02
  4.302653e+00    4.168677e-01   2.377290e-02
  4.304864e+00    5.261585e-01   2.693876e-02
  4.307074e+00    4.978961e-01   2.644203e-02
  4.309285e+00    4.592565e-01   2.562540e-02
  4.311495e+00    4.441978e-01   2.543757e-02
  4.313706e+00    4.024830e-01   2.444146e-02
  4.315916e+00    4.110312e-01   2.494213e-02
  4.318126e+00    4.959413e-01   2.766887e-02
  4.320337e+00    4.339308e-01   2.614303e-02
  4.322547e+00    5.003583e-01   2.837091e-02
  4.324758e+00    4.684840e-01   2.773800e-02
  4.326968e+00    4.842412e-01   2.851739e-02
  4.329179e+00    4.888323e-01   2.896858e-02
  4.331389e+00    4.355961e-01   2.766043e-02
  4.333600e+00    4.609753e-01   2.879459e-02
  4.335810e+00    4.348112e-01   2.829868e-02
  4.338021e+00    5.316617e-01   3.169176e-02
  4.340231e+00    5.546550e-01   3.277726e-02
  4.342442e+00    3.335273e-01   2.575832e-02
  4.344652e+00    3.556700e-01   2.695980e-02
  4.346862e+00    4.444679e-01   3.055952e-02
  4.349073e+00    5.078822e-01   3.314399e-02
  4.351283e+00    4.558968e-01   3.186974e-02
  4.353494e+00    4.274522e-01   3.133707e-02
  4.355704e+00    4.013175e-01   3.085136e-02
  4.357915e+00    4.723960e-01   3.403123e-02
  4.360125e+00    4.769708e-01   3.477889e-02
  4.362336e+00    6.017002e-01   3.977332e-02
  4.364546e+00    5.548984e-01   3.889180e-02
  4.366757e+00    3.663531e-01   3.223000e-02
  4.368967e+00    4.281601e-01   3.553596e-02
  4.371177e+00    5.578660e-01   4.142626e-02
  4.373388e+00    6.557593e-01   4.591955e-02
  4.375598e+00    3.876175e-01   3.610871e-02
  4.377809e+00    4.994739e-01   4.202664e-02
  4.380019e+00    3.052866e-01   3.368399e-02
  4.382230e+00    2.897113e-01   3.372631e-02
  4.384440e+00    3.376825e-01   3.746219e-02
  4.386651e+00    4.716952e-01   4.563974e-02
  4.388861e+00    5.328366e-01   5.013493e-02
  4.391072e+00    5.763654e-01   5.397553e-02
  4.393282e+00    5.885998e-01   5.665313e-02
  4.395492e+00    5.067313e-01   5.475256e-02
  4.397703e+00    4.699086e-01   5.513523e-02
  4.399913e+00    3.009699e-01   4.635945e-02
  4.402124e+00    3.665024e-01   5.405391e-02
  4.404334e+00    6.266810e-01   7.513776e-02
  4.406545e+00    2.836227e-01   5.431316e-02
  4.408755e+00    2.536081e-01   5.569504e-02
  4.410966e+00    3.001203e-01   6.705822e-02
  4.413176e+00    4.307599e-02   2.878651e-02
  4.415387e+00   -7.060007e-01            nan
  4.417597e+00   -1.852539e+00            nan
  4.419807e+00    1.372970e-01   1.330704e-01
