# == pyFAI calibration ==
# Distance Sample to Detector: 0.216 m
# PONI: 1.166e-01, 1.308e-01 m
# Rotations: 0.000000 0.000000 0.000000 rad
# 
# == Fit2d calibration ==
# Distance Sample-beamCenter: 216.000 mm
# Center: x=1744.293, y=1555.000 pix
# Tilt: 0.000 deg  TiltPlanRot: 0.000 deg
# 
# Detector Eiger 9M	 PixelSize= 7.500e-05, 7.500e-05 m
#    Detector has a mask: True 
#    Detector has a dark current: False 
#    detector has a flat field: False 
# 
# Wavelength: 9.8e-11 m
# Mask applied: from detector
# Dark current applied: False
# Flat field applied: False
# Polarization factor: None
# Normalization factor: 1.0
# 
# Headers of the input frame:
# {
# "_array_data.header_convention": "SLS_1.0",
# "_array_data.header_contents": "# Detector: Dectris Eiger 9M, S/N E-18-0102\r\n# Pixel_size 75e-6 m x 75e-6 m\r\n# Silicon sensor, thickness 0.000450 m\r\n# Exposure_time 0.024997 s\r\n# Exposure_period 0.025000 s\r\n# Count_cutoff 62318 counts\r\n# Wavelength 0.980106 A\r\n# Detector_distance 0.215992 m\r\n# Beam_xy (1555, 1744) pixels\r\n# Start_angle 0.000000 deg.\r\n# Angle_increment 0.000000 deg.",
# "Content-Type": "application/octet-stream;",
# "conversions": "x-CBF_BYTE_OFFSET",
# "Content-Transfer-Encoding": "BINARY",
# "X-Binary-Size": "10166642",
# "X-Binary-ID": "1",
# "X-Binary-Element-Type": "signed 32-bit integer",
# "X-Binary-Element-Byte-Order": "LITTLE_ENDIAN",
# "Content-MD5": "NfWKMGc2ZToxtxvtF2bhNg==",
# "X-Binary-Number-of-Elements": "10166590",
# "X-Binary-Size-Fastest-Dimension": "3110",
# "X-Binary-Size-Second-Dimension": "3269",
# "X-Binary-Size-Padding": "4095"
# }
# --> H:/Proxima2a_2019-04-05/RAW_DATA/C5_gel17_position5/C5_mesh_1_data.cbf/C5_mesh_1_data.cbf000100.dat
#        q_A^-1              I           sigma 
  1.105228e-03    4.946402e-01   3.805675e-01
  3.315685e-03    8.058415e-01   2.953046e-01
  5.526141e-03    1.531893e+00   3.148374e-01
  7.736597e-03    1.778062e+00   2.865455e-01
  9.947054e-03    1.190706e+00   2.067183e-01
  1.215751e-02    1.387592e+00   2.017899e-01
  1.436797e-02    1.553308e+00   1.963833e-01
  1.657842e-02    1.515794e+00   1.805779e-01
  1.878888e-02    1.403161e+00   1.631989e-01
  2.099934e-02    1.637221e+00   1.667845e-01
  2.320979e-02    1.549349e+00   1.543148e-01
  2.542025e-02    1.318344e+00   1.360266e-01
  2.763070e-02    1.539402e+00   1.409829e-01
  2.984116e-02    1.522838e+00   1.349284e-01
  3.205162e-02    1.334706e+00   1.218931e-01
  3.426207e-02    1.409323e+00   1.211379e-01
  3.647253e-02    1.352981e+00   1.150365e-01
  3.868299e-02    1.376587e+00   1.126802e-01
  4.089344e-02    1.413347e+00   1.110465e-01
  4.310390e-02    1.476880e+00   1.105596e-01
  4.531436e-02    1.576783e+00   1.114171e-01
  4.752481e-02    1.450104e+00   1.043323e-01
  4.973527e-02    1.437164e+00   1.015325e-01
  5.194572e-02    1.523178e+00   1.022770e-01
  5.415618e-02    1.468932e+00   9.836479e-02
  5.636664e-02    1.403728e+00   9.425548e-02
  5.857709e-02    1.387920e+00   9.193838e-02
  6.078755e-02    1.410415e+00   9.097682e-02
  6.299801e-02    1.418119e+00   8.960923e-02
  6.520846e-02    1.407034e+00   8.773299e-02
  6.741892e-02    1.487718e+00   8.871768e-02
  6.962938e-02    1.432230e+00   8.565895e-02
  7.183983e-02    1.400941e+00   8.340307e-02
  7.405029e-02    1.321406e+00   7.978099e-02
  7.626074e-02    1.392596e+00   8.070546e-02
  7.847120e-02    1.548827e+00   8.390260e-02
  8.068166e-02    1.531259e+00   8.227401e-02
  8.289211e-02    1.478412e+00   7.975620e-02
  8.510257e-02    1.400597e+00   7.661361e-02
  8.731303e-02    1.533483e+00   7.914149e-02
  8.952348e-02    1.508279e+00   7.751547e-02
  9.173394e-02    1.531446e+00   7.715866e-02
  9.394439e-02    1.607149e+00   7.810473e-02
  9.615485e-02    1.496828e+00   7.450334e-02
  9.836531e-02    1.602359e+00   7.621180e-02
  1.005758e-01    1.583680e+00   7.492957e-02
  1.027862e-01    1.466792e+00   7.132998e-02
  1.049967e-01    1.510464e+00   7.161685e-02
  1.072071e-01    1.509490e+00   7.085097e-02
  1.094176e-01    1.556071e+00   7.120444e-02
  1.116280e-01    1.546987e+00   7.028830e-02
  1.138385e-01    1.624799e+00   7.133014e-02
  1.160490e-01    1.586034e+00   6.979888e-02
  1.182594e-01    1.511842e+00   6.750539e-02
  1.204699e-01    1.569460e+00   6.814527e-02
  1.226803e-01    1.614685e+00   6.849176e-02
  1.248908e-01    1.591135e+00   6.738528e-02
  1.271012e-01    1.572547e+00   6.640414e-02
  1.293117e-01    1.589934e+00   6.619625e-02
  1.315222e-01    1.568704e+00   6.519640e-02
  1.337326e-01    1.639477e+00   6.609648e-02
  1.359431e-01    1.642157e+00   6.618920e-02
  1.381535e-01    1.566416e+00   6.551250e-02
  1.403640e-01    1.631757e+00   6.715362e-02
  1.425744e-01    1.595778e+00   6.651524e-02
  1.447849e-01    1.631427e+00   6.726956e-02
  1.469953e-01    1.615859e+00   6.690595e-02
  1.492058e-01    1.601510e+00   6.653079e-02
  1.514163e-01    1.606353e+00   6.652068e-02
  1.536267e-01    1.616148e+00   6.659289e-02
  1.558372e-01    1.632951e+00   6.679039e-02
  1.580476e-01    1.623698e+00   6.643930e-02
  1.602581e-01    1.596494e+00   6.571306e-02
  1.624685e-01    1.624473e+00   6.610487e-02
  1.646790e-01    1.697222e+00   6.737483e-02
  1.668895e-01    1.775868e+00   6.871915e-02
  1.690999e-01    1.715898e+00   6.734603e-02
  1.713104e-01    1.751790e+00   6.783555e-02
  1.735208e-01    1.834698e+00   6.920638e-02
  1.757313e-01    1.716844e+00   6.673691e-02
  1.779417e-01    1.758850e+00   6.732805e-02
  1.801522e-01    1.893410e+00   6.963358e-02
  1.823626e-01    1.944358e+00   7.032930e-02
  1.845731e-01    1.948954e+00   7.018431e-02
  1.867836e-01    1.963253e+00   7.020357e-02
  1.889940e-01    1.916632e+00   6.913833e-02
  1.912045e-01    1.989420e+00   7.020371e-02
  1.934149e-01    1.982656e+00   6.984972e-02
  1.956254e-01    2.045969e+00   7.072216e-02
  1.978358e-01    2.062866e+00   7.077029e-02
  2.000463e-01    1.962325e+00   6.879537e-02
  2.022568e-01    1.978575e+00   6.885289e-02
  2.044672e-01    1.967054e+00   6.841695e-02
  2.066777e-01    1.960521e+00   6.807654e-02
  2.088881e-01    1.937281e+00   6.745044e-02
  2.110986e-01    1.995197e+00   6.821650e-02
  2.133090e-01    2.104838e+00   6.983802e-02
  2.155195e-01    1.975244e+00   6.742953e-02
  2.177300e-01    1.975397e+00   6.690234e-02
  2.199404e-01    2.039250e+00   6.618392e-02
  2.221509e-01    2.007678e+00   6.459127e-02
  2.243613e-01    1.983506e+00   6.338735e-02
  2.265718e-01    2.027569e+00   6.338116e-02
  2.287822e-01    2.076772e+00   6.351068e-02
  2.309927e-01    2.081607e+00   6.300534e-02
  2.332031e-01    2.105352e+00   6.282134e-02
  2.354136e-01    2.149869e+00   6.296751e-02
  2.376241e-01    2.178359e+00   6.289141e-02
  2.398345e-01    2.207880e+00   6.284751e-02
  2.420450e-01    2.197562e+00   6.225242e-02
  2.442554e-01    2.193808e+00   6.177069e-02
  2.464659e-01    2.230357e+00   6.186497e-02
  2.486763e-01    2.234246e+00   6.151188e-02
  2.508868e-01    2.195772e+00   6.059528e-02
  2.530973e-01    2.125451e+00   5.924746e-02
  2.553077e-01    2.199123e+00   5.989997e-02
  2.575182e-01    2.165368e+00   5.908682e-02
  2.597286e-01    2.137381e+00   5.836248e-02
  2.619391e-01    2.150649e+00   5.820631e-02
  2.641495e-01    2.144763e+00   5.780488e-02
  2.663600e-01    2.111675e+00   5.704185e-02
  2.685704e-01    2.035322e+00   5.569753e-02
  2.707809e-01    2.058414e+00   5.571530e-02
  2.729914e-01    2.036426e+00   5.512814e-02
  2.752018e-01    1.917989e+00   5.322256e-02
  2.774123e-01    1.964030e+00   5.358242e-02
  2.796227e-01    2.093651e+00   5.504869e-02
  2.818332e-01    2.054216e+00   5.425579e-02
  2.840436e-01    1.981222e+00   5.302483e-02
  2.862541e-01    2.020525e+00   5.329077e-02
  2.884646e-01    1.934491e+00   5.189643e-02
  2.906750e-01    1.918491e+00   5.143629e-02
  2.928855e-01    2.010672e+00   5.241352e-02
  2.950959e-01    1.993494e+00   5.194944e-02
  2.973064e-01    1.967572e+00   5.137861e-02
  2.995168e-01    2.032343e+00   5.198094e-02
  3.017273e-01    1.895044e+00   4.997311e-02
  3.039377e-01    1.858572e+00   4.927316e-02
  3.061482e-01    1.932341e+00   5.002416e-02
  3.083587e-01    1.921188e+00   4.966371e-02
  3.105691e-01    1.900044e+00   4.917867e-02
  3.127796e-01    1.878672e+00   4.869574e-02
  3.149900e-01    1.900609e+00   4.877513e-02
  3.172005e-01    1.882278e+00   4.834088e-02
  3.194109e-01    1.860552e+00   4.786267e-02
  3.216214e-01    1.900177e+00   4.817228e-02
  3.238319e-01    1.954040e+00   4.865674e-02
  3.260423e-01    1.909242e+00   4.790420e-02
  3.282528e-01    1.880611e+00   4.735436e-02
  3.304632e-01    1.876746e+00   4.712244e-02
  3.326737e-01    1.841663e+00   4.649777e-02
  3.348841e-01    1.802247e+00   4.581913e-02
  3.370946e-01    1.847570e+00   4.621712e-02
  3.393050e-01    1.921717e+00   4.695686e-02
  3.415155e-01    1.875345e+00   4.621245e-02
  3.437260e-01    1.886950e+00   4.618340e-02
  3.459364e-01    1.873788e+00   4.585180e-02
  3.481469e-01    1.861125e+00   4.552982e-02
  3.503573e-01    1.842695e+00   4.513877e-02
  3.525678e-01    1.870332e+00   4.531395e-02
  3.547782e-01    1.872229e+00   4.517306e-02
  3.569887e-01    1.878067e+00   4.508313e-02
  3.591992e-01    1.874475e+00   4.488064e-02
  3.614096e-01    1.791241e+00   4.372076e-02
  3.636201e-01    1.886272e+00   4.470787e-02
  3.658305e-01    1.843822e+00   4.405118e-02
  3.680410e-01    1.817774e+00   4.358847e-02
  3.702514e-01    1.802458e+00   4.325847e-02
  3.724619e-01    1.821363e+00   4.333665e-02
  3.746724e-01    1.833881e+00   4.334025e-02
  3.768828e-01    1.808078e+00   4.288945e-02
  3.790933e-01    1.817251e+00   4.285801e-02
  3.813037e-01    1.792302e+00   4.242352e-02
  3.835142e-01    1.852071e+00   4.298344e-02
  3.857246e-01    1.840190e+00   4.270671e-02
  3.879351e-01    1.793731e+00   4.202768e-02
  3.901455e-01    1.763043e+00   4.153396e-02
  3.923560e-01    1.752768e+00   4.128114e-02
  3.945665e-01    1.801007e+00   4.171261e-02
  3.967769e-01    1.856489e+00   4.221765e-02
  3.989874e-01    1.779770e+00   4.120706e-02
  4.011978e-01    1.781790e+00   4.110362e-02
  4.034083e-01    1.854366e+00   4.180365e-02
  4.056187e-01    1.820880e+00   4.129691e-02
  4.078292e-01    1.794455e+00   4.087207e-02
  4.100397e-01    1.841460e+00   4.127751e-02
  4.122501e-01    1.827553e+00   4.099833e-02
  4.144606e-01    1.805881e+00   4.063366e-02
  4.166710e-01    1.830774e+00   4.079109e-02
  4.188815e-01    1.854359e+00   4.093174e-02
  4.210919e-01    1.853164e+00   4.079863e-02
  4.233024e-01    1.806350e+00   4.016155e-02
  4.255128e-01    1.821892e+00   4.021735e-02
  4.277233e-01    1.823819e+00   4.012300e-02
  4.299338e-01    1.861955e+00   4.042367e-02
  4.321442e-01    1.831433e+00   3.997627e-02
  4.343547e-01    1.795950e+00   3.947517e-02
  4.365651e-01    1.790716e+00   3.930561e-02
  4.387756e-01    1.779866e+00   3.907663e-02
  4.409860e-01    1.751402e+00   3.865553e-02
  4.431965e-01    1.713865e+00   3.813328e-02
  4.454070e-01    1.733726e+00   3.824691e-02
  4.476174e-01    1.737126e+00   3.817925e-02
  4.498279e-01    1.763255e+00   3.836069e-02
  4.520383e-01    1.740395e+00   3.800662e-02
  4.542488e-01    1.789913e+00   3.843956e-02
  4.564592e-01    1.762394e+00   3.804062e-02
  4.586697e-01    1.803380e+00   3.837824e-02
  4.608801e-01    1.791995e+00   3.815448e-02
  4.630906e-01    1.796961e+00   3.810611e-02
  4.653011e-01    1.744688e+00   3.744907e-02
  4.675115e-01    1.713931e+00   3.701971e-02
  4.697220e-01    1.734258e+00   3.714111e-02
  4.719324e-01    1.717505e+00   3.686567e-02
  4.741429e-01    1.735443e+00   3.696219e-02
  4.763533e-01    1.738100e+00   3.689567e-02
  4.785638e-01    1.725732e+00   3.666918e-02
  4.807743e-01    1.713972e+00   3.645109e-02
  4.829847e-01    1.712173e+00   3.633991e-02
  4.851952e-01    1.712341e+00   3.624974e-02
  4.874056e-01    1.739204e+00   3.644086e-02
  4.896161e-01    1.725785e+00   3.620998e-02
  4.918265e-01    1.699987e+00   3.584908e-02
  4.940370e-01    1.726188e+00   3.603510e-02
  4.962475e-01    1.673836e+00   3.539683e-02
  4.984579e-01    1.693696e+00   3.551843e-02
  5.006684e-01    1.713750e+00   3.564098e-02
  5.028788e-01    1.709235e+00   3.550776e-02
  5.050893e-01    1.686237e+00   3.518229e-02
  5.072997e-01    1.725183e+00   3.550031e-02
  5.095102e-01    1.715444e+00   3.531519e-02
  5.117206e-01    1.678415e+00   3.484889e-02
  5.139311e-01    1.720656e+00   3.520118e-02
  5.161416e-01    1.736890e+00   3.528328e-02
  5.183520e-01    1.732172e+00   3.515158e-02
  5.205625e-01    1.675367e+00   3.448943e-02
  5.227729e-01    1.665641e+00   3.430895e-02
  5.249834e-01    1.673728e+00   3.431230e-02
  5.271938e-01    1.692744e+00   3.442614e-02
  5.294043e-01    1.748922e+00   3.491199e-02
  5.316148e-01    1.773062e+00   3.507161e-02
  5.338252e-01    1.750548e+00   3.476856e-02
  5.360357e-01    1.744313e+00   3.462761e-02
  5.382461e-01    1.784743e+00   3.494741e-02
  5.404566e-01    1.754413e+00   3.457034e-02
  5.426670e-01    1.792357e+00   3.486345e-02
  5.448775e-01    1.798596e+00   3.484606e-02
  5.470879e-01    1.786714e+00   3.465332e-02
  5.492984e-01    1.758284e+00   3.430007e-02
  5.515089e-01    1.771149e+00   3.434896e-02
  5.537193e-01    1.805580e+00   3.460481e-02
  5.559298e-01    1.829347e+00   3.475543e-02
  5.581402e-01    1.810781e+00   3.450308e-02
  5.603507e-01    1.790603e+00   3.423561e-02
  5.625611e-01    1.848477e+00   3.470898e-02
  5.647716e-01    1.805228e+00   3.422609e-02
  5.669821e-01    1.765197e+00   3.377150e-02
  5.691925e-01    1.818542e+00   3.420440e-02
  5.714030e-01    1.783385e+00   3.379998e-02
  5.736134e-01    1.743738e+00   3.335105e-02
  5.758239e-01    1.714888e+00   3.300342e-02
  5.780343e-01    1.689841e+00   3.269221e-02
  5.802448e-01    1.659510e+00   3.232967e-02
  5.824552e-01    1.635393e+00   3.202654e-02
  5.846657e-01    1.660063e+00   3.219993e-02
  5.868762e-01    1.635145e+00   3.189082e-02
  5.890866e-01    1.650904e+00   3.197766e-02
  5.912971e-01    1.660788e+00   3.200683e-02
  5.935075e-01    1.671415e+00   3.204271e-02
  5.957180e-01    1.697168e+00   3.222237e-02
  5.979284e-01    1.681032e+00   3.200337e-02
  6.001389e-01    1.644218e+00   3.158654e-02
  6.023494e-01    1.631364e+00   3.139895e-02
  6.045598e-01    1.664513e+00   3.165177e-02
  6.067703e-01    1.707005e+00   3.198879e-02
  6.089807e-01    1.681551e+00   3.168555e-02
  6.111912e-01    1.693183e+00   3.173148e-02
  6.134016e-01    1.689465e+00   3.163340e-02
  6.156121e-01    1.695413e+00   3.162603e-02
  6.178226e-01    1.693432e+00   3.154499e-02
  6.200330e-01    1.725370e+00   3.177825e-02
  6.222435e-01    1.717480e+00   3.164270e-02
  6.244539e-01    1.716418e+00   3.157099e-02
  6.266644e-01    1.748525e+00   3.180273e-02
  6.288748e-01    1.783991e+00   3.206111e-02
  6.310853e-01    1.749867e+00   3.169138e-02
  6.332957e-01    1.728249e+00   3.143419e-02
  6.355062e-01    1.725130e+00   3.134480e-02
  6.377167e-01    1.703632e+00   3.108911e-02
  6.399271e-01    1.717077e+00   3.115175e-02
  6.421376e-01    1.714737e+00   3.107109e-02
  6.443480e-01    1.720726e+00   3.106609e-02
  6.465585e-01    1.709075e+00   3.090210e-02
  6.487689e-01    1.687516e+00   3.064859e-02
  6.509794e-01    1.655292e+00   3.029729e-02
  6.531899e-01    1.673339e+00   3.040474e-02
  6.554003e-01    1.602420e+00   2.969751e-02
  6.576108e-01    1.588673e+00   2.951479e-02
  6.598212e-01    1.600318e+00   2.956773e-02
  6.620317e-01    1.615578e+00   2.965330e-02
  6.642421e-01    1.570556e+00   2.918311e-02
  6.664526e-01    1.626763e+00   2.964598e-02
  6.686630e-01    1.645396e+00   2.976018e-02
  6.708735e-01    1.624378e+00   2.951526e-02
  6.730840e-01    1.594328e+00   2.918765e-02
  6.752944e-01    1.628686e+00   2.944682e-02
  6.775049e-01    1.652743e+00   2.960963e-02
  6.797153e-01    1.689271e+00   2.988086e-02
  6.819258e-01    1.659826e+00   2.956588e-02
  6.841362e-01    1.630102e+00   2.924726e-02
  6.863467e-01    1.616673e+00   2.907438e-02
  6.885572e-01    1.607974e+00   2.894407e-02
  6.907676e-01    1.606977e+00   2.888328e-02
  6.929781e-01    1.570674e+00   2.850438e-02
  6.951885e-01    1.621628e+00   2.891175e-02
  6.973990e-01    1.617110e+00   2.882043e-02
  6.996094e-01    1.576154e+00   2.840305e-02
  7.018199e-01    1.598330e+00   2.855196e-02
  7.040303e-01    1.588458e+00   2.841365e-02
  7.062408e-01    1.606502e+00   2.852453e-02
  7.084513e-01    1.594907e+00   2.837197e-02
  7.106617e-01    1.539199e+00   2.782363e-02
  7.128722e-01    1.597108e+00   2.829315e-02
  7.150826e-01    1.590953e+00   2.818993e-02
  7.172931e-01    1.611626e+00   2.832356e-02
  7.195035e-01    1.602832e+00   2.819763e-02
  7.217140e-01    1.619465e+00   2.839370e-02
  7.239245e-01    1.657916e+00   2.896146e-02
  7.261349e-01    1.590109e+00   2.847219e-02
  7.283454e-01    1.580322e+00   2.845695e-02
  7.305558e-01    1.545564e+00   2.819576e-02
  7.327663e-01    1.547581e+00   2.825629e-02
  7.349767e-01    1.561127e+00   2.839598e-02
  7.371872e-01    1.577575e+00   2.853398e-02
  7.393976e-01    1.570334e+00   2.845419e-02
  7.416081e-01    1.563271e+00   2.837401e-02
  7.438186e-01    1.571274e+00   2.830237e-02
  7.460290e-01    1.548195e+00   2.780201e-02
  7.482395e-01    1.599937e+00   2.809021e-02
  7.504499e-01    1.579709e+00   2.777561e-02
  7.526604e-01    1.561720e+00   2.750091e-02
  7.548708e-01    1.599181e+00   2.773869e-02
  7.570813e-01    1.612133e+00   2.779922e-02
  7.592918e-01    1.595732e+00   2.762204e-02
  7.615022e-01    1.611556e+00   2.772447e-02
  7.637127e-01    1.566821e+00   2.730427e-02
  7.659231e-01    1.571571e+00   2.731363e-02
  7.681336e-01    1.578684e+00   2.734376e-02
  7.703440e-01    1.577955e+00   2.730617e-02
  7.725545e-01    1.586672e+00   2.735048e-02
  7.747650e-01    1.644297e+00   2.780369e-02
  7.769754e-01    1.609630e+00   2.745577e-02
  7.791859e-01    1.566877e+00   2.703534e-02
  7.813963e-01    1.574857e+00   2.705157e-02
  7.836068e-01    1.569181e+00   2.695104e-02
  7.858172e-01    1.630795e+00   2.742369e-02
  7.880277e-01    1.589222e+00   2.702040e-02
  7.902381e-01    1.601238e+00   2.707306e-02
  7.924486e-01    1.658216e+00   2.749949e-02
  7.946591e-01    1.710726e+00   2.788158e-02
  7.968695e-01    1.693151e+00   2.768837e-02
  7.990800e-01    1.672903e+00   2.747312e-02
  8.012904e-01    1.655768e+00   2.728480e-02
  8.035009e-01    1.647204e+00   2.716570e-02
  8.057113e-01    1.660713e+00   2.722971e-02
  8.079218e-01    1.664433e+00   2.721315e-02
  8.101323e-01    1.649761e+00   2.704694e-02
  8.123427e-01    1.682789e+00   2.726974e-02
  8.145532e-01    1.700442e+00   2.736553e-02
  8.167636e-01    1.687310e+00   2.721381e-02
  8.189741e-01    1.697012e+00   2.724643e-02
  8.211845e-01    1.694556e+00   2.718110e-02
  8.233950e-01    1.670835e+00   2.694627e-02
  8.256054e-01    1.744855e+00   2.749102e-02
  8.278159e-01    1.798348e+00   2.786322e-02
  8.300264e-01    1.682288e+00   2.690545e-02
  8.322368e-01    1.683815e+00   2.687394e-02
  8.344473e-01    1.677276e+00   2.677783e-02
  8.366577e-01    1.634622e+00   2.639262e-02
  8.388682e-01    1.661740e+00   2.656810e-02
  8.410786e-01    1.703124e+00   2.685403e-02
  8.432891e-01    1.677032e+00   2.660521e-02
  8.454996e-01    1.650597e+00   2.635291e-02
  8.477100e-01    1.628149e+00   2.613155e-02
  8.499205e-01    1.640277e+00   2.618752e-02
  8.521309e-01    1.649604e+00   2.622090e-02
  8.543414e-01    1.678051e+00   2.640478e-02
  8.565518e-01    1.653919e+00   2.617341e-02
  8.587623e-01    1.621429e+00   2.587471e-02
  8.609727e-01    1.630585e+00   2.590743e-02
  8.631832e-01    1.606064e+00   2.567224e-02
  8.653937e-01    1.629133e+00   2.581621e-02
  8.676041e-01    1.649008e+00   2.593403e-02
  8.698146e-01    1.634794e+00   2.578256e-02
  8.720250e-01    1.602094e+00   2.548451e-02
  8.742355e-01    1.599130e+00   2.542213e-02
  8.764459e-01    1.619719e+00   2.554626e-02
  8.786564e-01    1.617745e+00   2.549263e-02
  8.808669e-01    1.592296e+00   2.525296e-02
  8.830773e-01    1.620537e+00   2.543757e-02
  8.852878e-01    1.626745e+00   2.544805e-02
  8.874982e-01    1.579437e+00   2.503888e-02
  8.897087e-01    1.595598e+00   2.512905e-02
  8.919191e-01    1.586053e+00   2.501618e-02
  8.941296e-01    1.601269e+00   2.509860e-02
  8.963401e-01    1.593768e+00   2.500339e-02
  8.985505e-01    1.617378e+00   2.515074e-02
  9.007610e-01    1.610003e+00   2.505649e-02
  9.029714e-01    1.610434e+00   2.502388e-02
  9.051819e-01    1.625908e+00   2.510628e-02
  9.073923e-01    1.610007e+00   2.494655e-02
  9.096028e-01    1.603034e+00   2.485750e-02
  9.118132e-01    1.619285e+00   2.494675e-02
  9.140237e-01    1.620569e+00   2.491978e-02
  9.162342e-01    1.616538e+00   2.485405e-02
  9.184446e-01    1.564912e+00   2.441858e-02
  9.206551e-01    1.600148e+00   2.465636e-02
  9.228655e-01    1.603974e+00   2.465054e-02
  9.250760e-01    1.609780e+00   2.465966e-02
  9.272864e-01    1.645293e+00   2.489549e-02
  9.294969e-01    1.627284e+00   2.472276e-02
  9.317074e-01    1.630512e+00   2.471231e-02
  9.339178e-01    1.641567e+00   2.476208e-02
  9.361283e-01    1.633641e+00   2.466581e-02
  9.383387e-01    1.650393e+00   2.475823e-02
  9.405492e-01    1.632789e+00   2.459145e-02
  9.427596e-01    1.626855e+00   2.451140e-02
  9.449701e-01    1.651861e+00   2.466547e-02
  9.471805e-01    1.686798e+00   2.488966e-02
  9.493910e-01    1.686913e+00   2.485635e-02
  9.516015e-01    1.707133e+00   2.496994e-02
  9.538119e-01    1.754141e+00   2.527672e-02
  9.560224e-01    1.754920e+00   2.524676e-02
  9.582328e-01    1.741038e+00   2.511297e-02
  9.604433e-01    1.772975e+00   2.530636e-02
  9.626537e-01    1.774752e+00   2.528500e-02
  9.648642e-01    1.798827e+00   2.542105e-02
  9.670747e-01    1.800431e+00   2.539731e-02
  9.692851e-01    1.846014e+00   2.568262e-02
  9.714956e-01    1.835854e+00   2.557575e-02
  9.737060e-01    1.819525e+00   2.542829e-02
  9.759165e-01    1.823816e+00   2.542236e-02
  9.781269e-01    1.864881e+00   2.567334e-02
  9.803374e-01    1.825647e+00   2.536673e-02
  9.825478e-01    1.821493e+00   2.530441e-02
  9.847583e-01    1.798086e+00   2.510718e-02
  9.869688e-01    1.780503e+00   2.495066e-02
  9.891792e-01    1.820735e+00   2.519744e-02
  9.913897e-01    1.801767e+00   2.503201e-02
  9.936001e-01    1.947949e+00   2.599358e-02
  9.958106e-01    2.201864e+00   2.759821e-02
  9.980210e-01    2.113398e+00   2.700322e-02
  1.000231e+00    1.761886e+00   2.479051e-02
  1.002442e+00    1.648882e+00   2.410971e-02
  1.004652e+00    1.670074e+00   2.433182e-02
  1.006863e+00    1.661350e+00   2.431857e-02
  1.009073e+00    1.596261e+00   2.387391e-02
  1.011284e+00    1.591413e+00   2.386950e-02
  1.013494e+00    1.579719e+00   2.380520e-02
  1.015705e+00    1.589708e+00   2.390293e-02
  1.017915e+00    1.581883e+00   2.386045e-02
  1.020126e+00    1.585445e+00   2.390346e-02
  1.022336e+00    1.570422e+00   2.380165e-02
  1.024547e+00    1.551056e+00   2.366566e-02
  1.026757e+00    1.579723e+00   2.389180e-02
  1.028967e+00    1.568033e+00   2.381100e-02
  1.031178e+00    1.514407e+00   2.340642e-02
  1.033388e+00    1.513534e+00   2.340467e-02
  1.035599e+00    1.544205e+00   2.364408e-02
  1.037809e+00    1.524805e+00   2.349835e-02
  1.040020e+00    1.531765e+00   2.355318e-02
  1.042230e+00    1.565929e+00   2.381636e-02
  1.044441e+00    1.557458e+00   2.375165e-02
  1.046651e+00    1.567820e+00   2.383068e-02
  1.048862e+00    1.598407e+00   2.406121e-02
  1.051072e+00    1.545358e+00   2.365620e-02
  1.053282e+00    1.536488e+00   2.358721e-02
  1.055493e+00    1.537365e+00   2.358961e-02
  1.057703e+00    1.596241e+00   2.403544e-02
  1.059914e+00    1.889717e+00   2.614689e-02
  1.062124e+00    2.659469e+00   3.101291e-02
  1.064335e+00    2.950931e+00   3.266361e-02
  1.066545e+00    2.409749e+00   2.950930e-02
  1.068756e+00    2.005530e+00   2.691636e-02
  1.070966e+00    2.127352e+00   2.771382e-02
  1.073177e+00    2.279466e+00   2.868013e-02
  1.075387e+00    1.885869e+00   2.608093e-02
  1.077597e+00    1.625955e+00   2.420937e-02
  1.079808e+00    1.528882e+00   2.333991e-02
  1.082018e+00    1.463472e+00   2.264608e-02
  1.084229e+00    1.408426e+00   2.210800e-02
  1.086439e+00    1.446862e+00   2.232044e-02
  1.088650e+00    1.452422e+00   2.228769e-02
  1.090860e+00    1.429265e+00   2.204227e-02
  1.093071e+00    1.403010e+00   2.177771e-02
  1.095281e+00    1.432040e+00   2.194486e-02
  1.097492e+00    1.437773e+00   2.193401e-02
  1.099702e+00    1.420867e+00   2.175361e-02
  1.101912e+00    1.434839e+00   2.181154e-02
  1.104123e+00    1.420431e+00   2.165378e-02
  1.106333e+00    1.394596e+00   2.141216e-02
  1.108544e+00    1.423774e+00   2.159079e-02
  1.110754e+00    1.436973e+00   2.164749e-02
  1.112965e+00    1.398937e+00   2.131887e-02
  1.115175e+00    1.397591e+00   2.126774e-02
  1.117386e+00    1.423845e+00   2.142719e-02
  1.119596e+00    1.399680e+00   2.120689e-02
  1.121807e+00    1.422249e+00   2.133817e-02
  1.124017e+00    1.434334e+00   2.139165e-02
  1.126228e+00    1.411040e+00   2.118141e-02
  1.128438e+00    1.422488e+00   2.123010e-02
  1.130648e+00    1.398729e+00   2.101776e-02
  1.132859e+00    1.396936e+00   2.096989e-02
  1.135069e+00    1.422347e+00   2.112468e-02
  1.137280e+00    1.414695e+00   2.103447e-02
  1.139490e+00    1.390446e+00   2.082036e-02
  1.141701e+00    1.366036e+00   2.060386e-02
  1.143911e+00    1.399114e+00   2.081979e-02
  1.146122e+00    1.392442e+00   2.073795e-02
  1.148332e+00    1.387007e+00   2.066547e-02
  1.150543e+00    1.404860e+00   2.076690e-02
  1.152753e+00    1.381674e+00   2.056392e-02
  1.154963e+00    1.407611e+00   2.072460e-02
  1.157174e+00    1.441548e+00   2.094204e-02
  1.159384e+00    1.487209e+00   2.124004e-02
  1.161595e+00    1.520272e+00   2.144343e-02
  1.163805e+00    1.510154e+00   2.134120e-02
  1.166016e+00    1.519680e+00   2.137741e-02
  1.168226e+00    1.452649e+00   2.087079e-02
  1.170437e+00    1.430709e+00   2.068325e-02
  1.172647e+00    1.474625e+00   2.096825e-02
  1.174858e+00    1.471707e+00   2.091836e-02
  1.177068e+00    1.413970e+00   2.047513e-02
  1.179278e+00    1.398942e+00   2.033705e-02
  1.181489e+00    1.442620e+00   2.062427e-02
  1.183699e+00    1.409393e+00   2.035732e-02
  1.185910e+00    1.384252e+00   2.014688e-02
  1.188120e+00    1.354528e+00   1.990273e-02
  1.190331e+00    1.355654e+00   1.988423e-02
  1.192541e+00    1.374754e+00   1.999624e-02
  1.194752e+00    1.362774e+00   1.988178e-02
  1.196962e+00    1.355568e+00   1.980335e-02
  1.199173e+00    1.345423e+00   1.970267e-02
  1.201383e+00    1.342763e+00   1.965608e-02
  1.203593e+00    1.359794e+00   1.975544e-02
  1.205804e+00    1.357252e+00   1.971097e-02
  1.208014e+00    1.338675e+00   1.954890e-02
  1.210225e+00    1.326465e+00   1.943441e-02
  1.212435e+00    1.364274e+00   1.968452e-02
  1.214646e+00    1.346111e+00   1.952700e-02
  1.216856e+00    1.320335e+00   1.931393e-02
  1.219067e+00    1.336285e+00   1.940590e-02
  1.221277e+00    1.349778e+00   1.947860e-02
  1.223488e+00    1.332883e+00   1.933073e-02
  1.225698e+00    1.352190e+00   1.944331e-02
  1.227909e+00    1.353237e+00   1.942063e-02
  1.230119e+00    1.335350e+00   1.926018e-02
  1.232329e+00    1.339240e+00   1.925761e-02
  1.234540e+00    1.353250e+00   1.932775e-02
  1.236750e+00    1.352955e+00   1.929535e-02
  1.238961e+00    1.346059e+00   1.921918e-02
  1.241171e+00    1.326904e+00   1.905797e-02
  1.243382e+00    1.332143e+00   1.907219e-02
  1.245592e+00    1.341949e+00   1.911823e-02
  1.247803e+00    1.370665e+00   1.929787e-02
  1.250013e+00    1.351791e+00   1.914098e-02
  1.252224e+00    1.395097e+00   1.942153e-02
  1.254434e+00    1.377767e+00   1.927655e-02
  1.256644e+00    1.374550e+00   1.923061e-02
  1.258855e+00    1.339359e+00   1.895967e-02
  1.261065e+00    1.354407e+00   1.904246e-02
  1.263276e+00    1.374826e+00   1.916232e-02
  1.265486e+00    1.368517e+00   1.909527e-02
  1.267697e+00    1.366963e+00   1.906126e-02
  1.269907e+00    1.371742e+00   1.907168e-02
  1.272118e+00    1.350319e+00   1.889959e-02
  1.274328e+00    1.362054e+00   1.895869e-02
  1.276539e+00    1.400513e+00   1.920127e-02
  1.278749e+00    1.412814e+00   1.926263e-02
  1.280959e+00    1.388764e+00   1.907513e-02
  1.283170e+00    1.356775e+00   1.883168e-02
  1.285380e+00    1.360381e+00   1.883413e-02
  1.287591e+00    1.374027e+00   1.890613e-02
  1.289801e+00    1.361710e+00   1.879989e-02
  1.292012e+00    1.350342e+00   1.870416e-02
  1.294222e+00    1.345940e+00   1.865741e-02
  1.296433e+00    1.354561e+00   1.870146e-02
  1.298643e+00    1.355474e+00   1.869125e-02
  1.300854e+00    1.358059e+00   1.869261e-02
  1.303064e+00    1.351160e+00   1.862582e-02
  1.305274e+00    1.384386e+00   1.883174e-02
  1.307485e+00    1.390956e+00   1.885451e-02
  1.309695e+00    1.391407e+00   1.883498e-02
  1.311906e+00    1.396781e+00   1.884925e-02
  1.314116e+00    1.359095e+00   1.857238e-02
  1.316327e+00    1.341851e+00   1.843253e-02
  1.318537e+00    1.377772e+00   1.865551e-02
  1.320748e+00    1.371103e+00   1.858860e-02
  1.322958e+00    1.358858e+00   1.848482e-02
  1.325169e+00    1.368407e+00   1.852848e-02
  1.327379e+00    1.401941e+00   1.873189e-02
  1.329589e+00    1.423787e+00   1.885567e-02
  1.331800e+00    1.411345e+00   1.875193e-02
  1.334010e+00    1.397936e+00   1.864163e-02
  1.336221e+00    1.365661e+00   1.840330e-02
  1.338431e+00    1.368545e+00   1.840170e-02
  1.340642e+00    1.384553e+00   1.857400e-02
  1.342852e+00    1.343043e+00   1.839386e-02
  1.345063e+00    1.339760e+00   1.842066e-02
  1.347273e+00    1.333649e+00   1.841364e-02
  1.349484e+00    1.336334e+00   1.845969e-02
  1.351694e+00    1.338730e+00   1.849885e-02
  1.353905e+00    1.356901e+00   1.864202e-02
  1.356115e+00    1.349281e+00   1.860463e-02
  1.358325e+00    1.329194e+00   1.847886e-02
  1.360536e+00    1.327116e+00   1.847591e-02
  1.362746e+00    1.326572e+00   1.848163e-02
  1.364957e+00    1.329678e+00   1.851085e-02
  1.367167e+00    1.307949e+00   1.836602e-02
  1.369378e+00    1.323259e+00   1.847917e-02
  1.371588e+00    1.313037e+00   1.841273e-02
  1.373799e+00    1.328110e+00   1.852177e-02
  1.376009e+00    1.318489e+00   1.845793e-02
  1.378220e+00    1.313648e+00   1.842652e-02
  1.380430e+00    1.297462e+00   1.831532e-02
  1.382640e+00    1.311007e+00   1.841157e-02
  1.384851e+00    1.286614e+00   1.824036e-02
  1.387061e+00    1.301950e+00   1.834903e-02
  1.389272e+00    1.299323e+00   1.833072e-02
  1.391482e+00    1.299865e+00   1.833388e-02
  1.393693e+00    1.280449e+00   1.819555e-02
  1.395903e+00    1.285707e+00   1.823138e-02
  1.398114e+00    1.286302e+00   1.823421e-02
  1.400324e+00    1.266019e+00   1.808778e-02
  1.402535e+00    1.269703e+00   1.811174e-02
  1.404745e+00    1.270409e+00   1.811444e-02
  1.406955e+00    1.269787e+00   1.810730e-02
  1.409166e+00    1.276640e+00   1.815279e-02
  1.411376e+00    1.267042e+00   1.808131e-02
  1.413587e+00    1.295224e+00   1.827742e-02
  1.415797e+00    1.297948e+00   1.829309e-02
  1.418008e+00    1.271726e+00   1.806544e-02
  1.420218e+00    1.262540e+00   1.785081e-02
  1.422429e+00    1.253339e+00   1.770087e-02
  1.424639e+00    1.255345e+00   1.765072e-02
  1.426850e+00    1.249360e+00   1.755435e-02
  1.429060e+00    1.252583e+00   1.752830e-02
  1.431270e+00    1.291401e+00   1.775317e-02
  1.433481e+00    1.257180e+00   1.747563e-02
  1.435691e+00    1.285046e+00   1.762958e-02
  1.437902e+00    1.267672e+00   1.747357e-02
  1.440112e+00    1.298871e+00   1.765154e-02
  1.442323e+00    1.276712e+00   1.746720e-02
  1.444533e+00    1.278179e+00   1.744456e-02
  1.446744e+00    1.279315e+00   1.742107e-02
  1.448954e+00    1.279279e+00   1.739053e-02
  1.451165e+00    1.273004e+00   1.731803e-02
  1.453375e+00    1.276374e+00   1.731282e-02
  1.455586e+00    1.275733e+00   1.728025e-02
  1.457796e+00    1.252467e+00   1.709463e-02
  1.460006e+00    1.279558e+00   1.725115e-02
  1.462217e+00    1.300064e+00   1.736232e-02
  1.464427e+00    1.284688e+00   1.723358e-02
  1.466638e+00    1.314057e+00   1.740368e-02
  1.468848e+00    1.277787e+00   1.713642e-02
  1.471059e+00    1.259948e+00   1.699136e-02
  1.473269e+00    1.267358e+00   1.701691e-02
  1.475480e+00    1.265006e+00   1.697735e-02
  1.477690e+00    1.254136e+00   1.688059e-02
  1.479901e+00    1.242252e+00   1.677679e-02
  1.482111e+00    1.272979e+00   1.695964e-02
  1.484321e+00    1.249473e+00   1.677938e-02
  1.486532e+00    1.269243e+00   1.688925e-02
  1.488742e+00    1.243111e+00   1.669203e-02
  1.490953e+00    1.249191e+00   1.671033e-02
  1.493163e+00    1.253092e+00   1.671420e-02
  1.495374e+00    1.269940e+00   1.680464e-02
  1.497584e+00    1.265138e+00   1.675117e-02
  1.499795e+00    1.266527e+00   1.673866e-02
  1.502005e+00    1.241886e+00   1.655349e-02
  1.504216e+00    1.261344e+00   1.666161e-02
  1.506426e+00    1.290993e+00   1.683521e-02
  1.508636e+00    1.293914e+00   1.683352e-02
  1.510847e+00    1.281331e+00   1.672944e-02
  1.513057e+00    1.241896e+00   1.644504e-02
  1.515268e+00    1.252048e+00   1.648642e-02
  1.517478e+00    1.262157e+00   1.652762e-02
  1.519689e+00    1.270453e+00   1.655672e-02
  1.521899e+00    1.255076e+00   1.643310e-02
  1.524110e+00    1.264327e+00   1.647311e-02
  1.526320e+00    1.273661e+00   1.651406e-02
  1.528531e+00    1.263430e+00   1.642775e-02
  1.530741e+00    1.230568e+00   1.619370e-02
  1.532951e+00    1.281294e+00   1.650423e-02
  1.535162e+00    1.258606e+00   1.644442e-02
  1.537372e+00    1.233153e+00   1.634373e-02
  1.539583e+00    1.235971e+00   1.639648e-02
  1.541793e+00    1.246619e+00   1.647387e-02
  1.544004e+00    1.273265e+00   1.664929e-02
  1.546214e+00    1.262576e+00   1.657772e-02
  1.548425e+00    1.253398e+00   1.651764e-02
  1.550635e+00    1.251354e+00   1.651387e-02
  1.552846e+00    1.219972e+00   1.631504e-02
  1.555056e+00    1.252940e+00   1.649239e-02
  1.557266e+00    1.247604e+00   1.634664e-02
  1.559477e+00    1.246124e+00   1.627780e-02
  1.561687e+00    1.255037e+00   1.630509e-02
  1.563898e+00    1.298588e+00   1.656806e-02
  1.566108e+00    1.300087e+00   1.656130e-02
  1.568319e+00    1.300723e+00   1.654940e-02
  1.570529e+00    1.283958e+00   1.641686e-02
  1.572740e+00    1.282046e+00   1.637661e-02
  1.574950e+00    1.262828e+00   1.622690e-02
  1.577161e+00    1.273669e+00   1.627062e-02
  1.579371e+00    1.262566e+00   1.617573e-02
  1.581582e+00    1.251131e+00   1.608247e-02
  1.583792e+00    1.251967e+00   1.606979e-02
  1.586002e+00    1.214962e+00   1.581309e-02
  1.588213e+00    1.248670e+00   1.601367e-02
  1.590423e+00    1.248950e+00   1.599536e-02
  1.592634e+00    1.231300e+00   1.586043e-02
  1.594844e+00    1.231194e+00   1.583844e-02
  1.597055e+00    1.240447e+00   1.587738e-02
  1.599265e+00    1.248945e+00   1.591088e-02
  1.601476e+00    1.236338e+00   1.581012e-02
  1.603686e+00    1.238864e+00   1.580649e-02
  1.605897e+00    1.241593e+00   1.580372e-02
  1.608107e+00    1.241397e+00   1.578288e-02
  1.610317e+00    1.233364e+00   1.571246e-02
  1.612528e+00    1.244161e+00   1.576184e-02
  1.614738e+00    1.220994e+00   1.559554e-02
  1.616949e+00    1.211810e+00   1.551791e-02
  1.619159e+00    1.200990e+00   1.542991e-02
  1.621370e+00    1.179391e+00   1.527239e-02
  1.623580e+00    1.176659e+00   1.523663e-02
  1.625791e+00    1.206232e+00   1.540867e-02
  1.628001e+00    1.196433e+00   1.532775e-02
  1.630212e+00    1.211413e+00   1.540551e-02
  1.632422e+00    1.172500e+00   1.513830e-02
  1.634632e+00    1.162671e+00   1.505752e-02
  1.636843e+00    1.171811e+00   1.509910e-02
  1.639053e+00    1.172050e+00   1.508336e-02
  1.641264e+00    1.164689e+00   1.501886e-02
  1.643474e+00    1.150949e+00   1.491270e-02
  1.645685e+00    1.159445e+00   1.495097e-02
  1.647895e+00    1.156277e+00   1.491393e-02
  1.650106e+00    1.165485e+00   1.495610e-02
  1.652316e+00    1.141182e+00   1.478290e-02
  1.654527e+00    1.125495e+00   1.466441e-02
  1.656737e+00    1.102214e+00   1.449562e-02
  1.658947e+00    1.111900e+00   1.454304e-02
  1.661158e+00    1.109093e+00   1.450855e-02
  1.663368e+00    1.087470e+00   1.435065e-02
  1.665579e+00    1.097524e+00   1.440084e-02
  1.667789e+00    1.106096e+00   1.444080e-02
  1.670000e+00    1.111276e+00   1.445911e-02
  1.672210e+00    1.070325e+00   1.417460e-02
  1.674421e+00    1.085522e+00   1.425966e-02
  1.676631e+00    1.099581e+00   1.433586e-02
  1.678842e+00    1.087831e+00   1.424337e-02
  1.681052e+00    1.075067e+00   1.414430e-02
  1.683263e+00    1.091303e+00   1.423556e-02
  1.685473e+00    1.074316e+00   1.410927e-02
  1.687683e+00    1.063438e+00   1.402237e-02
  1.689894e+00    1.066682e+00   1.402807e-02
  1.692104e+00    1.056821e+00   1.394831e-02
  1.694315e+00    1.044286e+00   1.385100e-02
  1.696525e+00    1.069066e+00   1.399924e-02
  1.698736e+00    1.047294e+00   1.384126e-02
  1.700946e+00    1.046902e+00   1.382364e-02
  1.703157e+00    1.018731e+00   1.362200e-02
  1.705367e+00    1.046379e+00   1.379115e-02
  1.707578e+00    1.031937e+00   1.368121e-02
  1.709788e+00    1.031870e+00   1.366674e-02
  1.711998e+00    1.015829e+00   1.354527e-02
  1.714209e+00    1.024799e+00   1.359060e-02
  1.716419e+00    1.022557e+00   1.356155e-02
  1.718630e+00    1.015445e+00   1.350015e-02
  1.720840e+00    1.004485e+00   1.341308e-02
  1.723051e+00    1.017203e+00   1.348389e-02
  1.725261e+00    1.013105e+00   1.344211e-02
  1.727472e+00    9.984797e-01   1.333068e-02
  1.729682e+00    1.001499e+00   1.333746e-02
  1.731893e+00    9.920890e-01   1.326088e-02
  1.734103e+00    9.868652e-01   1.321228e-02
  1.736313e+00    1.021945e+00   1.343091e-02
  1.738524e+00    1.012981e+00   1.335802e-02
  1.740734e+00    1.011349e+00   1.333344e-02
  1.742945e+00    1.013119e+00   1.333155e-02
  1.745155e+00    1.012251e+00   1.331224e-02
  1.747366e+00    1.024995e+00   1.338174e-02
  1.749576e+00    1.007599e+00   1.325385e-02
  1.751787e+00    1.002550e+00   1.320716e-02
  1.753997e+00    9.556580e-01   1.288137e-02
  1.756208e+00    9.364122e-01   1.273805e-02
  1.758418e+00    9.756942e-01   1.298933e-02
  1.760628e+00    9.710982e-01   1.294537e-02
  1.762839e+00    9.527463e-01   1.280931e-02
  1.765049e+00    9.554064e-01   1.281413e-02
  1.767260e+00    9.310735e-01   1.263725e-02
  1.769470e+00    9.510687e-01   1.275928e-02
  1.771681e+00    9.451418e-01   1.270637e-02
  1.773891e+00    9.367216e-01   1.263669e-02
  1.776102e+00    9.152028e-01   1.247804e-02
  1.778312e+00    9.484870e-01   1.269015e-02
  1.780523e+00    9.485361e-01   1.267772e-02
  1.782733e+00    9.295325e-01   1.253745e-02
  1.784944e+00    9.124977e-01   1.240931e-02
  1.787154e+00    9.074273e-01   1.236243e-02
  1.789364e+00    9.089009e-01   1.236012e-02
  1.791575e+00    8.931757e-01   1.224042e-02
  1.793785e+00    9.490742e-01   1.260503e-02
  1.795996e+00    9.443288e-01   1.256086e-02
  1.798206e+00    9.076801e-01   1.230225e-02
  1.800417e+00    8.880861e-01   1.215625e-02
  1.802627e+00    9.053509e-01   1.226196e-02
  1.804838e+00    9.620612e-01   1.262770e-02
  1.807048e+00    1.031503e+00   1.306185e-02
  1.809259e+00    1.066546e+00   1.326711e-02
  1.811469e+00    1.079652e+00   1.333209e-02
  1.813679e+00    9.335663e-01   1.238210e-02
  1.815890e+00    8.878652e-01   1.206055e-02
  1.818100e+00    8.883539e-01   1.204881e-02
  1.820311e+00    8.950651e-01   1.207947e-02
  1.822521e+00    8.859878e-01   1.200326e-02
  1.824732e+00    8.926291e-01   1.203330e-02
  1.826942e+00    9.110142e-01   1.214410e-02
  1.829153e+00    9.314331e-01   1.226745e-02
  1.831363e+00    9.428716e-01   1.233012e-02
  1.833574e+00    9.533856e-01   1.238654e-02
  1.835784e+00    9.078886e-01   1.207579e-02
  1.837994e+00    8.776087e-01   1.186096e-02
  1.840205e+00    9.007837e-01   1.200521e-02
  1.842415e+00    8.943448e-01   1.195031e-02
  1.844626e+00    9.241024e-01   1.213557e-02
  1.846836e+00    9.189386e-01   1.208990e-02
  1.849047e+00    8.599076e-01   1.168356e-02
  1.851257e+00    8.475666e-01   1.158993e-02
  1.853468e+00    8.614174e-01   1.167543e-02
  1.855678e+00    8.864154e-01   1.183462e-02
  1.857889e+00    8.925522e-01   1.186686e-02
  1.860099e+00    8.790354e-01   1.176793e-02
  1.862309e+00    8.647781e-01   1.166354e-02
  1.864520e+00    8.655441e-01   1.166009e-02
  1.866730e+00    8.480083e-01   1.153202e-02
  1.868941e+00    8.403165e-01   1.146873e-02
  1.871151e+00    8.375667e-01   1.143866e-02
  1.873362e+00    8.491632e-01   1.150622e-02
  1.875572e+00    8.704515e-01   1.163850e-02
  1.877783e+00    8.611799e-01   1.156484e-02
  1.879993e+00    8.600089e-01   1.154573e-02
  1.882204e+00    8.480349e-01   1.145414e-02
  1.884414e+00    8.388590e-01   1.138098e-02
  1.886624e+00    8.399085e-01   1.137704e-02
  1.888835e+00    8.516209e-01   1.144504e-02
  1.891045e+00    8.655246e-01   1.152705e-02
  1.893256e+00    8.627834e-01   1.149754e-02
  1.895466e+00    8.515156e-01   1.141096e-02
  1.897677e+00    8.379414e-01   1.130869e-02
  1.899887e+00    8.401791e-01   1.131277e-02
  1.902098e+00    8.301592e-01   1.123428e-02
  1.904308e+00    8.245364e-01   1.118562e-02
  1.906519e+00    8.610375e-01   1.141946e-02
  1.908729e+00    8.819209e-01   1.154619e-02
  1.910940e+00    8.756050e-01   1.149334e-02
  1.913150e+00    8.405357e-01   1.125016e-02
  1.915360e+00    8.283586e-01   1.115769e-02
  1.917571e+00    8.365673e-01   1.120189e-02
  1.919781e+00    8.234717e-01   1.110317e-02
  1.921992e+00    8.287397e-01   1.112795e-02
  1.924202e+00    8.388016e-01   1.118439e-02
  1.926413e+00    8.237826e-01   1.107348e-02
  1.928623e+00    8.137900e-01   1.099556e-02
  1.930834e+00    8.342263e-01   1.112219e-02
  1.933044e+00    8.256339e-01   1.105402e-02
  1.935255e+00    8.165784e-01   1.098286e-02
  1.937465e+00    8.216578e-01   1.100648e-02
  1.939675e+00    8.159280e-01   1.095714e-02
  1.941886e+00    8.019721e-01   1.085276e-02
  1.944096e+00    7.916457e-01   1.077255e-02
  1.946307e+00    8.028241e-01   1.083799e-02
  1.948517e+00    8.056321e-01   1.084645e-02
  1.950728e+00    7.964829e-01   1.077446e-02
  1.952938e+00    7.814128e-01   1.066206e-02
  1.955149e+00    7.903294e-01   1.071252e-02
  1.957359e+00    7.751497e-01   1.059923e-02
  1.959570e+00    7.938867e-01   1.071569e-02
  1.961780e+00    7.870350e-01   1.065949e-02
  1.963990e+00    7.732561e-01   1.055576e-02
  1.966201e+00    7.787299e-01   1.058308e-02
  1.968411e+00    7.801133e-01   1.058237e-02
  1.970622e+00    7.829741e-01   1.059171e-02
  1.972832e+00    7.900553e-01   1.062950e-02
  1.975043e+00    7.979159e-01   1.067213e-02
  1.977253e+00    7.825956e-01   1.055926e-02
  1.979464e+00    7.837555e-01   1.055703e-02
  1.981674e+00    7.815796e-01   1.053212e-02
  1.983885e+00    7.783356e-01   1.050024e-02
  1.986095e+00    7.711543e-01   1.044205e-02
  1.988305e+00    7.735739e-01   1.044854e-02
  1.990516e+00    7.829805e-01   1.050196e-02
  1.992726e+00    7.659392e-01   1.037743e-02
  1.994937e+00    7.984561e-01   1.058514e-02
  1.997147e+00    7.989624e-01   1.057864e-02
  1.999358e+00    7.828924e-01   1.046181e-02
  2.001568e+00    7.736558e-01   1.038909e-02
  2.003779e+00    7.906064e-01   1.049024e-02
  2.005989e+00    7.725652e-01   1.035782e-02
  2.008200e+00    7.882838e-01   1.045099e-02
  2.010410e+00    7.976474e-01   1.050092e-02
  2.012621e+00    8.169528e-01   1.061518e-02
  2.014831e+00    7.912660e-01   1.043532e-02
  2.017041e+00    7.829776e-01   1.037003e-02
  2.019252e+00    7.774987e-01   1.032364e-02
  2.021462e+00    7.852492e-01   1.036534e-02
  2.023673e+00    7.794546e-01   1.031754e-02
  2.025883e+00    7.941744e-01   1.040479e-02
  2.028094e+00    7.880841e-01   1.035503e-02
  2.030304e+00    7.890131e-01   1.035142e-02
  2.032515e+00    7.795420e-01   1.027968e-02
  2.034725e+00    7.969893e-01   1.038442e-02
  2.036936e+00    7.928826e-01   1.034808e-02
  2.039146e+00    7.712458e-01   1.019626e-02
  2.041356e+00    7.544153e-01   1.007475e-02
  2.043567e+00    7.579456e-01   1.008897e-02
  2.045777e+00    7.697008e-01   1.015758e-02
  2.047988e+00    7.549258e-01   1.005025e-02
  2.050198e+00    7.532838e-01   1.003088e-02
  2.052409e+00    7.505227e-01   1.000484e-02
  2.054619e+00    7.408846e-01   9.933051e-03
  2.056830e+00    7.657731e-01   1.009129e-02
  2.059040e+00    7.521236e-01   9.993424e-03
  2.061251e+00    7.479483e-01   9.958404e-03
  2.063461e+00    7.652188e-01   1.006504e-02
  2.065671e+00    7.602473e-01   1.002353e-02
  2.067882e+00    7.611358e-01   1.002027e-02
  2.070092e+00    7.777261e-01   1.011953e-02
  2.072303e+00    7.794222e-01   1.012121e-02
  2.074513e+00    7.519323e-01   9.931786e-03
  2.076724e+00    7.436514e-01   9.867463e-03
  2.078934e+00    7.410321e-01   9.841093e-03
  2.081145e+00    7.419643e-01   9.838200e-03
  2.083355e+00    7.305173e-01   9.752906e-03
  2.085566e+00    7.689320e-01   9.996949e-03
  2.087776e+00    7.981560e-01   1.017530e-02
  2.089986e+00    7.919976e-01   1.012688e-02
  2.092197e+00    7.888342e-01   1.009738e-02
  2.094407e+00    7.520288e-01   9.849678e-03
  2.096618e+00    7.304925e-01   9.698741e-03
  2.098828e+00    7.208503e-01   9.625301e-03
  2.101039e+00    7.113683e-01   9.552929e-03
  2.103249e+00    7.209140e-01   9.608193e-03
  2.105460e+00    7.402096e-01   9.726858e-03
  2.107670e+00    7.127424e-01   9.536059e-03
  2.109881e+00    7.401683e-01   9.708520e-03
  2.112091e+00    7.327374e-01   9.650665e-03
  2.114301e+00    7.150607e-01   9.524814e-03
  2.116512e+00    7.183716e-01   9.538061e-03
  2.118722e+00    7.316520e-01   9.616953e-03
  2.120933e+00    7.139400e-01   9.491016e-03
  2.123143e+00    7.153736e-01   9.491645e-03
  2.125354e+00    7.146241e-01   9.478169e-03
  2.127564e+00    7.119498e-01   9.451700e-03
  2.129775e+00    7.149708e-01   9.463021e-03
  2.131985e+00    7.101599e-01   9.422105e-03
  2.134196e+00    6.915168e-01   9.289137e-03
  2.136406e+00    6.968336e-01   9.316140e-03
  2.138617e+00    7.024814e-01   9.345393e-03
  2.140827e+00    7.172929e-01   9.459569e-03
  2.143037e+00    7.072133e-01   9.438346e-03
  2.145248e+00    6.947829e-01   9.376873e-03
  2.147458e+00    6.919751e-01   9.372896e-03
  2.149669e+00    6.969838e-01   9.418563e-03
  2.151879e+00    6.910437e-01   9.387488e-03
  2.154090e+00    6.969438e-01   9.434768e-03
  2.156300e+00    7.094660e-01   9.525795e-03
  2.158511e+00    7.195961e-01   9.598945e-03
  2.160721e+00    7.073560e-01   9.521813e-03
  2.162932e+00    6.976281e-01   9.459853e-03
  2.165142e+00    6.837781e-01   9.368457e-03
  2.167352e+00    6.864240e-01   9.389464e-03
  2.169563e+00    7.008156e-01   9.489338e-03
  2.171773e+00    6.813480e-01   9.359053e-03
  2.173984e+00    6.777189e-01   9.335478e-03
  2.176194e+00    6.968346e-01   9.467409e-03
  2.178405e+00    6.949900e-01   9.455594e-03
  2.180615e+00    6.886399e-01   9.412972e-03
  2.182826e+00    6.770382e-01   9.334014e-03
  2.185036e+00    6.729725e-01   9.305997e-03
  2.187247e+00    6.875364e-01   9.406092e-03
  2.189457e+00    6.913828e-01   9.431969e-03
  2.191667e+00    6.914243e-01   9.432078e-03
  2.193878e+00    6.743716e-01   9.314483e-03
  2.196088e+00    6.799260e-01   9.352066e-03
  2.198299e+00    6.747645e-01   9.315429e-03
  2.200509e+00    6.690835e-01   9.275093e-03
  2.202720e+00    6.585799e-01   9.200859e-03
  2.204930e+00    6.780155e-01   9.334402e-03
  2.207141e+00    6.843787e-01   9.376977e-03
  2.209351e+00    6.845702e-01   9.376417e-03
  2.211562e+00    6.742250e-01   9.303670e-03
  2.213772e+00    6.731910e-01   9.241221e-03
  2.215982e+00    6.705309e-01   9.178888e-03
  2.218193e+00    6.804759e-01   9.216978e-03
  2.220403e+00    6.875724e-01   9.240096e-03
  2.222614e+00    6.944147e-01   9.264679e-03
  2.224824e+00    6.835697e-01   9.172542e-03
  2.227035e+00    6.909516e-01   9.204242e-03
  2.229245e+00    6.700082e-01   9.046752e-03
  2.231456e+00    6.679200e-01   9.017047e-03
  2.233666e+00    6.733542e-01   9.038531e-03
  2.235877e+00    6.776899e-01   9.053243e-03
  2.238087e+00    6.757334e-01   9.026636e-03
  2.240298e+00    6.720250e-01   8.988027e-03
  2.242508e+00    6.630116e-01   8.912502e-03
  2.244718e+00    6.637166e-01   8.901468e-03
  2.246929e+00    6.766429e-01   8.973231e-03
  2.249139e+00    6.676681e-01   8.901150e-03
  2.251350e+00    6.647911e-01   8.870247e-03
  2.253560e+00    6.679190e-01   8.879523e-03
  2.255771e+00    6.681142e-01   8.869381e-03
  2.257981e+00    6.686931e-01   8.862019e-03
  2.260192e+00    6.915517e-01   9.000870e-03
  2.262402e+00    6.847314e-01   8.945382e-03
  2.264613e+00    6.781015e-01   8.891006e-03
  2.266823e+00    6.752579e-01   8.861838e-03
  2.269033e+00    7.011561e-01   9.019517e-03
  2.271244e+00    6.808298e-01   8.877293e-03
  2.273454e+00    6.903125e-01   8.928405e-03
  2.275665e+00    7.034878e-01   9.002588e-03
  2.277875e+00    7.256893e-01   9.133147e-03
  2.280086e+00    7.087488e-01   9.015528e-03
  2.282296e+00    6.813965e-01   8.830281e-03
  2.284507e+00    6.730508e-01   8.765794e-03
  2.286717e+00    6.632481e-01   8.692201e-03
  2.288928e+00    6.880959e-01   8.843449e-03
  2.291138e+00    6.701494e-01   8.717847e-03
  2.293348e+00    6.705889e-01   8.711048e-03
  2.295559e+00    6.612564e-01   8.640869e-03
  2.297769e+00    6.577276e-01   8.608510e-03
  2.299980e+00    6.641008e-01   8.640702e-03
  2.302190e+00    6.678780e-01   8.656015e-03
  2.304401e+00    6.578647e-01   8.581528e-03
  2.306611e+00    6.643193e-01   8.614226e-03
  2.308822e+00    6.537414e-01   8.536977e-03
  2.311032e+00    6.497964e-01   8.504739e-03
  2.313243e+00    6.495671e-01   8.496949e-03
  2.315453e+00    6.571440e-01   8.538757e-03
  2.317663e+00    6.375403e-01   8.401374e-03
  2.319874e+00    6.354612e-01   8.379000e-03
  2.322084e+00    6.357107e-01   8.371762e-03
  2.324295e+00    6.471170e-01   8.438282e-03
  2.326505e+00    6.458513e-01   8.420972e-03
  2.328716e+00    6.563573e-01   8.480547e-03
  2.330926e+00    6.540324e-01   8.456661e-03
  2.333137e+00    6.360281e-01   8.331095e-03
  2.335347e+00    6.539139e-01   8.438472e-03
  2.337558e+00    6.324390e-01   8.290591e-03
  2.339768e+00    6.364186e-01   8.308062e-03
  2.341979e+00    6.439375e-01   8.348600e-03
  2.344189e+00    6.599313e-01   8.443103e-03
  2.346399e+00    6.495069e-01   8.367574e-03
  2.348610e+00    6.386889e-01   8.289127e-03
  2.350820e+00    6.356314e-01   8.261059e-03
  2.353031e+00    6.500141e-01   8.345627e-03
  2.355241e+00    6.382107e-01   8.261412e-03
  2.357452e+00    6.350688e-01   8.232629e-03
  2.359662e+00    6.226101e-01   8.143300e-03
  2.361873e+00    6.231943e-01   8.138936e-03
  2.364083e+00    6.203850e-01   8.112638e-03
  2.366294e+00    6.268326e-01   8.146578e-03
  2.368504e+00    6.297832e-01   8.157631e-03
  2.370714e+00    6.168007e-01   8.065129e-03
  2.372925e+00    6.248714e-01   8.109652e-03
  2.375135e+00    6.291060e-01   8.129008e-03
  2.377346e+00    6.303807e-01   8.129243e-03
  2.379556e+00    6.472033e-01   8.228959e-03
  2.381767e+00    6.210114e-01   8.052874e-03
  2.383977e+00    6.191558e-01   8.032902e-03
  2.386188e+00    6.260650e-01   8.069639e-03
  2.388398e+00    6.243968e-01   8.050888e-03
  2.390609e+00    6.172704e-01   7.997090e-03
  2.392819e+00    6.199591e-01   8.006677e-03
  2.395029e+00    6.308320e-01   8.068838e-03
  2.397240e+00    6.185059e-01   7.981734e-03
  2.399450e+00    6.113324e-01   7.927501e-03
  2.401661e+00    6.144567e-01   7.940051e-03
  2.403871e+00    6.171955e-01   7.949919e-03
  2.406082e+00    6.333329e-01   8.045607e-03
  2.408292e+00    6.137694e-01   7.912564e-03
  2.410503e+00    6.037105e-01   7.839991e-03
  2.412713e+00    5.952359e-01   7.777037e-03
  2.414924e+00    6.180469e-01   7.917101e-03
  2.417134e+00    6.167148e-01   7.900861e-03
  2.419344e+00    6.002579e-01   7.787347e-03
  2.421555e+00    6.010611e-01   7.785040e-03
  2.423765e+00    5.978799e-01   7.757027e-03
  2.425976e+00    5.940863e-01   7.724609e-03
  2.428186e+00    6.042389e-01   7.783069e-03
  2.430397e+00    5.923052e-01   7.698407e-03
  2.432607e+00    5.719483e-01   7.557807e-03
  2.434818e+00    5.945885e-01   7.698392e-03
  2.437028e+00    6.055307e-01   7.761708e-03
  2.439239e+00    6.010713e-01   7.725362e-03
  2.441449e+00    6.042985e-01   7.738813e-03
  2.443659e+00    5.804179e-01   7.577084e-03
  2.445870e+00    5.796670e-01   7.584315e-03
  2.448080e+00    5.704846e-01   7.558421e-03
  2.450291e+00    5.868613e-01   7.682896e-03
  2.452501e+00    5.800316e-01   7.649270e-03
  2.454712e+00    5.700253e-01   7.591400e-03
  2.456922e+00    5.741176e-01   7.625243e-03
  2.459133e+00    5.720558e-01   7.616987e-03
  2.461343e+00    5.745114e-01   7.637693e-03
  2.463554e+00    5.705426e-01   7.614785e-03
  2.465764e+00    5.710427e-01   7.621240e-03
  2.467975e+00    5.720044e-01   7.630005e-03
  2.470185e+00    5.592752e-01   7.546857e-03
  2.472395e+00    5.721224e-01   7.634294e-03
  2.474606e+00    5.560964e-01   7.528182e-03
  2.476816e+00    5.565264e-01   7.531818e-03
  2.479027e+00    5.573273e-01   7.538103e-03
  2.481237e+00    5.455974e-01   7.458615e-03
  2.483448e+00    5.445488e-01   7.451763e-03
  2.485658e+00    5.408131e-01   7.426010e-03
  2.487869e+00    5.375538e-01   7.403632e-03
  2.490079e+00    5.485057e-01   7.478148e-03
  2.492290e+00    5.387903e-01   7.411204e-03
  2.494500e+00    5.412915e-01   7.427632e-03
  2.496710e+00    5.377235e-01   7.402436e-03
  2.498921e+00    5.214844e-01   7.288822e-03
  2.501131e+00    5.314992e-01   7.357511e-03
  2.503342e+00    5.358228e-01   7.386127e-03
  2.505552e+00    5.492137e-01   7.476686e-03
  2.507763e+00    5.339490e-01   7.370656e-03
  2.509973e+00    5.240140e-01   7.300349e-03
  2.512184e+00    5.309389e-01   7.346821e-03
  2.514394e+00    5.376711e-01   7.383781e-03
  2.516605e+00    5.374879e-01   7.334995e-03
  2.518815e+00    5.268369e-01   7.233606e-03
  2.521025e+00    5.229075e-01   7.185650e-03
  2.523236e+00    5.414783e-01   7.293880e-03
  2.525446e+00    5.563992e-01   7.377646e-03
  2.527657e+00    5.447820e-01   7.285350e-03
  2.529867e+00    5.473717e-01   7.288170e-03
  2.532078e+00    5.531762e-01   7.311263e-03
  2.534288e+00    5.494589e-01   7.272461e-03
  2.536499e+00    5.322427e-01   7.145595e-03
  2.538709e+00    5.340140e-01   7.146380e-03
  2.540920e+00    5.234848e-01   7.064921e-03
  2.543130e+00    5.406092e-01   7.169028e-03
  2.545340e+00    5.392941e-01   7.150096e-03
  2.547551e+00    5.301654e-01   7.079317e-03
  2.549761e+00    5.151819e-01   6.969034e-03
  2.551972e+00    5.231752e-01   7.013523e-03
  2.554182e+00    5.270553e-01   7.030270e-03
  2.556393e+00    5.072256e-01   6.887768e-03
  2.558603e+00    5.168378e-01   6.943670e-03
  2.560814e+00    5.261508e-01   6.997216e-03
  2.563024e+00    5.071639e-01   6.861315e-03
  2.565235e+00    5.057381e-01   6.842280e-03
  2.567445e+00    5.075053e-01   6.844789e-03
  2.569656e+00    4.949656e-01   6.750156e-03
  2.571866e+00    5.107663e-01   6.847757e-03
  2.574076e+00    5.211974e-01   6.908014e-03
  2.576287e+00    5.289163e-01   6.950575e-03
  2.578497e+00    5.209582e-01   6.890186e-03
  2.580708e+00    5.218949e-01   6.888252e-03
  2.582918e+00    5.253524e-01   6.903192e-03
  2.585129e+00    5.165280e-01   6.837198e-03
  2.587339e+00    5.003076e-01   6.721430e-03
  2.589550e+00    5.039375e-01   6.738260e-03
  2.591760e+00    5.140705e-01   6.797916e-03
  2.593971e+00    5.186875e-01   6.820816e-03
  2.596181e+00    5.101159e-01   6.757983e-03
  2.598391e+00    5.169323e-01   6.797791e-03
  2.600602e+00    5.078498e-01   6.731896e-03
  2.602812e+00    5.109378e-01   6.744776e-03
  2.605023e+00    5.130693e-01   6.751631e-03
  2.607233e+00    5.174250e-01   6.773028e-03
  2.609444e+00    5.088887e-01   6.709700e-03
  2.611654e+00    4.964575e-01   6.619981e-03
  2.613865e+00    4.972096e-01   6.618018e-03
  2.616075e+00    4.940338e-01   6.589807e-03
  2.618286e+00    5.136132e-01   6.712037e-03
  2.620496e+00    5.215890e-01   6.757184e-03
  2.622706e+00    5.170631e-01   6.721975e-03
  2.624917e+00    5.073433e-01   6.652638e-03
  2.627127e+00    5.105188e-01   6.667646e-03
  2.629338e+00    4.987294e-01   6.584259e-03
  2.631548e+00    4.976947e-01   6.571290e-03
  2.633759e+00    5.106143e-01   6.648825e-03
  2.635969e+00    5.134079e-01   6.660227e-03
  2.638180e+00    5.061896e-01   6.606233e-03
  2.640390e+00    5.061851e-01   6.599555e-03
  2.642601e+00    5.015741e-01   6.562766e-03
  2.644811e+00    5.016855e-01   6.556413e-03
  2.647021e+00    4.952358e-01   6.507588e-03
  2.649232e+00    4.930303e-01   6.486418e-03
  2.651442e+00    4.980704e-01   6.512973e-03
  2.653653e+00    5.081706e-01   6.571845e-03
  2.655863e+00    5.025946e-01   6.528964e-03
  2.658074e+00    5.014532e-01   6.514930e-03
  2.660284e+00    4.922415e-01   6.448471e-03
  2.662495e+00    5.040487e-01   6.518560e-03
  2.664705e+00    5.079705e-01   6.537233e-03
  2.666916e+00    4.883573e-01   6.403374e-03
  2.669126e+00    4.972214e-01   6.454758e-03
  2.671337e+00    5.032406e-01   6.487076e-03
  2.673547e+00    4.978081e-01   6.445579e-03
  2.675757e+00    4.952331e-01   6.422419e-03
  2.677968e+00    5.021720e-01   6.460696e-03
  2.680178e+00    4.919146e-01   6.387976e-03
  2.682389e+00    4.862856e-01   6.344986e-03
  2.684599e+00    4.878123e-01   6.348758e-03
  2.686810e+00    4.989870e-01   6.414425e-03
  2.689020e+00    5.019470e-01   6.427070e-03
  2.691231e+00    4.976143e-01   6.392929e-03
  2.693441e+00    5.010769e-01   6.408929e-03
  2.695652e+00    4.932266e-01   6.352000e-03
  2.697862e+00    4.982247e-01   6.377684e-03
  2.700072e+00    5.033896e-01   6.404508e-03
  2.702283e+00    5.041253e-01   6.402873e-03
  2.704493e+00    4.951541e-01   6.339324e-03
  2.706704e+00    4.918356e-01   6.311612e-03
  2.708914e+00    4.852019e-01   6.262963e-03
  2.711125e+00    4.808743e-01   6.228759e-03
  2.713335e+00    4.953560e-01   6.315694e-03
  2.715546e+00    4.971318e-01   6.320520e-03
  2.717756e+00    4.833467e-01   6.226384e-03
  2.719967e+00    4.761701e-01   6.173835e-03
  2.722177e+00    4.903479e-01   6.258914e-03
  2.724387e+00    4.879141e-01   6.237253e-03
  2.726598e+00    4.827940e-01   6.198392e-03
  2.728808e+00    4.758019e-01   6.147261e-03
  2.731019e+00    4.852443e-01   6.201819e-03
  2.733229e+00    4.947706e-01   6.256536e-03
  2.735440e+00    4.876509e-01   6.205079e-03
  2.737650e+00    4.759752e-01   6.124355e-03
  2.739861e+00    4.928192e-01   6.225663e-03
  2.742071e+00    4.974845e-01   6.249230e-03
  2.744282e+00    4.849744e-01   6.163901e-03
  2.746492e+00    4.818466e-01   6.137954e-03
  2.748702e+00    4.863697e-01   6.160766e-03
  2.750913e+00    4.704421e-01   6.053338e-03
  2.753123e+00    4.679475e-01   6.031207e-03
  2.755334e+00    4.864903e-01   6.143446e-03
  2.757544e+00    4.874942e-01   6.144001e-03
  2.759755e+00    4.924454e-01   6.169172e-03
  2.761965e+00    4.880396e-01   6.135476e-03
  2.764176e+00    4.952677e-01   6.174661e-03
  2.766386e+00    4.912793e-01   6.143900e-03
  2.768597e+00    4.771457e-01   6.049029e-03
  2.770807e+00    4.765176e-01   6.039180e-03
  2.773017e+00    4.685887e-01   5.982831e-03
  2.775228e+00    4.733038e-01   6.007080e-03
  2.777438e+00    4.764393e-01   6.021176e-03
  2.779649e+00    4.726387e-01   5.991235e-03
  2.781859e+00    4.725256e-01   5.984798e-03
  2.784070e+00    4.862739e-01   6.065303e-03
  2.786280e+00    4.937327e-01   6.105794e-03
  2.788491e+00    4.881923e-01   6.065546e-03
  2.790701e+00    4.678684e-01   5.932343e-03
  2.792912e+00    4.780995e-01   5.990865e-03
  2.795122e+00    4.785197e-01   5.987772e-03
  2.797333e+00    4.777805e-01   5.977549e-03
  2.799543e+00    4.682219e-01   5.911662e-03
  2.801753e+00    4.670931e-01   5.898702e-03
  2.803964e+00    4.812475e-01   5.981726e-03
  2.806174e+00    4.863891e-01   6.007358e-03
  2.808385e+00    4.816458e-01   5.971177e-03
  2.810595e+00    4.817261e-01   5.964740e-03
  2.812806e+00    4.898833e-01   6.008323e-03
  2.815016e+00    4.750456e-01   5.911886e-03
  2.817227e+00    4.703020e-01   5.908113e-03
  2.819437e+00    4.711375e-01   5.924418e-03
  2.821648e+00    4.646389e-01   5.885670e-03
  2.823858e+00    4.747585e-01   5.954774e-03
  2.826068e+00    4.830838e-01   6.011787e-03
  2.828279e+00    4.685206e-01   5.924502e-03
  2.830489e+00    4.827564e-01   6.017205e-03
  2.832700e+00    4.620152e-01   5.889069e-03
  2.834910e+00    4.629810e-01   5.897252e-03
  2.837121e+00    4.683143e-01   5.932825e-03
  2.839331e+00    4.667372e-01   5.924054e-03
  2.841542e+00    4.744110e-01   5.973573e-03
  2.843752e+00    4.777000e-01   5.995037e-03
  2.845963e+00    4.743038e-01   5.974097e-03
  2.848173e+00    4.717873e-01   5.958293e-03
  2.850383e+00    4.737373e-01   5.970907e-03
  2.852594e+00    4.608544e-01   5.889092e-03
  2.854804e+00    4.558535e-01   5.856527e-03
  2.857015e+00    4.721796e-01   5.960044e-03
  2.859225e+00    4.813940e-01   6.017681e-03
  2.861436e+00    4.614452e-01   5.891024e-03
  2.863646e+00    4.639645e-01   5.907107e-03
  2.865857e+00    4.745471e-01   5.974451e-03
  2.868067e+00    4.746108e-01   5.975070e-03
  2.870278e+00    4.676938e-01   5.931028e-03
  2.872488e+00    4.605811e-01   5.884587e-03
  2.874698e+00    4.669139e-01   5.923856e-03
  2.876909e+00    4.610394e-01   5.885156e-03
  2.879119e+00    4.562559e-01   5.852926e-03
  2.881330e+00    4.620819e-01   5.888710e-03
  2.883540e+00    4.551913e-01   5.843257e-03
  2.885751e+00    4.582122e-01   5.860982e-03
  2.887961e+00    4.606707e-01   5.874800e-03
  2.890172e+00    4.685173e-01   5.922999e-03
  2.892382e+00    4.680726e-01   5.918384e-03
  2.894593e+00    4.748845e-01   5.959434e-03
  2.896803e+00    4.581389e-01   5.851465e-03
  2.899014e+00    4.732749e-01   5.945376e-03
  2.901224e+00    4.712838e-01   5.930867e-03
  2.903434e+00    4.553823e-01   5.828009e-03
  2.905645e+00    4.659641e-01   5.893075e-03
  2.907855e+00    4.782858e-01   5.968354e-03
  2.910066e+00    4.676846e-01   5.899753e-03
  2.912276e+00    4.644101e-01   5.876926e-03
  2.914487e+00    4.548997e-01   5.813988e-03
  2.916697e+00    4.566799e-01   5.823128e-03
  2.918908e+00    4.539587e-01   5.803763e-03
  2.921118e+00    4.660707e-01   5.877957e-03
  2.923329e+00    4.579775e-01   5.824390e-03
  2.925539e+00    4.582707e-01   5.823971e-03
  2.927749e+00    4.696111e-01   5.893226e-03
  2.929960e+00    4.679603e-01   5.880079e-03
  2.932170e+00    4.580221e-01   5.814972e-03
  2.934381e+00    4.584990e-01   5.815545e-03
  2.936591e+00    4.538166e-01   5.783196e-03
  2.938802e+00    4.615967e-01   5.829837e-03
  2.941012e+00    4.534246e-01   5.775671e-03
  2.943223e+00    4.581756e-01   5.803145e-03
  2.945433e+00    4.645571e-01   5.839658e-03
  2.947644e+00    4.620995e-01   5.820022e-03
  2.949854e+00    4.607218e-01   5.807036e-03
  2.952064e+00    4.589058e-01   5.791361e-03
  2.954275e+00    4.601853e-01   5.794963e-03
  2.956485e+00    4.715315e-01   5.861719e-03
  2.958696e+00    4.606914e-01   5.789560e-03
  2.960906e+00    4.663215e-01   5.820577e-03
  2.963117e+00    4.753505e-01   5.872077e-03
  2.965327e+00    4.662151e-01   5.811436e-03
  2.967538e+00    4.641569e-01   5.795643e-03
  2.969748e+00    4.561708e-01   5.742742e-03
  2.971959e+00    4.673700e-01   5.809642e-03
  2.974169e+00    4.447614e-01   5.664821e-03
  2.976379e+00    4.566890e-01   5.737335e-03
  2.978590e+00    4.593221e-01   5.750701e-03
  2.980800e+00    4.697060e-01   5.812500e-03
  2.983011e+00    4.503550e-01   5.688742e-03
  2.985221e+00    4.525055e-01   5.699133e-03
  2.987432e+00    4.631808e-01   5.762836e-03
  2.989642e+00    4.623470e-01   5.754997e-03
  2.991853e+00    4.613027e-01   5.745190e-03
  2.994063e+00    4.486271e-01   5.662821e-03
  2.996274e+00    4.729062e-01   5.810758e-03
  2.998484e+00    4.747664e-01   5.819446e-03
  3.000694e+00    4.670493e-01   5.768438e-03
  3.002905e+00    4.567900e-01   5.701793e-03
  3.005115e+00    4.483444e-01   5.645863e-03
  3.007326e+00    4.616263e-01   5.725693e-03
  3.009536e+00    4.751349e-01   5.805535e-03
  3.011747e+00    4.667674e-01   5.751241e-03
  3.013957e+00    4.510285e-01   5.650279e-03
  3.016168e+00    4.513573e-01   5.649061e-03
  3.018378e+00    4.637635e-01   5.723114e-03
  3.020589e+00    4.564855e-01   5.674786e-03
  3.022799e+00    4.663424e-01   5.732530e-03
  3.025010e+00    4.680191e-01   5.739524e-03
  3.027220e+00    4.570706e-01   5.668886e-03
  3.029430e+00    4.523281e-01   5.636129e-03
  3.031641e+00    4.667580e-01   5.722141e-03
  3.033851e+00    4.715205e-01   5.747666e-03
  3.036062e+00    4.583171e-01   5.663841e-03
  3.038272e+00    4.470141e-01   5.589992e-03
  3.040483e+00    4.479772e-01   5.592788e-03
  3.042693e+00    4.641324e-01   5.689449e-03
  3.044904e+00    4.622864e-01   5.674033e-03
  3.047114e+00    4.680444e-01   5.704377e-03
  3.049325e+00    4.566862e-01   5.630322e-03
  3.051535e+00    4.491825e-01   5.579475e-03
  3.053745e+00    4.443355e-01   5.544578e-03
  3.055956e+00    4.512022e-01   5.582678e-03
  3.058166e+00    4.603183e-01   5.634486e-03
  3.060377e+00    4.623320e-01   5.641959e-03
  3.062587e+00    4.525259e-01   5.577176e-03
  3.064798e+00    4.383452e-01   5.484898e-03
  3.067008e+00    4.419703e-01   5.502824e-03
  3.069219e+00    4.532215e-01   5.567901e-03
  3.071429e+00    4.540539e-01   5.569490e-03
  3.073640e+00    4.481184e-01   5.529639e-03
  3.075850e+00    4.447754e-01   5.505407e-03
  3.078060e+00    4.407773e-01   5.477522e-03
  3.080271e+00    4.453304e-01   5.502308e-03
  3.082481e+00    4.377486e-01   5.451834e-03
  3.084692e+00    4.411780e-01   5.469804e-03
  3.086902e+00    4.557289e-01   5.556002e-03
  3.089113e+00    4.535114e-01   5.538882e-03
  3.091323e+00    4.556447e-01   5.548486e-03
  3.093534e+00    4.495282e-01   5.507751e-03
  3.095744e+00    4.637244e-01   5.590598e-03
  3.097955e+00    4.520555e-01   5.516250e-03
  3.100165e+00    4.459895e-01   5.475793e-03
  3.102375e+00    4.380886e-01   5.423675e-03
  3.104586e+00    4.468008e-01   5.473840e-03
  3.106796e+00    4.549748e-01   5.520137e-03
  3.109007e+00    4.598958e-01   5.546650e-03
  3.111217e+00    4.644975e-01   5.570557e-03
  3.113428e+00    4.582904e-01   5.529756e-03
  3.115638e+00    4.554048e-01   5.509051e-03
  3.117849e+00    4.644421e-01   5.559633e-03
  3.120059e+00    4.513484e-01   5.477228e-03
  3.122270e+00    4.452780e-01   5.436996e-03
  3.124480e+00    4.619761e-01   5.534253e-03
  3.126691e+00    4.473259e-01   5.442233e-03
  3.128901e+00    4.466487e-01   5.434965e-03
  3.131111e+00    4.635395e-01   5.532851e-03
  3.133322e+00    4.504120e-01   5.450494e-03
  3.135532e+00    4.691695e-01   5.559321e-03
  3.137743e+00    4.569313e-01   5.482819e-03
  3.139953e+00    4.407855e-01   5.381400e-03
  3.142164e+00    4.427313e-01   5.405275e-03
  3.144374e+00    4.488992e-01   5.471403e-03
  3.146585e+00    4.371459e-01   5.413795e-03
  3.148795e+00    4.324937e-01   5.395554e-03
  3.151006e+00    4.442315e-01   5.476837e-03
  3.153216e+00    4.555732e-01   5.553576e-03
  3.155426e+00    4.602490e-01   5.588435e-03
  3.157637e+00    4.445844e-01   5.498084e-03
  3.159847e+00    4.423483e-01   5.489107e-03
  3.162058e+00    4.444049e-01   5.506303e-03
  3.164268e+00    4.371271e-01   5.465088e-03
  3.166479e+00    4.439484e-01   5.511225e-03
  3.168689e+00    4.458258e-01   5.526244e-03
  3.170900e+00    4.643450e-01   5.643137e-03
  3.173110e+00    4.364265e-01   5.473730e-03
  3.175321e+00    4.429724e-01   5.517125e-03
  3.177531e+00    4.349470e-01   5.469656e-03
  3.179741e+00    4.282735e-01   5.429561e-03
  3.181952e+00    4.312530e-01   5.450542e-03
  3.184162e+00    4.292828e-01   5.440223e-03
  3.186373e+00    4.316776e-01   5.456976e-03
  3.188583e+00    4.365864e-01   5.489684e-03
  3.190794e+00    4.394671e-01   5.509544e-03
  3.193004e+00    4.431003e-01   5.533526e-03
  3.195215e+00    4.253722e-01   5.423183e-03
  3.197425e+00    4.239123e-01   5.415056e-03
  3.199636e+00    4.324052e-01   5.468269e-03
  3.201846e+00    4.458550e-01   5.552044e-03
  3.204056e+00    4.336387e-01   5.476347e-03
  3.206267e+00    4.389729e-01   5.510764e-03
  3.208477e+00    4.395013e-01   5.515039e-03
  3.210688e+00    4.426219e-01   5.535413e-03
  3.212898e+00    4.465642e-01   5.560602e-03
  3.215109e+00    4.343724e-01   5.484925e-03
  3.217319e+00    4.461014e-01   5.559137e-03
  3.219530e+00    4.334001e-01   5.479830e-03
  3.221740e+00    4.178343e-01   5.381057e-03
  3.223951e+00    4.285107e-01   5.449843e-03
  3.226161e+00    4.337767e-01   5.483423e-03
  3.228372e+00    4.302332e-01   5.461493e-03
  3.230582e+00    4.446331e-01   5.552299e-03
  3.232792e+00    4.348268e-01   5.490946e-03
  3.235003e+00    4.344240e-01   5.488670e-03
  3.237213e+00    4.179387e-01   5.383618e-03
  3.239424e+00    4.285129e-01   5.451271e-03
  3.241634e+00    4.264893e-01   5.438522e-03
  3.243845e+00    4.441416e-01   5.550004e-03
  3.246055e+00    4.315943e-01   5.470781e-03
  3.248266e+00    4.231296e-01   5.417055e-03
  3.250476e+00    4.255560e-01   5.432268e-03
  3.252687e+00    4.261689e-01   5.436101e-03
  3.254897e+00    4.391851e-01   5.518361e-03
  3.257107e+00    4.283719e-01   5.449709e-03
  3.259318e+00    4.284055e-01   5.449668e-03
  3.261528e+00    4.310489e-01   5.466323e-03
  3.263739e+00    4.265829e-01   5.437381e-03
  3.265949e+00    4.214246e-01   5.404281e-03
  3.268160e+00    4.304267e-01   5.461261e-03
  3.270370e+00    4.378919e-01   5.507902e-03
  3.272581e+00    4.382425e-01   5.509847e-03
  3.274791e+00    4.363793e-01   5.497565e-03
  3.277002e+00    4.338803e-01   5.481238e-03
  3.279212e+00    4.262358e-01   5.432373e-03
  3.281422e+00    4.273576e-01   5.438934e-03
  3.283633e+00    4.171841e-01   5.373109e-03
  3.285843e+00    4.305896e-01   5.458433e-03
  3.288054e+00    4.298858e-01   5.453013e-03
  3.290264e+00    4.305732e-01   5.457065e-03
  3.292475e+00    4.384815e-01   5.506094e-03
  3.294685e+00    4.257106e-01   5.424702e-03
  3.296896e+00    4.265600e-01   5.429323e-03
  3.299106e+00    4.423572e-01   5.528403e-03
  3.301317e+00    4.260121e-01   5.424276e-03
  3.303527e+00    4.256041e-01   5.421196e-03
  3.305737e+00    4.348472e-01   5.478680e-03
  3.307948e+00    4.353554e-01   5.481212e-03
  3.310158e+00    4.227268e-01   5.400293e-03
  3.312369e+00    4.251051e-01   5.414560e-03
  3.314579e+00    4.292440e-01   5.439927e-03
  3.316790e+00    4.323636e-01   5.458968e-03
  3.319000e+00    4.409148e-01   5.511458e-03
  3.321211e+00    4.304571e-01   5.445109e-03
  3.323421e+00    4.159917e-01   5.351648e-03
  3.325632e+00    4.232272e-01   5.397066e-03
  3.327842e+00    4.223602e-01   5.390648e-03
  3.330052e+00    4.185512e-01   5.365207e-03
  3.332263e+00    4.181858e-01   5.361850e-03
  3.334473e+00    4.416634e-01   5.509378e-03
  3.336684e+00    4.240764e-01   5.397305e-03
  3.338894e+00    4.444302e-01   5.524443e-03
  3.341105e+00    4.261596e-01   5.408498e-03
  3.343315e+00    4.319419e-01   5.443891e-03
  3.345526e+00    4.286715e-01   5.422340e-03
  3.347736e+00    4.139161e-01   5.326811e-03
  3.349947e+00    4.239944e-01   5.390317e-03
  3.352157e+00    4.152437e-01   5.333258e-03
  3.354368e+00    4.206883e-01   5.366792e-03
  3.356578e+00    4.186841e-01   5.352980e-03
  3.358788e+00    4.284604e-01   5.413762e-03
  3.360999e+00    4.240924e-01   5.384867e-03
  3.363209e+00    4.111601e-01   5.301106e-03
  3.365420e+00    4.098845e-01   5.291366e-03
  3.367630e+00    4.202059e-01   5.356550e-03
  3.369841e+00    4.347724e-01   5.447161e-03
  3.372051e+00    4.113589e-01   5.296505e-03
  3.374262e+00    4.116997e-01   5.296248e-03
  3.376472e+00    4.314504e-01   5.419330e-03
  3.378683e+00    4.133814e-01   5.302128e-03
  3.380893e+00    4.317650e-01   5.416361e-03
  3.383103e+00    4.310398e-01   5.409058e-03
  3.385314e+00    4.188102e-01   5.329567e-03
  3.387524e+00    4.012693e-01   5.214040e-03
  3.389735e+00    4.154971e-01   5.303037e-03
  3.391945e+00    4.281210e-01   5.379247e-03
  3.394156e+00    4.300089e-01   5.386811e-03
  3.396366e+00    4.292980e-01   5.378874e-03
  3.398577e+00    4.086452e-01   5.244865e-03
  3.400787e+00    4.103354e-01   5.267593e-03
  3.402998e+00    4.057072e-01   5.275666e-03
  3.405208e+00    4.074830e-01   5.307906e-03
  3.407418e+00    3.991522e-01   5.269124e-03
  3.409629e+00    3.963433e-01   5.264434e-03
  3.411839e+00    3.991686e-01   5.294923e-03
  3.414050e+00    3.967628e-01   5.289956e-03
  3.416260e+00    3.866408e-01   5.231566e-03
  3.418471e+00    4.020332e-01   5.344199e-03
  3.420681e+00    3.975562e-01   5.322927e-03
  3.422892e+00    3.951846e-01   5.315057e-03
  3.425102e+00    3.927456e-01   5.306487e-03
  3.427313e+00    3.803351e-01   5.229087e-03
  3.429523e+00    3.902820e-01   5.304095e-03
  3.431733e+00    3.846613e-01   5.272450e-03
  3.433944e+00    3.744764e-01   5.208570e-03
  3.436154e+00    3.780554e-01   5.239583e-03
  3.438365e+00    3.893650e-01   5.323367e-03
  3.440575e+00    3.820696e-01   5.279227e-03
  3.442786e+00    3.750510e-01   5.236055e-03
  3.444996e+00    3.761431e-01   5.249207e-03
  3.447207e+00    3.541466e-01   5.098534e-03
  3.449417e+00    3.673621e-01   5.233350e-03
  3.451628e+00    3.633250e-01   5.233770e-03
  3.453838e+00    3.743558e-01   5.333965e-03
  3.456049e+00    3.847089e-01   5.431680e-03
  3.458259e+00    3.792937e-01   5.415663e-03
  3.460469e+00    3.675746e-01   5.351141e-03
  3.462680e+00    3.679718e-01   5.373137e-03
  3.464890e+00    3.702733e-01   5.407797e-03
  3.467101e+00    3.812322e-01   5.505038e-03
  3.469311e+00    3.788883e-01   5.504829e-03
  3.471522e+00    4.032614e-01   5.696132e-03
  3.473732e+00    3.994221e-01   5.685331e-03
  3.475943e+00    3.861803e-01   5.606089e-03
  3.478153e+00    4.037335e-01   5.747775e-03
  3.480364e+00    4.274285e-01   5.929883e-03
  3.482574e+00    4.125324e-01   5.841132e-03
  3.484784e+00    4.331589e-01   6.000635e-03
  3.486995e+00    4.416888e-01   6.074999e-03
  3.489205e+00    4.476142e-01   6.130703e-03
  3.491416e+00    4.473047e-01   6.143844e-03
  3.493626e+00    4.499052e-01   6.176536e-03
  3.495837e+00    4.454861e-01   6.160952e-03
  3.498047e+00    4.457227e-01   6.177081e-03
  3.500258e+00    4.587356e-01   6.281294e-03
  3.502468e+00    4.734701e-01   6.396123e-03
  3.504679e+00    4.761613e-01   6.428954e-03
  3.506889e+00    4.942669e-01   6.564966e-03
  3.509099e+00    4.905293e-01   6.554718e-03
  3.511310e+00    5.047839e-01   6.664193e-03
  3.513520e+00    4.998676e-01   6.646327e-03
  3.515731e+00    5.056152e-01   6.699091e-03
  3.517941e+00    5.121398e-01   6.756874e-03
  3.520152e+00    5.073053e-01   6.739393e-03
  3.522362e+00    5.226455e-01   6.855312e-03
  3.524573e+00    5.282089e-01   6.906327e-03
  3.526783e+00    5.060399e-01   6.773100e-03
  3.528994e+00    5.227307e-01   6.896230e-03
  3.531204e+00    5.232783e-01   6.912275e-03
  3.533414e+00    5.465628e-01   7.076744e-03
  3.535625e+00    5.300463e-01   6.981416e-03
  3.537835e+00    5.316677e-01   7.004133e-03
  3.540046e+00    5.476289e-01   7.117575e-03
  3.542256e+00    5.393695e-01   7.071231e-03
  3.544467e+00    5.339150e-01   7.043017e-03
  3.546677e+00    5.173120e-01   6.940059e-03
  3.548888e+00    5.309417e-01   7.038364e-03
  3.551098e+00    5.435804e-01   7.128980e-03
  3.553309e+00    5.220250e-01   6.994270e-03
  3.555519e+00    5.357122e-01   7.096643e-03
  3.557729e+00    5.426461e-01   7.154228e-03
  3.559940e+00    5.406070e-01   7.152392e-03
  3.562150e+00    5.146928e-01   6.990312e-03
  3.564361e+00    5.335977e-01   7.130812e-03
  3.566571e+00    5.416355e-01   7.198240e-03
  3.568782e+00    5.290529e-01   7.128146e-03
  3.570992e+00    5.416587e-01   7.226417e-03
  3.573203e+00    5.436206e-01   7.253724e-03
  3.575413e+00    5.453871e-01   7.279412e-03
  3.577624e+00    5.279899e-01   7.176364e-03
  3.579834e+00    5.489419e-01   7.331432e-03
  3.582045e+00    5.311972e-01   7.225927e-03
  3.584255e+00    5.463237e-01   7.342277e-03
  3.586465e+00    5.422481e-01   7.328854e-03
  3.588676e+00    5.452327e-01   7.363316e-03
  3.590886e+00    5.350796e-01   7.308117e-03
  3.593097e+00    5.318841e-01   7.300720e-03
  3.595307e+00    5.239955e-01   7.260142e-03
  3.597518e+00    5.453121e-01   7.420704e-03
  3.599728e+00    5.284448e-01   7.319041e-03
  3.601939e+00    5.250283e-01   7.309246e-03
  3.604149e+00    5.380731e-01   7.413940e-03
  3.606360e+00    5.294582e-01   7.368448e-03
  3.608570e+00    5.399685e-01   7.455392e-03
  3.610780e+00    5.349227e-01   7.431583e-03
  3.612991e+00    5.357656e-01   7.447443e-03
  3.615201e+00    5.379508e-01   7.472408e-03
  3.617412e+00    5.551131e-01   7.598130e-03
  3.619622e+00    5.366099e-01   7.476363e-03
  3.621833e+00    5.314134e-01   7.446759e-03
  3.624043e+00    5.566733e-01   7.631400e-03
  3.626254e+00    5.570129e-01   7.643638e-03
  3.628464e+00    5.506992e-01   7.611367e-03
  3.630675e+00    5.308475e-01   7.486980e-03
  3.632885e+00    5.326997e-01   7.514442e-03
  3.635095e+00    5.261950e-01   7.482729e-03
  3.637306e+00    5.424953e-01   7.612203e-03
  3.639516e+00    5.636849e-01   7.774423e-03
  3.641727e+00    5.450570e-01   7.659630e-03
  3.643937e+00    5.444903e-01   7.670284e-03
  3.646148e+00    5.448646e-01   7.687743e-03
  3.648358e+00    5.577441e-01   7.793241e-03
  3.650569e+00    5.480874e-01   7.740458e-03
  3.652779e+00    5.316705e-01   7.638392e-03
  3.654990e+00    5.329169e-01   7.662244e-03
  3.657200e+00    5.168129e-01   7.560239e-03
  3.659410e+00    5.565830e-01   7.861009e-03
  3.661621e+00    5.602697e-01   7.902578e-03
  3.663831e+00    5.351793e-01   7.738776e-03
  3.666042e+00    5.362478e-01   7.761655e-03
  3.668252e+00    5.426682e-01   7.823434e-03
  3.670463e+00    5.420376e-01   7.834241e-03
  3.672673e+00    5.464259e-01   7.881546e-03
  3.674884e+00    5.571952e-01   7.974649e-03
  3.677094e+00    5.312847e-01   7.802540e-03
  3.679305e+00    5.421058e-01   7.897298e-03
  3.681515e+00    5.256346e-01   7.791955e-03
  3.683726e+00    5.451133e-01   7.951047e-03
  3.685936e+00    5.415815e-01   7.941173e-03
  3.688146e+00    5.193188e-01   7.791865e-03
  3.690357e+00    5.224615e-01   7.831271e-03
  3.692567e+00    5.268661e-01   7.880319e-03
  3.694778e+00    5.258346e-01   7.888658e-03
  3.696988e+00    5.328714e-01   7.957332e-03
  3.699199e+00    5.247642e-01   7.912839e-03
  3.701409e+00    5.112706e-01   7.826565e-03
  3.703620e+00    5.256400e-01   7.952089e-03
  3.705830e+00    5.403736e-01   8.079470e-03
  3.708041e+00    5.185898e-01   7.931415e-03
  3.710251e+00    5.286196e-01   8.024545e-03
  3.712461e+00    5.286043e-01   8.041241e-03
  3.714672e+00    5.341115e-01   8.099999e-03
  3.716882e+00    5.346396e-01   8.120901e-03
  3.719093e+00    5.435016e-01   8.205464e-03
  3.721303e+00    5.175064e-01   8.023732e-03
  3.723514e+00    5.178146e-01   8.043358e-03
  3.725724e+00    5.173451e-01   8.056901e-03
  3.727935e+00    5.102249e-01   8.018549e-03
  3.730145e+00    5.305346e-01   8.194129e-03
  3.732356e+00    5.443124e-01   8.317846e-03
  3.734566e+00    5.413274e-01   8.313034e-03
  3.736776e+00    5.160055e-01   8.134075e-03
  3.738987e+00    5.025557e-01   8.044799e-03
  3.741197e+00    5.275419e-01   8.260680e-03
  3.743408e+00    5.380844e-01   8.361270e-03
  3.745618e+00    5.091600e-01   8.151743e-03
  3.747829e+00    5.141554e-01   8.209738e-03
  3.750039e+00    5.264355e-01   8.325782e-03
  3.752250e+00    5.173844e-01   8.272589e-03
  3.754460e+00    4.953707e-01   8.112887e-03
  3.756671e+00    5.174633e-01   8.310813e-03
  3.758881e+00    5.307821e-01   8.436074e-03
  3.761091e+00    5.187832e-01   8.359577e-03
  3.763302e+00    4.954370e-01   8.188093e-03
  3.765512e+00    5.219609e-01   8.423976e-03
  3.767723e+00    5.143332e-01   8.381680e-03
  3.769933e+00    5.098331e-01   8.364292e-03
  3.772144e+00    5.124957e-01   8.405867e-03
  3.774354e+00    5.308332e-01   8.575187e-03
  3.776565e+00    5.155823e-01   8.471229e-03
  3.778775e+00    5.322104e-01   8.627215e-03
  3.780986e+00    5.107653e-01   8.472069e-03
  3.783196e+00    5.208427e-01   8.575844e-03
  3.785407e+00    4.901863e-01   8.339768e-03
  3.787617e+00    5.177050e-01   8.591688e-03
  3.789827e+00    5.258323e-01   8.679953e-03
  3.792038e+00    4.909791e-01   8.407926e-03
  3.794248e+00    5.028339e-01   8.530024e-03
  3.796459e+00    5.031511e-01   8.554127e-03
  3.798669e+00    5.032508e-01   8.576371e-03
  3.800880e+00    4.946346e-01   8.523981e-03
  3.803090e+00    5.117550e-01   8.692303e-03
  3.805301e+00    4.980241e-01   8.596925e-03
  3.807511e+00    5.030508e-01   8.662256e-03
  3.809722e+00    5.311832e-01   8.924142e-03
  3.811932e+00    5.045558e-01   8.719918e-03
  3.814142e+00    5.189955e-01   8.867103e-03
  3.816353e+00    5.179312e-01   8.881312e-03
  3.818563e+00    5.197579e-01   8.920554e-03
  3.820774e+00    5.013682e-01   8.784559e-03
  3.822984e+00    4.856504e-01   8.668783e-03
  3.825195e+00    4.929877e-01   8.757724e-03
  3.827405e+00    5.088204e-01   8.921315e-03
  3.829616e+00    5.364202e-01   9.185067e-03
  3.831826e+00    5.223148e-01   9.088309e-03
  3.834037e+00    5.010310e-01   8.925819e-03
  3.836247e+00    4.930546e-01   8.879046e-03
  3.838457e+00    4.939028e-01   8.911692e-03
  3.840668e+00    4.906277e-01   8.907090e-03
  3.842878e+00    5.216622e-01   9.210640e-03
  3.845089e+00    4.954966e-01   9.002304e-03
  3.847299e+00    4.633743e-01   8.730528e-03
  3.849510e+00    4.880414e-01   8.985518e-03
  3.851720e+00    5.017878e-01   9.132812e-03
  3.853931e+00    5.066429e-01   9.196060e-03
  3.856141e+00    4.889108e-01   9.052612e-03
  3.858352e+00    5.084034e-01   9.250842e-03
  3.860562e+00    5.126971e-01   9.309444e-03
  3.862772e+00    5.053702e-01   9.262607e-03
  3.864983e+00    4.890912e-01   9.131650e-03
  3.867193e+00    4.990639e-01   9.244278e-03
  3.869404e+00    5.098907e-01   9.364037e-03
  3.871614e+00    4.930613e-01   9.228267e-03
  3.873825e+00    5.192426e-01   9.490888e-03
  3.876035e+00    5.160399e-01   9.482672e-03
  3.878246e+00    5.233123e-01   9.575780e-03
  3.880456e+00    5.267540e-01   9.637296e-03
  3.882667e+00    5.152986e-01   9.561845e-03
  3.884877e+00    5.278749e-01   9.708708e-03
  3.887087e+00    5.040339e-01   9.517197e-03
  3.889298e+00    5.214883e-01   9.711865e-03
  3.891508e+00    5.169605e-01   9.700992e-03
  3.893719e+00    4.872569e-01   9.449063e-03
  3.895929e+00    4.879193e-01   9.486787e-03
  3.898140e+00    5.072213e-01   9.704840e-03
  3.900350e+00    4.969319e-01   9.638261e-03
  3.902561e+00    5.053127e-01   9.752067e-03
  3.904771e+00    4.740360e-01   9.477736e-03
  3.906982e+00    4.917190e-01   9.686021e-03
  3.909192e+00    5.093001e-01   9.891923e-03
  3.911403e+00    5.020822e-01   9.856037e-03
  3.913613e+00    4.865101e-01   9.736142e-03
  3.915823e+00    5.007084e-01   9.912443e-03
  3.918034e+00    5.048962e-01   9.989686e-03
  3.920244e+00    4.734466e-01   9.708717e-03
  3.922455e+00    5.054532e-01   1.006823e-02
  3.924665e+00    5.122471e-01   1.017298e-02
  3.926876e+00    5.081918e-01   1.017052e-02
  3.929086e+00    4.941384e-01   1.006653e-02
  3.931297e+00    4.729976e-01   9.883125e-03
  3.933507e+00    4.966675e-01   1.015660e-02
  3.935718e+00    4.635513e-01   9.840179e-03
  3.937928e+00    4.777184e-01   1.001855e-02
  3.940138e+00    4.806108e-01   1.007797e-02
  3.942349e+00    4.990689e-01   1.029992e-02
  3.944559e+00    4.712110e-01   1.003781e-02
  3.946770e+00    4.944118e-01   1.031239e-02
  3.948980e+00    4.905465e-01   1.030285e-02
  3.951191e+00    4.633573e-01   1.004337e-02
  3.953401e+00    4.597597e-01   1.003474e-02
  3.955612e+00    4.933360e-01   1.042658e-02
  3.957822e+00    4.701552e-01   1.020987e-02
  3.960033e+00    4.798427e-01   1.034690e-02
  3.962243e+00    5.038540e-01   1.063605e-02
  3.964453e+00    4.872755e-01   1.049281e-02
  3.966664e+00    5.146794e-01   1.081821e-02
  3.968874e+00    5.133342e-01   1.083326e-02
  3.971085e+00    4.879011e-01   1.058351e-02
  3.973295e+00    4.476811e-01   1.015854e-02
  3.975506e+00    4.723258e-01   1.045559e-02
  3.977716e+00    5.007247e-01   1.078773e-02
  3.979927e+00    4.940784e-01   1.073825e-02
  3.982137e+00    4.943760e-01   1.076390e-02
  3.984348e+00    5.111263e-01   1.096793e-02
  3.986558e+00    4.922980e-01   1.078653e-02
  3.988768e+00    5.075247e-01   1.097556e-02
  3.990979e+00    5.080154e-01   1.100418e-02
  3.993189e+00    4.906159e-01   1.083731e-02
  3.995400e+00    5.009674e-01   1.097490e-02
  3.997610e+00    5.032589e-01   1.103040e-02
  3.999821e+00    4.847709e-01   1.086345e-02
  4.002031e+00    5.046807e-01   1.112341e-02
  4.004242e+00    4.832430e-01   1.092297e-02
  4.006452e+00    4.820415e-01   1.094876e-02
  4.008663e+00    5.024865e-01   1.121911e-02
  4.010873e+00    4.969448e-01   1.119776e-02
  4.013084e+00    4.729999e-01   1.096496e-02
  4.015294e+00    4.757820e-01   1.103780e-02
  4.017504e+00    4.803534e-01   1.113243e-02
  4.019715e+00    4.843093e-01   1.122060e-02
  4.021925e+00    4.797628e-01   1.121069e-02
  4.024136e+00    4.585304e-01   1.100228e-02
  4.026346e+00    4.656217e-01   1.113032e-02
  4.028557e+00    4.509936e-01   1.099683e-02
  4.030767e+00    4.860893e-01   1.146248e-02
  4.032978e+00    5.100567e-01   1.178925e-02
  4.035188e+00    4.848524e-01   1.154046e-02
  4.037399e+00    5.043808e-01   1.181925e-02
  4.039609e+00    4.705740e-01   1.146339e-02
  4.041819e+00    4.689291e-01   1.149125e-02
  4.044030e+00    4.898847e-01   1.179546e-02
  4.046240e+00    4.953130e-01   1.191114e-02
  4.048451e+00    5.041599e-01   1.206918e-02
  4.050661e+00    4.895471e-01   1.194470e-02
  4.052872e+00    4.747719e-01   1.181539e-02
  4.055082e+00    5.011727e-01   1.219394e-02
  4.057293e+00    4.640522e-01   1.178642e-02
  4.059503e+00    5.027121e-01   1.232321e-02
  4.061714e+00    5.523860e-01   1.297838e-02
  4.063924e+00    5.146075e-01   1.258527e-02
  4.066134e+00    4.687138e-01   1.206759e-02
  4.068345e+00    4.589991e-01   1.199940e-02
  4.070555e+00    4.727009e-01   1.223589e-02
  4.072766e+00    4.315521e-01   1.174880e-02
  4.074976e+00    4.596614e-01   1.218572e-02
  4.077187e+00    5.155275e-01   1.296927e-02
  4.079397e+00    5.015258e-01   1.285723e-02
  4.081608e+00    5.303251e-01   1.329005e-02
  4.083818e+00    5.191796e-01   1.321807e-02
  4.086029e+00    4.989167e-01   1.302579e-02
  4.088239e+00    4.721802e-01   1.274024e-02
  4.090449e+00    5.187191e-01   1.342586e-02
  4.092660e+00    4.520373e-01   1.260214e-02
  4.094870e+00    4.486233e-01   1.262412e-02
  4.097081e+00    4.971641e-01   1.336241e-02
  4.099291e+00    5.204660e-01   1.372858e-02
  4.101502e+00    4.668534e-01   1.305093e-02
  4.103712e+00    5.156069e-01   1.376624e-02
  4.105923e+00    4.750270e-01   1.326488e-02
  4.108133e+00    4.982059e-01   1.363685e-02
  4.110344e+00    4.819748e-01   1.346436e-02
  4.112554e+00    4.689852e-01   1.333387e-02
  4.114764e+00    4.999490e-01   1.382249e-02
  4.116975e+00    4.701683e-01   1.345744e-02
  4.119185e+00    4.877202e-01   1.376182e-02
  4.121396e+00    4.816966e-01   1.373317e-02
  4.123606e+00    4.707386e-01   1.363159e-02
  4.125817e+00    5.186071e-01   1.436801e-02
  4.128027e+00    4.686172e-01   1.371539e-02
  4.130238e+00    4.865343e-01   1.403526e-02
  4.132448e+00    4.800613e-01   1.400182e-02
  4.134659e+00    5.068071e-01   1.444869e-02
  4.136869e+00    4.583239e-01   1.380130e-02
  4.139080e+00    5.080402e-01   1.459608e-02
  4.141290e+00    5.249243e-01   1.490254e-02
  4.143500e+00    5.090917e-01   1.474362e-02
  4.145711e+00    5.034123e-01   1.472985e-02
  4.147921e+00    4.338266e-01   1.373660e-02
  4.150132e+00    4.700930e-01   1.436736e-02
  4.152342e+00    4.791015e-01   1.457470e-02
  4.154553e+00    4.699789e-01   1.450413e-02
  4.156763e+00    4.805108e-01   1.473797e-02
  4.158974e+00    5.115535e-01   1.528316e-02
  4.161184e+00    4.933824e-01   1.508381e-02
  4.163395e+00    5.030472e-01   1.530847e-02
  4.165605e+00    5.521113e-01   1.612099e-02
  4.167815e+00    5.056726e-01   1.550897e-02
  4.170026e+00    4.694982e-01   1.502227e-02
  4.172236e+00    5.061303e-01   1.568201e-02
  4.174447e+00    4.561399e-01   1.496813e-02
  4.176657e+00    5.288725e-01   1.620553e-02
  4.178868e+00    4.976378e-01   1.580883e-02
  4.181078e+00    5.037724e-01   1.599528e-02
  4.183289e+00    5.527166e-01   1.685055e-02
  4.185499e+00    4.998140e-01   1.611824e-02
  4.187710e+00    5.242954e-01   1.660497e-02
  4.189920e+00    5.020967e-01   1.634750e-02
  4.192130e+00    4.824249e-01   1.612209e-02
  4.194341e+00    4.893290e-01   1.633643e-02
  4.196551e+00    4.940323e-01   1.651888e-02
  4.198762e+00    5.057336e-01   1.681934e-02
  4.200972e+00    5.595154e-01   1.780554e-02
  4.203183e+00    4.576665e-01   1.621008e-02
  4.205393e+00    4.509431e-01   1.619734e-02
  4.207604e+00    5.095170e-01   1.733455e-02
  4.209814e+00    5.048691e-01   1.737398e-02
  4.212025e+00    4.791991e-01   1.704649e-02
  4.214235e+00    4.331912e-01   1.632210e-02
  4.216445e+00    4.862667e-01   1.741858e-02
  4.218656e+00    4.374022e-01   1.664377e-02
  4.220866e+00    4.935129e-01   1.780993e-02
  4.223077e+00    5.157840e-01   1.834781e-02
  4.225287e+00    4.491347e-01   1.725597e-02
  4.227498e+00    4.918996e-01   1.820011e-02
  4.229708e+00    4.893132e-01   1.830008e-02
  4.231919e+00    4.908215e-01   1.847940e-02
  4.234129e+00    4.941843e-01   1.869887e-02
  4.236340e+00    4.794241e-01   1.857478e-02
  4.238550e+00    5.063369e-01   1.925738e-02
  4.240761e+00    5.340751e-01   1.995269e-02
  4.242971e+00    5.312140e-01   2.008156e-02
  4.245181e+00    5.225341e-01   2.010364e-02
  4.247392e+00    4.749783e-01   1.934650e-02
  4.249602e+00    4.336816e-01   1.866967e-02
  4.251813e+00    4.775161e-01   1.978382e-02
  4.254023e+00    4.671068e-01   1.976368e-02
  4.256234e+00    5.389044e-01   2.145587e-02
  4.258444e+00    4.853411e-01   2.057419e-02
  4.260655e+00    5.130140e-01   2.138551e-02
  4.262865e+00    5.077379e-01   2.151680e-02
  4.265076e+00    4.149574e-01   1.967259e-02
  4.267286e+00    4.648274e-01   2.106800e-02
  4.269496e+00    4.933662e-01   2.197041e-02
  4.271707e+00    5.456385e-01   2.339027e-02
  4.273917e+00    5.200124e-01   2.312960e-02
  4.276128e+00    4.632666e-01   2.212097e-02
  4.278338e+00    4.857554e-01   2.295434e-02
  4.280549e+00    4.564171e-01   2.256927e-02
  4.282759e+00    4.441863e-01   2.258499e-02
  4.284970e+00    4.198103e-01   2.228099e-02
  4.287180e+00    4.877024e-01   2.430331e-02
  4.289391e+00    4.503517e-01   2.352985e-02
  4.291601e+00    4.234515e-01   2.299834e-02
  4.293811e+00    3.885077e-01   2.220088e-02
  4.296022e+00    5.505319e-01   2.663974e-02
  4.298232e+00    5.553884e-01   2.698196e-02
  4.300443e+00    5.058535e-01   2.596288e-02
  4.302653e+00    4.854863e-01   2.565509e-02
  4.304864e+00    5.006799e-01   2.627878e-02
  4.307074e+00    4.541165e-01   2.525211e-02
  4.309285e+00    5.110453e-01   2.703167e-02
  4.311495e+00    4.740473e-01   2.627853e-02
  4.313706e+00    4.556720e-01   2.600605e-02
  4.315916e+00    4.321611e-01   2.557559e-02
  4.318126e+00    4.165537e-01   2.535782e-02
  4.320337e+00    5.457656e-01   2.931874e-02
  4.322547e+00    5.344151e-01   2.931992e-02
  4.324758e+00    5.021781e-01   2.871805e-02
  4.326968e+00    4.581363e-01   2.773882e-02
  4.329179e+00    4.778299e-01   2.864058e-02
  4.331389e+00    3.502750e-01   2.480346e-02
  4.333600e+00    4.200569e-01   2.748768e-02
  4.335810e+00    4.829448e-01   2.982345e-02
  4.338021e+00    4.990309e-01   3.070435e-02
  4.340231e+00    4.358281e-01   2.905443e-02
  4.342442e+00    4.374606e-01   2.949904e-02
  4.344652e+00    4.532915e-01   3.043638e-02
  4.346862e+00    3.701871e-01   2.788998e-02
  4.349073e+00    5.242974e-01   3.367399e-02
  4.351283e+00    4.277874e-01   3.087255e-02
  4.353494e+00    5.077228e-01   3.415267e-02
  4.355704e+00    4.231207e-01   3.168014e-02
  4.357915e+00    4.498377e-01   3.320843e-02
  4.360125e+00    4.378464e-01   3.332138e-02
  4.362336e+00    3.162341e-01   2.883362e-02
  4.364546e+00    4.734480e-01   3.592396e-02
  4.366757e+00    4.598910e-01   3.611085e-02
  4.368967e+00    4.816325e-01   3.769089e-02
  4.371177e+00    4.579094e-01   3.753205e-02
  4.373388e+00    4.799015e-01   3.928140e-02
  4.375598e+00    4.863178e-01   4.044632e-02
  4.377809e+00    5.541566e-01   4.426755e-02
  4.380019e+00    4.717508e-01   4.187064e-02
  4.382230e+00    3.006083e-01   3.435672e-02
  4.384440e+00    3.520333e-01   3.824684e-02
  4.386651e+00    3.769003e-01   4.079909e-02
  4.388861e+00    4.290015e-01   4.498442e-02
  4.391072e+00    5.168160e-01   5.111162e-02
  4.393282e+00    5.240929e-01   5.346026e-02
  4.395492e+00    4.645131e-01   5.242217e-02
  4.397703e+00    3.236915e-01   4.575872e-02
  4.399913e+00    4.885374e-01   5.906282e-02
  4.402124e+00    3.685219e-01   5.420539e-02
  4.404334e+00    3.883425e-01   5.914456e-02
  4.406545e+00    3.411042e-01   5.956114e-02
  4.408755e+00    3.866011e-01   6.876443e-02
  4.410966e+00    3.940909e-01   7.685083e-02
  4.413176e+00    2.664351e-01   7.151793e-02
  4.415387e+00   -2.421059e-01            nan
  4.417597e+00   -1.854592e+00            nan
  4.419807e+00    4.748995e-01   2.475287e-01
