# == pyFAI calibration ==
# Distance Sample to Detector: 0.216 m
# PONI: 1.166e-01, 1.308e-01 m
# Rotations: 0.000000 0.000000 0.000000 rad
# 
# == Fit2d calibration ==
# Distance Sample-beamCenter: 216.000 mm
# Center: x=1744.293, y=1555.000 pix
# Tilt: 0.000 deg  TiltPlanRot: 0.000 deg
# 
# Detector Eiger 9M	 PixelSize= 7.500e-05, 7.500e-05 m
#    Detector has a mask: True 
#    Detector has a dark current: False 
#    detector has a flat field: False 
# 
# Wavelength: 9.8e-11 m
# Mask applied: from detector
# Dark current applied: False
# Flat field applied: False
# Polarization factor: None
# Normalization factor: 1.0
# 
# Headers of the input frame:
# {
# "_array_data.header_convention": "SLS_1.0",
# "_array_data.header_contents": "# Detector: Dectris Eiger 9M, S/N E-18-0102\r\n# Pixel_size 75e-6 m x 75e-6 m\r\n# Silicon sensor, thickness 0.000450 m\r\n# Exposure_time 0.024997 s\r\n# Exposure_period 0.025000 s\r\n# Count_cutoff 62318 counts\r\n# Wavelength 0.980106 A\r\n# Detector_distance 0.215992 m\r\n# Beam_xy (1555, 1744) pixels\r\n# Start_angle 0.000000 deg.\r\n# Angle_increment 0.000000 deg.",
# "Content-Type": "application/octet-stream;",
# "conversions": "x-CBF_BYTE_OFFSET",
# "Content-Transfer-Encoding": "BINARY",
# "X-Binary-Size": "10166610",
# "X-Binary-ID": "1",
# "X-Binary-Element-Type": "signed 32-bit integer",
# "X-Binary-Element-Byte-Order": "LITTLE_ENDIAN",
# "Content-MD5": "k7pQ/vgJUA9ol3IAkRl9pg==",
# "X-Binary-Number-of-Elements": "10166590",
# "X-Binary-Size-Fastest-Dimension": "3110",
# "X-Binary-Size-Second-Dimension": "3269",
# "X-Binary-Size-Padding": "4095"
# }
# --> H:/Proxima2a_2019-04-05/RAW_DATA/C5_gel17_position5/C5_mesh_1_data.cbf/C5_mesh_1_data.cbf000172.dat
#        q_A^-1              I           sigma 
  1.105228e-03    1.543814e+00   6.723331e-01
  3.315685e-03    1.668208e+00   4.248841e-01
  5.526141e-03    2.081181e+00   3.669671e-01
  7.736597e-03    1.564015e+00   2.687452e-01
  9.947054e-03    1.549337e+00   2.358031e-01
  1.215751e-02    1.607479e+00   2.171907e-01
  1.436797e-02    1.181273e+00   1.712580e-01
  1.657842e-02    1.220146e+00   1.620132e-01
  1.878888e-02    1.440632e+00   1.653637e-01
  2.099934e-02    1.271067e+00   1.469556e-01
  2.320979e-02    1.498810e+00   1.517770e-01
  2.542025e-02    1.553424e+00   1.476572e-01
  2.763070e-02    1.264586e+00   1.277805e-01
  2.984116e-02    1.438576e+00   1.311423e-01
  3.205162e-02    1.573722e+00   1.323580e-01
  3.426207e-02    1.448190e+00   1.227970e-01
  3.647253e-02    1.411084e+00   1.174806e-01
  3.868299e-02    1.386444e+00   1.130828e-01
  4.089344e-02    1.250541e+00   1.044551e-01
  4.310390e-02    1.320598e+00   1.045464e-01
  4.531436e-02    1.500085e+00   1.086735e-01
  4.752481e-02    1.438383e+00   1.039097e-01
  4.973527e-02    1.386996e+00   9.974458e-02
  5.194572e-02    1.456185e+00   1.000026e-01
  5.415618e-02    1.418855e+00   9.667358e-02
  5.636664e-02    1.314356e+00   9.120564e-02
  5.857709e-02    1.347043e+00   9.057436e-02
  6.078755e-02    1.354143e+00   8.914348e-02
  6.299801e-02    1.408349e+00   8.930001e-02
  6.520846e-02    1.420640e+00   8.815619e-02
  6.741892e-02    1.443817e+00   8.739889e-02
  6.962938e-02    1.440190e+00   8.589664e-02
  7.183983e-02    1.505469e+00   8.645856e-02
  7.405029e-02    1.410085e+00   8.241455e-02
  7.626074e-02    1.454600e+00   8.248257e-02
  7.847120e-02    1.459404e+00   8.144449e-02
  8.068166e-02    1.451607e+00   8.010560e-02
  8.289211e-02    1.494187e+00   8.018056e-02
  8.510257e-02    1.457349e+00   7.815039e-02
  8.731303e-02    1.407479e+00   7.582033e-02
  8.952348e-02    1.467805e+00   7.646834e-02
  9.173394e-02    1.444811e+00   7.494444e-02
  9.394439e-02    1.419542e+00   7.340463e-02
  9.615485e-02    1.478157e+00   7.403719e-02
  9.836531e-02    1.500351e+00   7.374608e-02
  1.005758e-01    1.480336e+00   7.244352e-02
  1.027862e-01    1.491811e+00   7.193575e-02
  1.049967e-01    1.535237e+00   7.220174e-02
  1.072071e-01    1.528606e+00   7.129822e-02
  1.094176e-01    1.557815e+00   7.124434e-02
  1.116280e-01    1.593425e+00   7.133546e-02
  1.138385e-01    1.565655e+00   7.001987e-02
  1.160490e-01    1.547195e+00   6.893893e-02
  1.182594e-01    1.564585e+00   6.867282e-02
  1.204699e-01    1.578602e+00   6.834345e-02
  1.226803e-01    1.557369e+00   6.726518e-02
  1.248908e-01    1.467767e+00   6.472024e-02
  1.271012e-01    1.554978e+00   6.603213e-02
  1.293117e-01    1.567804e+00   6.573393e-02
  1.315222e-01    1.615621e+00   6.616420e-02
  1.337326e-01    1.620147e+00   6.570565e-02
  1.359431e-01    1.650855e+00   6.636429e-02
  1.381535e-01    1.544205e+00   6.504637e-02
  1.403640e-01    1.544289e+00   6.532902e-02
  1.425744e-01    1.490531e+00   6.428437e-02
  1.447849e-01    1.528655e+00   6.511630e-02
  1.469953e-01    1.498750e+00   6.443584e-02
  1.492058e-01    1.578711e+00   6.605553e-02
  1.514163e-01    1.524692e+00   6.480779e-02
  1.536267e-01    1.561107e+00   6.544910e-02
  1.558372e-01    1.517138e+00   6.437840e-02
  1.580476e-01    1.465665e+00   6.312332e-02
  1.602581e-01    1.555794e+00   6.487000e-02
  1.624685e-01    1.643569e+00   6.649228e-02
  1.646790e-01    1.616591e+00   6.575497e-02
  1.668895e-01    1.641621e+00   6.607068e-02
  1.690999e-01    1.729701e+00   6.761635e-02
  1.713104e-01    1.779920e+00   6.837804e-02
  1.735208e-01    1.771650e+00   6.800689e-02
  1.757313e-01    1.774931e+00   6.785646e-02
  1.779417e-01    1.948695e+00   7.086857e-02
  1.801522e-01    1.988884e+00   7.136763e-02
  1.823626e-01    1.864998e+00   6.887911e-02
  1.845731e-01    1.883251e+00   6.899113e-02
  1.867836e-01    1.947831e+00   6.992730e-02
  1.889940e-01    1.925484e+00   6.929780e-02
  1.912045e-01    1.963717e+00   6.974874e-02
  1.934149e-01    1.969312e+00   6.961425e-02
  1.956254e-01    1.965723e+00   6.932141e-02
  1.978358e-01    1.893686e+00   6.780618e-02
  2.000463e-01    1.866887e+00   6.710158e-02
  2.022568e-01    1.958660e+00   6.850548e-02
  2.044672e-01    1.933544e+00   6.783170e-02
  2.066777e-01    1.919247e+00   6.735613e-02
  2.088881e-01    2.002246e+00   6.857204e-02
  2.110986e-01    2.025461e+00   6.873194e-02
  2.133090e-01    1.988686e+00   6.788372e-02
  2.155195e-01    2.033619e+00   6.841862e-02
  2.177300e-01    1.935896e+00   6.623007e-02
  2.199404e-01    1.936998e+00   6.450327e-02
  2.221509e-01    1.963597e+00   6.387821e-02
  2.243613e-01    1.985951e+00   6.342641e-02
  2.265718e-01    1.970263e+00   6.247907e-02
  2.287822e-01    1.977723e+00   6.197764e-02
  2.309927e-01    2.038468e+00   6.234905e-02
  2.332031e-01    2.113969e+00   6.294976e-02
  2.354136e-01    2.069002e+00   6.177193e-02
  2.376241e-01    2.038742e+00   6.084260e-02
  2.398345e-01    2.084648e+00   6.106841e-02
  2.420450e-01    2.162832e+00   6.175852e-02
  2.442554e-01    2.053788e+00   5.976697e-02
  2.464659e-01    2.078748e+00   5.972530e-02
  2.486763e-01    2.188303e+00   6.087616e-02
  2.508868e-01    2.083303e+00   5.902302e-02
  2.530973e-01    2.111892e+00   5.905820e-02
  2.553077e-01    2.020626e+00   5.741758e-02
  2.575182e-01    2.033882e+00   5.726478e-02
  2.597286e-01    1.987510e+00   5.627915e-02
  2.619391e-01    2.009279e+00   5.626071e-02
  2.641495e-01    2.060203e+00   5.665392e-02
  2.663600e-01    2.103640e+00   5.693322e-02
  2.685704e-01    2.041753e+00   5.578549e-02
  2.707809e-01    1.932864e+00   5.398943e-02
  2.729914e-01    1.993435e+00   5.454312e-02
  2.752018e-01    2.061458e+00   5.517720e-02
  2.774123e-01    2.010282e+00   5.420971e-02
  2.796227e-01    1.966794e+00   5.335491e-02
  2.818332e-01    1.955066e+00   5.293020e-02
  2.840436e-01    1.984010e+00   5.306212e-02
  2.862541e-01    1.943240e+00   5.226167e-02
  2.884646e-01    1.990166e+00   5.263789e-02
  2.906750e-01    2.015767e+00   5.272420e-02
  2.928855e-01    1.943231e+00   5.152703e-02
  2.950959e-01    1.895727e+00   5.065953e-02
  2.973064e-01    1.956117e+00   5.122882e-02
  2.995168e-01    1.952507e+00   5.094974e-02
  3.017273e-01    1.931394e+00   5.045009e-02
  3.039377e-01    1.953485e+00   5.051564e-02
  3.061482e-01    1.917559e+00   4.983247e-02
  3.083587e-01    1.921966e+00   4.967373e-02
  3.105691e-01    1.926476e+00   4.951958e-02
  3.127796e-01    1.873274e+00   4.862572e-02
  3.149900e-01    1.901889e+00   4.879155e-02
  3.172005e-01    1.915442e+00   4.876487e-02
  3.194109e-01    1.889773e+00   4.823706e-02
  3.216214e-01    1.858040e+00   4.763521e-02
  3.238319e-01    1.864467e+00   4.752844e-02
  3.260423e-01    1.835740e+00   4.697303e-02
  3.282528e-01    1.811041e+00   4.647023e-02
  3.304632e-01    1.865822e+00   4.698507e-02
  3.326737e-01    1.894914e+00   4.716523e-02
  3.348841e-01    1.867880e+00   4.664598e-02
  3.370946e-01    1.885220e+00   4.668567e-02
  3.393050e-01    1.836640e+00   4.590570e-02
  3.415155e-01    1.764171e+00   4.482174e-02
  3.437260e-01    1.790535e+00   4.498804e-02
  3.459364e-01    1.800653e+00   4.494809e-02
  3.481469e-01    1.780397e+00   4.453141e-02
  3.503573e-01    1.775693e+00   4.431054e-02
  3.525678e-01    1.816370e+00   4.465548e-02
  3.547782e-01    1.823500e+00   4.458134e-02
  3.569887e-01    1.822604e+00   4.441245e-02
  3.591992e-01    1.751018e+00   4.337750e-02
  3.614096e-01    1.798074e+00   4.380407e-02
  3.636201e-01    1.846614e+00   4.423540e-02
  3.658305e-01    1.783209e+00   4.332106e-02
  3.680410e-01    1.766166e+00   4.296526e-02
  3.702514e-01    1.797199e+00   4.319531e-02
  3.724619e-01    1.829738e+00   4.343620e-02
  3.746724e-01    1.767472e+00   4.254828e-02
  3.768828e-01    1.774541e+00   4.248983e-02
  3.790933e-01    1.726076e+00   4.176903e-02
  3.813037e-01    1.713235e+00   4.147721e-02
  3.835142e-01    1.762756e+00   4.193421e-02
  3.857246e-01    1.801077e+00   4.225039e-02
  3.879351e-01    1.775321e+00   4.181144e-02
  3.901455e-01    1.793910e+00   4.189597e-02
  3.923560e-01    1.748379e+00   4.122942e-02
  3.945665e-01    1.775018e+00   4.141057e-02
  3.967769e-01    1.779082e+00   4.132812e-02
  3.989874e-01    1.775071e+00   4.115260e-02
  4.011978e-01    1.798144e+00   4.129183e-02
  4.034083e-01    1.823435e+00   4.145355e-02
  4.056187e-01    1.835202e+00   4.145898e-02
  4.078292e-01    1.826846e+00   4.123932e-02
  4.100397e-01    1.743609e+00   4.016584e-02
  4.122501e-01    1.782324e+00   4.048782e-02
  4.144606e-01    1.811785e+00   4.070002e-02
  4.166710e-01    1.805267e+00   4.050596e-02
  4.188815e-01    1.801542e+00   4.034460e-02
  4.210919e-01    1.843709e+00   4.069443e-02
  4.233024e-01    1.778714e+00   3.985313e-02
  4.255128e-01    1.780823e+00   3.976149e-02
  4.277233e-01    1.769398e+00   3.951985e-02
  4.299338e-01    1.797905e+00   3.972231e-02
  4.321442e-01    1.792097e+00   3.954462e-02
  4.343547e-01    1.709710e+00   3.851573e-02
  4.365651e-01    1.794449e+00   3.934653e-02
  4.387756e-01    1.780419e+00   3.908270e-02
  4.409860e-01    1.759267e+00   3.874221e-02
  4.431965e-01    1.733319e+00   3.834912e-02
  4.454070e-01    1.735794e+00   3.826971e-02
  4.476174e-01    1.751237e+00   3.833403e-02
  4.498279e-01    1.750566e+00   3.822241e-02
  4.520383e-01    1.758414e+00   3.820286e-02
  4.542488e-01    1.731006e+00   3.780175e-02
  4.564592e-01    1.713345e+00   3.750752e-02
  4.586697e-01    1.654993e+00   3.676545e-02
  4.608801e-01    1.675465e+00   3.689303e-02
  4.630906e-01    1.703947e+00   3.710680e-02
  4.653011e-01    1.698402e+00   3.694894e-02
  4.675115e-01    1.719056e+00   3.707503e-02
  4.697220e-01    1.721787e+00   3.700734e-02
  4.719324e-01    1.691528e+00   3.658581e-02
  4.741429e-01    1.707325e+00   3.666154e-02
  4.763533e-01    1.707762e+00   3.657224e-02
  4.785638e-01    1.673363e+00   3.610852e-02
  4.807743e-01    1.632373e+00   3.557283e-02
  4.829847e-01    1.665032e+00   3.583615e-02
  4.851952e-01    1.692430e+00   3.603837e-02
  4.874056e-01    1.648035e+00   3.547289e-02
  4.896161e-01    1.699546e+00   3.593365e-02
  4.918265e-01    1.681956e+00   3.565845e-02
  4.940370e-01    1.695496e+00   3.571330e-02
  4.962475e-01    1.709338e+00   3.577023e-02
  4.984579e-01    1.689434e+00   3.547373e-02
  5.006684e-01    1.689576e+00   3.538870e-02
  5.028788e-01    1.690779e+00   3.531555e-02
  5.050893e-01    1.653272e+00   3.483669e-02
  5.072997e-01    1.695701e+00   3.519566e-02
  5.095102e-01    1.645138e+00   3.458395e-02
  5.117206e-01    1.636265e+00   3.440852e-02
  5.139311e-01    1.608226e+00   3.403171e-02
  5.161416e-01    1.621597e+00   3.409214e-02
  5.183520e-01    1.603822e+00   3.382419e-02
  5.205625e-01    1.619535e+00   3.390986e-02
  5.227729e-01    1.692221e+00   3.458160e-02
  5.249834e-01    1.695325e+00   3.453298e-02
  5.271938e-01    1.674000e+00   3.423501e-02
  5.294043e-01    1.689006e+00   3.430876e-02
  5.316148e-01    1.733371e+00   3.467682e-02
  5.338252e-01    1.759498e+00   3.485735e-02
  5.360357e-01    1.736895e+00   3.455389e-02
  5.382461e-01    1.705377e+00   3.416155e-02
  5.404566e-01    1.705826e+00   3.408828e-02
  5.426670e-01    1.709833e+00   3.405140e-02
  5.448775e-01    1.739284e+00   3.426668e-02
  5.470879e-01    1.756459e+00   3.435865e-02
  5.492984e-01    1.828555e+00   3.497875e-02
  5.515089e-01    1.795125e+00   3.458070e-02
  5.537193e-01    1.784797e+00   3.440509e-02
  5.559298e-01    1.797908e+00   3.445549e-02
  5.581402e-01    1.779352e+00   3.420233e-02
  5.603507e-01    1.800038e+00   3.432569e-02
  5.625611e-01    1.785143e+00   3.410920e-02
  5.647716e-01    1.772247e+00   3.391197e-02
  5.669821e-01    1.788461e+00   3.399331e-02
  5.691925e-01    1.789342e+00   3.392871e-02
  5.714030e-01    1.748489e+00   3.346765e-02
  5.736134e-01    1.672487e+00   3.266257e-02
  5.758239e-01    1.704856e+00   3.290673e-02
  5.780343e-01    1.765373e+00   3.341484e-02
  5.802448e-01    1.727861e+00   3.298876e-02
  5.824552e-01    1.661214e+00   3.227838e-02
  5.846657e-01    1.678107e+00   3.237446e-02
  5.868762e-01    1.623165e+00   3.177381e-02
  5.890866e-01    1.594896e+00   3.143053e-02
  5.912971e-01    1.591916e+00   3.133616e-02
  5.935075e-01    1.599073e+00   3.134160e-02
  5.957180e-01    1.647600e+00   3.174834e-02
  5.979284e-01    1.665921e+00   3.185919e-02
  6.001389e-01    1.669969e+00   3.183294e-02
  6.023494e-01    1.624926e+00   3.133693e-02
  6.045598e-01    1.651102e+00   3.152403e-02
  6.067703e-01    1.611429e+00   3.108034e-02
  6.089807e-01    1.674034e+00   3.161465e-02
  6.111912e-01    1.671819e+00   3.153065e-02
  6.134016e-01    1.681316e+00   3.155700e-02
  6.156121e-01    1.680819e+00   3.148964e-02
  6.178226e-01    1.668211e+00   3.130919e-02
  6.200330e-01    1.673009e+00   3.129234e-02
  6.222435e-01    1.711997e+00   3.159215e-02
  6.244539e-01    1.673679e+00   3.117545e-02
  6.266644e-01    1.685335e+00   3.122278e-02
  6.288748e-01    1.711565e+00   3.140358e-02
  6.310853e-01    1.745821e+00   3.165470e-02
  6.332957e-01    1.751620e+00   3.164602e-02
  6.355062e-01    1.717560e+00   3.127597e-02
  6.377167e-01    1.678872e+00   3.086236e-02
  6.399271e-01    1.719148e+00   3.117053e-02
  6.421376e-01    1.681060e+00   3.076446e-02
  6.443480e-01    1.694144e+00   3.082521e-02
  6.465585e-01    1.697537e+00   3.079760e-02
  6.487689e-01    1.677133e+00   3.055415e-02
  6.509794e-01    1.682703e+00   3.054711e-02
  6.531899e-01    1.642115e+00   3.011973e-02
  6.554003e-01    1.590344e+00   2.958539e-02
  6.576108e-01    1.615063e+00   2.975892e-02
  6.598212e-01    1.622846e+00   2.977511e-02
  6.620317e-01    1.593807e+00   2.945283e-02
  6.642421e-01    1.608066e+00   2.952953e-02
  6.664526e-01    1.655633e+00   2.990790e-02
  6.686630e-01    1.604738e+00   2.939020e-02
  6.708735e-01    1.562239e+00   2.894519e-02
  6.730840e-01    1.575951e+00   2.901894e-02
  6.752944e-01    1.591970e+00   2.911301e-02
  6.775049e-01    1.630511e+00   2.940982e-02
  6.797153e-01    1.608656e+00   2.915916e-02
  6.819258e-01    1.607137e+00   2.909282e-02
  6.841362e-01    1.585701e+00   2.884618e-02
  6.863467e-01    1.594540e+00   2.887466e-02
  6.885572e-01    1.637763e+00   2.921095e-02
  6.907676e-01    1.602894e+00   2.884656e-02
  6.929781e-01    1.615776e+00   2.891074e-02
  6.951885e-01    1.633774e+00   2.901983e-02
  6.973990e-01    1.627485e+00   2.891272e-02
  6.996094e-01    1.650255e+00   2.906304e-02
  7.018199e-01    1.602521e+00   2.858940e-02
  7.040303e-01    1.586780e+00   2.839862e-02
  7.062408e-01    1.614497e+00   2.859543e-02
  7.084513e-01    1.563220e+00   2.808871e-02
  7.106617e-01    1.570287e+00   2.810321e-02
  7.128722e-01    1.576099e+00   2.810645e-02
  7.150826e-01    1.560658e+00   2.792024e-02
  7.172931e-01    1.587450e+00   2.811032e-02
  7.195035e-01    1.549999e+00   2.772901e-02
  7.217140e-01    1.540031e+00   2.768861e-02
  7.239245e-01    1.550521e+00   2.800773e-02
  7.261349e-01    1.577677e+00   2.836066e-02
  7.283454e-01    1.580304e+00   2.845678e-02
  7.305558e-01    1.538093e+00   2.812755e-02
  7.327663e-01    1.552320e+00   2.829951e-02
  7.349767e-01    1.545689e+00   2.825523e-02
  7.371872e-01    1.558277e+00   2.835892e-02
  7.393976e-01    1.554053e+00   2.830630e-02
  7.416081e-01    1.556280e+00   2.831050e-02
  7.438186e-01    1.526720e+00   2.789824e-02
  7.460290e-01    1.557579e+00   2.788612e-02
  7.482395e-01    1.555461e+00   2.769705e-02
  7.504499e-01    1.554061e+00   2.754920e-02
  7.526604e-01    1.546989e+00   2.737091e-02
  7.548708e-01    1.567245e+00   2.746033e-02
  7.570813e-01    1.572276e+00   2.745342e-02
  7.592918e-01    1.566057e+00   2.736400e-02
  7.615022e-01    1.576996e+00   2.742557e-02
  7.637127e-01    1.588464e+00   2.749220e-02
  7.659231e-01    1.562622e+00   2.723576e-02
  7.681336e-01    1.594095e+00   2.747688e-02
  7.703440e-01    1.566635e+00   2.720806e-02
  7.725545e-01    1.564466e+00   2.715843e-02
  7.747650e-01    1.597781e+00   2.740760e-02
  7.769754e-01    1.587178e+00   2.726360e-02
  7.791859e-01    1.565410e+00   2.702269e-02
  7.813963e-01    1.589035e+00   2.717306e-02
  7.836068e-01    1.566947e+00   2.693186e-02
  7.858172e-01    1.573200e+00   2.693506e-02
  7.880277e-01    1.573711e+00   2.688821e-02
  7.902381e-01    1.590269e+00   2.698017e-02
  7.924486e-01    1.612804e+00   2.712034e-02
  7.946591e-01    1.608878e+00   2.703888e-02
  7.968695e-01    1.626035e+00   2.713405e-02
  7.990800e-01    1.591742e+00   2.679841e-02
  8.012904e-01    1.603853e+00   2.685363e-02
  8.035009e-01    1.623819e+00   2.697217e-02
  8.057113e-01    1.736819e+00   2.784662e-02
  8.079218e-01    1.825049e+00   2.849592e-02
  8.101323e-01    1.782996e+00   2.811791e-02
  8.123427e-01    1.671991e+00   2.718215e-02
  8.145532e-01    1.645970e+00   2.692363e-02
  8.167636e-01    1.633452e+00   2.677597e-02
  8.189741e-01    1.641398e+00   2.679627e-02
  8.211845e-01    1.642958e+00   2.676405e-02
  8.233950e-01    1.641643e+00   2.670986e-02
  8.256054e-01    1.664575e+00   2.685117e-02
  8.278159e-01    1.653227e+00   2.671534e-02
  8.300264e-01    1.623060e+00   2.642757e-02
  8.322368e-01    1.632501e+00   2.646127e-02
  8.344473e-01    1.641307e+00   2.648915e-02
  8.366577e-01    1.644701e+00   2.647386e-02
  8.388682e-01    1.648972e+00   2.646585e-02
  8.410786e-01    1.647047e+00   2.640822e-02
  8.432891e-01    1.674637e+00   2.658620e-02
  8.454996e-01    1.639696e+00   2.626575e-02
  8.477100e-01    1.617381e+00   2.604500e-02
  8.499205e-01    1.616019e+00   2.599315e-02
  8.521309e-01    1.604881e+00   2.586302e-02
  8.543414e-01    1.627431e+00   2.600345e-02
  8.565518e-01    1.612870e+00   2.584658e-02
  8.587623e-01    1.627670e+00   2.592445e-02
  8.609727e-01    1.629847e+00   2.590157e-02
  8.631832e-01    1.601873e+00   2.563873e-02
  8.653937e-01    1.637452e+00   2.588204e-02
  8.676041e-01    1.612161e+00   2.564267e-02
  8.698146e-01    1.610443e+00   2.558981e-02
  8.720250e-01    1.609721e+00   2.554508e-02
  8.742355e-01    1.593997e+00   2.538133e-02
  8.764459e-01    1.566195e+00   2.512061e-02
  8.786564e-01    1.570291e+00   2.511594e-02
  8.808669e-01    1.582917e+00   2.517849e-02
  8.830773e-01    1.562935e+00   2.498140e-02
  8.852878e-01    1.585979e+00   2.512714e-02
  8.874982e-01    1.592558e+00   2.514268e-02
  8.897087e-01    1.573338e+00   2.495314e-02
  8.919191e-01    1.600609e+00   2.513071e-02
  8.941296e-01    1.596580e+00   2.506184e-02
  8.963401e-01    1.557031e+00   2.471354e-02
  8.985505e-01    1.578514e+00   2.484674e-02
  9.007610e-01    1.560850e+00   2.467103e-02
  9.029714e-01    1.576890e+00   2.476189e-02
  9.051819e-01    1.586790e+00   2.480244e-02
  9.073923e-01    1.575573e+00   2.467833e-02
  9.096028e-01    1.568425e+00   2.458771e-02
  9.118132e-01    1.534550e+00   2.428528e-02
  9.140237e-01    1.539799e+00   2.429083e-02
  9.162342e-01    1.571312e+00   2.450389e-02
  9.184446e-01    1.599424e+00   2.468636e-02
  9.206551e-01    1.592283e+00   2.459569e-02
  9.228655e-01    1.597106e+00   2.459771e-02
  9.250760e-01    1.557278e+00   2.425421e-02
  9.272864e-01    1.567616e+00   2.430069e-02
  9.294969e-01    1.603400e+00   2.454066e-02
  9.317074e-01    1.632867e+00   2.473015e-02
  9.339178e-01    1.621593e+00   2.461098e-02
  9.361283e-01    1.608000e+00   2.447147e-02
  9.383387e-01    1.597573e+00   2.435882e-02
  9.405492e-01    1.635680e+00   2.461320e-02
  9.427596e-01    1.633416e+00   2.456076e-02
  9.449701e-01    1.626099e+00   2.447240e-02
  9.471805e-01    1.615688e+00   2.435937e-02
  9.493910e-01    1.665332e+00   2.469681e-02
  9.516015e-01    1.703705e+00   2.494488e-02
  9.538119e-01    1.682008e+00   2.475158e-02
  9.560224e-01    1.686129e+00   2.474697e-02
  9.582328e-01    1.709908e+00   2.488744e-02
  9.604433e-01    1.722734e+00   2.494523e-02
  9.626537e-01    1.732081e+00   2.497918e-02
  9.648642e-01    1.763048e+00   2.516697e-02
  9.670747e-01    1.784683e+00   2.528600e-02
  9.692851e-01    1.779991e+00   2.521916e-02
  9.714956e-01    1.804351e+00   2.535535e-02
  9.737060e-01    1.781665e+00   2.516236e-02
  9.759165e-01    1.757983e+00   2.495931e-02
  9.781269e-01    1.770513e+00   2.501535e-02
  9.803374e-01    1.767637e+00   2.496044e-02
  9.825478e-01    1.799566e+00   2.515164e-02
  9.847583e-01    1.771629e+00   2.492178e-02
  9.869688e-01    1.760065e+00   2.480704e-02
  9.891792e-01    1.757622e+00   2.475688e-02
  9.913897e-01    1.730014e+00   2.452853e-02
  9.936001e-01    1.721454e+00   2.443574e-02
  9.958106e-01    1.717497e+00   2.437447e-02
  9.980210e-01    1.648612e+00   2.384968e-02
  1.000231e+00    1.645740e+00   2.395940e-02
  1.002442e+00    1.659516e+00   2.418733e-02
  1.004652e+00    1.640554e+00   2.411583e-02
  1.006863e+00    1.618471e+00   2.400269e-02
  1.009073e+00    1.576756e+00   2.372759e-02
  1.011284e+00    1.575526e+00   2.375005e-02
  1.013494e+00    1.552637e+00   2.360028e-02
  1.015705e+00    1.507409e+00   2.327599e-02
  1.017915e+00    1.519595e+00   2.338597e-02
  1.020126e+00    1.537490e+00   2.353917e-02
  1.022336e+00    1.530774e+00   2.349928e-02
  1.024547e+00    1.490610e+00   2.319995e-02
  1.026757e+00    1.482707e+00   2.314655e-02
  1.028967e+00    1.509972e+00   2.336599e-02
  1.031178e+00    1.498088e+00   2.327997e-02
  1.033388e+00    1.487031e+00   2.319885e-02
  1.035599e+00    1.523697e+00   2.348656e-02
  1.037809e+00    1.464767e+00   2.303109e-02
  1.040020e+00    1.500846e+00   2.331425e-02
  1.042230e+00    1.467618e+00   2.305664e-02
  1.044441e+00    1.491908e+00   2.324643e-02
  1.046651e+00    1.504985e+00   2.334827e-02
  1.048862e+00    1.503759e+00   2.333797e-02
  1.051072e+00    1.458322e+00   2.298037e-02
  1.053282e+00    1.461493e+00   2.300438e-02
  1.055493e+00    1.465053e+00   2.302814e-02
  1.057703e+00    1.435466e+00   2.279292e-02
  1.059914e+00    1.450403e+00   2.290699e-02
  1.062124e+00    1.459868e+00   2.297761e-02
  1.064335e+00    1.453434e+00   2.292351e-02
  1.066545e+00    1.443822e+00   2.284167e-02
  1.068756e+00    1.449652e+00   2.288405e-02
  1.070966e+00    1.468136e+00   2.302296e-02
  1.073177e+00    1.448981e+00   2.286628e-02
  1.075387e+00    1.427589e+00   2.269171e-02
  1.077597e+00    1.413691e+00   2.257386e-02
  1.079808e+00    1.401654e+00   2.234766e-02
  1.082018e+00    1.436021e+00   2.243266e-02
  1.084229e+00    1.410402e+00   2.212352e-02
  1.086439e+00    1.412495e+00   2.205378e-02
  1.088650e+00    1.382659e+00   2.174583e-02
  1.090860e+00    1.406011e+00   2.186220e-02
  1.093071e+00    1.403730e+00   2.178329e-02
  1.095281e+00    1.408441e+00   2.176331e-02
  1.097492e+00    1.386330e+00   2.153804e-02
  1.099702e+00    1.395762e+00   2.156057e-02
  1.101912e+00    1.397824e+00   2.152837e-02
  1.104123e+00    1.394624e+00   2.145617e-02
  1.106333e+00    1.400201e+00   2.145515e-02
  1.108544e+00    1.392977e+00   2.135602e-02
  1.110754e+00    1.392390e+00   2.130904e-02
  1.112965e+00    1.347739e+00   2.092512e-02
  1.115175e+00    1.358179e+00   2.096572e-02
  1.117386e+00    1.387157e+00   2.114934e-02
  1.119596e+00    1.373252e+00   2.100573e-02
  1.121807e+00    1.373790e+00   2.097151e-02
  1.124017e+00    1.395306e+00   2.109860e-02
  1.126228e+00    1.415032e+00   2.121133e-02
  1.128438e+00    1.432845e+00   2.130724e-02
  1.130648e+00    1.541957e+00   2.206757e-02
  1.132859e+00    1.801204e+00   2.381161e-02
  1.135069e+00    1.720776e+00   2.323545e-02
  1.137280e+00    1.484419e+00   2.154666e-02
  1.139490e+00    1.410555e+00   2.097034e-02
  1.141701e+00    1.411375e+00   2.094301e-02
  1.143911e+00    1.385788e+00   2.072041e-02
  1.146122e+00    1.393739e+00   2.074760e-02
  1.148332e+00    1.370160e+00   2.053960e-02
  1.150543e+00    1.358869e+00   2.042414e-02
  1.152753e+00    1.370552e+00   2.048098e-02
  1.154963e+00    1.368618e+00   2.043555e-02
  1.157174e+00    1.355623e+00   2.030833e-02
  1.159384e+00    1.339119e+00   2.015485e-02
  1.161595e+00    1.353611e+00   2.023393e-02
  1.163805e+00    1.371615e+00   2.033876e-02
  1.166016e+00    1.402948e+00   2.053993e-02
  1.168226e+00    1.519954e+00   2.134875e-02
  1.170437e+00    1.610567e+00   2.194484e-02
  1.172647e+00    1.582737e+00   2.172333e-02
  1.174858e+00    1.505831e+00   2.115948e-02
  1.177068e+00    1.449689e+00   2.073213e-02
  1.179278e+00    1.413665e+00   2.044382e-02
  1.181489e+00    1.364038e+00   2.005469e-02
  1.183699e+00    1.369552e+00   2.006751e-02
  1.185910e+00    1.335721e+00   1.979055e-02
  1.188120e+00    1.322817e+00   1.966838e-02
  1.190331e+00    1.330122e+00   1.969608e-02
  1.192541e+00    1.339365e+00   1.973719e-02
  1.194752e+00    1.350850e+00   1.979459e-02
  1.196962e+00    1.345972e+00   1.973314e-02
  1.199173e+00    1.337838e+00   1.964705e-02
  1.201383e+00    1.326691e+00   1.953809e-02
  1.203593e+00    1.360604e+00   1.976132e-02
  1.205804e+00    1.328852e+00   1.950368e-02
  1.208014e+00    1.316346e+00   1.938514e-02
  1.210225e+00    1.351270e+00   1.961529e-02
  1.212435e+00    1.342825e+00   1.952917e-02
  1.214646e+00    1.362959e+00   1.964880e-02
  1.216856e+00    1.351684e+00   1.954188e-02
  1.219067e+00    1.336203e+00   1.940531e-02
  1.221277e+00    1.319214e+00   1.925680e-02
  1.223488e+00    1.321675e+00   1.924929e-02
  1.225698e+00    1.313664e+00   1.916433e-02
  1.227909e+00    1.304484e+00   1.906759e-02
  1.230119e+00    1.298300e+00   1.899111e-02
  1.232329e+00    1.319406e+00   1.911446e-02
  1.234540e+00    1.345301e+00   1.927090e-02
  1.236750e+00    1.326254e+00   1.910400e-02
  1.238961e+00    1.345631e+00   1.921611e-02
  1.241171e+00    1.365825e+00   1.933545e-02
  1.243382e+00    1.352077e+00   1.921437e-02
  1.245592e+00    1.346609e+00   1.915140e-02
  1.247803e+00    1.329575e+00   1.900642e-02
  1.250013e+00    1.319973e+00   1.891438e-02
  1.252224e+00    1.308531e+00   1.880934e-02
  1.254434e+00    1.323478e+00   1.889293e-02
  1.256644e+00    1.327482e+00   1.889849e-02
  1.258855e+00    1.339228e+00   1.895874e-02
  1.261065e+00    1.352594e+00   1.902972e-02
  1.263276e+00    1.331064e+00   1.885489e-02
  1.265486e+00    1.327538e+00   1.880721e-02
  1.267697e+00    1.327499e+00   1.878410e-02
  1.269907e+00    1.325582e+00   1.874804e-02
  1.272118e+00    1.344533e+00   1.885905e-02
  1.274328e+00    1.354371e+00   1.890515e-02
  1.276539e+00    1.358583e+00   1.891168e-02
  1.278749e+00    1.337159e+00   1.873979e-02
  1.280959e+00    1.330239e+00   1.866885e-02
  1.283170e+00    1.360478e+00   1.885735e-02
  1.285380e+00    1.323392e+00   1.857632e-02
  1.287591e+00    1.339723e+00   1.866862e-02
  1.289801e+00    1.338776e+00   1.864090e-02
  1.292012e+00    1.352527e+00   1.871928e-02
  1.294222e+00    1.343517e+00   1.864063e-02
  1.296433e+00    1.353230e+00   1.869227e-02
  1.298643e+00    1.346382e+00   1.862846e-02
  1.300854e+00    1.359843e+00   1.870489e-02
  1.303064e+00    1.345035e+00   1.858357e-02
  1.305274e+00    1.338750e+00   1.851876e-02
  1.307485e+00    1.318978e+00   1.836018e-02
  1.309695e+00    1.340697e+00   1.848859e-02
  1.311906e+00    1.336049e+00   1.843491e-02
  1.314116e+00    1.344978e+00   1.847565e-02
  1.316327e+00    1.371960e+00   1.863819e-02
  1.318537e+00    1.365250e+00   1.857055e-02
  1.320748e+00    1.376832e+00   1.862738e-02
  1.322958e+00    1.369576e+00   1.855758e-02
  1.325169e+00    1.357440e+00   1.845408e-02
  1.327379e+00    1.347721e+00   1.836612e-02
  1.329589e+00    1.340756e+00   1.829759e-02
  1.331800e+00    1.373668e+00   1.849994e-02
  1.334010e+00    1.359369e+00   1.838268e-02
  1.336221e+00    1.342896e+00   1.824926e-02
  1.338431e+00    1.341502e+00   1.821898e-02
  1.340642e+00    1.342794e+00   1.829175e-02
  1.342852e+00    1.339527e+00   1.836978e-02
  1.345063e+00    1.337628e+00   1.840599e-02
  1.347273e+00    1.353554e+00   1.855054e-02
  1.349484e+00    1.360877e+00   1.862842e-02
  1.351694e+00    1.353117e+00   1.859799e-02
  1.353905e+00    1.343365e+00   1.854880e-02
  1.356115e+00    1.346164e+00   1.858312e-02
  1.358325e+00    1.336307e+00   1.852823e-02
  1.360536e+00    1.331970e+00   1.850967e-02
  1.362746e+00    1.339762e+00   1.857327e-02
  1.364957e+00    1.321780e+00   1.845579e-02
  1.367167e+00    1.314528e+00   1.841216e-02
  1.369378e+00    1.313063e+00   1.840783e-02
  1.371588e+00    1.306864e+00   1.836941e-02
  1.373799e+00    1.318201e+00   1.845253e-02
  1.376009e+00    1.336533e+00   1.858381e-02
  1.378220e+00    1.307470e+00   1.838314e-02
  1.380430e+00    1.286479e+00   1.823764e-02
  1.382640e+00    1.300427e+00   1.833713e-02
  1.384851e+00    1.286795e+00   1.824164e-02
  1.387061e+00    1.299330e+00   1.833055e-02
  1.389272e+00    1.287938e+00   1.825024e-02
  1.391482e+00    1.274058e+00   1.815096e-02
  1.393693e+00    1.258559e+00   1.803936e-02
  1.395903e+00    1.256547e+00   1.802345e-02
  1.398114e+00    1.280877e+00   1.819571e-02
  1.400324e+00    1.273587e+00   1.814176e-02
  1.402535e+00    1.267760e+00   1.809789e-02
  1.404745e+00    1.251371e+00   1.797818e-02
  1.406955e+00    1.279568e+00   1.817690e-02
  1.409166e+00    1.258935e+00   1.802648e-02
  1.411376e+00    1.289858e+00   1.824337e-02
  1.413587e+00    1.277910e+00   1.815487e-02
  1.415797e+00    1.246329e+00   1.792563e-02
  1.418008e+00    1.252711e+00   1.792987e-02
  1.420218e+00    1.246987e+00   1.774050e-02
  1.422429e+00    1.257701e+00   1.773165e-02
  1.424639e+00    1.245410e+00   1.758074e-02
  1.426850e+00    1.262808e+00   1.764856e-02
  1.429060e+00    1.266045e+00   1.762226e-02
  1.431270e+00    1.279942e+00   1.767422e-02
  1.433481e+00    1.282588e+00   1.765132e-02
  1.435691e+00    1.306914e+00   1.777895e-02
  1.437902e+00    1.262493e+00   1.743785e-02
  1.440112e+00    1.261252e+00   1.739404e-02
  1.442323e+00    1.271005e+00   1.742810e-02
  1.444533e+00    1.282370e+00   1.747315e-02
  1.446744e+00    1.254101e+00   1.724855e-02
  1.448954e+00    1.253156e+00   1.721204e-02
  1.451165e+00    1.271667e+00   1.730893e-02
  1.453375e+00    1.253916e+00   1.715985e-02
  1.455586e+00    1.229139e+00   1.696176e-02
  1.457796e+00    1.233320e+00   1.696346e-02
  1.460006e+00    1.257422e+00   1.710128e-02
  1.462217e+00    1.270597e+00   1.716443e-02
  1.464427e+00    1.268356e+00   1.712369e-02
  1.466638e+00    1.276347e+00   1.715215e-02
  1.468848e+00    1.258805e+00   1.700865e-02
  1.471059e+00    1.269657e+00   1.705670e-02
  1.473269e+00    1.269086e+00   1.702850e-02
  1.475480e+00    1.259237e+00   1.693862e-02
  1.477690e+00    1.251819e+00   1.686497e-02
  1.479901e+00    1.254963e+00   1.686242e-02
  1.482111e+00    1.236915e+00   1.671768e-02
  1.484321e+00    1.269918e+00   1.691610e-02
  1.486532e+00    1.261873e+00   1.684014e-02
  1.488742e+00    1.252661e+00   1.675602e-02
  1.490953e+00    1.258475e+00   1.677232e-02
  1.493163e+00    1.230281e+00   1.656138e-02
  1.495374e+00    1.241600e+00   1.661608e-02
  1.497584e+00    1.238306e+00   1.657258e-02
  1.499795e+00    1.261163e+00   1.670317e-02
  1.502005e+00    1.257139e+00   1.665485e-02
  1.504216e+00    1.254342e+00   1.661531e-02
  1.506426e+00    1.234646e+00   1.646374e-02
  1.508636e+00    1.242511e+00   1.649575e-02
  1.510847e+00    1.245118e+00   1.649133e-02
  1.513057e+00    1.240309e+00   1.643453e-02
  1.515268e+00    1.247639e+00   1.645736e-02
  1.517478e+00    1.237688e+00   1.636663e-02
  1.519689e+00    1.240109e+00   1.635779e-02
  1.521899e+00    1.246246e+00   1.637520e-02
  1.524110e+00    1.228492e+00   1.623799e-02
  1.526320e+00    1.254889e+00   1.639191e-02
  1.528531e+00    1.253232e+00   1.636131e-02
  1.530741e+00    1.250123e+00   1.632185e-02
  1.532951e+00    1.254070e+00   1.632798e-02
  1.535162e+00    1.241268e+00   1.633074e-02
  1.537372e+00    1.226303e+00   1.629828e-02
  1.539583e+00    1.225901e+00   1.632955e-02
  1.541793e+00    1.230079e+00   1.636423e-02
  1.544004e+00    1.226014e+00   1.633743e-02
  1.546214e+00    1.222947e+00   1.631551e-02
  1.548425e+00    1.196783e+00   1.614028e-02
  1.550635e+00    1.206454e+00   1.621488e-02
  1.552846e+00    1.229438e+00   1.637821e-02
  1.555056e+00    1.212415e+00   1.622349e-02
  1.557266e+00    1.230523e+00   1.623434e-02
  1.559477e+00    1.247203e+00   1.628483e-02
  1.561687e+00    1.250113e+00   1.627309e-02
  1.563898e+00    1.247694e+00   1.624015e-02
  1.566108e+00    1.247105e+00   1.622035e-02
  1.568319e+00    1.240595e+00   1.616235e-02
  1.570529e+00    1.253711e+00   1.622234e-02
  1.572740e+00    1.264788e+00   1.626601e-02
  1.574950e+00    1.251496e+00   1.615392e-02
  1.577161e+00    1.252781e+00   1.613666e-02
  1.579371e+00    1.229875e+00   1.596494e-02
  1.581582e+00    1.218467e+00   1.587115e-02
  1.583792e+00    1.225153e+00   1.589676e-02
  1.586002e+00    1.232185e+00   1.592476e-02
  1.588213e+00    1.231869e+00   1.590559e-02
  1.590423e+00    1.240404e+00   1.594053e-02
  1.592634e+00    1.242201e+00   1.593050e-02
  1.594844e+00    1.216451e+00   1.574333e-02
  1.597055e+00    1.221194e+00   1.575367e-02
  1.599265e+00    1.233433e+00   1.581177e-02
  1.601476e+00    1.224476e+00   1.573408e-02
  1.603686e+00    1.226058e+00   1.572459e-02
  1.605897e+00    1.230599e+00   1.573359e-02
  1.608107e+00    1.213220e+00   1.560275e-02
  1.610317e+00    1.223308e+00   1.564826e-02
  1.612528e+00    1.223773e+00   1.563217e-02
  1.614738e+00    1.186948e+00   1.537657e-02
  1.616949e+00    1.176277e+00   1.528871e-02
  1.619159e+00    1.169160e+00   1.522406e-02
  1.621370e+00    1.179299e+00   1.527179e-02
  1.623580e+00    1.174015e+00   1.521951e-02
  1.625791e+00    1.174647e+00   1.520560e-02
  1.628001e+00    1.164533e+00   1.512203e-02
  1.630212e+00    1.148799e+00   1.500211e-02
  1.632422e+00    1.146308e+00   1.496823e-02
  1.634632e+00    1.157448e+00   1.502367e-02
  1.636843e+00    1.159510e+00   1.501963e-02
  1.639053e+00    1.150223e+00   1.494226e-02
  1.641264e+00    1.135786e+00   1.483133e-02
  1.643474e+00    1.125082e+00   1.474417e-02
  1.645685e+00    1.110810e+00   1.463405e-02
  1.647895e+00    1.093200e+00   1.450143e-02
  1.650106e+00    1.117709e+00   1.464634e-02
  1.652316e+00    1.114215e+00   1.460719e-02
  1.654527e+00    1.102751e+00   1.451547e-02
  1.656737e+00    1.102139e+00   1.449514e-02
  1.658947e+00    1.101191e+00   1.447283e-02
  1.661158e+00    1.110466e+00   1.451752e-02
  1.663368e+00    1.107712e+00   1.448359e-02
  1.665579e+00    1.091574e+00   1.436175e-02
  1.667789e+00    1.089715e+00   1.433348e-02
  1.670000e+00    1.067018e+00   1.416827e-02
  1.672210e+00    1.058573e+00   1.409655e-02
  1.674421e+00    1.066600e+00   1.413485e-02
  1.676631e+00    1.047006e+00   1.398893e-02
  1.678842e+00    1.065117e+00   1.409388e-02
  1.681052e+00    1.057458e+00   1.402799e-02
  1.683263e+00    1.052165e+00   1.397797e-02
  1.685473e+00    1.056939e+00   1.399467e-02
  1.687683e+00    1.067043e+00   1.404611e-02
  1.689894e+00    1.062641e+00   1.400149e-02
  1.692104e+00    1.026146e+00   1.374438e-02
  1.694315e+00    1.035044e+00   1.378959e-02
  1.696525e+00    1.030691e+00   1.374570e-02
  1.698736e+00    1.015448e+00   1.362919e-02
  1.700946e+00    1.011449e+00   1.358756e-02
  1.703157e+00    1.012476e+00   1.358010e-02
  1.705367e+00    1.040005e+00   1.374910e-02
  1.707578e+00    1.030253e+00   1.367002e-02
  1.709788e+00    1.013107e+00   1.354192e-02
  1.711998e+00    1.010737e+00   1.351127e-02
  1.714209e+00    1.002753e+00   1.344363e-02
  1.716419e+00    9.979802e-01   1.339759e-02
  1.718630e+00    9.827378e-01   1.328095e-02
  1.720840e+00    1.001780e+00   1.339500e-02
  1.723051e+00    1.008905e+00   1.342878e-02
  1.725261e+00    1.012838e+00   1.344034e-02
  1.727472e+00    1.008635e+00   1.339830e-02
  1.729682e+00    9.800380e-01   1.319380e-02
  1.731893e+00    9.834861e-01   1.320323e-02
  1.734103e+00    9.968505e-01   1.327896e-02
  1.736313e+00    1.009427e+00   1.334842e-02
  1.738524e+00    1.001841e+00   1.328436e-02
  1.740734e+00    9.917231e-01   1.320344e-02
  1.742945e+00    9.914311e-01   1.318808e-02
  1.745155e+00    9.710923e-01   1.303881e-02
  1.747366e+00    9.587188e-01   1.294188e-02
  1.749576e+00    9.585748e-01   1.292739e-02
  1.751787e+00    9.644687e-01   1.295389e-02
  1.753997e+00    9.614336e-01   1.292023e-02
  1.756208e+00    9.522069e-01   1.284503e-02
  1.758418e+00    9.579551e-01   1.287071e-02
  1.760628e+00    9.636942e-01   1.289592e-02
  1.762839e+00    9.336371e-01   1.268020e-02
  1.765049e+00    9.408158e-01   1.271589e-02
  1.767260e+00    9.394477e-01   1.269396e-02
  1.769470e+00    9.294871e-01   1.261369e-02
  1.771681e+00    9.441087e-01   1.269942e-02
  1.773891e+00    9.333450e-01   1.261390e-02
  1.776102e+00    9.111632e-01   1.245048e-02
  1.778312e+00    9.132202e-01   1.245200e-02
  1.780523e+00    9.091444e-01   1.241168e-02
  1.782733e+00    9.188832e-01   1.246542e-02
  1.784944e+00    9.206345e-01   1.246451e-02
  1.787154e+00    9.255267e-01   1.248511e-02
  1.789364e+00    9.305003e-01   1.250612e-02
  1.791575e+00    9.185011e-01   1.241276e-02
  1.793785e+00    9.160214e-01   1.238362e-02
  1.795996e+00    9.290547e-01   1.245884e-02
  1.798206e+00    9.066007e-01   1.229493e-02
  1.800417e+00    9.115134e-01   1.231554e-02
  1.802627e+00    8.979933e-01   1.221205e-02
  1.804838e+00    9.006271e-01   1.221790e-02
  1.807048e+00    9.031943e-01   1.222250e-02
  1.809259e+00    8.921335e-01   1.213396e-02
  1.811469e+00    8.812084e-01   1.204466e-02
  1.813679e+00    8.673565e-01   1.193493e-02
  1.815890e+00    8.716866e-01   1.195015e-02
  1.818100e+00    8.677980e-01   1.190861e-02
  1.820311e+00    8.513212e-01   1.178059e-02
  1.822521e+00    8.696998e-01   1.189240e-02
  1.824732e+00    8.767245e-01   1.192564e-02
  1.826942e+00    8.703638e-01   1.187006e-02
  1.829153e+00    8.738118e-01   1.188197e-02
  1.831363e+00    8.546392e-01   1.173902e-02
  1.833574e+00    8.606231e-01   1.176853e-02
  1.835784e+00    8.598323e-01   1.175182e-02
  1.837994e+00    8.565336e-01   1.171768e-02
  1.840205e+00    8.516928e-01   1.167350e-02
  1.842415e+00    8.537333e-01   1.167583e-02
  1.844626e+00    8.423344e-01   1.158627e-02
  1.846836e+00    8.298089e-01   1.148860e-02
  1.849047e+00    8.565399e-01   1.166064e-02
  1.851257e+00    8.500623e-01   1.160698e-02
  1.853468e+00    8.486139e-01   1.158834e-02
  1.855678e+00    8.814348e-01   1.180133e-02
  1.857889e+00    8.573400e-01   1.163043e-02
  1.860099e+00    8.312110e-01   1.144332e-02
  1.862309e+00    8.379570e-01   1.148124e-02
  1.864520e+00    8.503645e-01   1.155738e-02
  1.866730e+00    8.501307e-01   1.154644e-02
  1.868941e+00    8.248471e-01   1.136269e-02
  1.871151e+00    8.138703e-01   1.127569e-02
  1.873362e+00    8.190045e-01   1.130005e-02
  1.875572e+00    8.297753e-01   1.136330e-02
  1.877783e+00    8.420686e-01   1.143579e-02
  1.879993e+00    8.337891e-01   1.136837e-02
  1.882204e+00    8.184441e-01   1.125253e-02
  1.884414e+00    8.273615e-01   1.130270e-02
  1.886624e+00    8.341932e-01   1.133828e-02
  1.888835e+00    8.181350e-01   1.121779e-02
  1.891045e+00    8.164541e-01   1.119553e-02
  1.893256e+00    8.253596e-01   1.124541e-02
  1.895466e+00    8.264916e-01   1.124203e-02
  1.897677e+00    8.243615e-01   1.121668e-02
  1.899887e+00    8.283409e-01   1.123278e-02
  1.902098e+00    8.209040e-01   1.117146e-02
  1.904308e+00    8.433491e-01   1.131250e-02
  1.906519e+00    8.508193e-01   1.135153e-02
  1.908729e+00    8.182450e-01   1.112158e-02
  1.910940e+00    8.007897e-01   1.099135e-02
  1.913150e+00    8.182909e-01   1.110026e-02
  1.915360e+00    8.298475e-01   1.116772e-02
  1.917571e+00    8.286183e-01   1.114855e-02
  1.919781e+00    8.149215e-01   1.104537e-02
  1.921992e+00    8.141137e-01   1.102932e-02
  1.924202e+00    8.109550e-01   1.099718e-02
  1.926413e+00    8.233326e-01   1.107044e-02
  1.928623e+00    7.987045e-01   1.089318e-02
  1.930834e+00    7.988619e-01   1.088390e-02
  1.933044e+00    8.019956e-01   1.089462e-02
  1.935255e+00    7.974002e-01   1.085313e-02
  1.937465e+00    8.049189e-01   1.089378e-02
  1.939675e+00    8.182813e-01   1.097293e-02
  1.941886e+00    8.157629e-01   1.094567e-02
  1.944096e+00    7.928202e-01   1.078054e-02
  1.946307e+00    8.011104e-01   1.082642e-02
  1.948517e+00    8.014081e-01   1.081797e-02
  1.950728e+00    7.918330e-01   1.074296e-02
  1.952938e+00    7.879466e-01   1.070653e-02
  1.955149e+00    7.819459e-01   1.065554e-02
  1.957359e+00    7.965929e-01   1.074483e-02
  1.959570e+00    8.086358e-01   1.081477e-02
  1.961780e+00    8.053923e-01   1.078310e-02
  1.963990e+00    7.833508e-01   1.062444e-02
  1.966201e+00    7.729782e-01   1.054394e-02
  1.968411e+00    7.616249e-01   1.045622e-02
  1.970622e+00    7.758300e-01   1.054328e-02
  1.972832e+00    7.728513e-01   1.051314e-02
  1.975043e+00    7.695765e-01   1.048089e-02
  1.977253e+00    7.984037e-01   1.066536e-02
  1.979464e+00    7.828525e-01   1.055096e-02
  1.981674e+00    7.778585e-01   1.050701e-02
  1.983885e+00    7.897173e-01   1.057672e-02
  1.986095e+00    7.931746e-01   1.059008e-02
  1.988305e+00    7.807673e-01   1.049703e-02
  1.990516e+00    7.719930e-01   1.042798e-02
  1.992726e+00    7.828711e-01   1.049152e-02
  1.994937e+00    7.766106e-01   1.043933e-02
  1.997147e+00    7.877355e-01   1.050405e-02
  1.999358e+00    7.674637e-01   1.035822e-02
  2.001568e+00    7.689630e-01   1.035753e-02
  2.003779e+00    7.557466e-01   1.025637e-02
  2.005989e+00    7.653923e-01   1.030961e-02
  2.008200e+00    7.879292e-01   1.044865e-02
  2.010410e+00    7.818108e-01   1.039618e-02
  2.012621e+00    7.498456e-01   1.016986e-02
  2.014831e+00    7.362810e-01   1.006621e-02
  2.017041e+00    7.503746e-01   1.015181e-02
  2.019252e+00    7.601631e-01   1.020791e-02
  2.021462e+00    7.645057e-01   1.022750e-02
  2.023673e+00    7.574183e-01   1.017066e-02
  2.025883e+00    7.448872e-01   1.007676e-02
  2.028094e+00    7.531360e-01   1.012282e-02
  2.030304e+00    7.500327e-01   1.009248e-02
  2.032515e+00    7.434077e-01   1.003862e-02
  2.034725e+00    7.496369e-01   1.007118e-02
  2.036936e+00    7.719360e-01   1.021048e-02
  2.039146e+00    7.488242e-01   1.004695e-02
  2.041356e+00    7.447256e-01   1.000984e-02
  2.043567e+00    7.469548e-01   1.001557e-02
  2.045777e+00    7.481163e-01   1.001413e-02
  2.047988e+00    7.619506e-01   1.009690e-02
  2.050198e+00    7.402223e-01   9.943536e-03
  2.052409e+00    7.369848e-01   9.914190e-03
  2.054619e+00    7.352492e-01   9.895221e-03
  2.056830e+00    7.501444e-01   9.987759e-03
  2.059040e+00    7.549007e-01   1.001186e-02
  2.061251e+00    7.439597e-01   9.931823e-03
  2.063461e+00    7.277673e-01   9.815660e-03
  2.065671e+00    7.239625e-01   9.781389e-03
  2.067882e+00    7.236199e-01   9.770220e-03
  2.070092e+00    7.351089e-01   9.838354e-03
  2.072303e+00    7.389411e-01   9.854880e-03
  2.074513e+00    7.228754e-01   9.737989e-03
  2.076724e+00    7.227232e-01   9.727617e-03
  2.078934e+00    7.359368e-01   9.807205e-03
  2.081145e+00    7.291882e-01   9.753122e-03
  2.083355e+00    7.374505e-01   9.799076e-03
  2.085566e+00    7.424721e-01   9.823465e-03
  2.087776e+00    7.375028e-01   9.781053e-03
  2.089986e+00    7.336167e-01   9.746490e-03
  2.092197e+00    7.257526e-01   9.685229e-03
  2.094407e+00    7.184212e-01   9.627060e-03
  2.096618e+00    7.268564e-01   9.674553e-03
  2.098828e+00    7.358485e-01   9.724919e-03
  2.101039e+00    7.313906e-01   9.686437e-03
  2.103249e+00    7.415793e-01   9.744931e-03
  2.105460e+00    7.380708e-01   9.712801e-03
  2.107670e+00    7.300067e-01   9.650860e-03
  2.109881e+00    7.134739e-01   9.531863e-03
  2.112091e+00    7.019774e-01   9.445919e-03
  2.114301e+00    7.253463e-01   9.593058e-03
  2.116512e+00    7.241982e-01   9.576678e-03
  2.118722e+00    7.157620e-01   9.511946e-03
  2.120933e+00    7.112069e-01   9.472830e-03
  2.123143e+00    7.029271e-01   9.408713e-03
  2.125354e+00    7.120304e-01   9.460942e-03
  2.127564e+00    7.146928e-01   9.469906e-03
  2.129775e+00    7.004135e-01   9.366196e-03
  2.131985e+00    6.987378e-01   9.346014e-03
  2.134196e+00    6.945711e-01   9.309633e-03
  2.136406e+00    6.989583e-01   9.330326e-03
  2.138617e+00    7.162318e-01   9.436423e-03
  2.140827e+00    7.040036e-01   9.371529e-03
  2.143037e+00    7.096722e-01   9.454748e-03
  2.145248e+00    7.089184e-01   9.471757e-03
  2.147458e+00    7.177597e-01   9.545936e-03
  2.149669e+00    7.015292e-01   9.449233e-03
  2.151879e+00    6.920426e-01   9.394270e-03
  2.154090e+00    7.088959e-01   9.515324e-03
  2.156300e+00    6.950048e-01   9.428234e-03
  2.158511e+00    6.820977e-01   9.345502e-03
  2.160721e+00    6.822564e-01   9.351327e-03
  2.162932e+00    7.031465e-01   9.497191e-03
  2.165142e+00    6.866905e-01   9.388401e-03
  2.167352e+00    6.756700e-01   9.315617e-03
  2.169563e+00    7.027417e-01   9.502369e-03
  2.171773e+00    6.891293e-01   9.412347e-03
  2.173984e+00    6.717332e-01   9.294163e-03
  2.176194e+00    6.860493e-01   9.393868e-03
  2.178405e+00    6.768709e-01   9.331521e-03
  2.180615e+00    6.789191e-01   9.346280e-03
  2.182826e+00    6.900518e-01   9.423300e-03
  2.185036e+00    6.795048e-01   9.351060e-03
  2.187247e+00    6.611747e-01   9.224014e-03
  2.189457e+00    6.743594e-01   9.315121e-03
  2.191667e+00    6.675285e-01   9.267659e-03
  2.193878e+00    6.818807e-01   9.366178e-03
  2.196088e+00    6.842898e-01   9.382040e-03
  2.198299e+00    6.825278e-01   9.368880e-03
  2.200509e+00    6.692087e-01   9.275937e-03
  2.202720e+00    6.897238e-01   9.415908e-03
  2.204930e+00    6.806920e-01   9.352807e-03
  2.207141e+00    6.731163e-01   9.299510e-03
  2.209351e+00    6.751010e-01   9.311341e-03
  2.211562e+00    6.829426e-01   9.363614e-03
  2.213772e+00    6.697834e-01   9.217813e-03
  2.215982e+00    6.562036e-01   9.080293e-03
  2.218193e+00    6.751183e-01   9.180617e-03
  2.220403e+00    6.595899e-01   9.050129e-03
  2.222614e+00    6.606752e-01   9.036813e-03
  2.224824e+00    6.785271e-01   9.138623e-03
  2.227035e+00    6.735049e-01   9.087320e-03
  2.229245e+00    6.650061e-01   9.012892e-03
  2.231456e+00    6.715794e-01   9.041722e-03
  2.233666e+00    6.652021e-01   8.983660e-03
  2.235877e+00    6.493942e-01   8.862239e-03
  2.238087e+00    6.512612e-01   8.861660e-03
  2.240298e+00    6.642396e-01   8.935820e-03
  2.242508e+00    6.534371e-01   8.847905e-03
  2.244718e+00    6.507477e-01   8.814083e-03
  2.246929e+00    6.633356e-01   8.884548e-03
  2.249139e+00    6.668462e-01   8.895653e-03
  2.251350e+00    6.788480e-01   8.963539e-03
  2.253560e+00    6.772643e-01   8.941430e-03
  2.255771e+00    6.731514e-01   8.902762e-03
  2.257981e+00    6.664374e-01   8.847062e-03
  2.260192e+00    6.551600e-01   8.760860e-03
  2.262402e+00    6.516822e-01   8.726821e-03
  2.264613e+00    6.542670e-01   8.733355e-03
  2.266823e+00    6.676000e-01   8.811444e-03
  2.269033e+00    6.734169e-01   8.839312e-03
  2.271244e+00    6.672853e-01   8.788537e-03
  2.273454e+00    6.592929e-01   8.725511e-03
  2.275665e+00    6.564614e-01   8.696495e-03
  2.277875e+00    6.715854e-01   8.786095e-03
  2.280086e+00    6.602888e-01   8.701839e-03
  2.282296e+00    6.528497e-01   8.643328e-03
  2.284507e+00    6.525698e-01   8.631388e-03
  2.286717e+00    6.510419e-01   8.611868e-03
  2.288928e+00    6.326197e-01   8.479461e-03
  2.291138e+00    6.543987e-01   8.614771e-03
  2.293348e+00    6.419278e-01   8.522872e-03
  2.295559e+00    6.348513e-01   8.466583e-03
  2.297769e+00    6.507825e-01   8.562941e-03
  2.299980e+00    6.378164e-01   8.467988e-03
  2.302190e+00    6.394180e-01   8.469583e-03
  2.304401e+00    6.367433e-01   8.442631e-03
  2.306611e+00    6.472804e-01   8.503054e-03
  2.308822e+00    6.223552e-01   8.329518e-03
  2.311032e+00    6.365982e-01   8.417918e-03
  2.313243e+00    6.412707e-01   8.442517e-03
  2.315453e+00    6.438510e-01   8.451948e-03
  2.317663e+00    6.375530e-01   8.401459e-03
  2.319874e+00    6.321586e-01   8.357197e-03
  2.322084e+00    6.445491e-01   8.429753e-03
  2.324295e+00    6.422422e-01   8.406452e-03
  2.326505e+00    6.455731e-01   8.419151e-03
  2.328716e+00    6.379815e-01   8.361004e-03
  2.330926e+00    6.269014e-01   8.279392e-03
  2.333137e+00    6.415266e-01   8.367024e-03
  2.335347e+00    6.505023e-01   8.416438e-03
  2.337558e+00    6.444084e-01   8.368673e-03
  2.339768e+00    6.254958e-01   8.236455e-03
  2.341979e+00    6.323125e-01   8.272907e-03
  2.344189e+00    6.388490e-01   8.307151e-03
  2.346399e+00    6.256856e-01   8.212700e-03
  2.348610e+00    6.169153e-01   8.146601e-03
  2.350820e+00    6.334630e-01   8.246969e-03
  2.353031e+00    6.275999e-01   8.200463e-03
  2.355241e+00    6.248657e-01   8.174591e-03
  2.357452e+00    6.280684e-01   8.187115e-03
  2.359662e+00    6.261633e-01   8.166498e-03
  2.361873e+00    6.286924e-01   8.174770e-03
  2.364083e+00    6.123095e-01   8.059667e-03
  2.366294e+00    6.105093e-01   8.039804e-03
  2.368504e+00    6.120792e-01   8.042156e-03
  2.370714e+00    6.336703e-01   8.174660e-03
  2.372925e+00    6.375459e-01   8.191501e-03
  2.375135e+00    6.247494e-01   8.100813e-03
  2.377346e+00    6.204483e-01   8.064953e-03
  2.379556e+00    6.421576e-01   8.196807e-03
  2.381767e+00    6.116359e-01   7.991867e-03
  2.383977e+00    6.193798e-01   8.034343e-03
  2.386188e+00    6.097161e-01   7.963588e-03
  2.388398e+00    6.083294e-01   7.946625e-03
  2.390609e+00    6.109446e-01   7.955996e-03
  2.392819e+00    6.136751e-01   7.966007e-03
  2.395029e+00    6.169620e-01   7.979642e-03
  2.397240e+00    6.098076e-01   7.925401e-03
  2.399450e+00    6.080631e-01   7.906280e-03
  2.401661e+00    5.999689e-01   7.845888e-03
  2.403871e+00    6.074709e-01   7.887044e-03
  2.406082e+00    5.944692e-01   7.794851e-03
  2.408292e+00    5.958533e-01   7.796215e-03
  2.410503e+00    5.994594e-01   7.812334e-03
  2.412713e+00    5.949816e-01   7.775381e-03
  2.414924e+00    5.967345e-01   7.779394e-03
  2.417134e+00    6.012374e-01   7.801086e-03
  2.419344e+00    5.992427e-01   7.780749e-03
  2.421555e+00    5.978914e-01   7.764489e-03
  2.423765e+00    6.001524e-01   7.771750e-03
  2.425976e+00    6.039788e-01   7.788656e-03
  2.428186e+00    5.916451e-01   7.701553e-03
  2.430397e+00    5.894878e-01   7.680051e-03
  2.432607e+00    5.895195e-01   7.673027e-03
  2.434818e+00    5.924873e-01   7.684795e-03
  2.437028e+00    6.002446e-01   7.727737e-03
  2.439239e+00    6.028342e-01   7.736695e-03
  2.441449e+00    5.992970e-01   7.706715e-03
  2.443659e+00    5.925258e-01   7.655701e-03
  2.445870e+00    5.916482e-01   7.662300e-03
  2.448080e+00    5.665674e-01   7.532454e-03
  2.450291e+00    5.452194e-01   7.405304e-03
  2.452501e+00    5.597197e-01   7.514135e-03
  2.454712e+00    5.620152e-01   7.537869e-03
  2.456922e+00    5.415921e-01   7.406105e-03
  2.459133e+00    5.556957e-01   7.507267e-03
  2.461343e+00    5.555282e-01   7.510470e-03
  2.463554e+00    5.488696e-01   7.468728e-03
  2.465764e+00    5.576793e-01   7.531559e-03
  2.467975e+00    5.443184e-01   7.443044e-03
  2.470185e+00    5.549169e-01   7.517397e-03
  2.472395e+00    5.362027e-01   7.390773e-03
  2.474606e+00    5.287899e-01   7.341011e-03
  2.476816e+00    5.454115e-01   7.456222e-03
  2.479027e+00    5.429467e-01   7.440218e-03
  2.481237e+00    5.347602e-01   7.384169e-03
  2.483448e+00    5.431769e-01   7.442368e-03
  2.485658e+00    5.463026e-01   7.463595e-03
  2.487869e+00    5.436723e-01   7.445653e-03
  2.490079e+00    5.526352e-01   7.506236e-03
  2.492290e+00    5.780322e-01   7.676342e-03
  2.494500e+00    5.650290e-01   7.588765e-03
  2.496710e+00    5.528267e-01   7.505679e-03
  2.498921e+00    5.335028e-01   7.372329e-03
  2.501131e+00    5.425842e-01   7.433844e-03
  2.503342e+00    5.416046e-01   7.425874e-03
  2.505552e+00    5.287831e-01   7.336312e-03
  2.507763e+00    5.298422e-01   7.342236e-03
  2.509973e+00    5.272562e-01   7.322914e-03
  2.512184e+00    5.309222e-01   7.346699e-03
  2.514394e+00    5.171855e-01   7.241770e-03
  2.516605e+00    5.166430e-01   7.191342e-03
  2.518815e+00    5.181184e-01   7.173491e-03
  2.521025e+00    5.183781e-01   7.154475e-03
  2.523236e+00    5.164252e-01   7.123151e-03
  2.525446e+00    5.143322e-01   7.093268e-03
  2.527657e+00    5.231611e-01   7.139312e-03
  2.529867e+00    5.252377e-01   7.139291e-03
  2.532078e+00    5.247337e-01   7.120826e-03
  2.534288e+00    5.256241e-01   7.112980e-03
  2.536499e+00    5.109338e-01   7.001082e-03
  2.538709e+00    5.318770e-01   7.132050e-03
  2.540920e+00    5.246529e-01   7.072814e-03
  2.543130e+00    5.181977e-01   7.018864e-03
  2.545340e+00    5.119620e-01   6.966550e-03
  2.547551e+00    5.130584e-01   6.964158e-03
  2.549761e+00    5.130184e-01   6.954384e-03
  2.551972e+00    5.115799e-01   6.935378e-03
  2.554182e+00    5.039049e-01   6.874125e-03
  2.556393e+00    5.142329e-01   6.935178e-03
  2.558603e+00    5.125067e-01   6.914519e-03
  2.560814e+00    5.290490e-01   7.016451e-03
  2.563024e+00    5.153301e-01   6.916341e-03
  2.565235e+00    5.127693e-01   6.889683e-03
  2.567445e+00    5.106760e-01   6.866122e-03
  2.569656e+00    5.224154e-01   6.934805e-03
  2.571866e+00    5.226648e-01   6.927053e-03
  2.574076e+00    5.326754e-01   6.983681e-03
  2.576287e+00    5.347395e-01   6.988716e-03
  2.578497e+00    5.368146e-01   6.994277e-03
  2.580708e+00    5.182198e-01   6.863961e-03
  2.582918e+00    5.134419e-01   6.824477e-03
  2.585129e+00    5.262946e-01   6.901548e-03
  2.587339e+00    5.221049e-01   6.866264e-03
  2.589550e+00    5.192019e-01   6.839566e-03
  2.591760e+00    5.030658e-01   6.724778e-03
  2.593971e+00    5.067405e-01   6.741787e-03
  2.596181e+00    5.083472e-01   6.746273e-03
  2.598391e+00    5.129965e-01   6.771856e-03
  2.600602e+00    4.889396e-01   6.605378e-03
  2.602812e+00    5.007608e-01   6.677267e-03
  2.605023e+00    5.046815e-01   6.696217e-03
  2.607233e+00    5.035335e-01   6.681491e-03
  2.609444e+00    5.144442e-01   6.746213e-03
  2.611654e+00    5.064665e-01   6.686379e-03
  2.613865e+00    5.076901e-01   6.687411e-03
  2.616075e+00    5.045650e-01   6.659658e-03
  2.618286e+00    5.128729e-01   6.707230e-03
  2.620496e+00    4.973812e-01   6.598504e-03
  2.622706e+00    5.112075e-01   6.683795e-03
  2.624917e+00    5.156080e-01   6.706608e-03
  2.627127e+00    5.113724e-01   6.673225e-03
  2.629338e+00    4.956248e-01   6.563733e-03
  2.631548e+00    4.991180e-01   6.580671e-03
  2.633759e+00    4.997940e-01   6.578017e-03
  2.635969e+00    4.875763e-01   6.490511e-03
  2.638180e+00    5.032271e-01   6.586866e-03
  2.640390e+00    4.927920e-01   6.511671e-03
  2.642601e+00    4.909051e-01   6.492582e-03
  2.644811e+00    5.049493e-01   6.577704e-03
  2.647021e+00    4.896504e-01   6.470795e-03
  2.649232e+00    4.860446e-01   6.440307e-03
  2.651442e+00    4.789401e-01   6.386666e-03
  2.653653e+00    5.047147e-01   6.549454e-03
  2.655863e+00    4.796358e-01   6.378110e-03
  2.658074e+00    4.914781e-01   6.449786e-03
  2.660284e+00    4.981561e-01   6.487110e-03
  2.662495e+00    4.919850e-01   6.440078e-03
  2.664705e+00    4.941134e-01   6.447439e-03
  2.666916e+00    5.061637e-01   6.519068e-03
  2.669126e+00    5.029265e-01   6.491693e-03
  2.671337e+00    4.845276e-01   6.365333e-03
  2.673547e+00    4.755981e-01   6.300147e-03
  2.675757e+00    4.817097e-01   6.334121e-03
  2.677968e+00    4.963396e-01   6.423062e-03
  2.680178e+00    4.943184e-01   6.403568e-03
  2.682389e+00    4.870633e-01   6.350051e-03
  2.684599e+00    4.807473e-01   6.302625e-03
  2.686810e+00    4.894351e-01   6.352733e-03
  2.689020e+00    4.968274e-01   6.394207e-03
  2.691231e+00    4.957583e-01   6.381002e-03
  2.693441e+00    4.785722e-01   6.263367e-03
  2.695652e+00    4.753825e-01   6.236027e-03
  2.697862e+00    4.834164e-01   6.282197e-03
  2.700072e+00    4.834493e-01   6.276374e-03
  2.702283e+00    4.929696e-01   6.331629e-03
  2.704493e+00    4.840262e-01   6.267685e-03
  2.706704e+00    4.845694e-01   6.264812e-03
  2.708914e+00    4.779681e-01   6.216105e-03
  2.711125e+00    4.757556e-01   6.195522e-03
  2.713335e+00    4.714153e-01   6.161199e-03
  2.715546e+00    4.713760e-01   6.154597e-03
  2.717756e+00    4.919468e-01   6.281525e-03
  2.719967e+00    4.661849e-01   6.108782e-03
  2.722177e+00    4.694903e-01   6.124343e-03
  2.724387e+00    4.665357e-01   6.099086e-03
  2.726598e+00    4.710622e-01   6.122606e-03
  2.728808e+00    4.783067e-01   6.163416e-03
  2.731019e+00    4.782513e-01   6.156979e-03
  2.733229e+00    4.732316e-01   6.118836e-03
  2.735440e+00    4.761059e-01   6.131181e-03
  2.737650e+00    4.778869e-01   6.136650e-03
  2.739861e+00    4.752550e-01   6.113717e-03
  2.742071e+00    4.736080e-01   6.097429e-03
  2.744282e+00    4.692439e-01   6.063093e-03
  2.746492e+00    4.792823e-01   6.121600e-03
  2.748702e+00    4.797522e-01   6.118704e-03
  2.750913e+00    4.823428e-01   6.129426e-03
  2.753123e+00    4.707728e-01   6.049394e-03
  2.755334e+00    4.741001e-01   6.064720e-03
  2.757544e+00    4.668749e-01   6.012662e-03
  2.759755e+00    4.706094e-01   6.030830e-03
  2.761965e+00    4.880567e-01   6.135582e-03
  2.764176e+00    4.895495e-01   6.138926e-03
  2.766386e+00    4.680230e-01   5.996708e-03
  2.768597e+00    4.685092e-01   5.994033e-03
  2.770807e+00    4.696314e-01   5.995379e-03
  2.773017e+00    4.748929e-01   6.022925e-03
  2.775228e+00    4.810354e-01   6.055962e-03
  2.777438e+00    4.815814e-01   6.053567e-03
  2.779649e+00    4.896386e-01   6.098057e-03
  2.781859e+00    4.708502e-01   5.974162e-03
  2.784070e+00    4.900323e-01   6.088702e-03
  2.786280e+00    4.792044e-01   6.015307e-03
  2.788491e+00    4.644708e-01   5.916336e-03
  2.790701e+00    4.719715e-01   5.958286e-03
  2.792912e+00    4.747812e-01   5.970052e-03
  2.795122e+00    4.729570e-01   5.952856e-03
  2.797333e+00    4.641365e-01   5.891599e-03
  2.799543e+00    4.588429e-01   5.852134e-03
  2.801753e+00    4.686137e-01   5.908305e-03
  2.803964e+00    4.749172e-01   5.942249e-03
  2.806174e+00    4.712901e-01   5.913392e-03
  2.808385e+00    4.760983e-01   5.936676e-03
  2.810595e+00    4.800048e-01   5.954079e-03
  2.812806e+00    4.760083e-01   5.922621e-03
  2.815016e+00    4.778659e-01   5.929405e-03
  2.817227e+00    4.693035e-01   5.901840e-03
  2.819437e+00    4.676015e-01   5.902137e-03
  2.821648e+00    4.647501e-01   5.886382e-03
  2.823858e+00    4.726430e-01   5.941479e-03
  2.826068e+00    4.776305e-01   5.977771e-03
  2.828279e+00    4.668689e-01   5.914049e-03
  2.830489e+00    4.744747e-01   5.965372e-03
  2.832700e+00    4.580657e-01   5.863837e-03
  2.834910e+00    4.629704e-01   5.897175e-03
  2.837121e+00    4.583690e-01   5.869512e-03
  2.839331e+00    4.564840e-01   5.858615e-03
  2.841542e+00    4.667713e-01   5.925282e-03
  2.843752e+00    4.611649e-01   5.890372e-03
  2.845963e+00    4.635705e-01   5.906100e-03
  2.848173e+00    4.636097e-01   5.906445e-03
  2.850383e+00    4.619419e-01   5.896104e-03
  2.852594e+00    4.585401e-01   5.874257e-03
  2.854804e+00    4.705191e-01   5.950002e-03
  2.857015e+00    4.617854e-01   5.894099e-03
  2.859225e+00    4.484671e-01   5.808228e-03
  2.861436e+00    4.526207e-01   5.834417e-03
  2.863646e+00    4.506370e-01   5.821654e-03
  2.865857e+00    4.521488e-01   5.831750e-03
  2.868067e+00    4.641632e-01   5.908934e-03
  2.870278e+00    4.680735e-01   5.933416e-03
  2.872488e+00    4.796406e-01   6.005115e-03
  2.874698e+00    4.716306e-01   5.953710e-03
  2.876909e+00    4.664035e-01   5.919291e-03
  2.879119e+00    4.558102e-01   5.850072e-03
  2.881330e+00    4.500549e-01   5.811570e-03
  2.883540e+00    4.548758e-01   5.841230e-03
  2.885751e+00    4.676402e-01   5.920974e-03
  2.887961e+00    4.465402e-01   5.784004e-03
  2.890172e+00    4.519762e-01   5.817505e-03
  2.892382e+00    4.625535e-01   5.883378e-03
  2.894593e+00    4.509437e-01   5.807289e-03
  2.896803e+00    4.482599e-01   5.788016e-03
  2.899014e+00    4.429165e-01   5.751554e-03
  2.901224e+00    4.409504e-01   5.736801e-03
  2.903434e+00    4.665746e-01   5.899182e-03
  2.905645e+00    4.570777e-01   5.836627e-03
  2.907855e+00    4.616923e-01   5.863909e-03
  2.910066e+00    4.602782e-01   5.852845e-03
  2.912276e+00    4.644734e-01   5.877319e-03
  2.914487e+00    4.579098e-01   5.833200e-03
  2.916697e+00    4.560836e-01   5.819321e-03
  2.918908e+00    4.532800e-01   5.799437e-03
  2.921118e+00    4.377179e-01   5.696367e-03
  2.923329e+00    4.548678e-01   5.804570e-03
  2.925539e+00    4.507582e-01   5.776043e-03
  2.927749e+00    4.500479e-01   5.769182e-03
  2.929960e+00    4.598135e-01   5.828658e-03
  2.932170e+00    4.525523e-01   5.780135e-03
  2.934381e+00    4.660904e-01   5.863490e-03
  2.936591e+00    4.540797e-01   5.784884e-03
  2.938802e+00    4.508345e-01   5.761478e-03
  2.941012e+00    4.450930e-01   5.722357e-03
  2.943223e+00    4.442990e-01   5.714604e-03
  2.945433e+00    4.459070e-01   5.721223e-03
  2.947644e+00    4.536314e-01   5.766443e-03
  2.949854e+00    4.584632e-01   5.792790e-03
  2.952064e+00    4.518619e-01   5.746738e-03
  2.954275e+00    4.523565e-01   5.745469e-03
  2.956485e+00    4.565142e-01   5.767621e-03
  2.958696e+00    4.405726e-01   5.661743e-03
  2.960906e+00    4.329265e-01   5.608282e-03
  2.963117e+00    4.493634e-01   5.709310e-03
  2.965327e+00    4.449991e-01   5.677667e-03
  2.967538e+00    4.532075e-01   5.726867e-03
  2.969748e+00    4.578794e-01   5.753490e-03
  2.971959e+00    4.598067e-01   5.762425e-03
  2.974169e+00    4.619714e-01   5.773381e-03
  2.976379e+00    4.563211e-01   5.735026e-03
  2.978590e+00    4.658865e-01   5.791663e-03
  2.980800e+00    4.599375e-01   5.751746e-03
  2.983011e+00    4.492605e-01   5.681808e-03
  2.985221e+00    4.522134e-01   5.697310e-03
  2.987432e+00    4.455033e-01   5.651794e-03
  2.989642e+00    4.332623e-01   5.571049e-03
  2.991853e+00    4.457584e-01   5.647551e-03
  2.994063e+00    4.501044e-01   5.672133e-03
  2.996274e+00    4.353923e-01   5.575543e-03
  2.998484e+00    4.354888e-01   5.573520e-03
  3.000694e+00    4.498852e-01   5.661456e-03
  3.002905e+00    4.355487e-01   5.567636e-03
  3.005115e+00    4.450861e-01   5.625298e-03
  3.007326e+00    4.408127e-01   5.595147e-03
  3.009536e+00    4.507204e-01   5.654403e-03
  3.011747e+00    4.540232e-01   5.672183e-03
  3.013957e+00    4.506348e-01   5.647790e-03
  3.016168e+00    4.562824e-01   5.679820e-03
  3.018378e+00    4.559223e-01   5.674518e-03
  3.020589e+00    4.571155e-01   5.678705e-03
  3.022799e+00    4.532212e-01   5.651304e-03
  3.025010e+00    4.530900e-01   5.647244e-03
  3.027220e+00    4.722212e-01   5.762047e-03
  3.029430e+00    4.695347e-01   5.742352e-03
  3.031641e+00    4.555426e-01   5.652973e-03
  3.033851e+00    4.635880e-01   5.699125e-03
  3.036062e+00    4.623167e-01   5.688481e-03
  3.038272e+00    4.451091e-01   5.578073e-03
  3.040483e+00    4.533048e-01   5.625956e-03
  3.042693e+00    4.572244e-01   5.646940e-03
  3.044904e+00    4.541839e-01   5.624107e-03
  3.047114e+00    4.429689e-01   5.549465e-03
  3.049325e+00    4.470390e-01   5.570530e-03
  3.051535e+00    4.435064e-01   5.544104e-03
  3.053745e+00    4.395872e-01   5.514884e-03
  3.055956e+00    4.405782e-01   5.516564e-03
  3.058166e+00    4.400086e-01   5.508784e-03
  3.060377e+00    4.443544e-01   5.531175e-03
  3.062587e+00    4.515571e-01   5.571204e-03
  3.064798e+00    4.365708e-01   5.473775e-03
  3.067008e+00    4.340016e-01   5.452997e-03
  3.069219e+00    4.348272e-01   5.453741e-03
  3.071429e+00    4.437113e-01   5.505693e-03
  3.073640e+00    4.385320e-01   5.470170e-03
  3.075850e+00    4.378337e-01   5.462284e-03
  3.078060e+00    4.405511e-01   5.476113e-03
  3.080271e+00    4.357029e-01   5.442497e-03
  3.082481e+00    4.444462e-01   5.493376e-03
  3.084692e+00    4.766015e-01   5.685156e-03
  3.086902e+00    4.578994e-01   5.569226e-03
  3.089113e+00    4.568144e-01   5.559028e-03
  3.091323e+00    4.471517e-01   5.496538e-03
  3.093534e+00    4.388469e-01   5.441915e-03
  3.095744e+00    4.448626e-01   5.475720e-03
  3.097955e+00    4.539486e-01   5.527784e-03
  3.100165e+00    4.528075e-01   5.517481e-03
  3.102375e+00    4.556341e-01   5.531219e-03
  3.104586e+00    4.455128e-01   5.465972e-03
  3.106796e+00    4.370541e-01   5.410317e-03
  3.109007e+00    4.479834e-01   5.474349e-03
  3.111217e+00    4.463412e-01   5.460597e-03
  3.113428e+00    4.456210e-01   5.452785e-03
  3.115638e+00    4.373699e-01   5.398860e-03
  3.117849e+00    4.362845e-01   5.388478e-03
  3.120059e+00    4.445065e-01   5.435537e-03
  3.122270e+00    4.347862e-01   5.372577e-03
  3.124480e+00    4.442244e-01   5.426873e-03
  3.126691e+00    4.560758e-01   5.495187e-03
  3.128901e+00    4.512490e-01   5.462908e-03
  3.131111e+00    4.312811e-01   5.336871e-03
  3.133322e+00    4.338610e-01   5.349406e-03
  3.135532e+00    4.287539e-01   5.314477e-03
  3.137743e+00    4.433225e-01   5.400544e-03
  3.139953e+00    4.318976e-01   5.326870e-03
  3.142164e+00    4.403191e-01   5.390516e-03
  3.144374e+00    4.507623e-01   5.482762e-03
  3.146585e+00    4.343492e-01   5.396440e-03
  3.148795e+00    4.490536e-01   5.497872e-03
  3.151006e+00    4.455991e-01   5.485285e-03
  3.153216e+00    4.433723e-01   5.478690e-03
  3.155426e+00    4.464890e-01   5.504276e-03
  3.157637e+00    4.325053e-01   5.422872e-03
  3.159847e+00    4.404352e-01   5.477218e-03
  3.162058e+00    4.551865e-01   5.572702e-03
  3.164268e+00    4.251445e-01   5.389655e-03
  3.166479e+00    4.383134e-01   5.476145e-03
  3.168689e+00    4.261463e-01   5.402911e-03
  3.170900e+00    4.361895e-01   5.469372e-03
  3.173110e+00    4.262635e-01   5.409630e-03
  3.175321e+00    4.252535e-01   5.405630e-03
  3.177531e+00    4.380982e-01   5.489435e-03
  3.179741e+00    4.197748e-01   5.375434e-03
  3.181952e+00    4.314255e-01   5.451615e-03
  3.184162e+00    4.343402e-01   5.472168e-03
  3.186373e+00    4.364238e-01   5.486899e-03
  3.188583e+00    4.350459e-01   5.480007e-03
  3.190794e+00    4.281934e-01   5.438414e-03
  3.193004e+00    4.327264e-01   5.468357e-03
  3.195215e+00    4.273783e-01   5.435971e-03
  3.197425e+00    4.229831e-01   5.409104e-03
  3.199636e+00    4.370364e-01   5.497479e-03
  3.201846e+00    4.267782e-01   5.431985e-03
  3.204056e+00    4.277632e-01   5.439105e-03
  3.206267e+00    4.292974e-01   5.449708e-03
  3.208477e+00    4.306326e-01   5.459104e-03
  3.210688e+00    4.363646e-01   5.496136e-03
  3.212898e+00    4.441626e-01   5.545645e-03
  3.215109e+00    4.237870e-01   5.417687e-03
  3.217319e+00    4.322622e-01   5.472219e-03
  3.219530e+00    4.272293e-01   5.440664e-03
  3.221740e+00    4.431828e-01   5.541868e-03
  3.223951e+00    4.817618e-01   5.778554e-03
  3.226161e+00    4.669291e-01   5.689121e-03
  3.228372e+00    4.474106e-01   5.569485e-03
  3.230582e+00    4.149427e-01   5.363727e-03
  3.232792e+00    4.083355e-01   5.321066e-03
  3.235003e+00    4.145830e-01   5.361830e-03
  3.237213e+00    4.236485e-01   5.420267e-03
  3.239424e+00    4.179510e-01   5.383682e-03
  3.241634e+00    4.204443e-01   5.399848e-03
  3.243845e+00    4.178281e-01   5.383081e-03
  3.246055e+00    4.293481e-01   5.456517e-03
  3.248266e+00    4.242236e-01   5.424066e-03
  3.250476e+00    4.182393e-01   5.385363e-03
  3.252687e+00    4.141205e-01   5.358703e-03
  3.254897e+00    4.164432e-01   5.373592e-03
  3.257107e+00    4.212165e-01   5.403989e-03
  3.259318e+00    4.214727e-01   5.405414e-03
  3.261528e+00    4.019322e-01   5.278472e-03
  3.263739e+00    4.215863e-01   5.405431e-03
  3.265949e+00    4.166545e-01   5.373607e-03
  3.268160e+00    4.217364e-01   5.405853e-03
  3.270370e+00    4.157119e-01   5.366604e-03
  3.272581e+00    4.229677e-01   5.412970e-03
  3.274791e+00    4.231744e-01   5.413746e-03
  3.277002e+00    4.251459e-01   5.425806e-03
  3.279212e+00    4.139359e-01   5.353408e-03
  3.281422e+00    4.212565e-01   5.399948e-03
  3.283633e+00    4.179801e-01   5.378258e-03
  3.285843e+00    4.203162e-01   5.392924e-03
  3.288054e+00    4.105474e-01   5.328951e-03
  3.290264e+00    4.212729e-01   5.397799e-03
  3.292475e+00    4.291691e-01   5.447315e-03
  3.294685e+00    4.310941e-01   5.458884e-03
  3.296896e+00    4.272399e-01   5.433663e-03
  3.299106e+00    4.238125e-01   5.411276e-03
  3.301317e+00    4.213924e-01   5.394781e-03
  3.303527e+00    4.094460e-01   5.317305e-03
  3.305737e+00    4.081575e-01   5.307885e-03
  3.307948e+00    4.037367e-01   5.278423e-03
  3.310158e+00    4.219635e-01   5.395391e-03
  3.312369e+00    4.193207e-01   5.377605e-03
  3.314579e+00    4.199473e-01   5.380701e-03
  3.316790e+00    4.166959e-01   5.359150e-03
  3.319000e+00    4.172081e-01   5.361235e-03
  3.321211e+00    4.297177e-01   5.440432e-03
  3.323421e+00    4.198185e-01   5.376180e-03
  3.325632e+00    4.333999e-01   5.461557e-03
  3.327842e+00    4.247939e-01   5.406161e-03
  3.330052e+00    4.248487e-01   5.405424e-03
  3.332263e+00    4.187349e-01   5.365367e-03
  3.334473e+00    4.194378e-01   5.368976e-03
  3.336684e+00    4.158180e-01   5.344499e-03
  3.338894e+00    4.089961e-01   5.299640e-03
  3.341105e+00    4.178972e-01   5.355794e-03
  3.343315e+00    4.085020e-01   5.294135e-03
  3.345526e+00    4.050709e-01   5.270938e-03
  3.347736e+00    4.535591e-01   5.576047e-03
  3.349947e+00    4.439616e-01   5.515811e-03
  3.352157e+00    4.187506e-01   5.355727e-03
  3.354368e+00    4.144141e-01   5.326633e-03
  3.356578e+00    4.122598e-01   5.311751e-03
  3.358788e+00    4.107647e-01   5.300802e-03
  3.360999e+00    4.051340e-01   5.263118e-03
  3.363209e+00    4.126795e-01   5.310878e-03
  3.365420e+00    4.129577e-01   5.311188e-03
  3.367630e+00    4.087714e-01   5.283169e-03
  3.369841e+00    4.071108e-01   5.271021e-03
  3.372051e+00    4.118962e-01   5.299964e-03
  3.374262e+00    4.110011e-01   5.291748e-03
  3.376472e+00    4.179937e-01   5.334150e-03
  3.378683e+00    4.187323e-01   5.336325e-03
  3.380893e+00    4.139340e-01   5.303365e-03
  3.383103e+00    4.137561e-01   5.299503e-03
  3.385314e+00    3.986659e-01   5.199793e-03
  3.387524e+00    3.959896e-01   5.179631e-03
  3.389735e+00    4.028116e-01   5.221457e-03
  3.391945e+00    4.133182e-01   5.285452e-03
  3.394156e+00    4.026198e-01   5.212419e-03
  3.396366e+00    4.068788e-01   5.236537e-03
  3.398577e+00    4.129883e-01   5.272659e-03
  3.400787e+00    3.873588e-01   5.117999e-03
  3.402998e+00    3.805357e-01   5.109385e-03
  3.405208e+00    3.926919e-01   5.210675e-03
  3.407418e+00    3.855417e-01   5.178507e-03
  3.409629e+00    3.918695e-01   5.234633e-03
  3.411839e+00    3.857823e-01   5.205386e-03
  3.414050e+00    3.893110e-01   5.240025e-03
  3.416260e+00    3.941245e-01   5.281956e-03
  3.418471e+00    3.853946e-01   5.232472e-03
  3.420681e+00    3.759699e-01   5.176373e-03
  3.422892e+00    3.958456e-01   5.319503e-03
  3.425102e+00    3.861266e-01   5.261589e-03
  3.427313e+00    3.880614e-01   5.281927e-03
  3.429523e+00    3.854442e-01   5.271139e-03
  3.431733e+00    3.710420e-01   5.178251e-03
  3.433944e+00    3.729934e-01   5.198238e-03
  3.436154e+00    3.681385e-01   5.170421e-03
  3.438365e+00    3.690027e-01   5.182295e-03
  3.440575e+00    3.758916e-01   5.236355e-03
  3.442786e+00    3.884823e-01   5.329002e-03
  3.444996e+00    3.693813e-01   5.201809e-03
  3.447207e+00    3.640293e-01   5.169181e-03
  3.449417e+00    3.663841e-01   5.226398e-03
  3.451628e+00    3.511929e-01   5.145624e-03
  3.453838e+00    3.663374e-01   5.276532e-03
  3.456049e+00    3.698331e-01   5.325646e-03
  3.458259e+00    3.653595e-01   5.315234e-03
  3.460469e+00    3.537114e-01   5.249280e-03
  3.462680e+00    3.617629e-01   5.327585e-03
  3.464890e+00    3.792462e-01   5.472941e-03
  3.467101e+00    3.799946e-01   5.496102e-03
  3.469311e+00    3.681655e-01   5.426374e-03
  3.471522e+00    3.839896e-01   5.558355e-03
  3.473732e+00    3.934761e-01   5.642842e-03
  3.475943e+00    3.912968e-01   5.643094e-03
  3.478153e+00    3.931674e-01   5.672104e-03
  3.480364e+00    4.054227e-01   5.775199e-03
  3.482574e+00    3.990047e-01   5.744547e-03
  3.484784e+00    4.229064e-01   5.929220e-03
  3.486995e+00    4.202209e-01   5.925532e-03
  3.489205e+00    4.272531e-01   5.989630e-03
  3.491416e+00    4.319435e-01   6.037428e-03
  3.493626e+00    4.393837e-01   6.103866e-03
  3.495837e+00    4.448093e-01   6.156269e-03
  3.498047e+00    4.619240e-01   6.288357e-03
  3.500258e+00    4.559424e-01   6.262153e-03
  3.502468e+00    4.561453e-01   6.278008e-03
  3.504679e+00    4.459696e-01   6.221829e-03
  3.506889e+00    4.616627e-01   6.344719e-03
  3.509099e+00    4.747403e-01   6.448368e-03
  3.511310e+00    4.997412e-01   6.630808e-03
  3.513520e+00    4.838878e-01   6.539250e-03
  3.515731e+00    4.828795e-01   6.546730e-03
  3.517941e+00    4.964966e-01   6.652879e-03
  3.520152e+00    4.954348e-01   6.660071e-03
  3.522362e+00    4.959170e-01   6.677745e-03
  3.524573e+00    4.984753e-01   6.709100e-03
  3.526783e+00    5.102110e-01   6.800945e-03
  3.528994e+00    5.184581e-01   6.867986e-03
  3.531204e+00    5.259649e-01   6.930032e-03
  3.533414e+00    5.316420e-01   6.979473e-03
  3.535625e+00    5.279149e-01   6.967344e-03
  3.537835e+00    5.156180e-01   6.897642e-03
  3.540046e+00    5.357119e-01   7.039672e-03
  3.542256e+00    5.349100e-01   7.041947e-03
  3.544467e+00    5.356652e-01   7.054524e-03
  3.546677e+00    5.527200e-01   7.173639e-03
  3.548888e+00    5.452355e-01   7.132506e-03
  3.551098e+00    5.385916e-01   7.096185e-03
  3.553309e+00    5.426098e-01   7.130826e-03
  3.555519e+00    5.428193e-01   7.143569e-03
  3.557729e+00    5.346183e-01   7.101122e-03
  3.559940e+00    5.150350e-01   6.981147e-03
  3.562150e+00    5.430028e-01   7.179986e-03
  3.564361e+00    5.346078e-01   7.137577e-03
  3.566571e+00    5.362554e-01   7.162415e-03
  3.568782e+00    5.210595e-01   7.074096e-03
  3.570992e+00    5.431567e-01   7.236375e-03
  3.573203e+00    5.435223e-01   7.253089e-03
  3.575413e+00    5.394229e-01   7.239470e-03
  3.577624e+00    5.448554e-01   7.290112e-03
  3.579834e+00    5.349475e-01   7.237363e-03
  3.582045e+00    5.315075e-01   7.228050e-03
  3.584255e+00    5.278764e-01   7.217245e-03
  3.586465e+00    5.266860e-01   7.222936e-03
  3.588676e+00    5.283081e-01   7.248126e-03
  3.590886e+00    5.429806e-01   7.361862e-03
  3.593097e+00    5.557650e-01   7.462830e-03
  3.595307e+00    5.196235e-01   7.229788e-03
  3.597518e+00    5.435155e-01   7.408474e-03
  3.599728e+00    5.445045e-01   7.429390e-03
  3.601939e+00    5.603240e-01   7.550979e-03
  3.604149e+00    5.222962e-01   7.304461e-03
  3.606360e+00    5.153843e-01   7.269827e-03
  3.608570e+00    5.257140e-01   7.356345e-03
  3.610780e+00    5.399910e-01   7.466689e-03
  3.612991e+00    5.212211e-01   7.345660e-03
  3.615201e+00    5.412741e-01   7.495460e-03
  3.617412e+00    5.345961e-01   7.456383e-03
  3.619622e+00    5.463013e-01   7.543586e-03
  3.621833e+00    5.298607e-01   7.435887e-03
  3.624043e+00    5.381582e-01   7.503420e-03
  3.626254e+00    5.314813e-01   7.466405e-03
  3.628464e+00    5.424486e-01   7.554100e-03
  3.630675e+00    5.342091e-01   7.510650e-03
  3.632885e+00    5.287645e-01   7.486640e-03
  3.635095e+00    5.480223e-01   7.636331e-03
  3.637306e+00    5.478072e-01   7.649418e-03
  3.639516e+00    5.401220e-01   7.610203e-03
  3.641727e+00    5.251232e-01   7.518243e-03
  3.643937e+00    5.169631e-01   7.473907e-03
  3.646148e+00    5.363793e-01   7.627616e-03
  3.648358e+00    5.309514e-01   7.603802e-03
  3.650569e+00    5.298139e-01   7.610277e-03
  3.652779e+00    5.278767e-01   7.611090e-03
  3.654990e+00    5.372812e-01   7.693531e-03
  3.657200e+00    5.212788e-01   7.592874e-03
  3.659410e+00    5.189189e-01   7.590398e-03
  3.661621e+00    5.182895e-01   7.600750e-03
  3.663831e+00    5.077574e-01   7.537847e-03
  3.666042e+00    5.409046e-01   7.795311e-03
  3.668252e+00    5.353036e-01   7.770144e-03
  3.670463e+00    5.381970e-01   7.806447e-03
  3.672673e+00    5.406426e-01   7.839746e-03
  3.674884e+00    5.195444e-01   7.700520e-03
  3.677094e+00    5.205211e-01   7.723047e-03
  3.679305e+00    5.309731e-01   7.815779e-03
  3.681515e+00    5.411412e-01   7.906082e-03
  3.683726e+00    5.280723e-01   7.825774e-03
  3.685936e+00    5.418569e-01   7.943187e-03
  3.688146e+00    5.220695e-01   7.812465e-03
  3.690357e+00    5.411238e-01   7.969907e-03
  3.692567e+00    5.544500e-01   8.083951e-03
  3.694778e+00    5.468876e-01   8.045040e-03
  3.696988e+00    5.268742e-01   7.912465e-03
  3.699199e+00    5.188857e-01   7.868357e-03
  3.701409e+00    5.234946e-01   7.919569e-03
  3.703620e+00    5.087730e-01   7.823514e-03
  3.705830e+00    5.246618e-01   7.961099e-03
  3.708041e+00    5.053941e-01   7.829874e-03
  3.710251e+00    5.185838e-01   7.948015e-03
  3.712461e+00    5.168425e-01   7.951279e-03
  3.714672e+00    5.386323e-01   8.134176e-03
  3.716882e+00    5.395603e-01   8.158213e-03
  3.719093e+00    5.054460e-01   7.913012e-03
  3.721303e+00    5.058630e-01   7.932942e-03
  3.723514e+00    5.115565e-01   7.994593e-03
  3.725724e+00    5.212983e-01   8.087595e-03
  3.727935e+00    5.128977e-01   8.039546e-03
  3.730145e+00    5.049481e-01   7.994124e-03
  3.732356e+00    5.075915e-01   8.032395e-03
  3.734566e+00    5.055810e-01   8.033837e-03
  3.736776e+00    4.975429e-01   7.987203e-03
  3.738987e+00    5.095750e-01   8.100808e-03
  3.741197e+00    5.126213e-01   8.143034e-03
  3.743408e+00    5.102223e-01   8.141891e-03
  3.745618e+00    5.260453e-01   8.285818e-03
  3.747829e+00    4.881021e-01   7.998996e-03
  3.750039e+00    5.094307e-01   8.190257e-03
  3.752250e+00    5.057704e-01   8.179194e-03
  3.754460e+00    4.988414e-01   8.141260e-03
  3.756671e+00    4.964495e-01   8.140315e-03
  3.758881e+00    4.951789e-01   8.148240e-03
  3.761091e+00    4.998625e-01   8.205682e-03
  3.763302e+00    5.058841e-01   8.273997e-03
  3.765512e+00    5.027514e-01   8.267489e-03
  3.767723e+00    5.054088e-01   8.308660e-03
  3.769933e+00    4.560180e-01   7.910586e-03
  3.772144e+00    5.066498e-01   8.357729e-03
  3.774354e+00    4.885290e-01   8.226451e-03
  3.776565e+00    4.861173e-01   8.225605e-03
  3.778775e+00    4.958526e-01   8.327292e-03
  3.780986e+00    5.070846e-01   8.441471e-03
  3.783196e+00    4.967646e-01   8.375284e-03
  3.785407e+00    4.777726e-01   8.233485e-03
  3.787617e+00    5.190386e-01   8.602770e-03
  3.789827e+00    4.861950e-01   8.346399e-03
  3.792038e+00    4.874475e-01   8.377605e-03
  3.794248e+00    4.925383e-01   8.442245e-03
  3.796459e+00    4.870701e-01   8.416314e-03
  3.798669e+00    4.888426e-01   8.452702e-03
  3.800880e+00    4.992295e-01   8.563479e-03
  3.803090e+00    4.776314e-01   8.397507e-03
  3.805301e+00    5.031387e-01   8.640958e-03
  3.807511e+00    5.002929e-01   8.638508e-03
  3.809722e+00    5.094625e-01   8.739719e-03
  3.811932e+00    4.939276e-01   8.627663e-03
  3.814142e+00    4.874217e-01   8.593159e-03
  3.816353e+00    4.754672e-01   8.509444e-03
  3.818563e+00    5.007354e-01   8.755729e-03
  3.820774e+00    5.254233e-01   8.992791e-03
  3.822984e+00    5.148714e-01   8.925815e-03
  3.825195e+00    5.200254e-01   8.994668e-03
  3.827405e+00    4.831666e-01   8.693526e-03
  3.829616e+00    4.934591e-01   8.809595e-03
  3.831826e+00    5.064201e-01   8.948911e-03
  3.834037e+00    5.331826e-01   9.207757e-03
  3.836247e+00    4.828132e-01   8.786427e-03
  3.838457e+00    4.632364e-01   8.630552e-03
  3.840668e+00    4.768036e-01   8.780726e-03
  3.842878e+00    4.865138e-01   8.894918e-03
  3.845089e+00    4.798464e-01   8.858970e-03
  3.847299e+00    4.996429e-01   9.065731e-03
  3.849510e+00    4.885192e-01   8.989944e-03
  3.851720e+00    5.196620e-01   9.293985e-03
  3.853931e+00    5.150225e-01   9.271835e-03
  3.856141e+00    4.963241e-01   9.121018e-03
  3.858352e+00    5.074942e-01   9.242545e-03
  3.860562e+00    4.912444e-01   9.112662e-03
  3.862772e+00    4.998102e-01   9.211414e-03
  3.864983e+00    4.776201e-01   9.024010e-03
  3.867193e+00    4.942620e-01   9.199647e-03
  3.869404e+00    4.879429e-01   9.160325e-03
  3.871614e+00    4.958065e-01   9.253890e-03
  3.873825e+00    5.010328e-01   9.323006e-03
  3.876035e+00    5.105982e-01   9.432531e-03
  3.878246e+00    4.900730e-01   9.266706e-03
  3.880456e+00    4.906582e-01   9.301199e-03
  3.882667e+00    4.752581e-01   9.182891e-03
  3.884877e+00    4.747369e-01   9.207048e-03
  3.887087e+00    4.850844e-01   9.336613e-03
  3.889298e+00    5.061789e-01   9.568234e-03
  3.891508e+00    4.912484e-01   9.456654e-03
  3.893719e+00    4.956325e-01   9.529889e-03
  3.895929e+00    4.778253e-01   9.388193e-03
  3.898140e+00    4.771623e-01   9.412832e-03
  3.900350e+00    4.802059e-01   9.474719e-03
  3.902561e+00    4.794453e-01   9.499100e-03
  3.904771e+00    5.116339e-01   9.846414e-03
  3.906982e+00    4.760907e-01   9.530946e-03
  3.909192e+00    4.901002e-01   9.703612e-03
  3.911403e+00    4.842253e-01   9.679134e-03
  3.913613e+00    5.125822e-01   9.993638e-03
  3.915823e+00    5.034682e-01   9.939757e-03
  3.918034e+00    4.954462e-01   9.895738e-03
  3.920244e+00    4.948705e-01   9.925969e-03
  3.922455e+00    4.867637e-01   9.880348e-03
  3.924665e+00    4.699045e-01   9.743449e-03
  3.926876e+00    5.037512e-01   1.012602e-02
  3.929086e+00    4.797672e-01   9.919065e-03
  3.931297e+00    5.010416e-01   1.017180e-02
  3.933507e+00    5.382865e-01   1.057361e-02
  3.935718e+00    4.925561e-01   1.014338e-02
  3.937928e+00    4.953484e-01   1.020175e-02
  3.940138e+00    4.459988e-01   9.708324e-03
  3.942349e+00    4.846289e-01   1.014977e-02
  3.944559e+00    4.938267e-01   1.027590e-02
  3.946770e+00    4.909115e-01   1.027579e-02
  3.948980e+00    4.829021e-01   1.022229e-02
  3.951191e+00    4.593183e-01   9.999419e-03
  3.953401e+00    4.815394e-01   1.026972e-02
  3.955612e+00    4.789467e-01   1.027345e-02
  3.957822e+00    4.762125e-01   1.027541e-02
  3.960033e+00    4.816184e-01   1.036599e-02
  3.962243e+00    4.625841e-01   1.019125e-02
  3.964453e+00    4.653003e-01   1.025353e-02
  3.966664e+00    4.618007e-01   1.024739e-02
  3.968874e+00    4.616438e-01   1.027332e-02
  3.971085e+00    4.731707e-01   1.042250e-02
  3.973295e+00    4.834246e-01   1.055618e-02
  3.975506e+00    5.017201e-01   1.077609e-02
  3.977716e+00    4.812362e-01   1.057572e-02
  3.979927e+00    4.716896e-01   1.049213e-02
  3.982137e+00    4.735850e-01   1.053517e-02
  3.984348e+00    5.039193e-01   1.089031e-02
  3.986558e+00    4.843082e-01   1.069872e-02
  3.988768e+00    4.820712e-01   1.069677e-02
  3.990979e+00    4.772355e-01   1.066562e-02
  3.993189e+00    4.775538e-01   1.069207e-02
  3.995400e+00    4.877221e-01   1.082879e-02
  3.997610e+00    5.044634e-01   1.104366e-02
  3.999821e+00    4.963326e-01   1.099215e-02
  4.002031e+00    4.890348e-01   1.094964e-02
  4.004242e+00    4.775243e-01   1.085816e-02
  4.006452e+00    4.682643e-01   1.079118e-02
  4.008663e+00    4.608153e-01   1.074392e-02
  4.010873e+00    4.950127e-01   1.117583e-02
  4.013084e+00    4.731797e-01   1.096714e-02
  4.015294e+00    4.751907e-01   1.103091e-02
  4.017504e+00    5.067628e-01   1.143430e-02
  4.019715e+00    4.948294e-01   1.134184e-02
  4.021925e+00    5.006251e-01   1.145183e-02
  4.024136e+00    4.687243e-01   1.112396e-02
  4.026346e+00    4.871559e-01   1.138469e-02
  4.028557e+00    4.929693e-01   1.149733e-02
  4.030767e+00    4.717171e-01   1.129167e-02
  4.032978e+00    5.073591e-01   1.175814e-02
  4.035188e+00    4.880889e-01   1.157893e-02
  4.037399e+00    4.678767e-01   1.138348e-02
  4.039609e+00    4.740420e-01   1.150555e-02
  4.041819e+00    4.544877e-01   1.131289e-02
  4.044030e+00    4.847989e-01   1.173420e-02
  4.046240e+00    4.318561e-01   1.112199e-02
  4.048451e+00    4.408820e-01   1.128629e-02
  4.050661e+00    4.222578e-01   1.109353e-02
  4.052872e+00    4.326191e-01   1.127866e-02
  4.055082e+00    4.707953e-01   1.181852e-02
  4.057293e+00    4.704330e-01   1.186714e-02
  4.059503e+00    5.041914e-01   1.234144e-02
  4.061714e+00    4.982974e-01   1.232650e-02
  4.063924e+00    4.648325e-01   1.196124e-02
  4.066134e+00    4.568740e-01   1.191412e-02
  4.068345e+00    4.682428e-01   1.211963e-02
  4.070555e+00    4.845449e-01   1.238820e-02
  4.072766e+00    4.696708e-01   1.225668e-02
  4.074976e+00    4.669317e-01   1.228180e-02
  4.077187e+00    4.843622e-01   1.257115e-02
  4.079397e+00    4.641134e-01   1.236839e-02
  4.081608e+00    4.725075e-01   1.254471e-02
  4.083818e+00    4.566827e-01   1.239693e-02
  4.086029e+00    4.590859e-01   1.249509e-02
  4.088239e+00    4.473953e-01   1.240137e-02
  4.090449e+00    4.790962e-01   1.290272e-02
  4.092660e+00    4.904087e-01   1.312611e-02
  4.094870e+00    4.937047e-01   1.324325e-02
  4.097081e+00    5.124573e-01   1.356643e-02
  4.099291e+00    4.922258e-01   1.335098e-02
  4.101502e+00    4.759995e-01   1.317815e-02
  4.103712e+00    4.781875e-01   1.325733e-02
  4.105923e+00    5.113428e-01   1.376252e-02
  4.108133e+00    4.646515e-01   1.316969e-02
  4.110344e+00    4.623117e-01   1.318677e-02
  4.112554e+00    4.415683e-01   1.293832e-02
  4.114764e+00    4.775559e-01   1.350938e-02
  4.116975e+00    4.807881e-01   1.360842e-02
  4.119185e+00    4.934566e-01   1.384265e-02
  4.121396e+00    4.215153e-01   1.284668e-02
  4.123606e+00    4.716920e-01   1.364534e-02
  4.125817e+00    4.697361e-01   1.367425e-02
  4.128027e+00    5.005826e-01   1.417550e-02
  4.130238e+00    4.871157e-01   1.404359e-02
  4.132448e+00    5.215282e-01   1.459407e-02
  4.134659e+00    4.821731e-01   1.409308e-02
  4.136869e+00    4.731066e-01   1.402229e-02
  4.139080e+00    4.686854e-01   1.401948e-02
  4.141290e+00    4.454612e-01   1.372819e-02
  4.143500e+00    4.613307e-01   1.403501e-02
  4.145711e+00    4.869120e-01   1.448631e-02
  4.147921e+00    4.769357e-01   1.440289e-02
  4.150132e+00    4.578035e-01   1.417862e-02
  4.152342e+00    4.714840e-01   1.445817e-02
  4.154553e+00    5.310029e-01   1.541686e-02
  4.156763e+00    5.030460e-01   1.507993e-02
  4.158974e+00    4.787625e-01   1.478515e-02
  4.161184e+00    5.309834e-01   1.564797e-02
  4.163395e+00    4.546450e-01   1.455350e-02
  4.165605e+00    5.062052e-01   1.543626e-02
  4.167815e+00    4.981585e-01   1.539313e-02
  4.170026e+00    4.933950e-01   1.540003e-02
  4.172236e+00    4.370534e-01   1.457257e-02
  4.174447e+00    4.571406e-01   1.498438e-02
  4.176657e+00    4.647554e-01   1.519172e-02
  4.178868e+00    5.055164e-01   1.593322e-02
  4.181078e+00    4.882134e-01   1.574677e-02
  4.183289e+00    4.618877e-01   1.540368e-02
  4.185499e+00    4.398719e-01   1.512092e-02
  4.187710e+00    4.833367e-01   1.594307e-02
  4.189920e+00    4.564094e-01   1.558618e-02
  4.192130e+00    4.738098e-01   1.597743e-02
  4.194341e+00    5.015874e-01   1.653976e-02
  4.196551e+00    5.172834e-01   1.690306e-02
  4.198762e+00    4.426566e-01   1.573573e-02
  4.200972e+00    4.845360e-01   1.656957e-02
  4.203183e+00    4.457458e-01   1.599734e-02
  4.205393e+00    4.893318e-01   1.687276e-02
  4.207604e+00    4.979537e-01   1.713705e-02
  4.209814e+00    5.566002e-01   1.824192e-02
  4.212025e+00    4.841016e-01   1.713364e-02
  4.214235e+00    4.892886e-01   1.734698e-02
  4.216445e+00    4.887855e-01   1.746346e-02
  4.218656e+00    4.447708e-01   1.678333e-02
  4.220866e+00    4.866917e-01   1.768646e-02
  4.223077e+00    5.145369e-01   1.832561e-02
  4.225287e+00    5.102764e-01   1.839269e-02
  4.227498e+00    5.340731e-01   1.896459e-02
  4.229708e+00    4.967979e-01   1.843946e-02
  4.231919e+00    4.302835e-01   1.730276e-02
  4.234129e+00    4.782870e-01   1.839521e-02
  4.236340e+00    4.428242e-01   1.785154e-02
  4.238550e+00    4.553545e-01   1.826221e-02
  4.240761e+00    5.145293e-01   1.958416e-02
  4.242971e+00    4.492603e-01   1.846795e-02
  4.245181e+00    4.230461e-01   1.808872e-02
  4.247392e+00    4.163798e-01   1.811386e-02
  4.249602e+00    4.470963e-01   1.895633e-02
  4.251813e+00    4.537411e-01   1.928492e-02
  4.254023e+00    4.003537e-01   1.829740e-02
  4.256234e+00    5.037792e-01   2.074415e-02
  4.258444e+00    4.305062e-01   1.937764e-02
  4.260655e+00    4.487592e-01   2.000111e-02
  4.262865e+00    4.749241e-01   2.080951e-02
  4.265076e+00    4.057134e-01   1.945241e-02
  4.267286e+00    4.852889e-01   2.152689e-02
  4.269496e+00    4.552393e-01   2.110428e-02
  4.271707e+00    4.949171e-01   2.227672e-02
  4.273917e+00    5.074066e-01   2.284719e-02
  4.276128e+00    4.422930e-01   2.161469e-02
  4.278338e+00    5.192901e-01   2.373328e-02
  4.280549e+00    4.289801e-01   2.188051e-02
  4.282759e+00    4.834678e-01   2.356210e-02
  4.284970e+00    4.786379e-01   2.379122e-02
  4.287180e+00    5.030724e-01   2.468329e-02
  4.289391e+00    4.167714e-01   2.263541e-02
  4.291601e+00    4.394374e-01   2.342800e-02
  4.293811e+00    4.260415e-01   2.324895e-02
  4.296022e+00    4.407560e-01   2.383643e-02
  4.298232e+00    4.834959e-01   2.517521e-02
  4.300443e+00    4.774040e-01   2.522188e-02
  4.302653e+00    4.936874e-01   2.587105e-02
  4.304864e+00    4.414324e-01   2.467519e-02
  4.307074e+00    4.862187e-01   2.612939e-02
  4.309285e+00    4.878481e-01   2.641150e-02
  4.311495e+00    4.807908e-01   2.646366e-02
  4.313706e+00    5.409417e-01   2.833532e-02
  4.315916e+00    4.949322e-01   2.736978e-02
  4.318126e+00    6.206478e-01   3.095298e-02
  4.320337e+00    5.248061e-01   2.875098e-02
  4.322547e+00    4.707421e-01   2.751779e-02
  4.324758e+00    4.945597e-01   2.849974e-02
  4.326968e+00    4.486997e-01   2.745085e-02
  4.329179e+00    5.134396e-01   2.968817e-02
  4.331389e+00    4.968068e-01   2.954107e-02
  4.333600e+00    4.135736e-01   2.727455e-02
  4.335810e+00    4.187390e-01   2.777014e-02
  4.338021e+00    4.664606e-01   2.968614e-02
  4.340231e+00    4.248163e-01   2.868411e-02
  4.342442e+00    4.854682e-01   3.107582e-02
  4.344652e+00    4.536702e-01   3.044873e-02
  4.346862e+00    4.404500e-01   3.042173e-02
  4.349073e+00    5.990153e-01   3.599347e-02
  4.351283e+00    5.472160e-01   3.491726e-02
  4.353494e+00    4.265096e-01   3.130242e-02
  4.355704e+00    3.162800e-01   2.738994e-02
  4.357915e+00    3.467296e-01   2.915466e-02
  4.360125e+00    4.574434e-01   3.405816e-02
  4.362336e+00    4.556495e-01   3.461262e-02
  4.364546e+00    3.659942e-01   3.158568e-02
  4.366757e+00    4.076299e-01   3.399548e-02
  4.368967e+00    5.613904e-01   4.069132e-02
  4.371177e+00    4.668933e-01   3.789997e-02
  4.373388e+00    4.086561e-01   3.624796e-02
  4.375598e+00    5.209987e-01   4.186275e-02
  4.377809e+00    5.163848e-01   4.273220e-02
  4.380019e+00    3.379039e-01   3.543776e-02
  4.382230e+00    2.356184e-01   3.041673e-02
  4.384440e+00    4.711806e-01   4.424851e-02
  4.386651e+00    6.942095e-01   5.536946e-02
  4.388861e+00    3.401648e-01   4.006070e-02
  4.391072e+00    4.715429e-01   4.882022e-02
  4.393282e+00    3.686251e-01   4.483688e-02
  4.395492e+00    5.460824e-01   5.683621e-02
  4.397703e+00    4.782840e-01   5.562530e-02
  4.399913e+00    3.306220e-01   4.858694e-02
  4.402124e+00    1.371627e-01   3.307538e-02
  4.404334e+00    3.766784e-01   5.824978e-02
  4.406545e+00    4.868052e-01   7.115138e-02
  4.408755e+00    6.105806e-01   8.642019e-02
  4.410966e+00    2.370594e-01   5.960247e-02
  4.413176e+00    1.324807e-01   5.043567e-02
  4.415387e+00   -5.929222e-01            nan
  4.417597e+00   -1.850756e+00            nan
  4.419807e+00    1.431295e-01   1.358686e-01
