# == pyFAI calibration ==
# Distance Sample to Detector: 0.216 m
# PONI: 1.166e-01, 1.308e-01 m
# Rotations: 0.000000 0.000000 0.000000 rad
# 
# == Fit2d calibration ==
# Distance Sample-beamCenter: 216.000 mm
# Center: x=1744.293, y=1555.000 pix
# Tilt: 0.000 deg  TiltPlanRot: 0.000 deg
# 
# Detector Eiger 9M	 PixelSize= 7.500e-05, 7.500e-05 m
#    Detector has a mask: True 
#    Detector has a dark current: False 
#    detector has a flat field: False 
# 
# Wavelength: 9.8e-11 m
# Mask applied: from detector
# Dark current applied: False
# Flat field applied: False
# Polarization factor: None
# Normalization factor: 1.0
# 
# Headers of the input frame:
# {
# "_array_data.header_convention": "SLS_1.0",
# "_array_data.header_contents": "# Detector: Dectris Eiger 9M, S/N E-18-0102\r\n# Pixel_size 75e-6 m x 75e-6 m\r\n# Silicon sensor, thickness 0.000450 m\r\n# Exposure_time 0.024997 s\r\n# Exposure_period 0.025000 s\r\n# Count_cutoff 62318 counts\r\n# Wavelength 0.980106 A\r\n# Detector_distance 0.215992 m\r\n# Beam_xy (1555, 1744) pixels\r\n# Start_angle 0.000000 deg.\r\n# Angle_increment 0.000000 deg.",
# "Content-Type": "application/octet-stream;",
# "conversions": "x-CBF_BYTE_OFFSET",
# "Content-Transfer-Encoding": "BINARY",
# "X-Binary-Size": "10166618",
# "X-Binary-ID": "1",
# "X-Binary-Element-Type": "signed 32-bit integer",
# "X-Binary-Element-Byte-Order": "LITTLE_ENDIAN",
# "Content-MD5": "pp99MtOaxfRM7fNFACkuvg==",
# "X-Binary-Number-of-Elements": "10166590",
# "X-Binary-Size-Fastest-Dimension": "3110",
# "X-Binary-Size-Second-Dimension": "3269",
# "X-Binary-Size-Padding": "4095"
# }
# --> H:/Proxima2a_2019-04-05/RAW_DATA/C5_gel17_position5/C5_mesh_1_data.cbf/C5_mesh_1_data.cbf000198.dat
#        q_A^-1              I           sigma 
  1.105228e-03    3.923421e-01   3.389373e-01
  3.315685e-03    8.402001e-01   3.015343e-01
  5.526141e-03    8.844155e-01   2.392215e-01
  7.736597e-03    1.315618e+00   2.464819e-01
  9.947054e-03    1.639340e+00   2.425555e-01
  1.215751e-02    1.479374e+00   2.083567e-01
  1.436797e-02    1.429511e+00   1.883951e-01
  1.657842e-02    1.355251e+00   1.707475e-01
  1.878888e-02    1.177626e+00   1.495089e-01
  2.099934e-02    1.323500e+00   1.499561e-01
  2.320979e-02    1.356361e+00   1.443845e-01
  2.542025e-02    1.374720e+00   1.389046e-01
  2.763070e-02    1.356874e+00   1.323610e-01
  2.984116e-02    1.293194e+00   1.243393e-01
  3.205162e-02    1.224249e+00   1.167404e-01
  3.426207e-02    1.539227e+00   1.265978e-01
  3.647253e-02    1.512450e+00   1.216271e-01
  3.868299e-02    1.410032e+00   1.140408e-01
  4.089344e-02    1.331943e+00   1.078012e-01
  4.310390e-02    1.456298e+00   1.097865e-01
  4.531436e-02    1.595613e+00   1.120804e-01
  4.752481e-02    1.471749e+00   1.051080e-01
  4.973527e-02    1.370129e+00   9.913624e-02
  5.194572e-02    1.472627e+00   1.005656e-01
  5.415618e-02    1.539188e+00   1.006896e-01
  5.636664e-02    1.449857e+00   9.579168e-02
  5.857709e-02    1.411718e+00   9.272324e-02
  6.078755e-02    1.339453e+00   8.865863e-02
  6.299801e-02    1.281442e+00   8.518164e-02
  6.520846e-02    1.391316e+00   8.724157e-02
  6.741892e-02    1.402541e+00   8.614056e-02
  6.962938e-02    1.485554e+00   8.723895e-02
  7.183983e-02    1.520947e+00   8.690187e-02
  7.405029e-02    1.454396e+00   8.369943e-02
  7.626074e-02    1.489902e+00   8.347744e-02
  7.847120e-02    1.466214e+00   8.163429e-02
  8.068166e-02    1.408268e+00   7.890072e-02
  8.289211e-02    1.441604e+00   7.875708e-02
  8.510257e-02    1.485029e+00   7.888906e-02
  8.731303e-02    1.554552e+00   7.968330e-02
  8.952348e-02    1.545596e+00   7.846855e-02
  9.173394e-02    1.596877e+00   7.878973e-02
  9.394439e-02    1.536657e+00   7.637263e-02
  9.615485e-02    1.540489e+00   7.558209e-02
  9.836531e-02    1.543364e+00   7.479569e-02
  1.005758e-01    1.547208e+00   7.406173e-02
  1.027862e-01    1.487760e+00   7.183801e-02
  1.049967e-01    1.510753e+00   7.162370e-02
  1.072071e-01    1.522111e+00   7.114657e-02
  1.094176e-01    1.443152e+00   6.857228e-02
  1.116280e-01    1.510652e+00   6.945793e-02
  1.138385e-01    1.540029e+00   6.944450e-02
  1.160490e-01    1.559578e+00   6.921425e-02
  1.182594e-01    1.691145e+00   7.139631e-02
  1.204699e-01    1.569430e+00   6.814463e-02
  1.226803e-01    1.675009e+00   6.975942e-02
  1.248908e-01    1.600357e+00   6.758028e-02
  1.271012e-01    1.548503e+00   6.589451e-02
  1.293117e-01    1.534327e+00   6.502834e-02
  1.315222e-01    1.610447e+00   6.605816e-02
  1.337326e-01    1.555769e+00   6.438702e-02
  1.359431e-01    1.467568e+00   6.257183e-02
  1.381535e-01    1.645058e+00   6.713686e-02
  1.403640e-01    1.594601e+00   6.638470e-02
  1.425744e-01    1.517709e+00   6.486781e-02
  1.447849e-01    1.541197e+00   6.538288e-02
  1.469953e-01    1.543247e+00   6.538536e-02
  1.492058e-01    1.672913e+00   6.799774e-02
  1.514163e-01    1.676686e+00   6.796136e-02
  1.536267e-01    1.623922e+00   6.675287e-02
  1.558372e-01    1.633070e+00   6.679283e-02
  1.580476e-01    1.641046e+00   6.679329e-02
  1.602581e-01    1.640504e+00   6.661264e-02
  1.624685e-01    1.659338e+00   6.681050e-02
  1.646790e-01    1.716606e+00   6.775849e-02
  1.668895e-01    1.768629e+00   6.857894e-02
  1.690999e-01    1.774189e+00   6.848041e-02
  1.713104e-01    1.779267e+00   6.836549e-02
  1.735208e-01    1.744294e+00   6.747978e-02
  1.757313e-01    1.789244e+00   6.812952e-02
  1.779417e-01    1.775700e+00   6.764982e-02
  1.801522e-01    1.814500e+00   6.816713e-02
  1.823626e-01    1.858567e+00   6.876022e-02
  1.845731e-01    1.954275e+00   7.028004e-02
  1.867836e-01    1.919997e+00   6.942588e-02
  1.889940e-01    1.933799e+00   6.944727e-02
  1.912045e-01    1.957042e+00   6.963009e-02
  1.934149e-01    1.918517e+00   6.871060e-02
  1.956254e-01    1.940357e+00   6.887266e-02
  1.978358e-01    2.006346e+00   6.979404e-02
  2.000463e-01    1.955517e+00   6.867592e-02
  2.022568e-01    1.961248e+00   6.855075e-02
  2.044672e-01    1.955504e+00   6.821577e-02
  2.066777e-01    1.989927e+00   6.858517e-02
  2.088881e-01    1.939057e+00   6.748136e-02
  2.110986e-01    1.950968e+00   6.745618e-02
  2.133090e-01    1.973596e+00   6.762568e-02
  2.155195e-01    1.960204e+00   6.717230e-02
  2.177300e-01    1.953385e+00   6.652855e-02
  2.199404e-01    2.061723e+00   6.654759e-02
  2.221509e-01    2.030417e+00   6.495600e-02
  2.243613e-01    2.053118e+00   6.449006e-02
  2.265718e-01    2.039547e+00   6.356810e-02
  2.287822e-01    2.036381e+00   6.289005e-02
  2.309927e-01    2.082969e+00   6.302591e-02
  2.332031e-01    2.101658e+00   6.276622e-02
  2.354136e-01    2.097218e+00   6.219167e-02
  2.376241e-01    2.235085e+00   6.370500e-02
  2.398345e-01    2.142488e+00   6.190985e-02
  2.420450e-01    2.065810e+00   6.035744e-02
  2.442554e-01    2.129304e+00   6.085582e-02
  2.464659e-01    2.111491e+00   6.019387e-02
  2.486763e-01    2.103700e+00   5.968778e-02
  2.508868e-01    2.095674e+00   5.919800e-02
  2.530973e-01    2.108424e+00   5.900967e-02
  2.553077e-01    2.144834e+00   5.915598e-02
  2.575182e-01    2.120526e+00   5.847181e-02
  2.597286e-01    2.077749e+00   5.754260e-02
  2.619391e-01    2.021489e+00   5.643141e-02
  2.641495e-01    2.053364e+00   5.655980e-02
  2.663600e-01    2.009924e+00   5.565060e-02
  2.685704e-01    2.012224e+00   5.538059e-02
  2.707809e-01    2.006043e+00   5.500197e-02
  2.729914e-01    1.950240e+00   5.394893e-02
  2.752018e-01    2.000747e+00   5.435866e-02
  2.774123e-01    1.966861e+00   5.362104e-02
  2.796227e-01    2.009623e+00   5.393270e-02
  2.818332e-01    1.991300e+00   5.341844e-02
  2.840436e-01    1.986822e+00   5.309970e-02
  2.862541e-01    2.004321e+00   5.307666e-02
  2.884646e-01    1.944421e+00   5.202944e-02
  2.906750e-01    1.996581e+00   5.247268e-02
  2.928855e-01    2.020039e+00   5.253549e-02
  2.950959e-01    1.992679e+00   5.193880e-02
  2.973064e-01    1.960879e+00   5.129116e-02
  2.995168e-01    1.903126e+00   5.030133e-02
  3.017273e-01    1.844448e+00   4.930146e-02
  3.039377e-01    1.955889e+00   5.054670e-02
  3.061482e-01    1.963604e+00   5.042722e-02
  3.083587e-01    1.944391e+00   4.996268e-02
  3.105691e-01    1.949073e+00   4.980916e-02
  3.127796e-01    1.899887e+00   4.896990e-02
  3.149900e-01    1.968281e+00   4.963587e-02
  3.172005e-01    1.893329e+00   4.848258e-02
  3.194109e-01    1.866929e+00   4.794462e-02
  3.216214e-01    1.895458e+00   4.811245e-02
  3.238319e-01    1.907612e+00   4.807521e-02
  3.260423e-01    1.957747e+00   4.850888e-02
  3.282528e-01    1.907852e+00   4.769613e-02
  3.304632e-01    1.850855e+00   4.679625e-02
  3.326737e-01    1.865909e+00   4.680284e-02
  3.348841e-01    1.816471e+00   4.599959e-02
  3.370946e-01    1.756198e+00   4.505981e-02
  3.393050e-01    1.807113e+00   4.553515e-02
  3.415155e-01    1.851554e+00   4.591839e-02
  3.437260e-01    1.824796e+00   4.541643e-02
  3.459364e-01    1.838625e+00   4.541954e-02
  3.481469e-01    1.814910e+00   4.496098e-02
  3.503573e-01    1.835054e+00   4.504508e-02
  3.525678e-01    1.891759e+00   4.557278e-02
  3.547782e-01    1.845398e+00   4.484821e-02
  3.569887e-01    1.780809e+00   4.390028e-02
  3.591992e-01    1.759767e+00   4.348573e-02
  3.614096e-01    1.735926e+00   4.304039e-02
  3.636201e-01    1.860925e+00   4.440645e-02
  3.658305e-01    1.850112e+00   4.412626e-02
  3.680410e-01    1.807392e+00   4.346382e-02
  3.702514e-01    1.717838e+00   4.223086e-02
  3.724619e-01    1.771866e+00   4.274374e-02
  3.746724e-01    1.782250e+00   4.272580e-02
  3.768828e-01    1.848866e+00   4.337050e-02
  3.790933e-01    1.795021e+00   4.259507e-02
  3.813037e-01    1.786821e+00   4.235862e-02
  3.835142e-01    1.751036e+00   4.179457e-02
  3.857246e-01    1.830463e+00   4.259367e-02
  3.879351e-01    1.763464e+00   4.167160e-02
  3.901455e-01    1.755666e+00   4.144695e-02
  3.923560e-01    1.794209e+00   4.176629e-02
  3.945665e-01    1.758568e+00   4.121825e-02
  3.967769e-01    1.790349e+00   4.145877e-02
  3.989874e-01    1.785561e+00   4.127404e-02
  4.011978e-01    1.775928e+00   4.103596e-02
  4.034083e-01    1.793548e+00   4.111243e-02
  4.056187e-01    1.765551e+00   4.066464e-02
  4.078292e-01    1.760231e+00   4.048044e-02
  4.100397e-01    1.747101e+00   4.020605e-02
  4.122501e-01    1.789391e+00   4.056801e-02
  4.144606e-01    1.762085e+00   4.013791e-02
  4.166710e-01    1.797195e+00   4.041529e-02
  4.188815e-01    1.781563e+00   4.012027e-02
  4.210919e-01    1.755222e+00   3.970588e-02
  4.233024e-01    1.786417e+00   3.993931e-02
  4.255128e-01    1.837131e+00   4.038520e-02
  4.277233e-01    1.858417e+00   4.050178e-02
  4.299338e-01    1.807453e+00   3.982767e-02
  4.321442e-01    1.845891e+00   4.013373e-02
  4.343547e-01    1.809535e+00   3.962419e-02
  4.365651e-01    1.786593e+00   3.926034e-02
  4.387756e-01    1.735603e+00   3.858768e-02
  4.409860e-01    1.748523e+00   3.862372e-02
  4.431965e-01    1.753460e+00   3.857126e-02
  4.454070e-01    1.759024e+00   3.852496e-02
  4.476174e-01    1.690838e+00   3.766717e-02
  4.498279e-01    1.729040e+00   3.798665e-02
  4.520383e-01    1.801690e+00   3.867011e-02
  4.542488e-01    1.727657e+00   3.776517e-02
  4.564592e-01    1.720453e+00   3.758524e-02
  4.586697e-01    1.747437e+00   3.777831e-02
  4.608801e-01    1.744467e+00   3.764508e-02
  4.630906e-01    1.735187e+00   3.744541e-02
  4.653011e-01    1.691931e+00   3.687849e-02
  4.675115e-01    1.700519e+00   3.687459e-02
  4.697220e-01    1.714558e+00   3.692954e-02
  4.719324e-01    1.743032e+00   3.713864e-02
  4.741429e-01    1.675634e+00   3.631970e-02
  4.763533e-01    1.708207e+00   3.657700e-02
  4.785638e-01    1.755912e+00   3.698843e-02
  4.807743e-01    1.715405e+00   3.646633e-02
  4.829847e-01    1.730951e+00   3.653866e-02
  4.851952e-01    1.663638e+00   3.573052e-02
  4.874056e-01    1.654582e+00   3.554327e-02
  4.896161e-01    1.691620e+00   3.584977e-02
  4.918265e-01    1.726956e+00   3.613231e-02
  4.940370e-01    1.675693e+00   3.550414e-02
  4.962475e-01    1.675103e+00   3.541020e-02
  4.984579e-01    1.703323e+00   3.561923e-02
  5.006684e-01    1.728901e+00   3.579818e-02
  5.028788e-01    1.686418e+00   3.526998e-02
  5.050893e-01    1.649995e+00   3.480214e-02
  5.072997e-01    1.693463e+00   3.517244e-02
  5.095102e-01    1.719040e+00   3.535218e-02
  5.117206e-01    1.686871e+00   3.493658e-02
  5.139311e-01    1.653512e+00   3.450754e-02
  5.161416e-01    1.648955e+00   3.437851e-02
  5.183520e-01    1.618119e+00   3.397463e-02
  5.205625e-01    1.637333e+00   3.409566e-02
  5.227729e-01    1.684225e+00   3.449981e-02
  5.249834e-01    1.705636e+00   3.463782e-02
  5.271938e-01    1.714283e+00   3.464449e-02
  5.294043e-01    1.724249e+00   3.466485e-02
  5.316148e-01    1.744988e+00   3.479284e-02
  5.338252e-01    1.821467e+00   3.546585e-02
  5.360357e-01    1.792571e+00   3.510335e-02
  5.382461e-01    1.745101e+00   3.455712e-02
  5.404566e-01    1.747754e+00   3.450469e-02
  5.426670e-01    1.735461e+00   3.430564e-02
  5.448775e-01    1.775428e+00   3.462089e-02
  5.470879e-01    1.779100e+00   3.457941e-02
  5.492984e-01    1.745889e+00   3.417896e-02
  5.515089e-01    1.761939e+00   3.425953e-02
  5.537193e-01    1.836996e+00   3.490458e-02
  5.559298e-01    1.808749e+00   3.455923e-02
  5.581402e-01    1.805861e+00   3.445614e-02
  5.603507e-01    1.841157e+00   3.471554e-02
  5.625611e-01    1.776102e+00   3.402272e-02
  5.647716e-01    1.788536e+00   3.406747e-02
  5.669821e-01    1.760872e+00   3.373011e-02
  5.691925e-01    1.777590e+00   3.381709e-02
  5.714030e-01    1.774719e+00   3.371775e-02
  5.736134e-01    1.744014e+00   3.335369e-02
  5.758239e-01    1.744178e+00   3.328406e-02
  5.780343e-01    1.709128e+00   3.287826e-02
  5.802448e-01    1.672376e+00   3.245474e-02
  5.824552e-01    1.691257e+00   3.256895e-02
  5.846657e-01    1.672465e+00   3.232000e-02
  5.868762e-01    1.669940e+00   3.222836e-02
  5.890866e-01    1.657190e+00   3.203847e-02
  5.912971e-01    1.650057e+00   3.190326e-02
  5.935075e-01    1.634920e+00   3.169096e-02
  5.957180e-01    1.606761e+00   3.135240e-02
  5.979284e-01    1.666643e+00   3.186608e-02
  6.001389e-01    1.687354e+00   3.199820e-02
  6.023494e-01    1.631520e+00   3.140045e-02
  6.045598e-01    1.693014e+00   3.192160e-02
  6.067703e-01    1.705295e+00   3.197277e-02
  6.089807e-01    1.692161e+00   3.178537e-02
  6.111912e-01    1.671399e+00   3.152669e-02
  6.134016e-01    1.714163e+00   3.186376e-02
  6.156121e-01    1.691480e+00   3.158936e-02
  6.178226e-01    1.661777e+00   3.124876e-02
  6.200330e-01    1.651435e+00   3.108992e-02
  6.222435e-01    1.671292e+00   3.121432e-02
  6.244539e-01    1.667200e+00   3.111505e-02
  6.266644e-01    1.688267e+00   3.124993e-02
  6.288748e-01    1.687048e+00   3.117784e-02
  6.310853e-01    1.691812e+00   3.116121e-02
  6.332957e-01    1.717877e+00   3.133972e-02
  6.355062e-01    1.700502e+00   3.112026e-02
  6.377167e-01    1.722139e+00   3.125751e-02
  6.399271e-01    1.682348e+00   3.083512e-02
  6.421376e-01    1.673921e+00   3.069906e-02
  6.443480e-01    1.664353e+00   3.055299e-02
  6.465585e-01    1.650622e+00   3.036904e-02
  6.487689e-01    1.645447e+00   3.026413e-02
  6.509794e-01    1.684932e+00   3.056735e-02
  6.531899e-01    1.665037e+00   3.032921e-02
  6.554003e-01    1.663171e+00   3.025521e-02
  6.576108e-01    1.641361e+00   3.000023e-02
  6.598212e-01    1.640615e+00   2.993768e-02
  6.620317e-01    1.623325e+00   2.972432e-02
  6.642421e-01    1.583111e+00   2.929952e-02
  6.664526e-01    1.597350e+00   2.937675e-02
  6.686630e-01    1.632474e+00   2.964308e-02
  6.708735e-01    1.611339e+00   2.939654e-02
  6.730840e-01    1.640179e+00   2.960438e-02
  6.752944e-01    1.610937e+00   2.928594e-02
  6.775049e-01    1.617676e+00   2.929383e-02
  6.797153e-01    1.638632e+00   2.942959e-02
  6.819258e-01    1.609095e+00   2.911054e-02
  6.841362e-01    1.610610e+00   2.907188e-02
  6.863467e-01    1.601686e+00   2.893929e-02
  6.885572e-01    1.594516e+00   2.882271e-02
  6.907676e-01    1.609802e+00   2.890863e-02
  6.929781e-01    1.631899e+00   2.905464e-02
  6.951885e-01    1.599774e+00   2.871629e-02
  6.973990e-01    1.611138e+00   2.876715e-02
  6.996094e-01    1.579196e+00   2.843045e-02
  7.018199e-01    1.597190e+00   2.854176e-02
  7.040303e-01    1.621111e+00   2.870421e-02
  7.062408e-01    1.609836e+00   2.855411e-02
  7.084513e-01    1.617882e+00   2.857559e-02
  7.106617e-01    1.605374e+00   2.841545e-02
  7.128722e-01    1.613564e+00   2.843855e-02
  7.150826e-01    1.620279e+00   2.844855e-02
  7.172931e-01    1.620133e+00   2.839821e-02
  7.195035e-01    1.613668e+00   2.829280e-02
  7.217140e-01    1.573508e+00   2.798794e-02
  7.239245e-01    1.536124e+00   2.787740e-02
  7.261349e-01    1.567779e+00   2.827154e-02
  7.283454e-01    1.590161e+00   2.854540e-02
  7.305558e-01    1.585985e+00   2.856209e-02
  7.327663e-01    1.551655e+00   2.829346e-02
  7.349767e-01    1.577273e+00   2.854244e-02
  7.371872e-01    1.577975e+00   2.853760e-02
  7.393976e-01    1.563327e+00   2.839063e-02
  7.416081e-01    1.592477e+00   2.863783e-02
  7.438186e-01    1.572353e+00   2.831211e-02
  7.460290e-01    1.536234e+00   2.769440e-02
  7.482395e-01    1.558269e+00   2.772202e-02
  7.504499e-01    1.556164e+00   2.756784e-02
  7.526604e-01    1.569092e+00   2.756574e-02
  7.548708e-01    1.592914e+00   2.768429e-02
  7.570813e-01    1.578099e+00   2.750422e-02
  7.592918e-01    1.584437e+00   2.752410e-02
  7.615022e-01    1.662024e+00   2.815521e-02
  7.637127e-01    1.665352e+00   2.814971e-02
  7.659231e-01    1.597434e+00   2.753748e-02
  7.681336e-01    1.616982e+00   2.767343e-02
  7.703440e-01    1.608928e+00   2.757286e-02
  7.725545e-01    1.548856e+00   2.702262e-02
  7.747650e-01    1.597498e+00   2.740515e-02
  7.769754e-01    1.601228e+00   2.738402e-02
  7.791859e-01    1.583613e+00   2.717935e-02
  7.813963e-01    1.575573e+00   2.705772e-02
  7.836068e-01    1.581891e+00   2.705996e-02
  7.858172e-01    1.638194e+00   2.748582e-02
  7.880277e-01    1.611327e+00   2.720767e-02
  7.902381e-01    1.603009e+00   2.708803e-02
  7.924486e-01    1.630018e+00   2.726468e-02
  7.946591e-01    1.675467e+00   2.759274e-02
  7.968695e-01    1.660734e+00   2.742206e-02
  7.990800e-01    1.594329e+00   2.682018e-02
  8.012904e-01    1.618407e+00   2.697519e-02
  8.035009e-01    1.642021e+00   2.712293e-02
  8.057113e-01    1.651086e+00   2.715067e-02
  8.079218e-01    1.652305e+00   2.711382e-02
  8.101323e-01    1.610889e+00   2.672640e-02
  8.123427e-01    1.630750e+00   2.684480e-02
  8.145532e-01    1.659820e+00   2.703665e-02
  8.167636e-01    1.681924e+00   2.717035e-02
  8.189741e-01    1.660997e+00   2.695576e-02
  8.211845e-01    1.644398e+00   2.677580e-02
  8.233950e-01    1.676013e+00   2.698800e-02
  8.256054e-01    1.686882e+00   2.703050e-02
  8.278159e-01    1.669647e+00   2.684766e-02
  8.300264e-01    1.673811e+00   2.683757e-02
  8.322368e-01    1.641252e+00   2.653213e-02
  8.344473e-01    1.610109e+00   2.623618e-02
  8.366577e-01    1.610027e+00   2.619332e-02
  8.388682e-01    1.636943e+00   2.636913e-02
  8.410786e-01    1.646153e+00   2.640106e-02
  8.432891e-01    1.624156e+00   2.618242e-02
  8.454996e-01    1.626276e+00   2.615803e-02
  8.477100e-01    1.645585e+00   2.627110e-02
  8.499205e-01    1.607627e+00   2.592557e-02
  8.521309e-01    1.636306e+00   2.611501e-02
  8.543414e-01    1.617897e+00   2.592717e-02
  8.565518e-01    1.612686e+00   2.584510e-02
  8.587623e-01    1.588353e+00   2.560942e-02
  8.609727e-01    1.589246e+00   2.557691e-02
  8.631832e-01    1.589450e+00   2.553911e-02
  8.653937e-01    1.608065e+00   2.564876e-02
  8.676041e-01    1.565775e+00   2.527106e-02
  8.698146e-01    1.587522e+00   2.540704e-02
  8.720250e-01    1.600909e+00   2.547507e-02
  8.742355e-01    1.576429e+00   2.524106e-02
  8.764459e-01    1.566476e+00   2.512287e-02
  8.786564e-01    1.577658e+00   2.517479e-02
  8.808669e-01    1.578547e+00   2.514371e-02
  8.830773e-01    1.590007e+00   2.519681e-02
  8.852878e-01    1.593026e+00   2.518292e-02
  8.874982e-01    1.585082e+00   2.508358e-02
  8.897087e-01    1.606140e+00   2.521192e-02
  8.919191e-01    1.578375e+00   2.495557e-02
  8.941296e-01    1.567545e+00   2.483289e-02
  8.963401e-01    1.618240e+00   2.519461e-02
  8.985505e-01    1.610701e+00   2.509878e-02
  9.007610e-01    1.608745e+00   2.504670e-02
  9.029714e-01    1.609075e+00   2.501331e-02
  9.051819e-01    1.593975e+00   2.485855e-02
  9.073923e-01    1.544526e+00   2.443396e-02
  9.096028e-01    1.587129e+00   2.473387e-02
  9.118132e-01    1.599873e+00   2.479678e-02
  9.140237e-01    1.562617e+00   2.447016e-02
  9.162342e-01    1.573847e+00   2.452365e-02
  9.184446e-01    1.562575e+00   2.440034e-02
  9.206551e-01    1.574344e+00   2.445674e-02
  9.228655e-01    1.594259e+00   2.457577e-02
  9.250760e-01    1.605525e+00   2.462706e-02
  9.272864e-01    1.623487e+00   2.472995e-02
  9.294969e-01    1.614730e+00   2.462722e-02
  9.317074e-01    1.609740e+00   2.455439e-02
  9.339178e-01    1.598795e+00   2.443735e-02
  9.361283e-01    1.556372e+00   2.407542e-02
  9.383387e-01    1.596541e+00   2.435093e-02
  9.405492e-01    1.647230e+00   2.469995e-02
  9.427596e-01    1.630151e+00   2.453621e-02
  9.449701e-01    1.636846e+00   2.455312e-02
  9.471805e-01    1.642886e+00   2.456354e-02
  9.493910e-01    1.659852e+00   2.465617e-02
  9.516015e-01    1.668085e+00   2.468272e-02
  9.538119e-01    1.702390e+00   2.490108e-02
  9.560224e-01    1.730423e+00   2.506991e-02
  9.582328e-01    1.755737e+00   2.521875e-02
  9.604433e-01    1.766526e+00   2.526030e-02
  9.626537e-01    1.765474e+00   2.521882e-02
  9.648642e-01    1.735760e+00   2.497144e-02
  9.670747e-01    1.766239e+00   2.515498e-02
  9.692851e-01    1.827751e+00   2.555526e-02
  9.714956e-01    1.831418e+00   2.554482e-02
  9.737060e-01    1.861322e+00   2.571869e-02
  9.759165e-01    1.838789e+00   2.552652e-02
  9.781269e-01    1.789063e+00   2.514605e-02
  9.803374e-01    1.795268e+00   2.515477e-02
  9.825478e-01    1.825789e+00   2.533424e-02
  9.847583e-01    1.816715e+00   2.523689e-02
  9.869688e-01    1.793628e+00   2.504246e-02
  9.891792e-01    1.790835e+00   2.498969e-02
  9.913897e-01    1.773972e+00   2.483821e-02
  9.936001e-01    1.737368e+00   2.454843e-02
  9.958106e-01    1.695031e+00   2.421454e-02
  9.980210e-01    1.661627e+00   2.394362e-02
  1.000231e+00    1.662385e+00   2.408028e-02
  1.002442e+00    1.612289e+00   2.384068e-02
  1.004652e+00    1.614701e+00   2.392505e-02
  1.006863e+00    1.615019e+00   2.397706e-02
  1.009073e+00    1.612336e+00   2.399381e-02
  1.011284e+00    1.632132e+00   2.417292e-02
  1.013494e+00    1.653779e+00   2.435684e-02
  1.015705e+00    1.607963e+00   2.403978e-02
  1.017915e+00    1.565692e+00   2.373805e-02
  1.020126e+00    1.539061e+00   2.355119e-02
  1.022336e+00    1.531698e+00   2.350637e-02
  1.024547e+00    1.518978e+00   2.341967e-02
  1.026757e+00    1.498001e+00   2.326561e-02
  1.028967e+00    1.518459e+00   2.343157e-02
  1.031178e+00    1.510154e+00   2.337351e-02
  1.033388e+00    1.516380e+00   2.342668e-02
  1.035599e+00    1.502645e+00   2.332372e-02
  1.037809e+00    1.519447e+00   2.345702e-02
  1.040020e+00    1.509161e+00   2.337876e-02
  1.042230e+00    1.524633e+00   2.350023e-02
  1.044441e+00    1.528635e+00   2.353084e-02
  1.046651e+00    1.483322e+00   2.317963e-02
  1.048862e+00    1.501764e+00   2.332247e-02
  1.051072e+00    1.510124e+00   2.338495e-02
  1.053282e+00    1.518751e+00   2.345067e-02
  1.055493e+00    1.541535e+00   2.362157e-02
  1.057703e+00    1.513059e+00   2.340085e-02
  1.059914e+00    1.495368e+00   2.325937e-02
  1.062124e+00    1.501670e+00   2.330426e-02
  1.064335e+00    1.463247e+00   2.300078e-02
  1.066545e+00    1.442860e+00   2.283406e-02
  1.068756e+00    1.443645e+00   2.283660e-02
  1.070966e+00    1.432195e+00   2.273939e-02
  1.073177e+00    1.469909e+00   2.303081e-02
  1.075387e+00    1.461048e+00   2.295608e-02
  1.077597e+00    1.468104e+00   2.300418e-02
  1.079808e+00    1.470768e+00   2.289201e-02
  1.082018e+00    1.445427e+00   2.250601e-02
  1.084229e+00    1.465535e+00   2.255176e-02
  1.086439e+00    1.456861e+00   2.239746e-02
  1.088650e+00    1.495756e+00   2.261768e-02
  1.090860e+00    1.675839e+00   2.386794e-02
  1.093071e+00    1.654713e+00   2.365072e-02
  1.095281e+00    1.446895e+00   2.205845e-02
  1.097492e+00    1.394936e+00   2.160477e-02
  1.099702e+00    1.407837e+00   2.165364e-02
  1.101912e+00    1.424079e+00   2.172960e-02
  1.104123e+00    1.422543e+00   2.166990e-02
  1.106333e+00    1.397337e+00   2.143317e-02
  1.108544e+00    1.388640e+00   2.132276e-02
  1.110754e+00    1.415625e+00   2.148607e-02
  1.112965e+00    1.448280e+00   2.169157e-02
  1.115175e+00    1.450326e+00   2.166528e-02
  1.117386e+00    1.463424e+00   2.172296e-02
  1.119596e+00    1.458919e+00   2.165101e-02
  1.121807e+00    1.456021e+00   2.159005e-02
  1.124017e+00    1.409832e+00   2.120815e-02
  1.126228e+00    1.411806e+00   2.118714e-02
  1.128438e+00    1.400382e+00   2.106451e-02
  1.130648e+00    1.388897e+00   2.094374e-02
  1.132859e+00    1.346078e+00   2.058465e-02
  1.135069e+00    1.361670e+00   2.066917e-02
  1.137280e+00    1.370437e+00   2.070285e-02
  1.139490e+00    1.346723e+00   2.049037e-02
  1.141701e+00    1.360482e+00   2.056193e-02
  1.143911e+00    1.379448e+00   2.067295e-02
  1.146122e+00    1.377020e+00   2.062279e-02
  1.148332e+00    1.365589e+00   2.050529e-02
  1.150543e+00    1.365564e+00   2.047441e-02
  1.152753e+00    1.374122e+00   2.050763e-02
  1.154963e+00    1.352790e+00   2.031705e-02
  1.157174e+00    1.362654e+00   2.036091e-02
  1.159384e+00    1.379559e+00   2.045691e-02
  1.161595e+00    1.349933e+00   2.020644e-02
  1.163805e+00    1.350079e+00   2.017846e-02
  1.166016e+00    1.348353e+00   2.013634e-02
  1.168226e+00    1.343231e+00   2.006936e-02
  1.170437e+00    1.343069e+00   2.003975e-02
  1.172647e+00    1.349693e+00   2.006038e-02
  1.174858e+00    1.350061e+00   2.003517e-02
  1.177068e+00    1.348670e+00   1.999675e-02
  1.179278e+00    1.366993e+00   2.010348e-02
  1.181489e+00    1.386213e+00   2.021705e-02
  1.183699e+00    1.367831e+00   2.005490e-02
  1.185910e+00    1.358432e+00   1.995809e-02
  1.188120e+00    1.367072e+00   1.999468e-02
  1.190331e+00    1.342233e+00   1.978556e-02
  1.192541e+00    1.355808e+00   1.985797e-02
  1.194752e+00    1.333623e+00   1.966798e-02
  1.196962e+00    1.355820e+00   1.980519e-02
  1.199173e+00    1.332734e+00   1.960954e-02
  1.201383e+00    1.319013e+00   1.948147e-02
  1.203593e+00    1.346673e+00   1.965988e-02
  1.205804e+00    1.363829e+00   1.975868e-02
  1.208014e+00    1.348476e+00   1.962032e-02
  1.210225e+00    1.359028e+00   1.967151e-02
  1.212435e+00    1.414210e+00   2.004152e-02
  1.214646e+00    1.441271e+00   2.020541e-02
  1.216856e+00    1.447340e+00   2.022153e-02
  1.219067e+00    1.382770e+00   1.974057e-02
  1.221277e+00    1.365420e+00   1.959113e-02
  1.223488e+00    1.402987e+00   1.983257e-02
  1.225698e+00    1.382566e+00   1.966050e-02
  1.227909e+00    1.356187e+00   1.944179e-02
  1.230119e+00    1.352038e+00   1.938015e-02
  1.232329e+00    1.347615e+00   1.931773e-02
  1.234540e+00    1.326980e+00   1.913924e-02
  1.236750e+00    1.338981e+00   1.919543e-02
  1.238961e+00    1.354578e+00   1.927990e-02
  1.241171e+00    1.365473e+00   1.933296e-02
  1.243382e+00    1.349921e+00   1.919903e-02
  1.245592e+00    1.358865e+00   1.923837e-02
  1.247803e+00    1.352540e+00   1.916985e-02
  1.250013e+00    1.332619e+00   1.900478e-02
  1.252224e+00    1.330129e+00   1.896393e-02
  1.254434e+00    1.326972e+00   1.891786e-02
  1.256644e+00    1.338182e+00   1.897450e-02
  1.258855e+00    1.347889e+00   1.901995e-02
  1.261065e+00    1.338647e+00   1.893134e-02
  1.263276e+00    1.370795e+00   1.913421e-02
  1.265486e+00    1.363261e+00   1.905857e-02
  1.267697e+00    1.352321e+00   1.895890e-02
  1.269907e+00    1.379100e+00   1.912276e-02
  1.272118e+00    1.365310e+00   1.900421e-02
  1.274328e+00    1.346086e+00   1.884725e-02
  1.276539e+00    1.354651e+00   1.888428e-02
  1.278749e+00    1.357584e+00   1.888237e-02
  1.280959e+00    1.363570e+00   1.890131e-02
  1.283170e+00    1.357712e+00   1.883816e-02
  1.285380e+00    1.391975e+00   1.905159e-02
  1.287591e+00    1.341254e+00   1.867931e-02
  1.289801e+00    1.355677e+00   1.875819e-02
  1.292012e+00    1.350381e+00   1.870442e-02
  1.294222e+00    1.361142e+00   1.876249e-02
  1.296433e+00    1.357146e+00   1.871930e-02
  1.298643e+00    1.345281e+00   1.862084e-02
  1.300854e+00    1.379140e+00   1.883712e-02
  1.303064e+00    1.377871e+00   1.880905e-02
  1.305274e+00    1.359473e+00   1.866153e-02
  1.307485e+00    1.363322e+00   1.866628e-02
  1.309695e+00    1.342133e+00   1.849849e-02
  1.311906e+00    1.344955e+00   1.849624e-02
  1.314116e+00    1.349233e+00   1.850486e-02
  1.316327e+00    1.368417e+00   1.861411e-02
  1.318537e+00    1.351364e+00   1.847587e-02
  1.320748e+00    1.369584e+00   1.857829e-02
  1.322958e+00    1.373139e+00   1.858170e-02
  1.325169e+00    1.369947e+00   1.853890e-02
  1.327379e+00    1.370343e+00   1.851962e-02
  1.329589e+00    1.383043e+00   1.858390e-02
  1.331800e+00    1.390589e+00   1.861354e-02
  1.334010e+00    1.371514e+00   1.846461e-02
  1.336221e+00    1.359268e+00   1.836017e-02
  1.338431e+00    1.341570e+00   1.821946e-02
  1.340642e+00    1.346285e+00   1.831551e-02
  1.342852e+00    1.368788e+00   1.856930e-02
  1.345063e+00    1.380255e+00   1.869699e-02
  1.347273e+00    1.375257e+00   1.869866e-02
  1.349484e+00    1.390226e+00   1.882824e-02
  1.351694e+00    1.395177e+00   1.888482e-02
  1.353905e+00    1.392093e+00   1.888222e-02
  1.356115e+00    1.416298e+00   1.906105e-02
  1.358325e+00    1.459574e+00   1.936394e-02
  1.360536e+00    1.442881e+00   1.926493e-02
  1.362746e+00    1.395907e+00   1.895846e-02
  1.364957e+00    1.374549e+00   1.882059e-02
  1.367167e+00    1.411688e+00   1.908045e-02
  1.369378e+00    1.409275e+00   1.907033e-02
  1.371588e+00    1.410760e+00   1.908560e-02
  1.373799e+00    1.471438e+00   1.949558e-02
  1.376009e+00    1.468993e+00   1.948295e-02
  1.378220e+00    1.407753e+00   1.907514e-02
  1.380430e+00    1.345375e+00   1.865044e-02
  1.382640e+00    1.342457e+00   1.863110e-02
  1.384851e+00    1.326825e+00   1.852321e-02
  1.387061e+00    1.327021e+00   1.852485e-02
  1.389272e+00    1.316093e+00   1.844865e-02
  1.391482e+00    1.314883e+00   1.843947e-02
  1.393693e+00    1.303279e+00   1.835704e-02
  1.395903e+00    1.299533e+00   1.832916e-02
  1.398114e+00    1.273808e+00   1.814543e-02
  1.400324e+00    1.306040e+00   1.837143e-02
  1.402535e+00    1.311098e+00   1.840463e-02
  1.404745e+00    1.294742e+00   1.828709e-02
  1.406955e+00    1.300844e+00   1.832740e-02
  1.409166e+00    1.300152e+00   1.831920e-02
  1.411376e+00    1.337881e+00   1.857983e-02
  1.413587e+00    1.501550e+00   1.967941e-02
  1.415797e+00    1.426284e+00   1.917618e-02
  1.418008e+00    1.317284e+00   1.838621e-02
  1.420218e+00    1.282217e+00   1.798935e-02
  1.422429e+00    1.299443e+00   1.802350e-02
  1.424639e+00    1.293563e+00   1.791739e-02
  1.426850e+00    1.342843e+00   1.819922e-02
  1.429060e+00    1.335636e+00   1.810013e-02
  1.431270e+00    1.276173e+00   1.764819e-02
  1.433481e+00    1.286702e+00   1.767962e-02
  1.435691e+00    1.271716e+00   1.753790e-02
  1.437902e+00    1.301492e+00   1.770511e-02
  1.440112e+00    1.310529e+00   1.773058e-02
  1.442323e+00    1.302844e+00   1.764506e-02
  1.444533e+00    1.274624e+00   1.742030e-02
  1.446744e+00    1.269820e+00   1.735630e-02
  1.448954e+00    1.275027e+00   1.736161e-02
  1.451165e+00    1.263119e+00   1.725066e-02
  1.453375e+00    1.276957e+00   1.731678e-02
  1.455586e+00    1.289363e+00   1.737232e-02
  1.457796e+00    1.269245e+00   1.720875e-02
  1.460006e+00    1.266395e+00   1.716221e-02
  1.462217e+00    1.251197e+00   1.703289e-02
  1.464427e+00    1.264428e+00   1.709715e-02
  1.466638e+00    1.271634e+00   1.712045e-02
  1.468848e+00    1.264716e+00   1.704853e-02
  1.471059e+00    1.285094e+00   1.716007e-02
  1.473269e+00    1.278816e+00   1.709366e-02
  1.475480e+00    1.267846e+00   1.699642e-02
  1.477690e+00    1.267546e+00   1.697057e-02
  1.479901e+00    1.285025e+00   1.706318e-02
  1.482111e+00    1.259848e+00   1.687195e-02
  1.484321e+00    1.260438e+00   1.685285e-02
  1.486532e+00    1.243327e+00   1.671593e-02
  1.488742e+00    1.254656e+00   1.676934e-02
  1.490953e+00    1.273265e+00   1.687058e-02
  1.493163e+00    1.262329e+00   1.677570e-02
  1.495374e+00    1.247360e+00   1.665458e-02
  1.497584e+00    1.242257e+00   1.659899e-02
  1.499795e+00    1.281021e+00   1.683415e-02
  1.502005e+00    1.280710e+00   1.681026e-02
  1.504216e+00    1.259308e+00   1.664817e-02
  1.506426e+00    1.287716e+00   1.681383e-02
  1.508636e+00    1.275394e+00   1.671262e-02
  1.510847e+00    1.245924e+00   1.649668e-02
  1.513057e+00    1.231718e+00   1.637750e-02
  1.515268e+00    1.282437e+00   1.668529e-02
  1.517478e+00    1.270195e+00   1.658017e-02
  1.519689e+00    1.275918e+00   1.659228e-02
  1.521899e+00    1.281089e+00   1.660252e-02
  1.524110e+00    1.273297e+00   1.653146e-02
  1.526320e+00    1.271965e+00   1.650306e-02
  1.528531e+00    1.278605e+00   1.652610e-02
  1.530741e+00    1.268602e+00   1.644205e-02
  1.532951e+00    1.243864e+00   1.626140e-02
  1.535162e+00    1.248664e+00   1.637932e-02
  1.537372e+00    1.236265e+00   1.636434e-02
  1.539583e+00    1.251873e+00   1.650162e-02
  1.541793e+00    1.259435e+00   1.655835e-02
  1.544004e+00    1.242228e+00   1.644512e-02
  1.546214e+00    1.233677e+00   1.638692e-02
  1.548425e+00    1.223978e+00   1.632262e-02
  1.550635e+00    1.239510e+00   1.643553e-02
  1.552846e+00    1.220952e+00   1.632158e-02
  1.555056e+00    1.225530e+00   1.631101e-02
  1.557266e+00    1.199221e+00   1.602653e-02
  1.559477e+00    1.221409e+00   1.611557e-02
  1.561687e+00    1.224028e+00   1.610241e-02
  1.563898e+00    1.230465e+00   1.612763e-02
  1.566108e+00    1.251132e+00   1.624652e-02
  1.568319e+00    1.231862e+00   1.610537e-02
  1.570529e+00    1.222191e+00   1.601713e-02
  1.572740e+00    1.226857e+00   1.602023e-02
  1.574950e+00    1.247256e+00   1.612653e-02
  1.577161e+00    1.251678e+00   1.612954e-02
  1.579371e+00    1.242530e+00   1.604687e-02
  1.581582e+00    1.224924e+00   1.591315e-02
  1.583792e+00    1.239502e+00   1.598957e-02
  1.586002e+00    1.240985e+00   1.598155e-02
  1.588213e+00    1.243513e+00   1.598057e-02
  1.590423e+00    1.285565e+00   1.622813e-02
  1.592634e+00    1.250931e+00   1.598638e-02
  1.594844e+00    1.246514e+00   1.593668e-02
  1.597055e+00    1.265824e+00   1.603896e-02
  1.599265e+00    1.276836e+00   1.608756e-02
  1.601476e+00    1.258197e+00   1.594927e-02
  1.603686e+00    1.236209e+00   1.578955e-02
  1.605897e+00    1.266352e+00   1.596051e-02
  1.608107e+00    1.273254e+00   1.598410e-02
  1.610317e+00    1.279257e+00   1.600212e-02
  1.612528e+00    1.261280e+00   1.586990e-02
  1.614738e+00    1.253613e+00   1.580249e-02
  1.616949e+00    1.230119e+00   1.563470e-02
  1.619159e+00    1.217838e+00   1.553776e-02
  1.621370e+00    1.231231e+00   1.560442e-02
  1.623580e+00    1.218110e+00   1.550270e-02
  1.625791e+00    1.180622e+00   1.524424e-02
  1.628001e+00    1.181024e+00   1.522872e-02
  1.630212e+00    1.176050e+00   1.517900e-02
  1.632422e+00    1.161527e+00   1.506727e-02
  1.634632e+00    1.187611e+00   1.521815e-02
  1.636843e+00    1.212538e+00   1.535924e-02
  1.639053e+00    1.213330e+00   1.534668e-02
  1.641264e+00    1.229328e+00   1.542999e-02
  1.643474e+00    1.254379e+00   1.556834e-02
  1.645685e+00    1.220121e+00   1.533721e-02
  1.647895e+00    1.178942e+00   1.505939e-02
  1.650106e+00    1.154965e+00   1.488845e-02
  1.652316e+00    1.157735e+00   1.488971e-02
  1.654527e+00    1.164046e+00   1.491343e-02
  1.656737e+00    1.172365e+00   1.494980e-02
  1.658947e+00    1.141678e+00   1.473653e-02
  1.661158e+00    1.125474e+00   1.461527e-02
  1.663368e+00    1.177622e+00   1.493363e-02
  1.665579e+00    1.185090e+00   1.496430e-02
  1.667789e+00    1.171359e+00   1.486072e-02
  1.670000e+00    1.217742e+00   1.513587e-02
  1.672210e+00    1.265431e+00   1.541246e-02
  1.674421e+00    1.228555e+00   1.517008e-02
  1.676631e+00    1.222252e+00   1.511439e-02
  1.678842e+00    1.180093e+00   1.483511e-02
  1.681052e+00    1.139101e+00   1.455945e-02
  1.683263e+00    1.082021e+00   1.417491e-02
  1.685473e+00    1.093438e+00   1.423427e-02
  1.687683e+00    1.091260e+00   1.420461e-02
  1.689894e+00    1.076892e+00   1.409506e-02
  1.692104e+00    1.067386e+00   1.401783e-02
  1.694315e+00    1.072833e+00   1.403907e-02
  1.696525e+00    1.061116e+00   1.394708e-02
  1.698736e+00    1.054921e+00   1.389158e-02
  1.700946e+00    1.044243e+00   1.380605e-02
  1.703157e+00    1.068921e+00   1.395352e-02
  1.705367e+00    1.094234e+00   1.410298e-02
  1.707578e+00    1.092269e+00   1.407546e-02
  1.709788e+00    1.040900e+00   1.372642e-02
  1.711998e+00    1.040236e+00   1.370702e-02
  1.714209e+00    1.040492e+00   1.369428e-02
  1.716419e+00    1.012717e+00   1.349614e-02
  1.718630e+00    1.016234e+00   1.350539e-02
  1.720840e+00    1.013990e+00   1.347638e-02
  1.723051e+00    1.017408e+00   1.348526e-02
  1.725261e+00    1.003923e+00   1.338105e-02
  1.727472e+00    1.000410e+00   1.334356e-02
  1.729682e+00    1.004663e+00   1.335851e-02
  1.731893e+00    9.838058e-01   1.320541e-02
  1.734103e+00    9.773266e-01   1.314827e-02
  1.736313e+00    9.743179e-01   1.311423e-02
  1.738524e+00    9.816343e-01   1.314969e-02
  1.740734e+00    9.913751e-01   1.320112e-02
  1.742945e+00    9.727741e-01   1.306341e-02
  1.745155e+00    9.797766e-01   1.309696e-02
  1.747366e+00    9.805887e-01   1.308866e-02
  1.749576e+00    9.579471e-01   1.292318e-02
  1.751787e+00    9.549827e-01   1.289002e-02
  1.753997e+00    9.503619e-01   1.284560e-02
  1.756208e+00    9.510331e-01   1.283712e-02
  1.758418e+00    9.404096e-01   1.275230e-02
  1.760628e+00    9.734724e-01   1.296116e-02
  1.762839e+00    9.558582e-01   1.283023e-02
  1.765049e+00    9.414346e-01   1.272007e-02
  1.767260e+00    9.381300e-01   1.268507e-02
  1.769470e+00    9.270451e-01   1.259710e-02
  1.771681e+00    9.359084e-01   1.264415e-02
  1.773891e+00    9.292501e-01   1.258618e-02
  1.776102e+00    9.419082e-01   1.265880e-02
  1.778312e+00    9.035040e-01   1.238559e-02
  1.780523e+00    8.942385e-01   1.230950e-02
  1.782733e+00    9.179539e-01   1.245910e-02
  1.784944e+00    9.342146e-01   1.255612e-02
  1.787154e+00    9.303066e-01   1.251730e-02
  1.789364e+00    9.130337e-01   1.238819e-02
  1.791575e+00    9.145427e-01   1.238597e-02
  1.793785e+00    9.060901e-01   1.231631e-02
  1.795996e+00    8.910693e-01   1.220149e-02
  1.798206e+00    9.036090e-01   1.227461e-02
  1.800417e+00    8.783100e-01   1.208918e-02
  1.802627e+00    8.790281e-01   1.208238e-02
  1.804838e+00    9.165177e-01   1.232520e-02
  1.807048e+00    9.547602e-01   1.256655e-02
  1.809259e+00    9.498535e-01   1.252034e-02
  1.811469e+00    9.001573e-01   1.217349e-02
  1.813679e+00    8.543332e-01   1.184500e-02
  1.815890e+00    8.621806e-01   1.188479e-02
  1.818100e+00    9.035519e-01   1.215145e-02
  1.820311e+00    8.893299e-01   1.204071e-02
  1.822521e+00    8.866111e-01   1.200746e-02
  1.824732e+00    8.794116e-01   1.194391e-02
  1.826942e+00    8.724720e-01   1.188443e-02
  1.829153e+00    8.938741e-01   1.201758e-02
  1.831363e+00    8.807910e-01   1.191729e-02
  1.833574e+00    8.589560e-01   1.175714e-02
  1.835784e+00    8.475364e-01   1.166748e-02
  1.837994e+00    8.878412e-01   1.192990e-02
  1.840205e+00    8.954687e-01   1.196974e-02
  1.842415e+00    8.878267e-01   1.190670e-02
  1.844626e+00    8.780354e-01   1.182924e-02
  1.846836e+00    8.632891e-01   1.171809e-02
  1.849047e+00    8.740429e-01   1.177919e-02
  1.851257e+00    8.734811e-01   1.176576e-02
  1.853468e+00    8.721728e-01   1.174811e-02
  1.855678e+00    8.629359e-01   1.167683e-02
  1.857889e+00    9.065037e-01   1.195921e-02
  1.860099e+00    1.020333e+00   1.267844e-02
  1.862309e+00    9.873244e-01   1.246264e-02
  1.864520e+00    9.014367e-01   1.189940e-02
  1.866730e+00    8.915465e-01   1.182435e-02
  1.868941e+00    8.724096e-01   1.168569e-02
  1.871151e+00    8.816940e-01   1.173610e-02
  1.873362e+00    8.953170e-01   1.181478e-02
  1.875572e+00    9.036524e-01   1.185838e-02
  1.877783e+00    8.880745e-01   1.174405e-02
  1.879993e+00    8.575558e-01   1.152925e-02
  1.882204e+00    8.506241e-01   1.147162e-02
  1.884414e+00    8.411953e-01   1.139682e-02
  1.886624e+00    8.324776e-01   1.132661e-02
  1.888835e+00    8.343709e-01   1.132854e-02
  1.891045e+00    8.382724e-01   1.134414e-02
  1.893256e+00    8.352091e-01   1.131230e-02
  1.895466e+00    8.465586e-01   1.137770e-02
  1.897677e+00    8.293352e-01   1.125047e-02
  1.899887e+00    8.261564e-01   1.121797e-02
  1.902098e+00    8.214959e-01   1.117550e-02
  1.904308e+00    8.208774e-01   1.116077e-02
  1.906519e+00    8.130377e-01   1.109663e-02
  1.908729e+00    8.233533e-01   1.115622e-02
  1.910940e+00    8.132743e-01   1.107670e-02
  1.913150e+00    8.161293e-01   1.108560e-02
  1.915360e+00    8.271720e-01   1.114970e-02
  1.917571e+00    8.225768e-01   1.110783e-02
  1.919781e+00    8.370284e-01   1.119417e-02
  1.921992e+00    8.382031e-01   1.119132e-02
  1.924202e+00    8.210728e-01   1.106556e-02
  1.926413e+00    8.248605e-01   1.108072e-02
  1.928623e+00    8.107058e-01   1.097471e-02
  1.930834e+00    8.053141e-01   1.092777e-02
  1.933044e+00    8.251036e-01   1.105046e-02
  1.935255e+00    8.184494e-01   1.099544e-02
  1.937465e+00    8.155754e-01   1.096567e-02
  1.939675e+00    7.858260e-01   1.075311e-02
  1.941886e+00    7.911608e-01   1.077935e-02
  1.944096e+00    8.067835e-01   1.087505e-02
  1.946307e+00    8.121769e-01   1.090095e-02
  1.948517e+00    8.030461e-01   1.082903e-02
  1.950728e+00    7.889317e-01   1.072326e-02
  1.952938e+00    7.875030e-01   1.070352e-02
  1.955149e+00    7.793581e-01   1.063790e-02
  1.957359e+00    7.750117e-01   1.059829e-02
  1.959570e+00    7.889385e-01   1.068223e-02
  1.961780e+00    8.167323e-01   1.085874e-02
  1.963990e+00    7.909853e-01   1.067610e-02
  1.966201e+00    7.937010e-01   1.068431e-02
  1.968411e+00    7.848393e-01   1.061439e-02
  1.970622e+00    7.879648e-01   1.062542e-02
  1.972832e+00    7.688761e-01   1.048606e-02
  1.975043e+00    7.946925e-01   1.065054e-02
  1.977253e+00    8.068666e-01   1.072174e-02
  1.979464e+00    8.052608e-01   1.070088e-02
  1.981674e+00    8.062501e-01   1.069705e-02
  1.983885e+00    7.935591e-01   1.060243e-02
  1.986095e+00    7.965410e-01   1.061252e-02
  1.988305e+00    8.132753e-01   1.071331e-02
  1.990516e+00    8.100892e-01   1.068220e-02
  1.992726e+00    7.765451e-01   1.044903e-02
  1.994937e+00    7.780854e-01   1.044926e-02
  1.997147e+00    7.889616e-01   1.051221e-02
  1.999358e+00    7.948176e-01   1.054119e-02
  2.001568e+00    7.847141e-01   1.046308e-02
  2.003779e+00    7.842816e-01   1.044819e-02
  2.005989e+00    7.607427e-01   1.027828e-02
  2.008200e+00    7.650117e-01   1.029557e-02
  2.010410e+00    7.722299e-01   1.033227e-02
  2.012621e+00    7.683986e-01   1.029489e-02
  2.014831e+00    7.870786e-01   1.040765e-02
  2.017041e+00    7.838933e-01   1.037610e-02
  2.019252e+00    7.523006e-01   1.015499e-02
  2.021462e+00    7.653031e-01   1.023283e-02
  2.023673e+00    7.816908e-01   1.033233e-02
  2.025883e+00    7.831748e-01   1.033249e-02
  2.028094e+00    7.906380e-01   1.037178e-02
  2.030304e+00    7.727441e-01   1.024416e-02
  2.032515e+00    7.682987e-01   1.020528e-02
  2.034725e+00    7.590059e-01   1.013395e-02
  2.036936e+00    7.440298e-01   1.002422e-02
  2.039146e+00    7.590466e-01   1.011529e-02
  2.041356e+00    7.623085e-01   1.012731e-02
  2.043567e+00    7.858871e-01   1.027326e-02
  2.045777e+00    7.648665e-01   1.012563e-02
  2.047988e+00    7.595509e-01   1.008098e-02
  2.050198e+00    7.570980e-01   1.005623e-02
  2.052409e+00    7.760202e-01   1.017337e-02
  2.054619e+00    7.607386e-01   1.006528e-02
  2.056830e+00    7.643314e-01   1.008177e-02
  2.059040e+00    7.850317e-01   1.020970e-02
  2.061251e+00    7.766630e-01   1.014779e-02
  2.063461e+00    7.452968e-01   9.933159e-03
  2.065671e+00    7.535595e-01   9.979331e-03
  2.067882e+00    7.525756e-01   9.963769e-03
  2.070092e+00    7.773048e-01   1.011679e-02
  2.072303e+00    7.563172e-01   9.970081e-03
  2.074513e+00    7.571131e-01   9.965907e-03
  2.076724e+00    7.582071e-01   9.963585e-03
  2.078934e+00    7.567737e-01   9.945055e-03
  2.081145e+00    7.517402e-01   9.902802e-03
  2.083355e+00    7.682620e-01   1.000169e-02
  2.085566e+00    7.687697e-01   9.995931e-03
  2.087776e+00    7.561375e-01   9.903853e-03
  2.089986e+00    7.324629e-01   9.738827e-03
  2.092197e+00    7.439097e-01   9.805612e-03
  2.094407e+00    7.425446e-01   9.787378e-03
  2.096618e+00    7.283562e-01   9.684533e-03
  2.098828e+00    7.432494e-01   9.773688e-03
  2.101039e+00    7.442186e-01   9.771015e-03
  2.103249e+00    7.326317e-01   9.685976e-03
  2.105460e+00    7.375677e-01   9.709491e-03
  2.107670e+00    7.197099e-01   9.582545e-03
  2.109881e+00    7.206402e-01   9.579604e-03
  2.112091e+00    7.369819e-01   9.678560e-03
  2.114301e+00    7.384127e-01   9.679082e-03
  2.116512e+00    7.593527e-01   9.806364e-03
  2.118722e+00    7.316806e-01   9.617145e-03
  2.120933e+00    7.094949e-01   9.461431e-03
  2.123143e+00    7.084530e-01   9.445614e-03
  2.125354e+00    7.152466e-01   9.482294e-03
  2.127564e+00    7.167158e-01   9.483285e-03
  2.129775e+00    7.162504e-01   9.471495e-03
  2.131985e+00    7.112511e-01   9.429322e-03
  2.134196e+00    7.228769e-01   9.497430e-03
  2.136406e+00    7.193647e-01   9.465558e-03
  2.138617e+00    7.238002e-01   9.486144e-03
  2.140827e+00    7.082388e-01   9.399692e-03
  2.143037e+00    7.018250e-01   9.402317e-03
  2.145248e+00    7.027016e-01   9.430149e-03
  2.147458e+00    6.968991e-01   9.406177e-03
  2.149669e+00    7.243949e-01   9.601979e-03
  2.151879e+00    7.170286e-01   9.562362e-03
  2.154090e+00    7.149196e-01   9.555671e-03
  2.156300e+00    7.159771e-01   9.569420e-03
  2.158511e+00    6.829093e-01   9.351062e-03
  2.160721e+00    6.824008e-01   9.352336e-03
  2.162932e+00    6.891706e-01   9.402324e-03
  2.165142e+00    6.891366e-01   9.405104e-03
  2.167352e+00    6.977026e-01   9.466274e-03
  2.169563e+00    7.045132e-01   9.514350e-03
  2.171773e+00    6.858171e-01   9.389685e-03
  2.173984e+00    7.023780e-01   9.503799e-03
  2.176194e+00    6.827148e-01   9.371028e-03
  2.178405e+00    6.761879e-01   9.326803e-03
  2.180615e+00    6.769900e-01   9.332997e-03
  2.182826e+00    6.985418e-01   9.481083e-03
  2.185036e+00    6.878742e-01   9.408471e-03
  2.187247e+00    6.898587e-01   9.421960e-03
  2.189457e+00    6.807011e-01   9.358834e-03
  2.191667e+00    6.832954e-01   9.376463e-03
  2.193878e+00    6.838048e-01   9.379390e-03
  2.196088e+00    6.922966e-01   9.436758e-03
  2.198299e+00    6.910621e-01   9.427270e-03
  2.200509e+00    6.832330e-01   9.372633e-03
  2.202720e+00    6.989478e-01   9.478651e-03
  2.204930e+00    6.926154e-01   9.434379e-03
  2.207141e+00    6.974918e-01   9.466392e-03
  2.209351e+00    6.809613e-01   9.351672e-03
  2.211562e+00    6.856397e-01   9.382089e-03
  2.213772e+00    6.858828e-01   9.327922e-03
  2.215982e+00    6.721300e-01   9.189837e-03
  2.218193e+00    6.751666e-01   9.180955e-03
  2.220403e+00    6.805027e-01   9.192465e-03
  2.222614e+00    6.825712e-01   9.185347e-03
  2.224824e+00    6.763200e-01   9.123758e-03
  2.227035e+00    6.861114e-01   9.171962e-03
  2.229245e+00    6.886729e-01   9.171869e-03
  2.231456e+00    6.897506e-01   9.163235e-03
  2.233666e+00    6.714891e-01   9.026020e-03
  2.235877e+00    6.707453e-01   9.006718e-03
  2.238087e+00    6.793085e-01   9.050493e-03
  2.240298e+00    6.830145e-01   9.061208e-03
  2.242508e+00    6.694005e-01   8.955346e-03
  2.244718e+00    6.693296e-01   8.939033e-03
  2.246929e+00    6.809740e-01   9.001899e-03
  2.249139e+00    6.583582e-01   8.838888e-03
  2.251350e+00    6.544057e-01   8.800671e-03
  2.253560e+00    6.775288e-01   8.943170e-03
  2.255771e+00    6.635627e-01   8.839129e-03
  2.257981e+00    6.633354e-01   8.826450e-03
  2.260192e+00    6.590159e-01   8.786598e-03
  2.262402e+00    6.455001e-01   8.685336e-03
  2.264613e+00    6.567960e-01   8.750210e-03
  2.266823e+00    6.588281e-01   8.753383e-03
  2.269033e+00    6.554427e-01   8.720533e-03
  2.271244e+00    6.463383e-01   8.649509e-03
  2.273454e+00    6.507692e-01   8.668914e-03
  2.275665e+00    6.609222e-01   8.725982e-03
  2.277875e+00    6.698746e-01   8.774896e-03
  2.280086e+00    6.671174e-01   8.746716e-03
  2.282296e+00    6.651609e-01   8.724447e-03
  2.284507e+00    6.654251e-01   8.715981e-03
  2.286717e+00    6.796153e-01   8.798809e-03
  2.288928e+00    6.651207e-01   8.694566e-03
  2.291138e+00    6.485932e-01   8.576486e-03
  2.293348e+00    6.480677e-01   8.563520e-03
  2.295559e+00    6.490295e-01   8.560604e-03
  2.297769e+00    6.470759e-01   8.538516e-03
  2.299980e+00    6.550531e-01   8.581644e-03
  2.302190e+00    6.473395e-01   8.521890e-03
  2.304401e+00    6.631342e-01   8.615808e-03
  2.306611e+00    6.622053e-01   8.600525e-03
  2.308822e+00    6.555957e-01   8.549077e-03
  2.311032e+00    6.358770e-01   8.413150e-03
  2.313243e+00    6.371863e-01   8.415592e-03
  2.315453e+00    6.357523e-01   8.398626e-03
  2.317663e+00    6.416383e-01   8.428320e-03
  2.319874e+00    6.420233e-01   8.422163e-03
  2.322084e+00    6.453107e-01   8.434724e-03
  2.324295e+00    6.468625e-01   8.436635e-03
  2.326505e+00    6.461778e-01   8.423101e-03
  2.328716e+00    6.522735e-01   8.454122e-03
  2.330926e+00    6.638557e-01   8.519919e-03
  2.333137e+00    6.513154e-01   8.430641e-03
  2.335347e+00    6.293820e-01   8.278682e-03
  2.337558e+00    6.422257e-01   8.354465e-03
  2.339768e+00    6.561307e-01   8.435760e-03
  2.341979e+00    6.320473e-01   8.271167e-03
  2.344189e+00    6.479083e-01   8.365834e-03
  2.346399e+00    6.381612e-01   8.294189e-03
  2.348610e+00    6.231112e-01   8.187396e-03
  2.350820e+00    6.398017e-01   8.288126e-03
  2.353031e+00    6.379505e-01   8.267815e-03
  2.355241e+00    6.428601e-01   8.291448e-03
  2.357452e+00    6.307232e-01   8.204425e-03
  2.359662e+00    6.298540e-01   8.190518e-03
  2.361873e+00    6.397566e-01   8.246381e-03
  2.364083e+00    6.361848e-01   8.215292e-03
  2.366294e+00    6.416467e-01   8.242278e-03
  2.368504e+00    6.275135e-01   8.142946e-03
  2.370714e+00    6.142004e-01   8.048079e-03
  2.372925e+00    6.259102e-01   8.116417e-03
  2.375135e+00    6.240460e-01   8.096239e-03
  2.377346e+00    6.218859e-01   8.074296e-03
  2.379556e+00    6.204252e-01   8.056932e-03
  2.381767e+00    6.019912e-01   7.928576e-03
  2.383977e+00    6.053575e-01   7.942889e-03
  2.386188e+00    6.187241e-01   8.022188e-03
  2.388398e+00    6.080859e-01   7.945034e-03
  2.390609e+00    6.218764e-01   8.026867e-03
  2.392819e+00    6.135173e-01   7.964986e-03
  2.395029e+00    6.013981e-01   7.878344e-03
  2.397240e+00    6.273702e-01   8.038706e-03
  2.399450e+00    6.139861e-01   7.944709e-03
  2.401661e+00    6.052088e-01   7.880071e-03
  2.403871e+00    6.133313e-01   7.924989e-03
  2.406082e+00    6.102515e-01   7.897657e-03
  2.408292e+00    6.035064e-01   7.846112e-03
  2.410503e+00    6.029896e-01   7.835305e-03
  2.412713e+00    6.185213e-01   7.927691e-03
  2.414924e+00    6.015328e-01   7.810629e-03
  2.417134e+00    6.014640e-01   7.802554e-03
  2.419344e+00    6.055592e-01   7.821636e-03
  2.421555e+00    6.019028e-01   7.790503e-03
  2.423765e+00    5.887367e-01   7.697491e-03
  2.425976e+00    5.899281e-01   7.697516e-03
  2.428186e+00    5.809598e-01   7.631689e-03
  2.430397e+00    5.790074e-01   7.611482e-03
  2.432607e+00    5.833512e-01   7.632771e-03
  2.434818e+00    5.920820e-01   7.682168e-03
  2.437028e+00    5.830079e-01   7.615984e-03
  2.439239e+00    5.944042e-01   7.682405e-03
  2.441449e+00    5.768330e-01   7.560903e-03
  2.443659e+00    5.739558e-01   7.534769e-03
  2.445870e+00    5.739097e-01   7.546558e-03
  2.448080e+00    5.743968e-01   7.584310e-03
  2.450291e+00    5.723618e-01   7.587390e-03
  2.452501e+00    5.747120e-01   7.614100e-03
  2.454712e+00    5.836414e-01   7.681533e-03
  2.456922e+00    5.688765e-01   7.590363e-03
  2.459133e+00    5.634772e-01   7.559663e-03
  2.461343e+00    5.634067e-01   7.563526e-03
  2.463554e+00    5.624331e-01   7.560458e-03
  2.465764e+00    5.490951e-01   7.473367e-03
  2.467975e+00    5.527493e-01   7.500463e-03
  2.470185e+00    5.548632e-01   7.517035e-03
  2.472395e+00    5.540999e-01   7.513092e-03
  2.474606e+00    5.433780e-01   7.441587e-03
  2.476816e+00    5.506797e-01   7.492156e-03
  2.479027e+00    5.434933e-01   7.443952e-03
  2.481237e+00    5.447125e-01   7.452573e-03
  2.483448e+00    5.479189e-01   7.474785e-03
  2.485658e+00    5.426033e-01   7.438280e-03
  2.487869e+00    5.393800e-01   7.416207e-03
  2.490079e+00    5.455676e-01   7.458087e-03
  2.492290e+00    5.457915e-01   7.459201e-03
  2.494500e+00    5.294511e-01   7.345955e-03
  2.496710e+00    5.376114e-01   7.401650e-03
  2.498921e+00    5.325432e-01   7.365698e-03
  2.501131e+00    5.401069e-01   7.416863e-03
  2.503342e+00    5.158888e-01   7.247448e-03
  2.505552e+00    5.152013e-01   7.241468e-03
  2.507763e+00    5.339692e-01   7.370770e-03
  2.509973e+00    5.381408e-01   7.398109e-03
  2.512184e+00    5.393429e-01   7.404737e-03
  2.514394e+00    5.300437e-01   7.331229e-03
  2.516605e+00    5.410767e-01   7.359427e-03
  2.518815e+00    5.306557e-01   7.259778e-03
  2.521025e+00    5.316887e-01   7.245734e-03
  2.523236e+00    5.218450e-01   7.160457e-03
  2.525446e+00    5.251654e-01   7.167556e-03
  2.527657e+00    5.343323e-01   7.215146e-03
  2.529867e+00    5.342571e-01   7.200328e-03
  2.532078e+00    5.259293e-01   7.128932e-03
  2.534288e+00    5.227581e-01   7.093559e-03
  2.536499e+00    5.315840e-01   7.141158e-03
  2.538709e+00    5.335029e-01   7.142957e-03
  2.540920e+00    5.262921e-01   7.083853e-03
  2.543130e+00    5.240540e-01   7.058406e-03
  2.545340e+00    5.206974e-01   7.025738e-03
  2.547551e+00    5.145174e-01   6.974046e-03
  2.549761e+00    5.148379e-01   6.966708e-03
  2.551972e+00    5.285620e-01   7.049538e-03
  2.554182e+00    5.112510e-01   6.924063e-03
  2.556393e+00    5.203022e-01   6.975980e-03
  2.558603e+00    5.108062e-01   6.903056e-03
  2.560814e+00    5.111031e-01   6.896414e-03
  2.563024e+00    5.180864e-01   6.934814e-03
  2.565235e+00    5.054815e-01   6.840534e-03
  2.567445e+00    5.243564e-01   6.957493e-03
  2.569656e+00    5.168999e-01   6.898103e-03
  2.571866e+00    5.183201e-01   6.898210e-03
  2.574076e+00    5.186708e-01   6.891263e-03
  2.576287e+00    5.129485e-01   6.844849e-03
  2.578497e+00    5.085883e-01   6.807901e-03
  2.580708e+00    5.141006e-01   6.836610e-03
  2.582918e+00    5.152552e-01   6.836537e-03
  2.585129e+00    5.089950e-01   6.787161e-03
  2.587339e+00    5.099611e-01   6.785949e-03
  2.589550e+00    5.216267e-01   6.855506e-03
  2.591760e+00    5.147076e-01   6.802141e-03
  2.593971e+00    5.168845e-01   6.808941e-03
  2.596181e+00    5.050838e-01   6.724586e-03
  2.598391e+00    5.054529e-01   6.721873e-03
  2.600602e+00    5.149056e-01   6.778497e-03
  2.602812e+00    5.157595e-01   6.776530e-03
  2.605023e+00    5.135879e-01   6.755048e-03
  2.607233e+00    5.089509e-01   6.717341e-03
  2.609444e+00    5.125505e-01   6.733780e-03
  2.611654e+00    5.141487e-01   6.736901e-03
  2.613865e+00    5.130630e-01   6.722709e-03
  2.616075e+00    4.982991e-01   6.618186e-03
  2.618286e+00    5.131120e-01   6.708778e-03
  2.620496e+00    5.075070e-01   6.665340e-03
  2.622706e+00    4.942895e-01   6.572284e-03
  2.624917e+00    5.006845e-01   6.608824e-03
  2.627127e+00    4.980251e-01   6.585553e-03
  2.629338e+00    5.022154e-01   6.607228e-03
  2.631548e+00    4.974136e-01   6.569437e-03
  2.633759e+00    5.002987e-01   6.581321e-03
  2.635969e+00    5.103581e-01   6.640417e-03
  2.638180e+00    5.071870e-01   6.612739e-03
  2.640390e+00    4.901194e-01   6.493989e-03
  2.642601e+00    4.949498e-01   6.519281e-03
  2.644811e+00    4.947054e-01   6.510635e-03
  2.647021e+00    5.014141e-01   6.548060e-03
  2.649232e+00    4.976275e-01   6.516590e-03
  2.651442e+00    4.973128e-01   6.508021e-03
  2.653653e+00    5.006950e-01   6.523332e-03
  2.655863e+00    4.848883e-01   6.412930e-03
  2.658074e+00    5.002025e-01   6.506784e-03
  2.660284e+00    5.027668e-01   6.517057e-03
  2.662495e+00    5.005693e-01   6.496029e-03
  2.664705e+00    5.046875e-01   6.516065e-03
  2.666916e+00    5.070953e-01   6.525056e-03
  2.669126e+00    5.004060e-01   6.475403e-03
  2.671337e+00    5.115883e-01   6.540657e-03
  2.673547e+00    4.951961e-01   6.428652e-03
  2.675757e+00    4.956261e-01   6.424969e-03
  2.677968e+00    4.961666e-01   6.421946e-03
  2.680178e+00    4.831218e-01   6.330629e-03
  2.682389e+00    4.886076e-01   6.360112e-03
  2.684599e+00    4.860855e-01   6.337508e-03
  2.686810e+00    4.937176e-01   6.380473e-03
  2.689020e+00    4.916831e-01   6.361021e-03
  2.691231e+00    4.859083e-01   6.317293e-03
  2.693441e+00    4.781943e-01   6.260875e-03
  2.695652e+00    4.909087e-01   6.337049e-03
  2.697862e+00    4.978299e-01   6.375159e-03
  2.700072e+00    5.009593e-01   6.389037e-03
  2.702283e+00    4.870075e-01   6.293229e-03
  2.704493e+00    4.910711e-01   6.313129e-03
  2.706704e+00    4.840633e-01   6.261547e-03
  2.708914e+00    4.782938e-01   6.218211e-03
  2.711125e+00    4.815104e-01   6.232875e-03
  2.713335e+00    4.979520e-01   6.332241e-03
  2.715546e+00    4.932510e-01   6.295782e-03
  2.717756e+00    4.810627e-01   6.211661e-03
  2.719967e+00    4.780818e-01   6.186222e-03
  2.722177e+00    4.843624e-01   6.220586e-03
  2.724387e+00    4.917836e-01   6.261944e-03
  2.726598e+00    4.781771e-01   6.168689e-03
  2.728808e+00    4.768487e-01   6.154007e-03
  2.731019e+00    4.906216e-01   6.236088e-03
  2.733229e+00    4.938969e-01   6.251017e-03
  2.735440e+00    4.717426e-01   6.103022e-03
  2.737650e+00    4.824127e-01   6.165635e-03
  2.739861e+00    4.866564e-01   6.186618e-03
  2.742071e+00    4.888471e-01   6.194740e-03
  2.744282e+00    4.968555e-01   6.238941e-03
  2.746492e+00    4.796532e-01   6.123977e-03
  2.748702e+00    4.854686e-01   6.155049e-03
  2.750913e+00    4.773166e-01   6.097397e-03
  2.753123e+00    4.777819e-01   6.094272e-03
  2.755334e+00    4.802395e-01   6.103843e-03
  2.757544e+00    4.825930e-01   6.113043e-03
  2.759755e+00    4.755462e-01   6.062394e-03
  2.761965e+00    4.740728e-01   6.047057e-03
  2.764176e+00    4.687631e-01   6.007162e-03
  2.766386e+00    4.794297e-01   6.069343e-03
  2.768597e+00    4.831728e-01   6.087110e-03
  2.770807e+00    4.812792e-01   6.069279e-03
  2.773017e+00    4.820466e-01   6.068124e-03
  2.775228e+00    4.839315e-01   6.074164e-03
  2.777438e+00    4.725069e-01   5.996271e-03
  2.779649e+00    4.719784e-01   5.987056e-03
  2.781859e+00    4.851414e-01   6.064156e-03
  2.784070e+00    4.812562e-01   6.033942e-03
  2.786280e+00    4.816625e-01   6.030704e-03
  2.788491e+00    4.741551e-01   5.977698e-03
  2.790701e+00    4.671668e-01   5.927893e-03
  2.792912e+00    4.839246e-01   6.027246e-03
  2.795122e+00    4.773749e-01   5.980613e-03
  2.797333e+00    4.634299e-01   5.887088e-03
  2.799543e+00    4.820596e-01   5.998369e-03
  2.801753e+00    4.781454e-01   5.968092e-03
  2.803964e+00    4.730364e-01   5.930477e-03
  2.806174e+00    4.760762e-01   5.943340e-03
  2.808385e+00    4.717579e-01   5.909556e-03
  2.810595e+00    4.768360e-01   5.934393e-03
  2.812806e+00    4.766912e-01   5.926860e-03
  2.815016e+00    4.781552e-01   5.931205e-03
  2.817227e+00    4.663097e-01   5.882984e-03
  2.819437e+00    4.734286e-01   5.938804e-03
  2.821648e+00    4.665381e-01   5.897688e-03
  2.823858e+00    4.910819e-01   6.056267e-03
  2.826068e+00    4.864068e-01   6.032441e-03
  2.828279e+00    4.726624e-01   5.950633e-03
  2.830489e+00    4.703511e-01   5.939393e-03
  2.832700e+00    4.760640e-01   5.977923e-03
  2.834910e+00    4.771832e-01   5.987015e-03
  2.837121e+00    4.785607e-01   5.997387e-03
  2.839331e+00    4.701665e-01   5.945778e-03
  2.841542e+00    4.739678e-01   5.970783e-03
  2.843752e+00    4.629883e-01   5.902012e-03
  2.845963e+00    4.558758e-01   5.856879e-03
  2.848173e+00    4.618174e-01   5.895010e-03
  2.850383e+00    4.712125e-01   5.954963e-03
  2.852594e+00    4.754342e-01   5.981514e-03
  2.854804e+00    4.717977e-01   5.958076e-03
  2.857015e+00    4.890395e-01   6.065520e-03
  2.859225e+00    4.878464e-01   6.057878e-03
  2.861436e+00    4.746371e-01   5.974633e-03
  2.863646e+00    4.751658e-01   5.978000e-03
  2.865857e+00    4.691520e-01   5.940386e-03
  2.868067e+00    4.757479e-01   5.982230e-03
  2.870278e+00    4.586367e-01   5.873316e-03
  2.872488e+00    4.728598e-01   5.962496e-03
  2.874698e+00    4.592836e-01   5.875275e-03
  2.876909e+00    4.614582e-01   5.887807e-03
  2.879119e+00    4.608927e-01   5.882603e-03
  2.881330e+00    4.684584e-01   5.929199e-03
  2.883540e+00    4.670658e-01   5.918978e-03
  2.885751e+00    4.646719e-01   5.902154e-03
  2.887961e+00    4.670978e-01   5.915643e-03
  2.890172e+00    4.667666e-01   5.911930e-03
  2.892382e+00    4.635482e-01   5.889699e-03
  2.894593e+00    4.703499e-01   5.930919e-03
  2.896803e+00    4.687756e-01   5.919001e-03
  2.899014e+00    4.526676e-01   5.814512e-03
  2.901224e+00    4.511080e-01   5.802511e-03
  2.903434e+00    4.547670e-01   5.824072e-03
  2.905645e+00    4.520051e-01   5.804141e-03
  2.907855e+00    4.637858e-01   5.877182e-03
  2.910066e+00    4.720698e-01   5.927341e-03
  2.912276e+00    4.595999e-01   5.846412e-03
  2.914487e+00    4.564678e-01   5.824002e-03
  2.916697e+00    4.511227e-01   5.787590e-03
  2.918908e+00    4.518827e-01   5.790481e-03
  2.921118e+00    4.536958e-01   5.799393e-03
  2.923329e+00    4.625302e-01   5.853268e-03
  2.925539e+00    4.527956e-01   5.789080e-03
  2.927749e+00    4.481278e-01   5.756863e-03
  2.929960e+00    4.434395e-01   5.723945e-03
  2.932170e+00    4.375578e-01   5.683579e-03
  2.934381e+00    4.464337e-01   5.738508e-03
  2.936591e+00    4.533029e-01   5.779917e-03
  2.938802e+00    4.584768e-01   5.810108e-03
  2.941012e+00    4.577501e-01   5.803155e-03
  2.943223e+00    4.564599e-01   5.792268e-03
  2.945433e+00    4.590808e-01   5.805136e-03
  2.947644e+00    4.638322e-01   5.830916e-03
  2.949854e+00    4.561871e-01   5.778405e-03
  2.952064e+00    4.455379e-01   5.706375e-03
  2.954275e+00    4.519589e-01   5.742941e-03
  2.956485e+00    4.591120e-01   5.784016e-03
  2.958696e+00    4.547705e-01   5.752224e-03
  2.960906e+00    4.560788e-01   5.756299e-03
  2.963117e+00    4.562952e-01   5.753192e-03
  2.965327e+00    4.513770e-01   5.718191e-03
  2.967538e+00    4.758610e-01   5.868256e-03
  2.969748e+00    4.636655e-01   5.789733e-03
  2.971959e+00    4.710570e-01   5.832502e-03
  2.974169e+00    4.603644e-01   5.763324e-03
  2.976379e+00    4.665329e-01   5.798854e-03
  2.978590e+00    4.560096e-01   5.729935e-03
  2.980800e+00    4.664774e-01   5.792486e-03
  2.983011e+00    4.541702e-01   5.712782e-03
  2.985221e+00    4.494291e-01   5.679731e-03
  2.987432e+00    4.553064e-01   5.713634e-03
  2.989642e+00    4.632887e-01   5.760862e-03
  2.991853e+00    4.520730e-01   5.687426e-03
  2.994063e+00    4.580211e-01   5.721787e-03
  2.996274e+00    4.565192e-01   5.709220e-03
  2.998484e+00    4.462572e-01   5.642003e-03
  3.000694e+00    4.556580e-01   5.697657e-03
  3.002905e+00    4.593255e-01   5.717593e-03
  3.005115e+00    4.478593e-01   5.642813e-03
  3.007326e+00    4.466628e-01   5.632137e-03
  3.009536e+00    4.398286e-01   5.585682e-03
  3.011747e+00    4.491066e-01   5.641368e-03
  3.013957e+00    4.670411e-01   5.749695e-03
  3.016168e+00    4.539916e-01   5.665538e-03
  3.018378e+00    4.572078e-01   5.682508e-03
  3.020589e+00    4.660899e-01   5.734180e-03
  3.022799e+00    4.509810e-01   5.637331e-03
  3.025010e+00    4.425816e-01   5.581378e-03
  3.027220e+00    4.505182e-01   5.628077e-03
  3.029430e+00    4.619286e-01   5.695648e-03
  3.031641e+00    4.604296e-01   5.683213e-03
  3.033851e+00    4.520523e-01   5.627770e-03
  3.036062e+00    4.516804e-01   5.622673e-03
  3.038272e+00    4.445367e-01   5.574476e-03
  3.040483e+00    4.540267e-01   5.630430e-03
  3.042693e+00    4.508098e-01   5.607192e-03
  3.044904e+00    4.581610e-01   5.648670e-03
  3.047114e+00    4.517306e-01   5.604082e-03
  3.049325e+00    4.503441e-01   5.591081e-03
  3.051535e+00    4.548170e-01   5.614359e-03
  3.053745e+00    4.516367e-01   5.589946e-03
  3.055956e+00    4.504757e-01   5.578194e-03
  3.058166e+00    4.383890e-01   5.498638e-03
  3.060377e+00    4.312031e-01   5.448713e-03
  3.062587e+00    4.485227e-01   5.552443e-03
  3.064798e+00    4.408567e-01   5.500576e-03
  3.067008e+00    4.478994e-01   5.539615e-03
  3.069219e+00    4.463137e-01   5.525309e-03
  3.071429e+00    4.451087e-01   5.514360e-03
  3.073640e+00    4.382524e-01   5.468422e-03
  3.075850e+00    4.487802e-01   5.530141e-03
  3.078060e+00    4.479882e-01   5.522154e-03
  3.080271e+00    4.440528e-01   5.494388e-03
  3.082481e+00    4.400604e-01   5.466226e-03
  3.084692e+00    4.362509e-01   5.439177e-03
  3.086902e+00    4.470186e-01   5.502656e-03
  3.089113e+00    4.410986e-01   5.462554e-03
  3.091323e+00    4.439748e-01   5.476980e-03
  3.093534e+00    4.535544e-01   5.532342e-03
  3.095744e+00    4.488471e-01   5.500202e-03
  3.097955e+00    4.392655e-01   5.437653e-03
  3.100165e+00    4.414878e-01   5.448088e-03
  3.102375e+00    4.381374e-01   5.423970e-03
  3.104586e+00    4.440126e-01   5.456748e-03
  3.106796e+00    4.513856e-01   5.498311e-03
  3.109007e+00    4.562931e-01   5.524881e-03
  3.111217e+00    4.617766e-01   5.554215e-03
  3.113428e+00    4.483657e-01   5.469572e-03
  3.115638e+00    4.361020e-01   5.391019e-03
  3.117849e+00    4.460796e-01   5.448616e-03
  3.120059e+00    4.627105e-01   5.545732e-03
  3.122270e+00    4.448657e-01   5.434495e-03
  3.124480e+00    4.365044e-01   5.379519e-03
  3.126691e+00    4.480683e-01   5.446738e-03
  3.128901e+00    4.490841e-01   5.449757e-03
  3.131111e+00    4.643073e-01   5.537453e-03
  3.133322e+00    4.405821e-01   5.390687e-03
  3.135532e+00    4.482131e-01   5.433740e-03
  3.137743e+00    4.515370e-01   5.450339e-03
  3.139953e+00    4.469315e-01   5.418797e-03
  3.142164e+00    4.457737e-01   5.423812e-03
  3.144374e+00    4.342241e-01   5.381242e-03
  3.146585e+00    4.304838e-01   5.372363e-03
  3.148795e+00    4.512835e-01   5.511506e-03
  3.151006e+00    4.461959e-01   5.488952e-03
  3.153216e+00    4.503603e-01   5.521704e-03
  3.155426e+00    4.343395e-01   5.428880e-03
  3.157637e+00    4.334206e-01   5.428589e-03
  3.159847e+00    4.428971e-01   5.492518e-03
  3.162058e+00    4.387288e-01   5.471023e-03
  3.164268e+00    4.490362e-01   5.539026e-03
  3.166479e+00    4.387137e-01   5.478642e-03
  3.168689e+00    4.452293e-01   5.522568e-03
  3.170900e+00    4.376554e-01   5.478553e-03
  3.173110e+00    4.316675e-01   5.443791e-03
  3.175321e+00    4.375101e-01   5.483002e-03
  3.177531e+00    4.439109e-01   5.525709e-03
  3.179741e+00    4.471201e-01   5.547768e-03
  3.181952e+00    4.384526e-01   5.495836e-03
  3.184162e+00    4.315266e-01   5.454435e-03
  3.186373e+00    4.265895e-01   5.424718e-03
  3.188583e+00    4.275461e-01   5.432560e-03
  3.190794e+00    4.358155e-01   5.486607e-03
  3.193004e+00    4.256934e-01   5.423746e-03
  3.195215e+00    4.272604e-01   5.435194e-03
  3.197425e+00    4.308126e-01   5.458955e-03
  3.199636e+00    4.200880e-01   5.389831e-03
  3.201846e+00    4.187504e-01   5.380641e-03
  3.204056e+00    4.291420e-01   5.447864e-03
  3.206267e+00    4.231282e-01   5.410418e-03
  3.208477e+00    4.250868e-01   5.423834e-03
  3.210688e+00    4.408962e-01   5.524600e-03
  3.212898e+00    4.368193e-01   5.499607e-03
  3.215109e+00    4.241967e-01   5.420309e-03
  3.217319e+00    4.250360e-01   5.426289e-03
  3.219530e+00    4.251325e-01   5.427288e-03
  3.221740e+00    4.308642e-01   5.464320e-03
  3.223951e+00    4.422789e-01   5.536703e-03
  3.226161e+00    4.452562e-01   5.555502e-03
  3.228372e+00    4.284973e-01   5.450483e-03
  3.230582e+00    4.315963e-01   5.470292e-03
  3.232792e+00    4.260570e-01   5.435301e-03
  3.235003e+00    4.285526e-01   5.451438e-03
  3.237213e+00    4.356932e-01   5.496756e-03
  3.239424e+00    4.369388e-01   5.504635e-03
  3.241634e+00    4.200608e-01   5.397383e-03
  3.243845e+00    4.256120e-01   5.432986e-03
  3.246055e+00    4.244300e-01   5.425186e-03
  3.248266e+00    4.351144e-01   5.493243e-03
  3.250476e+00    4.291665e-01   5.455252e-03
  3.252687e+00    4.273978e-01   5.443946e-03
  3.254897e+00    4.217254e-01   5.407546e-03
  3.257107e+00    4.286107e-01   5.451234e-03
  3.259318e+00    4.238987e-01   5.420930e-03
  3.261528e+00    4.256831e-01   5.432192e-03
  3.263739e+00    4.108708e-01   5.336303e-03
  3.265949e+00    4.170353e-01   5.376055e-03
  3.268160e+00    4.195356e-01   5.391729e-03
  3.270370e+00    4.255258e-01   5.429582e-03
  3.272581e+00    4.266145e-01   5.436255e-03
  3.274791e+00    4.349557e-01   5.488595e-03
  3.277002e+00    4.342819e-01   5.483768e-03
  3.279212e+00    4.307848e-01   5.461283e-03
  3.281422e+00    4.231047e-01   5.411806e-03
  3.283633e+00    4.205053e-01   5.394448e-03
  3.285843e+00    4.361555e-01   5.493609e-03
  3.288054e+00    4.260258e-01   5.428483e-03
  3.290264e+00    4.213066e-01   5.398022e-03
  3.292475e+00    4.214674e-01   5.398222e-03
  3.294685e+00    4.273432e-01   5.435068e-03
  3.296896e+00    4.260589e-01   5.426161e-03
  3.299106e+00    4.242218e-01   5.413883e-03
  3.301317e+00    4.201730e-01   5.386968e-03
  3.303527e+00    4.230478e-01   5.404886e-03
  3.305737e+00    4.238666e-01   5.409071e-03
  3.307948e+00    4.196007e-01   5.381125e-03
  3.310158e+00    4.257763e-01   5.419721e-03
  3.312369e+00    4.245238e-01   5.410867e-03
  3.314579e+00    4.315469e-01   5.454508e-03
  3.316790e+00    4.379785e-01   5.494291e-03
  3.319000e+00    4.276106e-01   5.427686e-03
  3.321211e+00    4.214776e-01   5.388006e-03
  3.323421e+00    4.243944e-01   5.405416e-03
  3.325632e+00    4.227454e-01   5.394015e-03
  3.327842e+00    4.247954e-01   5.406146e-03
  3.330052e+00    4.291155e-01   5.432504e-03
  3.332263e+00    4.196915e-01   5.371494e-03
  3.334473e+00    4.301929e-01   5.437371e-03
  3.336684e+00    4.225400e-01   5.387530e-03
  3.338894e+00    4.170577e-01   5.351616e-03
  3.341105e+00    4.289043e-01   5.425863e-03
  3.343315e+00    4.245423e-01   5.397067e-03
  3.345526e+00    4.278246e-01   5.416993e-03
  3.347736e+00    4.181031e-01   5.353665e-03
  3.349947e+00    4.179693e-01   5.351905e-03
  3.352157e+00    4.112483e-01   5.307516e-03
  3.354368e+00    4.172570e-01   5.344877e-03
  3.356578e+00    4.190246e-01   5.355143e-03
  3.358788e+00    4.193962e-01   5.356213e-03
  3.360999e+00    4.177110e-01   5.344167e-03
  3.363209e+00    4.233114e-01   5.378868e-03
  3.365420e+00    4.205070e-01   5.359515e-03
  3.367630e+00    4.135804e-01   5.314151e-03
  3.369841e+00    4.253799e-01   5.387993e-03
  3.372051e+00    4.221737e-01   5.365672e-03
  3.374262e+00    4.219093e-01   5.361528e-03
  3.376472e+00    4.244000e-01   5.374860e-03
  3.378683e+00    4.213936e-01   5.353284e-03
  3.380893e+00    4.024192e-01   5.229063e-03
  3.383103e+00    4.029196e-01   5.229637e-03
  3.385314e+00    4.162764e-01   5.313398e-03
  3.387524e+00    4.186260e-01   5.325612e-03
  3.389735e+00    4.128644e-01   5.286224e-03
  3.391945e+00    4.144306e-01   5.292553e-03
  3.394156e+00    4.062475e-01   5.235859e-03
  3.396366e+00    4.044841e-01   5.221108e-03
  3.398577e+00    4.008517e-01   5.194598e-03
  3.400787e+00    4.156818e-01   5.301793e-03
  3.402998e+00    4.057944e-01   5.276247e-03
  3.405208e+00    3.915930e-01   5.203398e-03
  3.407418e+00    4.033948e-01   5.297034e-03
  3.409629e+00    3.894961e-01   5.218768e-03
  3.411839e+00    3.907549e-01   5.238835e-03
  3.414050e+00    4.035921e-01   5.335247e-03
  3.416260e+00    3.947285e-01   5.286027e-03
  3.418471e+00    3.886220e-01   5.254309e-03
  3.420681e+00    3.948641e-01   5.304865e-03
  3.422892e+00    3.955964e-01   5.317830e-03
  3.425102e+00    4.051759e-01   5.389816e-03
  3.427313e+00    3.767565e-01   5.204417e-03
  3.429523e+00    3.639102e-01   5.121787e-03
  3.431733e+00    3.675469e-01   5.153804e-03
  3.433944e+00    3.698251e-01   5.176119e-03
  3.436154e+00    3.769028e-01   5.231580e-03
  3.438365e+00    3.930641e-01   5.348611e-03
  3.440575e+00    3.670583e-01   5.174455e-03
  3.442786e+00    3.726747e-01   5.219479e-03
  3.444996e+00    3.633544e-01   5.159168e-03
  3.447207e+00    3.644135e-01   5.171905e-03
  3.449417e+00    3.672741e-01   5.232743e-03
  3.451628e+00    3.748467e-01   5.316090e-03
  3.453838e+00    3.777222e-01   5.357894e-03
  3.456049e+00    3.696444e-01   5.324305e-03
  3.458259e+00    3.675036e-01   5.330799e-03
  3.460469e+00    3.657283e-01   5.337692e-03
  3.462680e+00    3.828262e-01   5.480499e-03
  3.464890e+00    3.734891e-01   5.431242e-03
  3.467101e+00    3.725828e-01   5.442246e-03
  3.469311e+00    3.850851e-01   5.549636e-03
  3.471522e+00    3.886555e-01   5.592045e-03
  3.473732e+00    3.854370e-01   5.584911e-03
  3.475943e+00    3.944424e-01   5.665701e-03
  3.478153e+00    4.096751e-01   5.789961e-03
  3.480364e+00    4.115922e-01   5.818971e-03
  3.482574e+00    4.201505e-01   5.894807e-03
  3.484784e+00    4.365018e-01   6.023757e-03
  3.486995e+00    4.177924e-01   5.908406e-03
  3.489205e+00    4.422337e-01   6.093712e-03
  3.491416e+00    4.404298e-01   6.096489e-03
  3.493626e+00    4.305840e-01   6.042416e-03
  3.495837e+00    4.478984e-01   6.177592e-03
  3.498047e+00    4.709702e-01   6.349633e-03
  3.500258e+00    4.631572e-01   6.311512e-03
  3.502468e+00    4.523232e-01   6.251647e-03
  3.504679e+00    4.629349e-01   6.339055e-03
  3.506889e+00    4.675921e-01   6.385367e-03
  3.509099e+00    4.606984e-01   6.352290e-03
  3.511310e+00    4.733759e-01   6.453513e-03
  3.513520e+00    4.815032e-01   6.523105e-03
  3.515731e+00    4.838657e-01   6.553431e-03
  3.517941e+00    4.872465e-01   6.590602e-03
  3.520152e+00    4.911810e-01   6.631412e-03
  3.522362e+00    5.243877e-01   6.866725e-03
  3.524573e+00    5.308928e-01   6.923830e-03
  3.526783e+00    5.299088e-01   6.931028e-03
  3.528994e+00    5.202779e-01   6.880003e-03
  3.531204e+00    5.386856e-01   7.013325e-03
  3.533414e+00    5.386105e-01   7.025090e-03
  3.535625e+00    5.528120e-01   7.129732e-03
  3.537835e+00    5.320023e-01   7.006366e-03
  3.540046e+00    5.412595e-01   7.076044e-03
  3.542256e+00    5.443758e-01   7.103983e-03
  3.544467e+00    5.459889e-01   7.122186e-03
  3.546677e+00    5.599818e-01   7.220621e-03
  3.548888e+00    5.448580e-01   7.130010e-03
  3.551098e+00    5.310020e-01   7.046019e-03
  3.553309e+00    5.444288e-01   7.142781e-03
  3.555519e+00    5.454380e-01   7.160767e-03
  3.557729e+00    5.391048e-01   7.130872e-03
  3.559940e+00    5.200887e-01   7.015315e-03
  3.562150e+00    5.407236e-01   7.164901e-03
  3.564361e+00    5.341358e-01   7.134433e-03
  3.566571e+00    5.304171e-01   7.123291e-03
  3.568782e+00    5.413687e-01   7.210658e-03
  3.570992e+00    5.409946e-01   7.221953e-03
  3.573203e+00    5.460777e-01   7.270122e-03
  3.575413e+00    5.417404e-01   7.255014e-03
  3.577624e+00    5.460589e-01   7.298127e-03
  3.579834e+00    5.593482e-01   7.400598e-03
  3.582045e+00    5.423066e-01   7.301115e-03
  3.584255e+00    5.269846e-01   7.211147e-03
  3.586465e+00    5.554740e-01   7.417692e-03
  3.588676e+00    5.391667e-01   7.322235e-03
  3.590886e+00    5.454774e-01   7.378788e-03
  3.593097e+00    5.237175e-01   7.244471e-03
  3.595307e+00    5.294271e-01   7.297669e-03
  3.597518e+00    5.440838e-01   7.412332e-03
  3.599728e+00    5.388738e-01   7.390897e-03
  3.601939e+00    5.514276e-01   7.490761e-03
  3.604149e+00    5.255118e-01   7.326922e-03
  3.606360e+00    5.230000e-01   7.323339e-03
  3.608570e+00    5.352191e-01   7.422531e-03
  3.610780e+00    5.566596e-01   7.581075e-03
  3.612991e+00    5.370265e-01   7.456197e-03
  3.615201e+00    5.374846e-01   7.469187e-03
  3.617412e+00    5.420937e-01   7.508489e-03
  3.619622e+00    5.203867e-01   7.362504e-03
  3.621833e+00    5.190344e-01   7.359509e-03
  3.624043e+00    5.435813e-01   7.541125e-03
  3.626254e+00    5.429665e-01   7.546650e-03
  3.628464e+00    5.362202e-01   7.510623e-03
  3.630675e+00    5.408180e-01   7.556953e-03
  3.632885e+00    5.102692e-01   7.354571e-03
  3.635095e+00    5.228445e-01   7.458842e-03
  3.637306e+00    5.315589e-01   7.535105e-03
  3.639516e+00    5.294490e-01   7.534611e-03
  3.641727e+00    5.559059e-01   7.735457e-03
  3.643937e+00    5.257579e-01   7.537249e-03
  3.646148e+00    5.293043e-01   7.577149e-03
  3.648358e+00    5.252189e-01   7.562606e-03
  3.650569e+00    5.306818e-01   7.616554e-03
  3.652779e+00    5.217980e-01   7.567125e-03
  3.654990e+00    5.269586e-01   7.619283e-03
  3.657200e+00    5.251224e-01   7.620803e-03
  3.659410e+00    5.333636e-01   7.695309e-03
  3.661621e+00    5.442377e-01   7.788664e-03
  3.663831e+00    5.204604e-01   7.631601e-03
  3.666042e+00    5.474784e-01   7.842517e-03
  3.668252e+00    5.229185e-01   7.679773e-03
  3.670463e+00    5.190805e-01   7.666560e-03
  3.672673e+00    5.214536e-01   7.699328e-03
  3.674884e+00    5.174773e-01   7.685173e-03
  3.677094e+00    5.207998e-01   7.725134e-03
  3.679305e+00    5.283577e-01   7.796527e-03
  3.681515e+00    5.243710e-01   7.782573e-03
  3.683726e+00    5.460848e-01   7.958130e-03
  3.685936e+00    5.418672e-01   7.943260e-03
  3.688146e+00    5.214301e-01   7.807679e-03
  3.690357e+00    5.400937e-01   7.962310e-03
  3.692567e+00    5.518773e-01   8.065206e-03
  3.694778e+00    5.305746e-01   7.924166e-03
  3.696988e+00    5.168912e-01   7.837084e-03
  3.699199e+00    5.491328e-01   8.094428e-03
  3.701409e+00    5.349588e-01   8.005872e-03
  3.703620e+00    5.276376e-01   7.967195e-03
  3.705830e+00    5.167022e-01   7.900512e-03
  3.708041e+00    5.110270e-01   7.873375e-03
  3.710251e+00    5.154150e-01   7.923692e-03
  3.712461e+00    5.274650e-01   8.032584e-03
  3.714672e+00    5.303633e-01   8.071504e-03
  3.716882e+00    5.158502e-01   7.976944e-03
  3.719093e+00    5.267195e-01   8.077788e-03
  3.721303e+00    5.230065e-01   8.066230e-03
  3.723514e+00    5.324427e-01   8.156213e-03
  3.725724e+00    5.103380e-01   8.002124e-03
  3.727935e+00    5.008982e-01   7.944957e-03
  3.730145e+00    4.964080e-01   7.926208e-03
  3.732356e+00    5.105941e-01   8.056103e-03
  3.734566e+00    5.222465e-01   8.165186e-03
  3.736776e+00    4.995806e-01   8.003538e-03
  3.738987e+00    5.155479e-01   8.148156e-03
  3.741197e+00    5.010936e-01   8.050964e-03
  3.743408e+00    5.398744e-01   8.375132e-03
  3.745618e+00    5.392589e-01   8.389197e-03
  3.747829e+00    5.380313e-01   8.398197e-03
  3.750039e+00    5.079349e-01   8.178234e-03
  3.752250e+00    5.133173e-01   8.239972e-03
  3.754460e+00    4.905001e-01   8.072942e-03
  3.756671e+00    5.107490e-01   8.256659e-03
  3.758881e+00    5.230787e-01   8.374683e-03
  3.761091e+00    5.072531e-01   8.266113e-03
  3.763302e+00    4.867983e-01   8.116444e-03
  3.765512e+00    5.117038e-01   8.340765e-03
  3.767723e+00    4.995474e-01   8.260334e-03
  3.769933e+00    5.097179e-01   8.363348e-03
  3.772144e+00    5.065666e-01   8.357076e-03
  3.774354e+00    5.278218e-01   8.550866e-03
  3.776565e+00    5.068805e-01   8.399429e-03
  3.778775e+00    5.072362e-01   8.422368e-03
  3.780986e+00    5.191702e-01   8.541485e-03
  3.783196e+00    5.213675e-01   8.580139e-03
  3.785407e+00    5.159337e-01   8.556006e-03
  3.787617e+00    5.054318e-01   8.489302e-03
  3.789827e+00    4.999028e-01   8.463192e-03
  3.792038e+00    4.860001e-01   8.365207e-03
  3.794248e+00    5.024015e-01   8.526322e-03
  3.796459e+00    5.120221e-01   8.629148e-03
  3.798669e+00    5.281267e-01   8.785824e-03
  3.800880e+00    5.059078e-01   8.620572e-03
  3.803090e+00    4.943245e-01   8.543003e-03
  3.805301e+00    4.891708e-01   8.520162e-03
  3.807511e+00    5.082500e-01   8.706885e-03
  3.809722e+00    5.156767e-01   8.792932e-03
  3.811932e+00    5.225282e-01   8.873871e-03
  3.814142e+00    5.087698e-01   8.779348e-03
  3.816353e+00    5.057392e-01   8.776150e-03
  3.818563e+00    4.905559e-01   8.666303e-03
  3.820774e+00    4.818585e-01   8.611946e-03
  3.822984e+00    4.923297e-01   8.728201e-03
  3.825195e+00    5.296739e-01   9.077669e-03
  3.827405e+00    5.470669e-01   9.250566e-03
  3.829616e+00    5.301301e-01   9.131110e-03
  3.831826e+00    4.941661e-01   8.840015e-03
  3.834037e+00    5.050268e-01   8.961310e-03
  3.836247e+00    5.213148e-01   9.129993e-03
  3.838457e+00    5.011507e-01   8.976779e-03
  3.840668e+00    5.182016e-01   9.154004e-03
  3.842878e+00    4.939897e-01   8.963045e-03
  3.845089e+00    4.683422e-01   8.752159e-03
  3.847299e+00    5.023508e-01   9.090201e-03
  3.849510e+00    5.021554e-01   9.114624e-03
  3.851720e+00    5.009639e-01   9.125271e-03
  3.853931e+00    5.063120e-01   9.193031e-03
  3.856141e+00    4.980364e-01   9.136770e-03
  3.858352e+00    4.830936e-01   9.017593e-03
  3.860562e+00    5.163323e-01   9.342439e-03
  3.862772e+00    4.747291e-01   8.977366e-03
  3.864983e+00    4.799228e-01   9.045704e-03
  3.867193e+00    5.002393e-01   9.255101e-03
  3.869404e+00    5.240976e-01   9.493619e-03
  3.871614e+00    4.958469e-01   9.254318e-03
  3.873825e+00    4.888523e-01   9.208974e-03
  3.876035e+00    4.846230e-01   9.189472e-03
  3.878246e+00    4.912820e-01   9.278134e-03
  3.880456e+00    4.757946e-01   9.159194e-03
  3.882667e+00    5.102626e-01   9.515015e-03
  3.884877e+00    4.850054e-01   9.306165e-03
  3.887087e+00    4.972375e-01   9.452768e-03
  3.889298e+00    5.051807e-01   9.558871e-03
  3.891508e+00    5.045971e-01   9.584251e-03
  3.893719e+00    4.990043e-01   9.562272e-03
  3.895929e+00    4.785224e-01   9.394997e-03
  3.898140e+00    4.999059e-01   9.634542e-03
  3.900350e+00    5.164849e-01   9.826089e-03
  3.902561e+00    4.870439e-01   9.574176e-03
  3.904771e+00    4.799869e-01   9.536915e-03
  3.906982e+00    5.505634e-01   1.024929e-02
  3.909192e+00    5.210174e-01   1.000509e-02
  3.911403e+00    4.984009e-01   9.819802e-03
  3.913613e+00    5.005201e-01   9.875342e-03
  3.915823e+00    5.078118e-01   9.982529e-03
  3.918034e+00    4.861463e-01   9.802456e-03
  3.920244e+00    4.799696e-01   9.775368e-03
  3.922455e+00    4.759079e-01   9.769554e-03
  3.924665e+00    5.180548e-01   1.023046e-02
  3.926876e+00    5.206409e-01   1.029431e-02
  3.929086e+00    5.012262e-01   1.013851e-02
  3.931297e+00    5.069390e-01   1.023158e-02
  3.933507e+00    5.011085e-01   1.020182e-02
  3.935718e+00    4.992742e-01   1.021230e-02
  3.937928e+00    5.135448e-01   1.038749e-02
  3.940138e+00    4.878564e-01   1.015368e-02
  3.942349e+00    5.058365e-01   1.036946e-02
  3.944559e+00    5.146133e-01   1.048998e-02
  3.946770e+00    5.006174e-01   1.037690e-02
  3.948980e+00    4.755250e-01   1.014387e-02
  3.951191e+00    5.000705e-01   1.043362e-02
  3.953401e+00    4.912890e-01   1.037315e-02
  3.955612e+00    4.880913e-01   1.037107e-02
  3.957822e+00    4.724696e-01   1.023495e-02
  3.960033e+00    4.927374e-01   1.048504e-02
  3.962243e+00    5.055974e-01   1.065442e-02
  3.964453e+00    5.105015e-01   1.074002e-02
  3.966664e+00    4.771394e-01   1.041621e-02
  3.968874e+00    4.831488e-01   1.050994e-02
  3.971085e+00    4.756601e-01   1.044981e-02
  3.973295e+00    4.733330e-01   1.044550e-02
  3.975506e+00    4.704108e-01   1.043439e-02
  3.977716e+00    5.203972e-01   1.099762e-02
  3.979927e+00    4.983280e-01   1.078434e-02
  3.982137e+00    4.602850e-01   1.038617e-02
  3.984348e+00    5.114327e-01   1.097123e-02
  3.986558e+00    4.837141e-01   1.069201e-02
  3.988768e+00    5.055085e-01   1.095381e-02
  3.990979e+00    4.853627e-01   1.075598e-02
  3.993189e+00    4.896916e-01   1.082713e-02
  3.995400e+00    4.492336e-01   1.039278e-02
  3.997610e+00    5.036030e-01   1.103412e-02
  3.999821e+00    5.228224e-01   1.128162e-02
  4.002031e+00    4.968049e-01   1.103645e-02
  4.004242e+00    4.537075e-01   1.058387e-02
  4.006452e+00    4.880512e-01   1.101674e-02
  4.008663e+00    4.905172e-01   1.108477e-02
  4.010873e+00    5.099935e-01   1.134372e-02
  4.013084e+00    4.963091e-01   1.123194e-02
  4.015294e+00    5.117147e-01   1.144700e-02
  4.017504e+00    4.990654e-01   1.134717e-02
  4.019715e+00    4.872255e-01   1.125445e-02
  4.021925e+00    4.635883e-01   1.102001e-02
  4.024136e+00    4.846519e-01   1.131130e-02
  4.026346e+00    4.933702e-01   1.145720e-02
  4.028557e+00    4.647245e-01   1.116297e-02
  4.030767e+00    5.020919e-01   1.164974e-02
  4.032978e+00    4.729984e-01   1.135287e-02
  4.035188e+00    4.764526e-01   1.144013e-02
  4.037399e+00    4.724285e-01   1.143872e-02
  4.039609e+00    4.825886e-01   1.160868e-02
  4.041819e+00    4.707136e-01   1.151317e-02
  4.044030e+00    4.598555e-01   1.142830e-02
  4.046240e+00    5.008339e-01   1.197727e-02
  4.048451e+00    5.126381e-01   1.217017e-02
  4.050661e+00    5.312898e-01   1.244359e-02
  4.052872e+00    4.519486e-01   1.152796e-02
  4.055082e+00    4.808023e-01   1.194355e-02
  4.057293e+00    4.742050e-01   1.191464e-02
  4.059503e+00    4.503040e-01   1.166337e-02
  4.061714e+00    4.684577e-01   1.195165e-02
  4.063924e+00    4.795692e-01   1.214926e-02
  4.066134e+00    4.951366e-01   1.240301e-02
  4.068345e+00    4.845411e-01   1.232880e-02
  4.070555e+00    4.941089e-01   1.250975e-02
  4.072766e+00    5.060910e-01   1.272313e-02
  4.074976e+00    4.879188e-01   1.255476e-02
  4.077187e+00    4.801009e-01   1.251569e-02
  4.079397e+00    4.803270e-01   1.258266e-02
  4.081608e+00    4.950653e-01   1.284057e-02
  4.083818e+00    4.711966e-01   1.259240e-02
  4.086029e+00    4.978065e-01   1.301131e-02
  4.088239e+00    4.834082e-01   1.289096e-02
  4.090449e+00    4.647737e-01   1.270846e-02
  4.092660e+00    4.777716e-01   1.295579e-02
  4.094870e+00    4.603252e-01   1.278780e-02
  4.097081e+00    4.683629e-01   1.296964e-02
  4.099291e+00    4.750142e-01   1.311535e-02
  4.101502e+00    4.781871e-01   1.320831e-02
  4.103712e+00    5.074242e-01   1.365669e-02
  4.105923e+00    5.167568e-01   1.383522e-02
  4.108133e+00    4.688185e-01   1.322862e-02
  4.110344e+00    4.550795e-01   1.308319e-02
  4.112554e+00    5.310161e-01   1.418837e-02
  4.114764e+00    4.728698e-01   1.344303e-02
  4.116975e+00    4.851695e-01   1.367016e-02
  4.119185e+00    4.966956e-01   1.388803e-02
  4.121396e+00    5.293107e-01   1.439580e-02
  4.123606e+00    4.942389e-01   1.396794e-02
  4.125817e+00    4.622799e-01   1.356518e-02
  4.128027e+00    4.858257e-01   1.396509e-02
  4.130238e+00    4.915842e-01   1.410782e-02
  4.132448e+00    4.566328e-01   1.365593e-02
  4.134659e+00    5.349064e-01   1.484365e-02
  4.136869e+00    5.333154e-01   1.488779e-02
  4.139080e+00    4.997865e-01   1.447726e-02
  4.141290e+00    5.010840e-01   1.456026e-02
  4.143500e+00    4.513705e-01   1.388261e-02
  4.145711e+00    4.836747e-01   1.443803e-02
  4.147921e+00    4.512575e-01   1.400983e-02
  4.150132e+00    4.740009e-01   1.442703e-02
  4.152342e+00    5.259573e-01   1.527069e-02
  4.154553e+00    4.774689e-01   1.461930e-02
  4.156763e+00    4.854799e-01   1.481403e-02
  4.158974e+00    4.943367e-01   1.502373e-02
  4.161184e+00    4.974828e-01   1.514634e-02
  4.163395e+00    4.965681e-01   1.520975e-02
  4.165605e+00    4.384442e-01   1.436602e-02
  4.167815e+00    4.444054e-01   1.453881e-02
  4.170026e+00    4.705713e-01   1.503960e-02
  4.172236e+00    4.791731e-01   1.525868e-02
  4.174447e+00    4.799621e-01   1.535397e-02
  4.176657e+00    5.337203e-01   1.627963e-02
  4.178868e+00    4.854273e-01   1.561365e-02
  4.181078e+00    5.037308e-01   1.599482e-02
  4.183289e+00    5.216793e-01   1.637044e-02
  4.185499e+00    4.382034e-01   1.509224e-02
  4.187710e+00    4.628314e-01   1.560138e-02
  4.189920e+00    4.671842e-01   1.576872e-02
  4.192130e+00    4.678107e-01   1.587608e-02
  4.194341e+00    5.307932e-01   1.701447e-02
  4.196551e+00    4.464575e-01   1.570345e-02
  4.198762e+00    5.049269e-01   1.680584e-02
  4.200972e+00    5.527592e-01   1.769804e-02
  4.203183e+00    4.647661e-01   1.633514e-02
  4.205393e+00    4.707255e-01   1.654886e-02
  4.207604e+00    5.067984e-01   1.728846e-02
  4.209814e+00    4.604385e-01   1.659179e-02
  4.212025e+00    4.784806e-01   1.703345e-02
  4.214235e+00    4.770071e-01   1.712795e-02
  4.216445e+00    4.218354e-01   1.622337e-02
  4.218656e+00    4.942830e-01   1.769302e-02
  4.220866e+00    4.943456e-01   1.782504e-02
  4.223077e+00    4.724759e-01   1.756045e-02
  4.225287e+00    4.420956e-01   1.712013e-02
  4.227498e+00    4.402497e-01   1.721815e-02
  4.229708e+00    4.953235e-01   1.841182e-02
  4.231919e+00    5.185609e-01   1.899488e-02
  4.234129e+00    5.226269e-01   1.922910e-02
  4.236340e+00    4.892292e-01   1.876371e-02
  4.238550e+00    4.704027e-01   1.856150e-02
  4.240761e+00    5.422007e-01   2.010377e-02
  4.242971e+00    5.161487e-01   1.979482e-02
  4.245181e+00    4.407730e-01   1.846401e-02
  4.247392e+00    4.576331e-01   1.898996e-02
  4.249602e+00    5.044493e-01   2.013539e-02
  4.251813e+00    4.355694e-01   1.889510e-02
  4.254023e+00    3.643068e-01   1.745361e-02
  4.256234e+00    4.936517e-01   2.053491e-02
  4.258444e+00    4.978284e-01   2.083746e-02
  4.260655e+00    4.356307e-01   1.970692e-02
  4.262865e+00    4.345241e-01   1.990467e-02
  4.265076e+00    3.688874e-01   1.854846e-02
  4.267286e+00    4.323702e-01   2.031927e-02
  4.269496e+00    4.109955e-01   2.005265e-02
  4.271707e+00    4.529104e-01   2.130982e-02
  4.273917e+00    4.614906e-01   2.178918e-02
  4.276128e+00    4.770420e-01   2.244762e-02
  4.278338e+00    5.494836e-01   2.441348e-02
  4.280549e+00    4.570415e-01   2.258490e-02
  4.282759e+00    4.717035e-01   2.327355e-02
  4.284970e+00    5.097096e-01   2.455127e-02
  4.287180e+00    5.050048e-01   2.473086e-02
  4.289391e+00    4.897018e-01   2.453596e-02
  4.291601e+00    4.614935e-01   2.400897e-02
  4.293811e+00    4.160628e-01   2.297522e-02
  4.296022e+00    4.279293e-01   2.348701e-02
  4.298232e+00    4.819614e-01   2.513521e-02
  4.300443e+00    4.864781e-01   2.546041e-02
  4.302653e+00    4.647091e-01   2.510027e-02
  4.304864e+00    5.127673e-01   2.659472e-02
  4.307074e+00    4.451015e-01   2.499999e-02
  4.309285e+00    5.780609e-01   2.874884e-02
  4.311495e+00    4.687596e-01   2.613223e-02
  4.313706e+00    4.845024e-01   2.681577e-02
  4.315916e+00    4.681015e-01   2.661821e-02
  4.318126e+00    3.690644e-01   2.386887e-02
  4.320337e+00    3.426856e-01   2.323242e-02
  4.322547e+00    4.206840e-01   2.601380e-02
  4.324758e+00    4.640718e-01   2.760677e-02
  4.326968e+00    4.165791e-01   2.644993e-02
  4.329179e+00    5.114223e-01   2.963052e-02
  4.331389e+00    4.749308e-01   2.888253e-02
  4.333600e+00    5.310695e-01   3.090664e-02
  4.335810e+00    5.653542e-01   3.226822e-02
  4.338021e+00    4.937811e-01   3.054273e-02
  4.340231e+00    4.352924e-01   2.903645e-02
  4.342442e+00    4.110881e-01   2.859611e-02
  4.344652e+00    3.605041e-01   2.714308e-02
  4.346862e+00    4.186595e-01   2.965939e-02
  4.349073e+00    4.663136e-01   3.175791e-02
  4.351283e+00    4.357532e-01   3.115814e-02
  4.353494e+00    4.822706e-01   3.328621e-02
  4.355704e+00    3.794294e-01   2.999975e-02
  4.357915e+00    4.413715e-01   3.289327e-02
  4.360125e+00    4.369038e-01   3.328625e-02
  4.362336e+00    4.654629e-01   3.498130e-02
  4.364546e+00    5.079549e-01   3.721115e-02
  4.366757e+00    4.462598e-01   3.557147e-02
  4.368967e+00    2.748868e-01   2.847418e-02
  4.371177e+00    5.210510e-01   4.003497e-02
  4.373388e+00    6.125724e-01   4.438075e-02
  4.375598e+00    4.745260e-01   3.995414e-02
  4.377809e+00    3.818005e-01   3.674439e-02
  4.380019e+00    2.658353e-01   3.143223e-02
  4.382230e+00    4.255499e-01   4.087666e-02
  4.384440e+00    2.829880e-01   3.429283e-02
  4.386651e+00    6.440527e-01   5.333034e-02
  4.388861e+00    4.973965e-01   4.843916e-02
  4.391072e+00    5.564052e-01   5.303205e-02
  4.393282e+00    6.156459e-01   5.794317e-02
  4.395492e+00    2.832376e-01   4.093494e-02
  4.397703e+00    2.115986e-01   3.699801e-02
  4.399913e+00    4.361876e-01   5.580748e-02
  4.402124e+00    2.556159e-01   4.514860e-02
  4.404334e+00    2.855228e-01   5.071045e-02
  4.406545e+00    3.865554e-01   6.340114e-02
  4.408755e+00    5.864532e-01   8.470215e-02
  4.410966e+00    1.757720e-01   5.132665e-02
  4.413176e+00    1.225455e-02   1.535156e-02
  4.415387e+00   -6.519989e-01            nan
  4.417597e+00   -1.933521e+00            nan
  4.419807e+00    6.570489e-01   2.912181e-01
