# == pyFAI calibration ==
# Distance Sample to Detector: 0.216 m
# PONI: 1.166e-01, 1.308e-01 m
# Rotations: 0.000000 0.000000 0.000000 rad
# 
# == Fit2d calibration ==
# Distance Sample-beamCenter: 216.000 mm
# Center: x=1744.293, y=1555.000 pix
# Tilt: 0.000 deg  TiltPlanRot: 0.000 deg
# 
# Detector Eiger 9M	 PixelSize= 7.500e-05, 7.500e-05 m
#    Detector has a mask: True 
#    Detector has a dark current: False 
#    detector has a flat field: False 
# 
# Wavelength: 9.8e-11 m
# Mask applied: from detector
# Dark current applied: False
# Flat field applied: False
# Polarization factor: None
# Normalization factor: 1.0
# 
# Headers of the input frame:
# {
# "_array_data.header_convention": "SLS_1.0",
# "_array_data.header_contents": "# Detector: Dectris Eiger 9M, S/N E-18-0102\r\n# Pixel_size 75e-6 m x 75e-6 m\r\n# Silicon sensor, thickness 0.000450 m\r\n# Exposure_time 0.024997 s\r\n# Exposure_period 0.025000 s\r\n# Count_cutoff 62318 counts\r\n# Wavelength 0.980106 A\r\n# Detector_distance 0.215992 m\r\n# Beam_xy (1555, 1744) pixels\r\n# Start_angle 0.000000 deg.\r\n# Angle_increment 0.000000 deg.",
# "Content-Type": "application/octet-stream;",
# "conversions": "x-CBF_BYTE_OFFSET",
# "Content-Transfer-Encoding": "BINARY",
# "X-Binary-Size": "10166608",
# "X-Binary-ID": "1",
# "X-Binary-Element-Type": "signed 32-bit integer",
# "X-Binary-Element-Byte-Order": "LITTLE_ENDIAN",
# "Content-MD5": "22ypyCtj0w1STDTInNquwA==",
# "X-Binary-Number-of-Elements": "10166590",
# "X-Binary-Size-Fastest-Dimension": "3110",
# "X-Binary-Size-Second-Dimension": "3269",
# "X-Binary-Size-Padding": "4095"
# }
# --> H:/Proxima2a_2019-04-05/RAW_DATA/C5_gel17_position5/C5_mesh_1_data.cbf/C5_mesh_1_data.cbf000003.dat
#        q_A^-1              I           sigma 
  1.105228e-03    1.138402e+00   5.773441e-01
  3.315685e-03    1.652283e+00   4.228514e-01
  5.526141e-03    1.485586e+00   3.100423e-01
  7.736597e-03    1.349881e+00   2.496709e-01
  9.947054e-03    1.530262e+00   2.343470e-01
  1.215751e-02    1.364843e+00   2.001290e-01
  1.436797e-02    1.396404e+00   1.862007e-01
  1.657842e-02    1.340693e+00   1.698279e-01
  1.878888e-02    1.384893e+00   1.621331e-01
  2.099934e-02    1.384894e+00   1.533947e-01
  2.320979e-02    1.331771e+00   1.430697e-01
  2.542025e-02    1.307228e+00   1.354519e-01
  2.763070e-02    1.379571e+00   1.334635e-01
  2.984116e-02    1.268459e+00   1.231444e-01
  3.205162e-02    1.336991e+00   1.219974e-01
  3.426207e-02    1.434092e+00   1.221978e-01
  3.647253e-02    1.509717e+00   1.215172e-01
  3.868299e-02    1.500051e+00   1.176247e-01
  4.089344e-02    1.507076e+00   1.146696e-01
  4.310390e-02    1.430821e+00   1.088220e-01
  4.531436e-02    1.326333e+00   1.021862e-01
  4.752481e-02    1.351146e+00   1.007094e-01
  4.973527e-02    1.443797e+00   1.017665e-01
  5.194572e-02    1.337752e+00   9.584969e-02
  5.415618e-02    1.465212e+00   9.824014e-02
  5.636664e-02    1.447134e+00   9.570169e-02
  5.857709e-02    1.406993e+00   9.256795e-02
  6.078755e-02    1.363541e+00   8.945225e-02
  6.299801e-02    1.493120e+00   9.194832e-02
  6.520846e-02    1.371157e+00   8.660726e-02
  6.741892e-02    1.416800e+00   8.657730e-02
  6.962938e-02    1.427884e+00   8.552889e-02
  7.183983e-02    1.486056e+00   8.589929e-02
  7.405029e-02    1.414556e+00   8.254510e-02
  7.626074e-02    1.585473e+00   8.611319e-02
  7.847120e-02    1.497682e+00   8.250567e-02
  8.068166e-02    1.499152e+00   8.140688e-02
  8.289211e-02    1.426490e+00   7.834315e-02
  8.510257e-02    1.401731e+00   7.664464e-02
  8.731303e-02    1.414237e+00   7.600215e-02
  8.952348e-02    1.339327e+00   7.304507e-02
  9.173394e-02    1.408330e+00   7.399222e-02
  9.394439e-02    1.419435e+00   7.340187e-02
  9.615485e-02    1.421133e+00   7.259505e-02
  9.836531e-02    1.543615e+00   7.480177e-02
  1.005758e-01    1.578350e+00   7.480337e-02
  1.027862e-01    1.485859e+00   7.179210e-02
  1.049967e-01    1.459857e+00   7.040688e-02
  1.072071e-01    1.577213e+00   7.242291e-02
  1.094176e-01    1.534738e+00   7.071466e-02
  1.116280e-01    1.528862e+00   6.987531e-02
  1.138385e-01    1.544299e+00   6.954071e-02
  1.160490e-01    1.453830e+00   6.682652e-02
  1.182594e-01    1.460473e+00   6.634866e-02
  1.204699e-01    1.545361e+00   6.762005e-02
  1.226803e-01    1.552786e+00   6.716613e-02
  1.248908e-01    1.487732e+00   6.515893e-02
  1.271012e-01    1.480745e+00   6.443672e-02
  1.293117e-01    1.478663e+00   6.383788e-02
  1.315222e-01    1.508804e+00   6.393956e-02
  1.337326e-01    1.562868e+00   6.453372e-02
  1.359431e-01    1.625944e+00   6.586166e-02
  1.381535e-01    1.486613e+00   6.382187e-02
  1.403640e-01    1.564849e+00   6.576243e-02
  1.425744e-01    1.620994e+00   6.703870e-02
  1.447849e-01    1.591865e+00   6.644895e-02
  1.469953e-01    1.528039e+00   6.506240e-02
  1.492058e-01    1.538235e+00   6.520324e-02
  1.514163e-01    1.472087e+00   6.367998e-02
  1.536267e-01    1.528636e+00   6.476482e-02
  1.558372e-01    1.640533e+00   6.694528e-02
  1.580476e-01    1.566386e+00   6.525622e-02
  1.602581e-01    1.553367e+00   6.481940e-02
  1.624685e-01    1.573197e+00   6.505321e-02
  1.646790e-01    1.571339e+00   6.482813e-02
  1.668895e-01    1.661231e+00   6.646413e-02
  1.690999e-01    1.670111e+00   6.644145e-02
  1.713104e-01    1.633904e+00   6.551331e-02
  1.735208e-01    1.725871e+00   6.712247e-02
  1.757313e-01    1.774732e+00   6.785267e-02
  1.779417e-01    1.744179e+00   6.704669e-02
  1.801522e-01    1.826923e+00   6.840007e-02
  1.823626e-01    1.847851e+00   6.856172e-02
  1.845731e-01    1.882174e+00   6.897140e-02
  1.867836e-01    1.993647e+00   7.074488e-02
  1.889940e-01    1.979072e+00   7.025552e-02
  1.912045e-01    1.897326e+00   6.855954e-02
  1.934149e-01    1.938967e+00   6.907582e-02
  1.956254e-01    2.049269e+00   7.077920e-02
  1.978358e-01    1.934784e+00   6.853804e-02
  2.000463e-01    1.879576e+00   6.732924e-02
  2.022568e-01    1.925135e+00   6.791667e-02
  2.044672e-01    1.953029e+00   6.817262e-02
  2.066777e-01    1.882972e+00   6.671656e-02
  2.088881e-01    1.976212e+00   6.812479e-02
  2.110986e-01    2.072848e+00   6.953131e-02
  2.133090e-01    1.945397e+00   6.714084e-02
  2.155195e-01    1.891586e+00   6.598611e-02
  2.177300e-01    1.953788e+00   6.653541e-02
  2.199404e-01    2.023890e+00   6.593418e-02
  2.221509e-01    1.877727e+00   6.246590e-02
  2.243613e-01    1.881280e+00   6.173230e-02
  2.265718e-01    1.986106e+00   6.272974e-02
  2.287822e-01    2.054376e+00   6.316730e-02
  2.309927e-01    2.001007e+00   6.177352e-02
  2.332031e-01    2.067307e+00   6.225112e-02
  2.354136e-01    2.164404e+00   6.318002e-02
  2.376241e-01    2.131533e+00   6.221179e-02
  2.398345e-01    2.097230e+00   6.125245e-02
  2.420450e-01    2.148576e+00   6.155465e-02
  2.442554e-01    2.202628e+00   6.189476e-02
  2.464659e-01    2.083351e+00   5.979142e-02
  2.486763e-01    2.135509e+00   6.013733e-02
  2.508868e-01    2.137929e+00   5.979182e-02
  2.530973e-01    2.077351e+00   5.857324e-02
  2.553077e-01    2.056127e+00   5.791974e-02
  2.575182e-01    2.125372e+00   5.853859e-02
  2.597286e-01    2.129078e+00   5.824902e-02
  2.619391e-01    2.053706e+00   5.687933e-02
  2.641495e-01    2.102959e+00   5.723876e-02
  2.663600e-01    2.142833e+00   5.746115e-02
  2.685704e-01    2.047623e+00   5.586560e-02
  2.707809e-01    2.057860e+00   5.570780e-02
  2.729914e-01    2.022515e+00   5.493951e-02
  2.752018e-01    1.963458e+00   5.384971e-02
  2.774123e-01    2.000247e+00   5.407421e-02
  2.796227e-01    1.971321e+00   5.341629e-02
  2.818332e-01    1.977420e+00   5.323195e-02
  2.840436e-01    1.975999e+00   5.295487e-02
  2.862541e-01    1.932001e+00   5.211032e-02
  2.884646e-01    1.849238e+00   5.073999e-02
  2.906750e-01    1.945337e+00   5.179490e-02
  2.928855e-01    2.038678e+00   5.277732e-02
  2.950959e-01    1.947826e+00   5.135095e-02
  2.973064e-01    1.935475e+00   5.095782e-02
  2.995168e-01    1.944074e+00   5.083958e-02
  3.017273e-01    1.912515e+00   5.020293e-02
  3.039377e-01    1.915406e+00   5.002087e-02
  3.061482e-01    1.848990e+00   4.893338e-02
  3.083587e-01    1.906164e+00   4.946912e-02
  3.105691e-01    1.905542e+00   4.924979e-02
  3.127796e-01    1.884378e+00   4.876962e-02
  3.149900e-01    1.845478e+00   4.806253e-02
  3.172005e-01    1.868742e+00   4.816675e-02
  3.194109e-01    1.884417e+00   4.816866e-02
  3.216214e-01    1.908998e+00   4.828400e-02
  3.238319e-01    1.882475e+00   4.775741e-02
  3.260423e-01    1.866547e+00   4.736555e-02
  3.282528e-01    1.789142e+00   4.618841e-02
  3.304632e-01    1.809500e+00   4.627049e-02
  3.326737e-01    1.869434e+00   4.684704e-02
  3.348841e-01    1.813419e+00   4.596093e-02
  3.370946e-01    1.872492e+00   4.652780e-02
  3.393050e-01    1.890096e+00   4.656895e-02
  3.415155e-01    1.857045e+00   4.598641e-02
  3.437260e-01    1.862004e+00   4.587710e-02
  3.459364e-01    1.776372e+00   4.464403e-02
  3.481469e-01    1.776435e+00   4.448183e-02
  3.503573e-01    1.816626e+00   4.481834e-02
  3.525678e-01    1.876519e+00   4.538883e-02
  3.547782e-01    1.862562e+00   4.505630e-02
  3.569887e-01    1.781271e+00   4.390597e-02
  3.591992e-01    1.820772e+00   4.423305e-02
  3.614096e-01    1.779572e+00   4.357813e-02
  3.636201e-01    1.760926e+00   4.319689e-02
  3.658305e-01    1.733592e+00   4.271413e-02
  3.680410e-01    1.754175e+00   4.281914e-02
  3.702514e-01    1.806791e+00   4.331045e-02
  3.724619e-01    1.807825e+00   4.317529e-02
  3.746724e-01    1.784470e+00   4.275240e-02
  3.768828e-01    1.747548e+00   4.216541e-02
  3.790933e-01    1.773646e+00   4.234069e-02
  3.813037e-01    1.758414e+00   4.202056e-02
  3.835142e-01    1.717381e+00   4.139100e-02
  3.857246e-01    1.711537e+00   4.118676e-02
  3.879351e-01    1.778195e+00   4.184528e-02
  3.901455e-01    1.742378e+00   4.128982e-02
  3.923560e-01    1.741857e+00   4.115244e-02
  3.945665e-01    1.808313e+00   4.179714e-02
  3.967769e-01    1.808858e+00   4.167254e-02
  3.989874e-01    1.819817e+00   4.166806e-02
  4.011978e-01    1.808448e+00   4.140998e-02
  4.034083e-01    1.763917e+00   4.077141e-02
  4.056187e-01    1.722455e+00   4.016525e-02
  4.078292e-01    1.742347e+00   4.027429e-02
  4.100397e-01    1.728059e+00   3.998632e-02
  4.122501e-01    1.772561e+00   4.037679e-02
  4.144606e-01    1.791108e+00   4.046710e-02
  4.166710e-01    1.773399e+00   4.014684e-02
  4.188815e-01    1.779531e+00   4.009737e-02
  4.210919e-01    1.814678e+00   4.037276e-02
  4.233024e-01    1.813920e+00   4.024561e-02
  4.255128e-01    1.800874e+00   3.998471e-02
  4.277233e-01    1.773515e+00   3.956580e-02
  4.299338e-01    1.760040e+00   3.930180e-02
  4.321442e-01    1.762044e+00   3.921162e-02
  4.343547e-01    1.792296e+00   3.943500e-02
  4.365651e-01    1.750075e+00   3.885702e-02
  4.387756e-01    1.750029e+00   3.874771e-02
  4.409860e-01    1.773544e+00   3.889910e-02
  4.431965e-01    1.751428e+00   3.854892e-02
  4.454070e-01    1.705178e+00   3.793070e-02
  4.476174e-01    1.713820e+00   3.792228e-02
  4.498279e-01    1.741108e+00   3.811901e-02
  4.520383e-01    1.734690e+00   3.794427e-02
  4.542488e-01    1.731276e+00   3.780470e-02
  4.564592e-01    1.685784e+00   3.720462e-02
  4.586697e-01    1.689127e+00   3.714265e-02
  4.608801e-01    1.728924e+00   3.747699e-02
  4.630906e-01    1.712498e+00   3.719978e-02
  4.653011e-01    1.693078e+00   3.689100e-02
  4.675115e-01    1.697558e+00   3.684247e-02
  4.697220e-01    1.655669e+00   3.628984e-02
  4.719324e-01    1.652333e+00   3.615944e-02
  4.741429e-01    1.718225e+00   3.677838e-02
  4.763533e-01    1.737762e+00   3.689207e-02
  4.785638e-01    1.742194e+00   3.684366e-02
  4.807743e-01    1.737837e+00   3.670399e-02
  4.829847e-01    1.703121e+00   3.624373e-02
  4.851952e-01    1.717493e+00   3.630424e-02
  4.874056e-01    1.700581e+00   3.603395e-02
  4.896161e-01    1.705845e+00   3.600020e-02
  4.918265e-01    1.674148e+00   3.557559e-02
  4.940370e-01    1.686304e+00   3.561636e-02
  4.962475e-01    1.687117e+00   3.553697e-02
  4.984579e-01    1.643437e+00   3.498748e-02
  5.006684e-01    1.669543e+00   3.517827e-02
  5.028788e-01    1.678867e+00   3.519092e-02
  5.050893e-01    1.675984e+00   3.507516e-02
  5.072997e-01    1.657849e+00   3.480063e-02
  5.095102e-01    1.666146e+00   3.480404e-02
  5.117206e-01    1.683460e+00   3.490124e-02
  5.139311e-01    1.581068e+00   3.374316e-02
  5.161416e-01    1.603190e+00   3.389808e-02
  5.183520e-01    1.631177e+00   3.411144e-02
  5.205625e-01    1.628951e+00   3.400829e-02
  5.227729e-01    1.671472e+00   3.436894e-02
  5.249834e-01    1.663398e+00   3.420625e-02
  5.271938e-01    1.713116e+00   3.463268e-02
  5.294043e-01    1.727296e+00   3.469547e-02
  5.316148e-01    1.722881e+00   3.457174e-02
  5.338252e-01    1.780034e+00   3.506016e-02
  5.360357e-01    1.758096e+00   3.476414e-02
  5.382461e-01    1.729390e+00   3.440121e-02
  5.404566e-01    1.712583e+00   3.415575e-02
  5.426670e-01    1.702250e+00   3.397580e-02
  5.448775e-01    1.739975e+00   3.427349e-02
  5.470879e-01    1.728452e+00   3.408364e-02
  5.492984e-01    1.761420e+00   3.433063e-02
  5.515089e-01    1.782341e+00   3.445733e-02
  5.537193e-01    1.735100e+00   3.392271e-02
  5.559298e-01    1.772300e+00   3.420922e-02
  5.581402e-01    1.796320e+00   3.436502e-02
  5.603507e-01    1.758048e+00   3.392297e-02
  5.625611e-01    1.783380e+00   3.409234e-02
  5.647716e-01    1.770154e+00   3.389195e-02
  5.669821e-01    1.787226e+00   3.398157e-02
  5.691925e-01    1.770898e+00   3.375338e-02
  5.714030e-01    1.784388e+00   3.380946e-02
  5.736134e-01    1.773034e+00   3.363004e-02
  5.758239e-01    1.726453e+00   3.311452e-02
  5.780343e-01    1.721859e+00   3.300046e-02
  5.802448e-01    1.716586e+00   3.288092e-02
  5.824552e-01    1.712616e+00   3.277397e-02
  5.846657e-01    1.642733e+00   3.203143e-02
  5.868762e-01    1.647088e+00   3.200709e-02
  5.890866e-01    1.595220e+00   3.143375e-02
  5.912971e-01    1.590074e+00   3.131802e-02
  5.935075e-01    1.585341e+00   3.120674e-02
  5.957180e-01    1.609612e+00   3.138020e-02
  5.979284e-01    1.601104e+00   3.123326e-02
  6.001389e-01    1.647190e+00   3.161507e-02
  6.023494e-01    1.646976e+00   3.154883e-02
  6.045598e-01    1.686749e+00   3.186250e-02
  6.067703e-01    1.661422e+00   3.155879e-02
  6.089807e-01    1.665922e+00   3.153797e-02
  6.111912e-01    1.650636e+00   3.133026e-02
  6.134016e-01    1.631638e+00   3.108731e-02
  6.156121e-01    1.648875e+00   3.118896e-02
  6.178226e-01    1.655592e+00   3.119056e-02
  6.200330e-01    1.638745e+00   3.097023e-02
  6.222435e-01    1.657868e+00   3.108871e-02
  6.244539e-01    1.634482e+00   3.080823e-02
  6.266644e-01    1.651717e+00   3.090981e-02
  6.288748e-01    1.673700e+00   3.105425e-02
  6.310853e-01    1.716181e+00   3.138484e-02
  6.332957e-01    1.688494e+00   3.107055e-02
  6.355062e-01    1.710373e+00   3.121044e-02
  6.377167e-01    1.722319e+00   3.125917e-02
  6.399271e-01    1.666820e+00   3.069248e-02
  6.421376e-01    1.655435e+00   3.052907e-02
  6.443480e-01    1.705757e+00   3.093068e-02
  6.465585e-01    1.727301e+00   3.106642e-02
  6.487689e-01    1.732129e+00   3.105108e-02
  6.509794e-01    1.646012e+00   3.021225e-02
  6.531899e-01    1.620638e+00   2.992211e-02
  6.554003e-01    1.556745e+00   2.927120e-02
  6.576108e-01    1.546921e+00   2.912437e-02
  6.598212e-01    1.593800e+00   2.950744e-02
  6.620317e-01    1.599065e+00   2.950137e-02
  6.642421e-01    1.587771e+00   2.934261e-02
  6.664526e-01    1.624991e+00   2.962984e-02
  6.686630e-01    1.589364e+00   2.924907e-02
  6.708735e-01    1.587309e+00   2.917651e-02
  6.730840e-01    1.601033e+00   2.924896e-02
  6.752944e-01    1.572173e+00   2.893144e-02
  6.775049e-01    1.573032e+00   2.888678e-02
  6.797153e-01    1.598549e+00   2.906741e-02
  6.819258e-01    1.623424e+00   2.923987e-02
  6.841362e-01    1.595661e+00   2.893664e-02
  6.863467e-01    1.593895e+00   2.886883e-02
  6.885572e-01    1.566195e+00   2.856560e-02
  6.907676e-01    1.590668e+00   2.873631e-02
  6.929781e-01    1.580607e+00   2.859440e-02
  6.951885e-01    1.596206e+00   2.868423e-02
  6.973990e-01    1.589686e+00   2.857500e-02
  6.996094e-01    1.561654e+00   2.827211e-02
  7.018199e-01    1.557940e+00   2.818890e-02
  7.040303e-01    1.560071e+00   2.815863e-02
  7.062408e-01    1.572275e+00   2.821902e-02
  7.084513e-01    1.596461e+00   2.838578e-02
  7.106617e-01    1.586876e+00   2.825127e-02
  7.128722e-01    1.566785e+00   2.802329e-02
  7.150826e-01    1.582238e+00   2.811260e-02
  7.172931e-01    1.620968e+00   2.840555e-02
  7.195035e-01    1.540939e+00   2.764785e-02
  7.217140e-01    1.580917e+00   2.805374e-02
  7.239245e-01    1.571797e+00   2.819924e-02
  7.261349e-01    1.555515e+00   2.816077e-02
  7.283454e-01    1.571898e+00   2.838099e-02
  7.305558e-01    1.581618e+00   2.852273e-02
  7.327663e-01    1.590425e+00   2.864474e-02
  7.349767e-01    1.601041e+00   2.875669e-02
  7.371872e-01    1.567044e+00   2.843859e-02
  7.393976e-01    1.561209e+00   2.837139e-02
  7.416081e-01    1.560902e+00   2.835250e-02
  7.438186e-01    1.563865e+00   2.823557e-02
  7.460290e-01    1.546808e+00   2.778955e-02
  7.482395e-01    1.551757e+00   2.766403e-02
  7.504499e-01    1.551270e+00   2.752445e-02
  7.526604e-01    1.576659e+00   2.763213e-02
  7.548708e-01    1.571101e+00   2.749409e-02
  7.570813e-01    1.543071e+00   2.719725e-02
  7.592918e-01    1.555338e+00   2.727019e-02
  7.615022e-01    1.567805e+00   2.734554e-02
  7.637127e-01    1.580345e+00   2.742184e-02
  7.659231e-01    1.538725e+00   2.702673e-02
  7.681336e-01    1.544005e+00   2.704174e-02
  7.703440e-01    1.560089e+00   2.715116e-02
  7.725545e-01    1.555852e+00   2.708355e-02
  7.747650e-01    1.582833e+00   2.727910e-02
  7.769754e-01    1.555497e+00   2.699013e-02
  7.791859e-01    1.601303e+00   2.733071e-02
  7.813963e-01    1.627593e+00   2.750077e-02
  7.836068e-01    1.637933e+00   2.753513e-02
  7.858172e-01    1.617776e+00   2.731401e-02
  7.880277e-01    1.586952e+00   2.700109e-02
  7.902381e-01    1.587418e+00   2.695597e-02
  7.924486e-01    1.621361e+00   2.719219e-02
  7.946591e-01    1.599018e+00   2.695590e-02
  7.968695e-01    1.616327e+00   2.705292e-02
  7.990800e-01    1.583917e+00   2.673247e-02
  8.012904e-01    1.598845e+00   2.681167e-02
  8.035009e-01    1.579702e+00   2.660327e-02
  8.057113e-01    1.601030e+00   2.673593e-02
  8.079218e-01    1.612935e+00   2.678885e-02
  8.101323e-01    1.597296e+00   2.661338e-02
  8.123427e-01    1.627315e+00   2.681652e-02
  8.145532e-01    1.599174e+00   2.653816e-02
  8.167636e-01    1.596646e+00   2.647258e-02
  8.189741e-01    1.599692e+00   2.645364e-02
  8.211845e-01    1.615023e+00   2.653554e-02
  8.233950e-01    1.657443e+00   2.683807e-02
  8.256054e-01    1.641407e+00   2.666368e-02
  8.278159e-01    1.611046e+00   2.637231e-02
  8.300264e-01    1.646116e+00   2.661461e-02
  8.322368e-01    1.640975e+00   2.652988e-02
  8.344473e-01    1.595206e+00   2.611449e-02
  8.366577e-01    1.634174e+00   2.638899e-02
  8.388682e-01    1.611572e+00   2.616400e-02
  8.410786e-01    1.615444e+00   2.615363e-02
  8.432891e-01    1.641698e+00   2.632343e-02
  8.454996e-01    1.645190e+00   2.630971e-02
  8.477100e-01    1.660612e+00   2.639078e-02
  8.499205e-01    1.631446e+00   2.611695e-02
  8.521309e-01    1.595472e+00   2.578709e-02
  8.543414e-01    1.609286e+00   2.585810e-02
  8.565518e-01    1.570178e+00   2.550220e-02
  8.587623e-01    1.580781e+00   2.554830e-02
  8.609727e-01    1.594414e+00   2.561846e-02
  8.631832e-01    1.608846e+00   2.569446e-02
  8.653937e-01    1.613054e+00   2.568851e-02
  8.676041e-01    1.611507e+00   2.563746e-02
  8.698146e-01    1.610890e+00   2.559336e-02
  8.720250e-01    1.611079e+00   2.555585e-02
  8.742355e-01    1.632651e+00   2.568722e-02
  8.764459e-01    1.593912e+00   2.534194e-02
  8.786564e-01    1.586085e+00   2.524194e-02
  8.808669e-01    1.592973e+00   2.525833e-02
  8.830773e-01    1.604484e+00   2.531127e-02
  8.852878e-01    1.594499e+00   2.519456e-02
  8.874982e-01    1.569443e+00   2.495955e-02
  8.897087e-01    1.576037e+00   2.497452e-02
  8.919191e-01    1.606824e+00   2.517946e-02
  8.941296e-01    1.602794e+00   2.511054e-02
  8.963401e-01    1.629282e+00   2.528042e-02
  8.985505e-01    1.598414e+00   2.500287e-02
  9.007610e-01    1.566035e+00   2.471198e-02
  9.029714e-01    1.560682e+00   2.463430e-02
  9.051819e-01    1.592722e+00   2.484874e-02
  9.073923e-01    1.592880e+00   2.481350e-02
  9.096028e-01    1.571453e+00   2.461144e-02
  9.118132e-01    1.565925e+00   2.453227e-02
  9.140237e-01    1.588685e+00   2.467342e-02
  9.162342e-01    1.584230e+00   2.460441e-02
  9.184446e-01    1.579158e+00   2.452947e-02
  9.206551e-01    1.579422e+00   2.449618e-02
  9.228655e-01    1.552171e+00   2.424920e-02
  9.250760e-01    1.597952e+00   2.456890e-02
  9.272864e-01    1.607148e+00   2.460520e-02
  9.294969e-01    1.630000e+00   2.474338e-02
  9.317074e-01    1.630105e+00   2.470923e-02
  9.339178e-01    1.627415e+00   2.465510e-02
  9.361283e-01    1.625109e+00   2.460133e-02
  9.383387e-01    1.582397e+00   2.424286e-02
  9.405492e-01    1.620919e+00   2.450188e-02
  9.427596e-01    1.634436e+00   2.456843e-02
  9.449701e-01    1.647051e+00   2.462954e-02
  9.471805e-01    1.663367e+00   2.471618e-02
  9.493910e-01    1.681823e+00   2.481881e-02
  9.516015e-01    1.698892e+00   2.490962e-02
  9.538119e-01    1.672884e+00   2.468434e-02
  9.560224e-01    1.699072e+00   2.484178e-02
  9.582328e-01    1.751901e+00   2.519117e-02
  9.604433e-01    1.742718e+00   2.508952e-02
  9.626537e-01    1.741122e+00   2.504428e-02
  9.648642e-01    1.779023e+00   2.528073e-02
  9.670747e-01    1.811092e+00   2.547239e-02
  9.692851e-01    1.836910e+00   2.561923e-02
  9.714956e-01    1.819901e+00   2.546438e-02
  9.737060e-01    1.810897e+00   2.536794e-02
  9.759165e-01    1.810972e+00   2.533268e-02
  9.781269e-01    1.842100e+00   2.551606e-02
  9.803374e-01    1.846174e+00   2.550891e-02
  9.825478e-01    1.879731e+00   2.570576e-02
  9.847583e-01    1.873101e+00   2.562553e-02
  9.869688e-01    1.871900e+00   2.558304e-02
  9.891792e-01    1.868359e+00   2.552486e-02
  9.913897e-01    1.843586e+00   2.532084e-02
  9.936001e-01    2.004376e+00   2.636736e-02
  9.958106e-01    1.951789e+00   2.598390e-02
  9.980210e-01    1.887527e+00   2.551932e-02
  1.000231e+00    2.057965e+00   2.679254e-02
  1.002442e+00    2.080020e+00   2.707897e-02
  1.004652e+00    1.721251e+00   2.470187e-02
  1.006863e+00    1.639019e+00   2.415457e-02
  1.009073e+00    1.625611e+00   2.409239e-02
  1.011284e+00    1.598843e+00   2.392515e-02
  1.013494e+00    1.584936e+00   2.384450e-02
  1.015705e+00    1.567059e+00   2.373204e-02
  1.017915e+00    1.570475e+00   2.377427e-02
  1.020126e+00    1.566776e+00   2.376230e-02
  1.022336e+00    1.542140e+00   2.358636e-02
  1.024547e+00    1.507683e+00   2.333244e-02
  1.026757e+00    1.488369e+00   2.319070e-02
  1.028967e+00    1.528735e+00   2.351072e-02
  1.031178e+00    1.491097e+00   2.322557e-02
  1.033388e+00    1.515257e+00   2.341800e-02
  1.035599e+00    1.502405e+00   2.332187e-02
  1.037809e+00    1.490708e+00   2.323413e-02
  1.040020e+00    1.478156e+00   2.313736e-02
  1.042230e+00    1.483036e+00   2.317743e-02
  1.044441e+00    1.487689e+00   2.321355e-02
  1.046651e+00    1.499003e+00   2.330182e-02
  1.048862e+00    1.526654e+00   2.351494e-02
  1.051072e+00    1.503553e+00   2.333403e-02
  1.053282e+00    1.435063e+00   2.279543e-02
  1.055493e+00    1.435579e+00   2.279530e-02
  1.057703e+00    1.433194e+00   2.277489e-02
  1.059914e+00    1.439823e+00   2.282329e-02
  1.062124e+00    1.463354e+00   2.300502e-02
  1.064335e+00    1.458490e+00   2.296335e-02
  1.066545e+00    1.457493e+00   2.294956e-02
  1.068756e+00    1.461879e+00   2.298035e-02
  1.070966e+00    1.464163e+00   2.299179e-02
  1.073177e+00    1.467867e+00   2.301481e-02
  1.075387e+00    1.448729e+00   2.285909e-02
  1.077597e+00    1.428988e+00   2.269566e-02
  1.079808e+00    1.419257e+00   2.248757e-02
  1.082018e+00    1.411395e+00   2.223948e-02
  1.084229e+00    1.397173e+00   2.201951e-02
  1.086439e+00    1.402411e+00   2.197492e-02
  1.088650e+00    1.423872e+00   2.206752e-02
  1.090860e+00    1.440046e+00   2.212525e-02
  1.093071e+00    1.422454e+00   2.192808e-02
  1.095281e+00    1.412610e+00   2.179551e-02
  1.097492e+00    1.419097e+00   2.179106e-02
  1.099702e+00    1.424546e+00   2.178176e-02
  1.101912e+00    1.397242e+00   2.152389e-02
  1.104123e+00    1.364881e+00   2.122615e-02
  1.106333e+00    1.410624e+00   2.153483e-02
  1.108544e+00    1.424687e+00   2.159772e-02
  1.110754e+00    1.441198e+00   2.167928e-02
  1.112965e+00    1.473164e+00   2.187714e-02
  1.115175e+00    1.434127e+00   2.154397e-02
  1.117386e+00    1.389768e+00   2.116924e-02
  1.119596e+00    1.373346e+00   2.100643e-02
  1.121807e+00    1.381478e+00   2.103012e-02
  1.124017e+00    1.377968e+00   2.096712e-02
  1.126228e+00    1.371233e+00   2.088048e-02
  1.128438e+00    1.401823e+00   2.107532e-02
  1.130648e+00    1.398328e+00   2.101474e-02
  1.132859e+00    1.368266e+00   2.075360e-02
  1.135069e+00    1.381581e+00   2.081974e-02
  1.137280e+00    1.390425e+00   2.085327e-02
  1.139490e+00    1.387877e+00   2.080110e-02
  1.141701e+00    1.363367e+00   2.058373e-02
  1.143911e+00    1.358170e+00   2.051291e-02
  1.146122e+00    1.345092e+00   2.038229e-02
  1.148332e+00    1.370002e+00   2.053840e-02
  1.150543e+00    1.370531e+00   2.051160e-02
  1.152753e+00    1.372597e+00   2.049627e-02
  1.154963e+00    1.357083e+00   2.034925e-02
  1.157174e+00    1.351598e+00   2.027816e-02
  1.159384e+00    1.331426e+00   2.009686e-02
  1.161595e+00    1.330234e+00   2.005845e-02
  1.163805e+00    1.351843e+00   2.019164e-02
  1.166016e+00    1.330726e+00   2.000429e-02
  1.168226e+00    1.352160e+00   2.013593e-02
  1.170437e+00    1.401040e+00   2.046765e-02
  1.172647e+00    1.414081e+00   2.053331e-02
  1.174858e+00    1.411743e+00   2.048774e-02
  1.177068e+00    1.380536e+00   2.023161e-02
  1.179278e+00    1.388462e+00   2.026073e-02
  1.181489e+00    1.370453e+00   2.010181e-02
  1.183699e+00    1.381981e+00   2.015835e-02
  1.185910e+00    1.372550e+00   2.006154e-02
  1.188120e+00    1.351271e+00   1.987879e-02
  1.190331e+00    1.333916e+00   1.972417e-02
  1.192541e+00    1.348203e+00   1.980218e-02
  1.194752e+00    1.367386e+00   1.991540e-02
  1.196962e+00    1.326042e+00   1.958650e-02
  1.199173e+00    1.351083e+00   1.974405e-02
  1.201383e+00    1.355690e+00   1.975049e-02
  1.203593e+00    1.348563e+00   1.967368e-02
  1.205804e+00    1.391912e+00   1.996106e-02
  1.208014e+00    1.379036e+00   1.984140e-02
  1.210225e+00    1.349667e+00   1.960366e-02
  1.212435e+00    1.347743e+00   1.956491e-02
  1.214646e+00    1.317650e+00   1.931945e-02
  1.216856e+00    1.318269e+00   1.929882e-02
  1.219067e+00    1.339445e+00   1.942882e-02
  1.221277e+00    1.351897e+00   1.949389e-02
  1.223488e+00    1.345852e+00   1.942454e-02
  1.225698e+00    1.356942e+00   1.947745e-02
  1.227909e+00    1.346887e+00   1.937501e-02
  1.230119e+00    1.333355e+00   1.924579e-02
  1.232329e+00    1.347626e+00   1.931780e-02
  1.234540e+00    1.358294e+00   1.936374e-02
  1.236750e+00    1.323797e+00   1.908630e-02
  1.238961e+00    1.314404e+00   1.899185e-02
  1.241171e+00    1.318179e+00   1.899520e-02
  1.243382e+00    1.345911e+00   1.917050e-02
  1.245592e+00    1.344567e+00   1.913688e-02
  1.247803e+00    1.355039e+00   1.918755e-02
  1.250013e+00    1.365592e+00   1.923845e-02
  1.252224e+00    1.378642e+00   1.930664e-02
  1.254434e+00    1.430016e+00   1.963864e-02
  1.256644e+00    1.531509e+00   2.029888e-02
  1.258855e+00    1.439748e+00   1.965743e-02
  1.261065e+00    1.336594e+00   1.891684e-02
  1.263276e+00    1.330097e+00   1.884803e-02
  1.265486e+00    1.317037e+00   1.873268e-02
  1.267697e+00    1.340014e+00   1.887243e-02
  1.269907e+00    1.333538e+00   1.880423e-02
  1.272118e+00    1.340336e+00   1.882958e-02
  1.274328e+00    1.367877e+00   1.899919e-02
  1.276539e+00    1.348978e+00   1.884470e-02
  1.278749e+00    1.358596e+00   1.888940e-02
  1.280959e+00    1.369470e+00   1.894216e-02
  1.283170e+00    1.335072e+00   1.868045e-02
  1.285380e+00    1.365671e+00   1.887070e-02
  1.287591e+00    1.377415e+00   1.892943e-02
  1.289801e+00    1.370483e+00   1.886037e-02
  1.292012e+00    1.372354e+00   1.885597e-02
  1.294222e+00    1.402759e+00   1.904717e-02
  1.296433e+00    1.386918e+00   1.892351e-02
  1.298643e+00    1.378968e+00   1.885255e-02
  1.300854e+00    1.362404e+00   1.872249e-02
  1.303064e+00    1.349771e+00   1.861626e-02
  1.305274e+00    1.355311e+00   1.863294e-02
  1.307485e+00    1.356476e+00   1.861934e-02
  1.309695e+00    1.344410e+00   1.851418e-02
  1.311906e+00    1.336354e+00   1.843701e-02
  1.314116e+00    1.335105e+00   1.840770e-02
  1.316327e+00    1.367664e+00   1.860897e-02
  1.318537e+00    1.410408e+00   1.887516e-02
  1.320748e+00    1.462381e+00   1.919736e-02
  1.322958e+00    1.469850e+00   1.922492e-02
  1.325169e+00    1.444664e+00   1.903776e-02
  1.327379e+00    1.397893e+00   1.870487e-02
  1.329589e+00    1.372176e+00   1.851076e-02
  1.331800e+00    1.382624e+00   1.856014e-02
  1.334010e+00    1.379330e+00   1.851717e-02
  1.336221e+00    1.355448e+00   1.833434e-02
  1.338431e+00    1.361217e+00   1.835238e-02
  1.340642e+00    1.335749e+00   1.824371e-02
  1.342852e+00    1.351086e+00   1.844884e-02
  1.345063e+00    1.358351e+00   1.854802e-02
  1.347273e+00    1.358877e+00   1.858698e-02
  1.349484e+00    1.336697e+00   1.846220e-02
  1.351694e+00    1.353241e+00   1.859885e-02
  1.353905e+00    1.317461e+00   1.836909e-02
  1.356115e+00    1.333005e+00   1.849207e-02
  1.358325e+00    1.349003e+00   1.861603e-02
  1.360536e+00    1.341268e+00   1.857417e-02
  1.362746e+00    1.352737e+00   1.866298e-02
  1.364957e+00    1.354177e+00   1.868062e-02
  1.367167e+00    1.318198e+00   1.843785e-02
  1.369378e+00    1.287084e+00   1.822483e-02
  1.371588e+00    1.311749e+00   1.840370e-02
  1.373799e+00    1.316100e+00   1.843783e-02
  1.376009e+00    1.324191e+00   1.849780e-02
  1.378220e+00    1.344797e+00   1.864370e-02
  1.380430e+00    1.336507e+00   1.858887e-02
  1.382640e+00    1.337403e+00   1.859599e-02
  1.384851e+00    1.356784e+00   1.873117e-02
  1.387061e+00    1.322533e+00   1.849350e-02
  1.389272e+00    1.306490e+00   1.838121e-02
  1.391482e+00    1.317578e+00   1.845836e-02
  1.393693e+00    1.299377e+00   1.832955e-02
  1.395903e+00    1.287062e+00   1.824098e-02
  1.398114e+00    1.285347e+00   1.822744e-02
  1.400324e+00    1.283669e+00   1.821342e-02
  1.402535e+00    1.288446e+00   1.824493e-02
  1.404745e+00    1.303203e+00   1.834674e-02
  1.406955e+00    1.291222e+00   1.825949e-02
  1.409166e+00    1.287060e+00   1.822672e-02
  1.411376e+00    1.283352e+00   1.819730e-02
  1.413587e+00    1.279266e+00   1.816450e-02
  1.415797e+00    1.272433e+00   1.811237e-02
  1.418008e+00    1.273750e+00   1.807982e-02
  1.420218e+00    1.250425e+00   1.776493e-02
  1.422429e+00    1.283380e+00   1.791174e-02
  1.424639e+00    1.315148e+00   1.806626e-02
  1.426850e+00    1.302309e+00   1.792247e-02
  1.429060e+00    1.286708e+00   1.776549e-02
  1.431270e+00    1.293854e+00   1.777002e-02
  1.433481e+00    1.256453e+00   1.747057e-02
  1.435691e+00    1.268855e+00   1.751816e-02
  1.437902e+00    1.275397e+00   1.752674e-02
  1.440112e+00    1.257948e+00   1.737123e-02
  1.442323e+00    1.290582e+00   1.756181e-02
  1.444533e+00    1.282361e+00   1.747309e-02
  1.446744e+00    1.248214e+00   1.720802e-02
  1.448954e+00    1.255418e+00   1.722757e-02
  1.451165e+00    1.287462e+00   1.741610e-02
  1.453375e+00    1.291701e+00   1.741646e-02
  1.455586e+00    1.303539e+00   1.746756e-02
  1.457796e+00    1.302652e+00   1.743375e-02
  1.460006e+00    1.296619e+00   1.736579e-02
  1.462217e+00    1.275241e+00   1.719578e-02
  1.464427e+00    1.275720e+00   1.717331e-02
  1.466638e+00    1.283104e+00   1.719750e-02
  1.468848e+00    1.290792e+00   1.722337e-02
  1.471059e+00    1.311330e+00   1.733437e-02
  1.473269e+00    1.323198e+00   1.738773e-02
  1.475480e+00    1.335490e+00   1.744395e-02
  1.477690e+00    1.294208e+00   1.714814e-02
  1.479901e+00    1.260468e+00   1.689937e-02
  1.482111e+00    1.266928e+00   1.691928e-02
  1.484321e+00    1.267042e+00   1.689693e-02
  1.486532e+00    1.267011e+00   1.687440e-02
  1.488742e+00    1.250929e+00   1.674443e-02
  1.490953e+00    1.250976e+00   1.672225e-02
  1.493163e+00    1.269454e+00   1.682297e-02
  1.495374e+00    1.233701e+00   1.656315e-02
  1.497584e+00    1.226546e+00   1.649369e-02
  1.499795e+00    1.236876e+00   1.654156e-02
  1.502005e+00    1.235636e+00   1.651179e-02
  1.504216e+00    1.232348e+00   1.646900e-02
  1.506426e+00    1.209137e+00   1.629276e-02
  1.508636e+00    1.237491e+00   1.646239e-02
  1.510847e+00    1.239091e+00   1.645138e-02
  1.513057e+00    1.222853e+00   1.631846e-02
  1.515268e+00    1.248809e+00   1.646508e-02
  1.517478e+00    1.235416e+00   1.635160e-02
  1.519689e+00    1.227037e+00   1.627135e-02
  1.521899e+00    1.249792e+00   1.639845e-02
  1.524110e+00    1.271719e+00   1.652121e-02
  1.526320e+00    1.248628e+00   1.635097e-02
  1.528531e+00    1.245803e+00   1.631274e-02
  1.530741e+00    1.227478e+00   1.617335e-02
  1.532951e+00    1.225781e+00   1.614277e-02
  1.535162e+00    1.242448e+00   1.633848e-02
  1.537372e+00    1.235788e+00   1.636121e-02
  1.539583e+00    1.217792e+00   1.627544e-02
  1.541793e+00    1.212361e+00   1.624595e-02
  1.544004e+00    1.226350e+00   1.633967e-02
  1.546214e+00    1.235842e+00   1.640129e-02
  1.548425e+00    1.233785e+00   1.638788e-02
  1.550635e+00    1.259688e+00   1.656876e-02
  1.552846e+00    1.263892e+00   1.660611e-02
  1.555056e+00    1.264258e+00   1.656673e-02
  1.557266e+00    1.238288e+00   1.628551e-02
  1.559477e+00    1.243851e+00   1.626292e-02
  1.561687e+00    1.270784e+00   1.640708e-02
  1.563898e+00    1.238178e+00   1.617811e-02
  1.566108e+00    1.224152e+00   1.607038e-02
  1.568319e+00    1.227212e+00   1.607494e-02
  1.570529e+00    1.255089e+00   1.623125e-02
  1.572740e+00    1.251845e+00   1.618257e-02
  1.574950e+00    1.238630e+00   1.607068e-02
  1.577161e+00    1.237203e+00   1.603601e-02
  1.579371e+00    1.253247e+00   1.611591e-02
  1.581582e+00    1.254774e+00   1.610587e-02
  1.583792e+00    1.231793e+00   1.593979e-02
  1.586002e+00    1.211205e+00   1.578862e-02
  1.588213e+00    1.214938e+00   1.579589e-02
  1.590423e+00    1.245197e+00   1.597131e-02
  1.592634e+00    1.245009e+00   1.594848e-02
  1.594844e+00    1.250360e+00   1.596124e-02
  1.597055e+00    1.322973e+00   1.639702e-02
  1.599265e+00    1.300419e+00   1.623547e-02
  1.601476e+00    1.249042e+00   1.589113e-02
  1.603686e+00    1.240227e+00   1.581520e-02
  1.605897e+00    1.220800e+00   1.567083e-02
  1.608107e+00    1.221919e+00   1.565858e-02
  1.610317e+00    1.222443e+00   1.564273e-02
  1.612528e+00    1.227962e+00   1.565888e-02
  1.614738e+00    1.288109e+00   1.601840e-02
  1.616949e+00    1.282610e+00   1.596481e-02
  1.619159e+00    1.194784e+00   1.539002e-02
  1.621370e+00    1.209656e+00   1.546709e-02
  1.623580e+00    1.207860e+00   1.543733e-02
  1.625791e+00    1.217508e+00   1.548052e-02
  1.628001e+00    1.225647e+00   1.551375e-02
  1.630212e+00    1.198409e+00   1.532262e-02
  1.632422e+00    1.183037e+00   1.520614e-02
  1.634632e+00    1.188299e+00   1.522257e-02
  1.636843e+00    1.186732e+00   1.519493e-02
  1.639053e+00    1.167529e+00   1.505424e-02
  1.641264e+00    1.177627e+00   1.510205e-02
  1.643474e+00    1.183561e+00   1.512250e-02
  1.645685e+00    1.201519e+00   1.521983e-02
  1.647895e+00    1.186139e+00   1.510529e-02
  1.650106e+00    1.157608e+00   1.490548e-02
  1.652316e+00    1.135526e+00   1.474622e-02
  1.654527e+00    1.137908e+00   1.474504e-02
  1.656737e+00    1.119337e+00   1.460779e-02
  1.658947e+00    1.095542e+00   1.443568e-02
  1.661158e+00    1.108472e+00   1.450448e-02
  1.663368e+00    1.078093e+00   1.428865e-02
  1.665579e+00    1.095032e+00   1.438448e-02
  1.667789e+00    1.084100e+00   1.429651e-02
  1.670000e+00    1.074941e+00   1.422076e-02
  1.672210e+00    1.086189e+00   1.427925e-02
  1.674421e+00    1.070819e+00   1.416277e-02
  1.676631e+00    1.074681e+00   1.417262e-02
  1.678842e+00    1.050919e+00   1.399963e-02
  1.681052e+00    1.064360e+00   1.407370e-02
  1.683263e+00    1.044159e+00   1.392469e-02
  1.685473e+00    1.034357e+00   1.384438e-02
  1.687683e+00    1.056107e+00   1.397394e-02
  1.689894e+00    1.065982e+00   1.402347e-02
  1.692104e+00    1.046239e+00   1.387830e-02
  1.694315e+00    1.046986e+00   1.386890e-02
  1.696525e+00    1.060532e+00   1.394327e-02
  1.698736e+00    1.036866e+00   1.377217e-02
  1.700946e+00    1.033096e+00   1.373219e-02
  1.703157e+00    1.022014e+00   1.364393e-02
  1.705367e+00    1.011575e+00   1.355986e-02
  1.707578e+00    1.032716e+00   1.368636e-02
  1.709788e+00    1.024195e+00   1.361582e-02
  1.711998e+00    1.022651e+00   1.359068e-02
  1.714209e+00    9.928166e-01   1.337686e-02
  1.716419e+00    1.004655e+00   1.344231e-02
  1.718630e+00    9.951283e-01   1.336441e-02
  1.720840e+00    1.015173e+00   1.348423e-02
  1.723051e+00    1.016137e+00   1.347684e-02
  1.725261e+00    9.985636e-01   1.334529e-02
  1.727472e+00    9.960930e-01   1.331473e-02
  1.729682e+00    9.967222e-01   1.330563e-02
  1.731893e+00    9.831964e-01   1.320130e-02
  1.734103e+00    9.779166e-01   1.315226e-02
  1.736313e+00    9.718956e-01   1.309790e-02
  1.738524e+00    9.830138e-01   1.315893e-02
  1.740734e+00    9.743403e-01   1.308722e-02
  1.742945e+00    9.723324e-01   1.306043e-02
  1.745155e+00    9.717064e-01   1.304292e-02
  1.747366e+00    9.639628e-01   1.297722e-02
  1.749576e+00    9.570181e-01   1.291692e-02
  1.751787e+00    9.489034e-01   1.284891e-02
  1.753997e+00    9.623520e-01   1.292640e-02
  1.756208e+00    9.564062e-01   1.287332e-02
  1.758418e+00    9.559499e-01   1.285726e-02
  1.760628e+00    9.527620e-01   1.282256e-02
  1.762839e+00    9.378296e-01   1.270864e-02
  1.765049e+00    9.346047e-01   1.267385e-02
  1.767260e+00    9.258257e-01   1.260160e-02
  1.769470e+00    9.167570e-01   1.252701e-02
  1.771681e+00    9.177652e-01   1.252099e-02
  1.773891e+00    9.329446e-01   1.261118e-02
  1.776102e+00    9.193258e-01   1.250612e-02
  1.778312e+00    9.152472e-01   1.246581e-02
  1.780523e+00    8.978529e-01   1.233437e-02
  1.782733e+00    8.784570e-01   1.218814e-02
  1.784944e+00    8.810996e-01   1.219393e-02
  1.787154e+00    8.946348e-01   1.227498e-02
  1.789364e+00    8.889657e-01   1.222381e-02
  1.791575e+00    8.961932e-01   1.226109e-02
  1.793785e+00    9.095830e-01   1.234001e-02
  1.795996e+00    9.128547e-01   1.234974e-02
  1.798206e+00    8.947675e-01   1.221443e-02
  1.800417e+00    8.937288e-01   1.219481e-02
  1.802627e+00    8.830535e-01   1.211003e-02
  1.804838e+00    8.910874e-01   1.215302e-02
  1.807048e+00    8.858925e-01   1.210488e-02
  1.809259e+00    8.700906e-01   1.198310e-02
  1.811469e+00    8.799489e-01   1.203605e-02
  1.813679e+00    8.583952e-01   1.187311e-02
  1.815890e+00    8.769207e-01   1.198596e-02
  1.818100e+00    8.839675e-01   1.201905e-02
  1.820311e+00    8.555800e-01   1.181002e-02
  1.822521e+00    8.649335e-01   1.185977e-02
  1.824732e+00    8.577477e-01   1.179586e-02
  1.826942e+00    8.611646e-01   1.180718e-02
  1.829153e+00    8.625322e-01   1.180500e-02
  1.831363e+00    8.658922e-01   1.181608e-02
  1.833574e+00    8.596680e-01   1.176200e-02
  1.835784e+00    8.519953e-01   1.169813e-02
  1.837994e+00    8.619490e-01   1.175466e-02
  1.840205e+00    8.663540e-01   1.177354e-02
  1.842415e+00    8.714600e-01   1.179642e-02
  1.844626e+00    8.924420e-01   1.192589e-02
  1.846836e+00    8.730572e-01   1.178419e-02
  1.849047e+00    9.031903e-01   1.197397e-02
  1.851257e+00    8.695540e-01   1.173931e-02
  1.853468e+00    8.641265e-01   1.169378e-02
  1.855678e+00    8.681165e-01   1.171183e-02
  1.857889e+00    8.603894e-01   1.165109e-02
  1.860099e+00    8.656093e-01   1.167769e-02
  1.862309e+00    8.547825e-01   1.159596e-02
  1.864520e+00    8.467103e-01   1.153252e-02
  1.866730e+00    8.487272e-01   1.153690e-02
  1.868941e+00    8.510115e-01   1.154150e-02
  1.871151e+00    8.483144e-01   1.151180e-02
  1.873362e+00    8.497278e-01   1.151007e-02
  1.875572e+00    8.552653e-01   1.153652e-02
  1.877783e+00    8.613008e-01   1.156565e-02
  1.879993e+00    8.474311e-01   1.146099e-02
  1.882204e+00    8.431487e-01   1.142110e-02
  1.884414e+00    8.518915e-01   1.146903e-02
  1.886624e+00    8.520015e-01   1.145865e-02
  1.888835e+00    8.495976e-01   1.143146e-02
  1.891045e+00    8.434096e-01   1.137883e-02
  1.893256e+00    8.401641e-01   1.134582e-02
  1.895466e+00    8.376972e-01   1.131800e-02
  1.897677e+00    8.315777e-01   1.126566e-02
  1.899887e+00    8.500291e-01   1.137888e-02
  1.902098e+00    8.581563e-01   1.142214e-02
  1.904308e+00    8.456095e-01   1.132767e-02
  1.906519e+00    8.394023e-01   1.127509e-02
  1.908729e+00    8.394896e-01   1.126503e-02
  1.910940e+00    8.288448e-01   1.118222e-02
  1.913150e+00    8.373870e-01   1.122905e-02
  1.915360e+00    8.172837e-01   1.108287e-02
  1.917571e+00    8.334657e-01   1.118109e-02
  1.919781e+00    8.431905e-01   1.123531e-02
  1.921992e+00    8.317206e-01   1.114796e-02
  1.924202e+00    8.248785e-01   1.109117e-02
  1.926413e+00    8.462079e-01   1.122317e-02
  1.928623e+00    8.337123e-01   1.112936e-02
  1.930834e+00    8.029214e-01   1.091153e-02
  1.933044e+00    8.083869e-01   1.093796e-02
  1.935255e+00    8.141032e-01   1.096618e-02
  1.937465e+00    8.175808e-01   1.097914e-02
  1.939675e+00    8.229824e-01   1.100439e-02
  1.941886e+00    8.033936e-01   1.086238e-02
  1.944096e+00    7.972808e-01   1.081082e-02
  1.946307e+00    7.938987e-01   1.077758e-02
  1.948517e+00    8.143806e-01   1.090518e-02
  1.950728e+00    7.984092e-01   1.078749e-02
  1.952938e+00    7.826307e-01   1.067036e-02
  1.955149e+00    7.925103e-01   1.072727e-02
  1.957359e+00    7.895729e-01   1.069739e-02
  1.959570e+00    7.935197e-01   1.071322e-02
  1.961780e+00    7.985604e-01   1.073725e-02
  1.963990e+00    7.953653e-01   1.070561e-02
  1.966201e+00    7.808764e-01   1.059766e-02
  1.968411e+00    7.858946e-01   1.062151e-02
  1.970622e+00    8.071275e-01   1.075383e-02
  1.972832e+00    7.916415e-01   1.064018e-02
  1.975043e+00    7.874406e-01   1.060185e-02
  1.977253e+00    7.938854e-01   1.063514e-02
  1.979464e+00    7.706375e-01   1.046832e-02
  1.981674e+00    7.778249e-01   1.050677e-02
  1.983885e+00    7.849550e-01   1.054480e-02
  1.986095e+00    7.788936e-01   1.049431e-02
  1.988305e+00    7.931095e-01   1.057966e-02
  1.990516e+00    7.931477e-01   1.056991e-02
  1.992726e+00    7.930375e-01   1.055941e-02
  1.994937e+00    7.971453e-01   1.057646e-02
  1.997147e+00    7.851667e-01   1.048691e-02
  1.999358e+00    7.728836e-01   1.039472e-02
  2.001568e+00    7.684932e-01   1.035438e-02
  2.003779e+00    7.682103e-01   1.034059e-02
  2.005989e+00    7.404044e-01   1.013994e-02
  2.008200e+00    7.631928e-01   1.028332e-02
  2.010410e+00    7.669516e-01   1.029690e-02
  2.012621e+00    7.560182e-01   1.021162e-02
  2.014831e+00    7.840412e-01   1.038755e-02
  2.017041e+00    7.784603e-01   1.034008e-02
  2.019252e+00    7.685232e-01   1.026388e-02
  2.021462e+00    7.628064e-01   1.021615e-02
  2.023673e+00    7.617812e-01   1.019990e-02
  2.025883e+00    7.703658e-01   1.024765e-02
  2.028094e+00    7.600256e-01   1.016901e-02
  2.030304e+00    7.648484e-01   1.019167e-02
  2.032515e+00    7.571377e-01   1.013089e-02
  2.034725e+00    7.771895e-01   1.025461e-02
  2.036936e+00    7.597857e-01   1.012981e-02
  2.039146e+00    7.581139e-01   1.010906e-02
  2.041356e+00    7.759672e-01   1.021765e-02
  2.043567e+00    7.697622e-01   1.016732e-02
  2.045777e+00    7.466237e-01   1.000415e-02
  2.047988e+00    7.542081e-01   1.004546e-02
  2.050198e+00    7.491309e-01   1.000320e-02
  2.052409e+00    7.498332e-01   1.000024e-02
  2.054619e+00    7.577168e-01   1.004526e-02
  2.056830e+00    7.598628e-01   1.005227e-02
  2.059040e+00    7.501477e-01   9.980299e-03
  2.061251e+00    7.466574e-01   9.949807e-03
  2.063461e+00    7.480574e-01   9.951548e-03
  2.065671e+00    7.387999e-01   9.881106e-03
  2.067882e+00    7.585741e-01   1.000342e-02
  2.070092e+00    7.376788e-01   9.855548e-03
  2.072303e+00    7.340013e-01   9.821876e-03
  2.074513e+00    7.293874e-01   9.781753e-03
  2.076724e+00    7.282597e-01   9.764811e-03
  2.078934e+00    7.449219e-01   9.866880e-03
  2.081145e+00    7.506859e-01   9.895839e-03
  2.083355e+00    7.444192e-01   9.845280e-03
  2.085566e+00    7.530422e-01   9.893144e-03
  2.087776e+00    7.450464e-01   9.830935e-03
  2.089986e+00    7.480615e-01   9.841982e-03
  2.092197e+00    7.357798e-01   9.751895e-03
  2.094407e+00    7.492682e-01   9.831568e-03
  2.096618e+00    7.355926e-01   9.732540e-03
  2.098828e+00    7.256560e-01   9.657321e-03
  2.101039e+00    7.209077e-01   9.616782e-03
  2.103249e+00    7.173452e-01   9.584381e-03
  2.105460e+00    7.260486e-01   9.633376e-03
  2.107670e+00    7.226964e-01   9.602394e-03
  2.109881e+00    7.158049e-01   9.547434e-03
  2.112091e+00    7.101068e-01   9.500443e-03
  2.114301e+00    7.229876e-01   9.577464e-03
  2.116512e+00    7.133897e-01   9.504939e-03
  2.118722e+00    7.311866e-01   9.613881e-03
  2.120933e+00    7.179648e-01   9.517738e-03
  2.123143e+00    7.080036e-01   9.442630e-03
  2.125354e+00    6.984397e-01   9.370220e-03
  2.127564e+00    7.161940e-01   9.479835e-03
  2.129775e+00    7.146572e-01   9.460952e-03
  2.131985e+00    6.919030e-01   9.300199e-03
  2.134196e+00    6.941984e-01   9.307138e-03
  2.136406e+00    7.018437e-01   9.349559e-03
  2.138617e+00    7.263710e-01   9.502971e-03
  2.140827e+00    7.159060e-01   9.450435e-03
  2.143037e+00    6.933734e-01   9.345547e-03
  2.145248e+00    7.005752e-01   9.415863e-03
  2.147458e+00    6.937198e-01   9.384715e-03
  2.149669e+00    6.968209e-01   9.417448e-03
  2.151879e+00    7.175896e-01   9.566100e-03
  2.154090e+00    7.085009e-01   9.512683e-03
  2.156300e+00    7.019480e-01   9.475197e-03
  2.158511e+00    6.959541e-01   9.439946e-03
  2.160721e+00    6.986895e-01   9.463289e-03
  2.162932e+00    6.894815e-01   9.404466e-03
  2.165142e+00    6.775802e-01   9.325898e-03
  2.167352e+00    6.912763e-01   9.422597e-03
  2.169563e+00    6.735221e-01   9.302723e-03
  2.171773e+00    6.927905e-01   9.437299e-03
  2.173984e+00    6.862943e-01   9.394349e-03
  2.176194e+00    6.982279e-01   9.476894e-03
  2.178405e+00    6.751695e-01   9.319785e-03
  2.180615e+00    6.710396e-01   9.291899e-03
  2.182826e+00    6.735181e-01   9.309709e-03
  2.185036e+00    7.037038e-01   9.516094e-03
  2.187247e+00    6.756400e-01   9.324385e-03
  2.189457e+00    6.689378e-01   9.277602e-03
  2.191667e+00    6.899962e-01   9.422324e-03
  2.193878e+00    6.780031e-01   9.339526e-03
  2.196088e+00    6.757286e-01   9.323162e-03
  2.198299e+00    6.787322e-01   9.342773e-03
  2.200509e+00    6.768428e-01   9.328716e-03
  2.202720e+00    6.797536e-01   9.347594e-03
  2.204930e+00    6.805174e-01   9.351606e-03
  2.207141e+00    6.938234e-01   9.441460e-03
  2.209351e+00    6.921384e-01   9.428097e-03
  2.211562e+00    6.760525e-01   9.316283e-03
  2.213772e+00    6.786021e-01   9.278271e-03
  2.215982e+00    6.743090e-01   9.204727e-03
  2.218193e+00    6.693236e-01   9.141141e-03
  2.220403e+00    6.625470e-01   9.070380e-03
  2.222614e+00    6.767058e-01   9.145794e-03
  2.224824e+00    6.712967e-01   9.089805e-03
  2.227035e+00    6.833206e-01   9.153290e-03
  2.229245e+00    6.791241e-01   9.108069e-03
  2.231456e+00    6.768839e-01   9.077368e-03
  2.233666e+00    6.578305e-01   8.933742e-03
  2.235877e+00    6.591419e-01   8.928488e-03
  2.238087e+00    6.637152e-01   8.946001e-03
  2.240298e+00    6.725910e-01   8.991816e-03
  2.242508e+00    6.650281e-01   8.926035e-03
  2.244718e+00    6.612691e-01   8.885053e-03
  2.246929e+00    6.704744e-01   8.932226e-03
  2.249139e+00    6.581311e-01   8.837346e-03
  2.251350e+00    6.581659e-01   8.825947e-03
  2.253560e+00    6.530430e-01   8.780075e-03
  2.255771e+00    6.641380e-01   8.842961e-03
  2.257981e+00    6.469451e-01   8.716723e-03
  2.260192e+00    6.643485e-01   8.822061e-03
  2.262402e+00    6.542697e-01   8.744140e-03
  2.264613e+00    6.489822e-01   8.698010e-03
  2.266823e+00    6.575375e-01   8.744793e-03
  2.269033e+00    6.766531e-01   8.860508e-03
  2.271244e+00    6.660603e-01   8.780485e-03
  2.273454e+00    6.551191e-01   8.697838e-03
  2.275665e+00    6.736039e-01   8.809301e-03
  2.277875e+00    6.588181e-01   8.702192e-03
  2.280086e+00    6.521708e-01   8.648175e-03
  2.282296e+00    6.666189e-01   8.733999e-03
  2.284507e+00    6.532198e-01   8.635686e-03
  2.286717e+00    6.592863e-01   8.666219e-03
  2.288928e+00    6.511713e-01   8.602894e-03
  2.291138e+00    6.526827e-01   8.603483e-03
  2.293348e+00    6.508093e-01   8.581610e-03
  2.295559e+00    6.490781e-01   8.560935e-03
  2.297769e+00    6.435033e-01   8.514919e-03
  2.299980e+00    6.533267e-01   8.570323e-03
  2.302190e+00    6.503106e-01   8.541417e-03
  2.304401e+00    6.417157e-01   8.475550e-03
  2.306611e+00    6.414378e-01   8.464573e-03
  2.308822e+00    6.340876e-01   8.407682e-03
  2.311032e+00    6.338674e-01   8.399829e-03
  2.313243e+00    6.531341e-01   8.520253e-03
  2.315453e+00    6.445138e-01   8.456302e-03
  2.317663e+00    6.550840e-01   8.516172e-03
  2.319874e+00    6.511378e-01   8.481729e-03
  2.322084e+00    6.433674e-01   8.422032e-03
  2.324295e+00    6.375780e-01   8.375876e-03
  2.326505e+00    6.292247e-01   8.311859e-03
  2.328716e+00    6.446292e-01   8.404444e-03
  2.330926e+00    6.377786e-01   8.350908e-03
  2.333137e+00    6.363615e-01   8.333286e-03
  2.335347e+00    6.419595e-01   8.360992e-03
  2.337558e+00    6.381645e-01   8.328013e-03
  2.339768e+00    6.329902e-01   8.285670e-03
  2.341979e+00    6.286984e-01   8.249228e-03
  2.344189e+00    6.243752e-01   8.212503e-03
  2.346399e+00    6.347633e-01   8.272059e-03
  2.348610e+00    6.334994e-01   8.255369e-03
  2.350820e+00    6.283728e-01   8.213780e-03
  2.353031e+00    6.122337e-01   8.099454e-03
  2.355241e+00    6.223532e-01   8.158135e-03
  2.357452e+00    6.167071e-01   8.112730e-03
  2.359662e+00    6.283253e-01   8.180588e-03
  2.361873e+00    6.218177e-01   8.129943e-03
  2.364083e+00    6.144605e-01   8.073807e-03
  2.366294e+00    6.326442e-01   8.184258e-03
  2.368504e+00    6.170483e-01   8.074742e-03
  2.370714e+00    6.256974e-01   8.123069e-03
  2.372925e+00    6.169915e-01   8.058377e-03
  2.375135e+00    6.090103e-01   7.998113e-03
  2.377346e+00    6.054618e-01   7.966977e-03
  2.379556e+00    5.926844e-01   7.874727e-03
  2.381767e+00    6.119292e-01   7.993760e-03
  2.383977e+00    6.046185e-01   7.938039e-03
  2.386188e+00    6.051232e-01   7.933540e-03
  2.388398e+00    5.972937e-01   7.874200e-03
  2.390609e+00    6.200909e-01   8.015339e-03
  2.392819e+00    6.141402e-01   7.969020e-03
  2.395029e+00    6.097397e-01   7.932805e-03
  2.397240e+00    6.132258e-01   7.947573e-03
  2.399450e+00    6.165230e-01   7.961097e-03
  2.401661e+00    6.115386e-01   7.921177e-03
  2.403871e+00    6.005588e-01   7.842045e-03
  2.406082e+00    6.086014e-01   7.886955e-03
  2.408292e+00    6.081682e-01   7.876368e-03
  2.410503e+00    5.976921e-01   7.800816e-03
  2.412713e+00    6.054870e-01   7.843722e-03
  2.414924e+00    5.959091e-01   7.774025e-03
  2.417134e+00    6.012819e-01   7.801375e-03
  2.419344e+00    6.006711e-01   7.790006e-03
  2.421555e+00    6.023169e-01   7.793184e-03
  2.423765e+00    5.752491e-01   7.608810e-03
  2.425976e+00    5.797929e-01   7.631108e-03
  2.428186e+00    5.823920e-01   7.641075e-03
  2.430397e+00    5.967237e-01   7.727046e-03
  2.432607e+00    5.942964e-01   7.704048e-03
  2.434818e+00    5.981936e-01   7.721712e-03
  2.437028e+00    5.920450e-01   7.674792e-03
  2.439239e+00    5.912479e-01   7.661977e-03
  2.441449e+00    5.873789e-01   7.629690e-03
  2.443659e+00    5.889535e-01   7.632597e-03
  2.445870e+00    5.829594e-01   7.605820e-03
  2.448080e+00    5.711671e-01   7.562960e-03
  2.450291e+00    5.750718e-01   7.605325e-03
  2.452501e+00    5.674728e-01   7.566014e-03
  2.454712e+00    5.666808e-01   7.569090e-03
  2.456922e+00    5.615409e-01   7.541268e-03
  2.459133e+00    5.580238e-01   7.522985e-03
  2.461343e+00    5.640608e-01   7.567923e-03
  2.463554e+00    5.501572e-01   7.477491e-03
  2.465764e+00    5.565087e-01   7.523640e-03
  2.467975e+00    5.662261e-01   7.591357e-03
  2.470185e+00    5.479063e-01   7.469768e-03
  2.472395e+00    5.453094e-01   7.453251e-03
  2.474606e+00    5.368885e-01   7.397026e-03
  2.476816e+00    5.488549e-01   7.479723e-03
  2.479027e+00    5.513207e-01   7.497362e-03
  2.481237e+00    5.517488e-01   7.500558e-03
  2.483448e+00    5.490945e-01   7.482793e-03
  2.485658e+00    5.543737e-01   7.518527e-03
  2.487869e+00    5.573261e-01   7.538564e-03
  2.490079e+00    5.588990e-01   7.548674e-03
  2.492290e+00    5.469995e-01   7.467445e-03
  2.494500e+00    5.512875e-01   7.495919e-03
  2.496710e+00    5.291304e-01   7.343041e-03
  2.498921e+00    5.154187e-01   7.246318e-03
  2.501131e+00    5.144215e-01   7.238343e-03
  2.503342e+00    5.174570e-01   7.258442e-03
  2.505552e+00    5.184802e-01   7.264482e-03
  2.507763e+00    5.208783e-01   7.279865e-03
  2.509973e+00    5.216309e-01   7.283743e-03
  2.512184e+00    5.215875e-01   7.281829e-03
  2.514394e+00    5.204049e-01   7.264270e-03
  2.516605e+00    5.137675e-01   7.171309e-03
  2.518815e+00    5.156462e-01   7.156348e-03
  2.521025e+00    5.259209e-01   7.206341e-03
  2.523236e+00    5.187861e-01   7.139414e-03
  2.525446e+00    5.087193e-01   7.054470e-03
  2.527657e+00    5.241398e-01   7.145977e-03
  2.529867e+00    5.261942e-01   7.145788e-03
  2.532078e+00    5.270880e-01   7.136792e-03
  2.534288e+00    5.211158e-01   7.082391e-03
  2.536499e+00    5.225160e-01   7.080008e-03
  2.538709e+00    5.171648e-01   7.032719e-03
  2.540920e+00    5.287809e-01   7.100582e-03
  2.543130e+00    5.220871e-01   7.045149e-03
  2.545340e+00    5.149914e-01   6.987133e-03
  2.547551e+00    5.214823e-01   7.021086e-03
  2.549761e+00    5.148934e-01   6.967092e-03
  2.551972e+00    5.308871e-01   7.065027e-03
  2.554182e+00    5.241345e-01   7.010755e-03
  2.556393e+00    5.201103e-01   6.974704e-03
  2.558603e+00    5.146640e-01   6.929057e-03
  2.560814e+00    5.253352e-01   6.991788e-03
  2.563024e+00    5.122612e-01   6.895714e-03
  2.565235e+00    5.101680e-01   6.872182e-03
  2.567445e+00    5.179803e-01   6.915045e-03
  2.569656e+00    5.106584e-01   6.856343e-03
  2.571866e+00    5.095107e-01   6.839342e-03
  2.574076e+00    5.064794e-01   6.809788e-03
  2.576287e+00    5.093050e-01   6.820495e-03
  2.578497e+00    5.060437e-01   6.790847e-03
  2.580708e+00    5.031338e-01   6.763306e-03
  2.582918e+00    5.011621e-01   6.742392e-03
  2.585129e+00    4.973345e-01   6.708969e-03
  2.587339e+00    4.943648e-01   6.681375e-03
  2.589550e+00    5.015563e-01   6.722329e-03
  2.591760e+00    5.039464e-01   6.730644e-03
  2.593971e+00    5.012527e-01   6.705200e-03
  2.596181e+00    4.900076e-01   6.623460e-03
  2.598391e+00    5.021486e-01   6.699875e-03
  2.600602e+00    4.846790e-01   6.576525e-03
  2.602812e+00    5.021166e-01   6.686301e-03
  2.605023e+00    5.160335e-01   6.771098e-03
  2.607233e+00    5.108663e-01   6.729984e-03
  2.609444e+00    4.956627e-01   6.621921e-03
  2.611654e+00    5.039774e-01   6.669927e-03
  2.613865e+00    5.006965e-01   6.641185e-03
  2.616075e+00    5.047799e-01   6.661086e-03
  2.618286e+00    5.051643e-01   6.656629e-03
  2.620496e+00    4.982122e-01   6.604022e-03
  2.622706e+00    4.949462e-01   6.576633e-03
  2.624917e+00    5.052663e-01   6.638999e-03
  2.627127e+00    4.956624e-01   6.569922e-03
  2.629338e+00    4.970381e-01   6.573082e-03
  2.631548e+00    4.888661e-01   6.512739e-03
  2.633759e+00    4.960665e-01   6.553438e-03
  2.635969e+00    5.023267e-01   6.587948e-03
  2.638180e+00    5.108843e-01   6.636800e-03
  2.640390e+00    4.967359e-01   6.537675e-03
  2.642601e+00    4.898137e-01   6.485370e-03
  2.644811e+00    5.020822e-01   6.558999e-03
  2.647021e+00    4.941050e-01   6.500155e-03
  2.649232e+00    5.005952e-01   6.535994e-03
  2.651442e+00    4.932426e-01   6.481332e-03
  2.653653e+00    5.077584e-01   6.569178e-03
  2.655863e+00    4.965514e-01   6.489604e-03
  2.658074e+00    4.985711e-01   6.496168e-03
  2.660284e+00    5.004270e-01   6.501876e-03
  2.662495e+00    4.908605e-01   6.432717e-03
  2.664705e+00    4.987721e-01   6.477771e-03
  2.666916e+00    4.872196e-01   6.395911e-03
  2.669126e+00    4.896130e-01   6.405190e-03
  2.671337e+00    4.851772e-01   6.369587e-03
  2.673547e+00    4.879090e-01   6.381164e-03
  2.675757e+00    4.960104e-01   6.427465e-03
  2.677968e+00    4.843633e-01   6.345104e-03
  2.680178e+00    4.747571e-01   6.275589e-03
  2.682389e+00    4.923036e-01   6.384098e-03
  2.684599e+00    4.962049e-01   6.403157e-03
  2.686810e+00    4.909467e-01   6.362534e-03
  2.689020e+00    4.907395e-01   6.354921e-03
  2.691231e+00    4.901439e-01   6.344759e-03
  2.693441e+00    4.920311e-01   6.350814e-03
  2.695652e+00    4.841246e-01   6.293118e-03
  2.697862e+00    4.813445e-01   6.268719e-03
  2.700072e+00    4.830489e-01   6.273776e-03
  2.702283e+00    4.888416e-01   6.305063e-03
  2.704493e+00    4.873084e-01   6.288901e-03
  2.706704e+00    4.893191e-01   6.295436e-03
  2.708914e+00    4.819834e-01   6.242159e-03
  2.711125e+00    4.805237e-01   6.226490e-03
  2.713335e+00    4.843608e-01   6.245224e-03
  2.715546e+00    4.945941e-01   6.304335e-03
  2.717756e+00    4.935310e-01   6.291647e-03
  2.719967e+00    4.732095e-01   6.154629e-03
  2.722177e+00    4.709020e-01   6.133544e-03
  2.724387e+00    4.858200e-01   6.223854e-03
  2.726598e+00    4.758258e-01   6.153498e-03
  2.728808e+00    4.858505e-01   6.211834e-03
  2.731019e+00    4.612972e-01   6.046870e-03
  2.733229e+00    4.716912e-01   6.108853e-03
  2.735440e+00    4.757504e-01   6.128902e-03
  2.737650e+00    4.801998e-01   6.151466e-03
  2.739861e+00    4.869868e-01   6.188718e-03
  2.742071e+00    4.895596e-01   6.199258e-03
  2.744282e+00    4.856577e-01   6.168241e-03
  2.746492e+00    4.728271e-01   6.080239e-03
  2.748702e+00    4.671006e-01   6.037500e-03
  2.750913e+00    4.709380e-01   6.056503e-03
  2.753123e+00    4.734819e-01   6.066790e-03
  2.755334e+00    4.793457e-01   6.098151e-03
  2.757544e+00    4.924352e-01   6.175076e-03
  2.759755e+00    4.890294e-01   6.147720e-03
  2.761965e+00    4.873497e-01   6.131148e-03
  2.764176e+00    4.741020e-01   6.041292e-03
  2.766386e+00    4.795384e-01   6.070028e-03
  2.768597e+00    4.833390e-01   6.088157e-03
  2.770807e+00    4.756557e-01   6.033720e-03
  2.773017e+00    4.623759e-01   5.943027e-03
  2.775228e+00    4.703002e-01   5.988005e-03
  2.777438e+00    4.641941e-01   5.943296e-03
  2.779649e+00    4.652933e-01   5.944488e-03
  2.781859e+00    4.712844e-01   5.976933e-03
  2.784070e+00    4.666696e-01   5.941794e-03
  2.786280e+00    4.756942e-01   5.993220e-03
  2.788491e+00    4.690735e-01   5.945570e-03
  2.790701e+00    4.850985e-01   6.040585e-03
  2.792912e+00    4.763896e-01   5.980161e-03
  2.795122e+00    4.663163e-01   5.910917e-03
  2.797333e+00    4.695833e-01   5.926054e-03
  2.799543e+00    4.606688e-01   5.863784e-03
  2.801753e+00    4.584370e-01   5.843794e-03
  2.803964e+00    4.594742e-01   5.844840e-03
  2.806174e+00    4.740284e-01   5.930533e-03
  2.808385e+00    4.710743e-01   5.905291e-03
  2.810595e+00    4.569125e-01   5.809080e-03
  2.812806e+00    4.751612e-01   5.917356e-03
  2.815016e+00    4.566695e-01   5.796415e-03
  2.817227e+00    4.610967e-01   5.849998e-03
  2.819437e+00    4.615384e-01   5.863750e-03
  2.821648e+00    4.630225e-01   5.875427e-03
  2.823858e+00    4.746165e-01   5.953870e-03
  2.826068e+00    4.716157e-01   5.940017e-03
  2.828279e+00    4.578915e-01   5.856909e-03
  2.830489e+00    4.659300e-01   5.911412e-03
  2.832700e+00    4.647045e-01   5.906173e-03
  2.834910e+00    4.674869e-01   5.925876e-03
  2.837121e+00    4.689440e-01   5.936823e-03
  2.839331e+00    4.545256e-01   5.846046e-03
  2.841542e+00    4.678033e-01   5.931820e-03
  2.843752e+00    4.758672e-01   5.983519e-03
  2.845963e+00    4.835815e-01   6.032238e-03
  2.848173e+00    4.554349e-01   5.854144e-03
  2.850383e+00    4.644237e-01   5.911912e-03
  2.852594e+00    4.732223e-01   5.967572e-03
  2.854804e+00    4.642957e-01   5.910526e-03
  2.857015e+00    4.644072e-01   5.910797e-03
  2.859225e+00    4.644644e-01   5.910922e-03
  2.861436e+00    4.574780e-01   5.865630e-03
  2.863646e+00    4.581012e-01   5.869682e-03
  2.865857e+00    4.636216e-01   5.905265e-03
  2.868067e+00    4.540178e-01   5.844016e-03
  2.870278e+00    4.531029e-01   5.837767e-03
  2.872488e+00    4.501849e-01   5.817798e-03
  2.874698e+00    4.598580e-01   5.878931e-03
  2.876909e+00    4.554825e-01   5.849572e-03
  2.879119e+00    4.471586e-01   5.794286e-03
  2.881330e+00    4.565712e-01   5.853490e-03
  2.883540e+00    4.534282e-01   5.831933e-03
  2.885751e+00    4.548712e-01   5.839576e-03
  2.887961e+00    4.616421e-01   5.880980e-03
  2.890172e+00    4.732639e-01   5.952939e-03
  2.892382e+00    4.716690e-01   5.941066e-03
  2.894593e+00    4.732037e-01   5.948886e-03
  2.896803e+00    4.692673e-01   5.922106e-03
  2.899014e+00    4.617797e-01   5.872733e-03
  2.901224e+00    4.698556e-01   5.921858e-03
  2.903434e+00    4.618677e-01   5.869372e-03
  2.905645e+00    4.510750e-01   5.798167e-03
  2.907855e+00    4.651654e-01   5.885922e-03
  2.910066e+00    4.655832e-01   5.886473e-03
  2.912276e+00    4.651509e-01   5.881604e-03
  2.914487e+00    4.639853e-01   5.871765e-03
  2.916697e+00    4.583516e-01   5.833776e-03
  2.918908e+00    4.646637e-01   5.871807e-03
  2.921118e+00    4.583881e-01   5.829305e-03
  2.923329e+00    4.626465e-01   5.853998e-03
  2.925539e+00    4.595907e-01   5.832356e-03
  2.927749e+00    4.513718e-01   5.777675e-03
  2.929960e+00    4.471076e-01   5.747562e-03
  2.932170e+00    4.477773e-01   5.749566e-03
  2.934381e+00    4.516056e-01   5.771662e-03
  2.936591e+00    4.450068e-01   5.726795e-03
  2.938802e+00    4.482348e-01   5.744829e-03
  2.941012e+00    4.525279e-01   5.769964e-03
  2.943223e+00    4.513507e-01   5.759765e-03
  2.945433e+00    4.520860e-01   5.760739e-03
  2.947644e+00    4.549076e-01   5.774545e-03
  2.949854e+00    4.531721e-01   5.759271e-03
  2.952064e+00    4.498557e-01   5.733962e-03
  2.954275e+00    4.397106e-01   5.664606e-03
  2.956485e+00    4.325248e-01   5.614021e-03
  2.958696e+00    4.534587e-01   5.743919e-03
  2.960906e+00    4.467473e-01   5.697122e-03
  2.963117e+00    4.421086e-01   5.663035e-03
  2.965327e+00    4.496582e-01   5.707300e-03
  2.967538e+00    4.631406e-01   5.789284e-03
  2.969748e+00    4.537000e-01   5.727176e-03
  2.971959e+00    4.601254e-01   5.764431e-03
  2.974169e+00    4.507191e-01   5.702631e-03
  2.976379e+00    4.541755e-01   5.721541e-03
  2.978590e+00    4.509149e-01   5.697825e-03
  2.980800e+00    4.648000e-01   5.782074e-03
  2.983011e+00    4.489553e-01   5.679878e-03
  2.985221e+00    4.472134e-01   5.665724e-03
  2.987432e+00    4.501822e-01   5.681396e-03
  2.989642e+00    4.433281e-01   5.635378e-03
  2.991853e+00    4.545684e-01   5.703109e-03
  2.994063e+00    4.478248e-01   5.657753e-03
  2.996274e+00    4.478810e-01   5.654937e-03
  2.998484e+00    4.517412e-01   5.676566e-03
  3.000694e+00    4.373585e-01   5.582083e-03
  3.002905e+00    4.371418e-01   5.577806e-03
  3.005115e+00    4.462598e-01   5.632716e-03
  3.007326e+00    4.526015e-01   5.669456e-03
  3.009536e+00    4.391109e-01   5.581129e-03
  3.011747e+00    4.478019e-01   5.633173e-03
  3.013957e+00    4.434274e-01   5.602461e-03
  3.016168e+00    4.416125e-01   5.587759e-03
  3.018378e+00    4.390194e-01   5.568330e-03
  3.020589e+00    4.569761e-01   5.677837e-03
  3.022799e+00    4.522794e-01   5.645444e-03
  3.025010e+00    4.432161e-01   5.585364e-03
  3.027220e+00    4.444853e-01   5.590282e-03
  3.029430e+00    4.480426e-01   5.609377e-03
  3.031641e+00    4.486168e-01   5.609835e-03
  3.033851e+00    4.504425e-01   5.617742e-03
  3.036062e+00    4.471427e-01   5.594357e-03
  3.038272e+00    4.451426e-01   5.578279e-03
  3.040483e+00    4.402887e-01   5.544590e-03
  3.042693e+00    4.543447e-01   5.629133e-03
  3.044904e+00    4.627524e-01   5.676897e-03
  3.047114e+00    4.405590e-01   5.534370e-03
  3.049325e+00    4.390299e-01   5.520391e-03
  3.051535e+00    4.489919e-01   5.578288e-03
  3.053745e+00    4.421519e-01   5.530940e-03
  3.055956e+00    4.585717e-01   5.628084e-03
  3.058166e+00    4.357935e-01   5.482339e-03
  3.060377e+00    4.414067e-01   5.512812e-03
  3.062587e+00    4.501275e-01   5.562359e-03
  3.064798e+00    4.414375e-01   5.504208e-03
  3.067008e+00    4.429268e-01   5.508775e-03
  3.069219e+00    4.490352e-01   5.542134e-03
  3.071429e+00    4.443983e-01   5.509955e-03
  3.073640e+00    4.409007e-01   5.484927e-03
  3.075850e+00    4.361184e-01   5.451566e-03
  3.078060e+00    4.409329e-01   5.478497e-03
  3.080271e+00    4.482025e-01   5.519999e-03
  3.082481e+00    4.552867e-01   5.559972e-03
  3.084692e+00    4.567018e-01   5.565226e-03
  3.086902e+00    4.407574e-01   5.463981e-03
  3.089113e+00    4.328345e-01   5.411148e-03
  3.091323e+00    4.329262e-01   5.408390e-03
  3.093534e+00    4.357264e-01   5.422542e-03
  3.095744e+00    4.321641e-01   5.396997e-03
  3.097955e+00    4.468614e-01   5.484465e-03
  3.100165e+00    4.461365e-01   5.476686e-03
  3.102375e+00    4.449493e-01   5.465979e-03
  3.104586e+00    4.439251e-01   5.456209e-03
  3.106796e+00    4.457743e-01   5.464049e-03
  3.109007e+00    4.399360e-01   5.424944e-03
  3.111217e+00    4.437838e-01   5.444935e-03
  3.113428e+00    4.455090e-01   5.452087e-03
  3.115638e+00    4.580593e-01   5.525088e-03
  3.117849e+00    4.341356e-01   5.375190e-03
  3.120059e+00    4.496174e-01   5.466692e-03
  3.122270e+00    4.551450e-01   5.496921e-03
  3.124480e+00    4.413197e-01   5.409113e-03
  3.126691e+00    4.402790e-01   5.399194e-03
  3.128901e+00    4.274336e-01   5.316776e-03
  3.131111e+00    4.444901e-01   5.417971e-03
  3.133322e+00    4.398987e-01   5.386512e-03
  3.135532e+00    4.444682e-01   5.410983e-03
  3.137743e+00    4.525431e-01   5.456422e-03
  3.139953e+00    4.434642e-01   5.397733e-03
  3.142164e+00    4.399889e-01   5.388495e-03
  3.144374e+00    4.382978e-01   5.406423e-03
  3.146585e+00    4.371561e-01   5.413859e-03
  3.148795e+00    4.348475e-01   5.410211e-03
  3.151006e+00    4.415161e-01   5.460082e-03
  3.153216e+00    4.265308e-01   5.373655e-03
  3.155426e+00    4.310932e-01   5.408525e-03
  3.157637e+00    4.352654e-01   5.440148e-03
  3.159847e+00    4.285638e-01   5.402902e-03
  3.162058e+00    4.329149e-01   5.434657e-03
  3.164268e+00    4.278710e-01   5.406918e-03
  3.166479e+00    4.272316e-01   5.406470e-03
  3.168689e+00    4.367418e-01   5.469655e-03
  3.170900e+00    4.352923e-01   5.463754e-03
  3.173110e+00    4.302793e-01   5.435028e-03
  3.175321e+00    4.350170e-01   5.467364e-03
  3.177531e+00    4.360441e-01   5.476525e-03
  3.179741e+00    4.444328e-01   5.531067e-03
  3.181952e+00    4.322941e-01   5.457108e-03
  3.184162e+00    4.238468e-01   5.405677e-03
  3.186373e+00    4.303286e-01   5.448433e-03
  3.188583e+00    4.375055e-01   5.495477e-03
  3.190794e+00    4.383082e-01   5.502264e-03
  3.193004e+00    4.394572e-01   5.510740e-03
  3.195215e+00    4.334744e-01   5.474569e-03
  3.197425e+00    4.305615e-01   5.457391e-03
  3.199636e+00    4.243866e-01   5.417304e-03
  3.201846e+00    4.376584e-01   5.500784e-03
  3.204056e+00    4.233307e-01   5.410867e-03
  3.206267e+00    4.376379e-01   5.502390e-03
  3.208477e+00    4.323575e-01   5.470024e-03
  3.210688e+00    4.248565e-01   5.423192e-03
  3.212898e+00    4.345358e-01   5.485202e-03
  3.215109e+00    4.331625e-01   5.477287e-03
  3.217319e+00    4.177108e-01   5.379338e-03
  3.219530e+00    4.208761e-01   5.400043e-03
  3.221740e+00    4.329208e-01   5.477358e-03
  3.223951e+00    4.256020e-01   5.431310e-03
  3.226161e+00    4.250668e-01   5.428091e-03
  3.228372e+00    4.365460e-01   5.501421e-03
  3.230582e+00    4.298408e-01   5.459168e-03
  3.232792e+00    4.207903e-01   5.401609e-03
  3.235003e+00    4.303825e-01   5.463038e-03
  3.237213e+00    4.388198e-01   5.516482e-03
  3.239424e+00    4.154980e-01   5.367855e-03
  3.241634e+00    4.243011e-01   5.424556e-03
  3.243845e+00    4.250568e-01   5.429449e-03
  3.246055e+00    4.313551e-01   5.469266e-03
  3.248266e+00    4.080534e-01   5.319688e-03
  3.250476e+00    4.178830e-01   5.383060e-03
  3.252687e+00    4.187379e-01   5.388511e-03
  3.254897e+00    4.081875e-01   5.320056e-03
  3.257107e+00    4.215277e-01   5.405978e-03
  3.259318e+00    4.289977e-01   5.453441e-03
  3.261528e+00    4.382171e-01   5.511567e-03
  3.263739e+00    4.482934e-01   5.574039e-03
  3.265949e+00    4.235365e-01   5.417807e-03
  3.268160e+00    4.388078e-01   5.514169e-03
  3.270370e+00    4.277276e-01   5.443634e-03
  3.272581e+00    4.017624e-01   5.275534e-03
  3.274791e+00    4.221198e-01   5.406986e-03
  3.277002e+00    4.233105e-01   5.414084e-03
  3.279212e+00    4.117804e-01   5.339454e-03
  3.281422e+00    4.249536e-01   5.423596e-03
  3.283633e+00    4.314705e-01   5.464331e-03
  3.285843e+00    4.361802e-01   5.493762e-03
  3.288054e+00    4.192510e-01   5.385142e-03
  3.290264e+00    4.284181e-01   5.443395e-03
  3.292475e+00    4.263599e-01   5.429466e-03
  3.294685e+00    4.259002e-01   5.425896e-03
  3.296896e+00    4.245205e-01   5.416349e-03
  3.299106e+00    4.157634e-01   5.359637e-03
  3.301317e+00    4.232982e-01   5.406952e-03
  3.303527e+00    4.360120e-01   5.487076e-03
  3.305737e+00    4.253216e-01   5.418366e-03
  3.307948e+00    4.166413e-01   5.362113e-03
  3.310158e+00    4.049870e-01   5.285761e-03
  3.312369e+00    4.153968e-01   5.352376e-03
  3.314579e+00    4.151349e-01   5.349793e-03
  3.316790e+00    4.206227e-01   5.384312e-03
  3.319000e+00    4.152303e-01   5.348545e-03
  3.321211e+00    4.129074e-01   5.332935e-03
  3.323421e+00    4.237987e-01   5.401612e-03
  3.325632e+00    4.384142e-01   5.493059e-03
  3.327842e+00    4.307250e-01   5.443767e-03
  3.330052e+00    4.263716e-01   5.415102e-03
  3.332263e+00    4.182385e-01   5.362194e-03
  3.334473e+00    4.271523e-01   5.418108e-03
  3.336684e+00    4.144056e-01   5.335423e-03
  3.338894e+00    4.197303e-01   5.368734e-03
  3.341105e+00    4.180149e-01   5.356556e-03
  3.343315e+00    4.215518e-01   5.378020e-03
  3.345526e+00    4.185030e-01   5.357636e-03
  3.347736e+00    4.235307e-01   5.388319e-03
  3.349947e+00    4.176304e-01   5.349717e-03
  3.352157e+00    4.266076e-01   5.405735e-03
  3.354368e+00    4.223807e-01   5.377572e-03
  3.356578e+00    4.171725e-01   5.343336e-03
  3.358788e+00    4.055248e-01   5.266861e-03
  3.360999e+00    4.227661e-01   5.376424e-03
  3.363209e+00    4.243363e-01   5.385369e-03
  3.365420e+00    4.132123e-01   5.312829e-03
  3.367630e+00    4.069198e-01   5.271195e-03
  3.369841e+00    4.088101e-01   5.282019e-03
  3.372051e+00    4.043190e-01   5.250975e-03
  3.374262e+00    4.036552e-01   5.244256e-03
  3.376472e+00    4.080041e-01   5.270028e-03
  3.378683e+00    4.111768e-01   5.287965e-03
  3.380893e+00    4.126200e-01   5.294918e-03
  3.383103e+00    4.110921e-01   5.282415e-03
  3.385314e+00    4.263028e-01   5.376993e-03
  3.387524e+00    4.150840e-01   5.303055e-03
  3.389735e+00    4.057815e-01   5.240676e-03
  3.391945e+00    4.102176e-01   5.265581e-03
  3.394156e+00    4.182134e-01   5.312411e-03
  3.396366e+00    4.112214e-01   5.264408e-03
  3.398577e+00    4.025432e-01   5.205547e-03
  3.400787e+00    4.025182e-01   5.217185e-03
  3.402998e+00    3.985052e-01   5.228634e-03
  3.405208e+00    3.963418e-01   5.234843e-03
  3.407418e+00    3.885222e-01   5.198492e-03
  3.409629e+00    3.881704e-01   5.209858e-03
  3.411839e+00    3.892782e-01   5.228919e-03
  3.414050e+00    3.925736e-01   5.261953e-03
  3.416260e+00    3.880731e-01   5.241251e-03
  3.418471e+00    3.852160e-01   5.231242e-03
  3.420681e+00    3.784976e-01   5.193767e-03
  3.422892e+00    3.743792e-01   5.173258e-03
  3.425102e+00    3.748852e-01   5.184416e-03
  3.427313e+00    3.792666e-01   5.221731e-03
  3.429523e+00    3.820088e-01   5.247589e-03
  3.431733e+00    3.841896e-01   5.269194e-03
  3.433944e+00    3.728614e-01   5.197343e-03
  3.436154e+00    3.666342e-01   5.159823e-03
  3.438365e+00    3.723668e-01   5.205883e-03
  3.440575e+00    3.898804e-01   5.332889e-03
  3.442786e+00    3.712337e-01   5.209371e-03
  3.444996e+00    3.513536e-01   5.073274e-03
  3.447207e+00    3.451904e-01   5.033652e-03
  3.449417e+00    3.569566e-01   5.158716e-03
  3.451628e+00    3.516069e-01   5.148648e-03
  3.453838e+00    3.687092e-01   5.293583e-03
  3.456049e+00    3.839699e-01   5.426484e-03
  3.458259e+00    3.694999e-01   5.345260e-03
  3.460469e+00    3.702366e-01   5.370487e-03
  3.462680e+00    3.809652e-01   5.467183e-03
  3.464890e+00    3.633974e-01   5.357357e-03
  3.467101e+00    3.836060e-01   5.522149e-03
  3.469311e+00    3.883972e-01   5.573486e-03
  3.471522e+00    3.910852e-01   5.609470e-03
  3.473732e+00    3.899814e-01   5.617746e-03
  3.475943e+00    4.151765e-01   5.812706e-03
  3.478153e+00    4.051792e-01   5.758108e-03
  3.480364e+00    4.043723e-01   5.767717e-03
  3.482574e+00    4.205017e-01   5.897260e-03
  3.484784e+00    4.347813e-01   6.011888e-03
  3.486995e+00    4.338697e-01   6.020992e-03
  3.489205e+00    4.309877e-01   6.015752e-03
  3.491416e+00    4.582493e-01   6.218539e-03
  3.493626e+00    4.560760e-01   6.218768e-03
  3.495837e+00    4.394980e-01   6.119389e-03
  3.498047e+00    4.480147e-01   6.192962e-03
  3.500258e+00    4.514261e-01   6.231052e-03
  3.502468e+00    4.556587e-01   6.274640e-03
  3.504679e+00    4.764117e-01   6.430672e-03
  3.506889e+00    4.772047e-01   6.450658e-03
  3.509099e+00    4.670320e-01   6.395799e-03
  3.511310e+00    4.772665e-01   6.480004e-03
  3.513520e+00    4.699002e-01   6.444017e-03
  3.515731e+00    4.802997e-01   6.529249e-03
  3.517941e+00    4.937496e-01   6.634417e-03
  3.520152e+00    5.022550e-01   6.705756e-03
  3.522362e+00    5.116101e-01   6.782571e-03
  3.524573e+00    5.050317e-01   6.753080e-03
  3.526783e+00    5.167244e-01   6.844251e-03
  3.528994e+00    4.971755e-01   6.725548e-03
  3.531204e+00    4.964442e-01   6.732737e-03
  3.533414e+00    5.218331e-01   6.914768e-03
  3.535625e+00    5.370784e-01   7.027555e-03
  3.537835e+00    5.392306e-01   7.053790e-03
  3.540046e+00    5.413936e-01   7.076944e-03
  3.542256e+00    5.377455e-01   7.060579e-03
  3.544467e+00    5.331785e-01   7.038149e-03
  3.546677e+00    5.246035e-01   6.988799e-03
  3.548888e+00    5.369857e-01   7.078297e-03
  3.551098e+00    5.396466e-01   7.103152e-03
  3.553309e+00    5.337892e-01   7.072633e-03
  3.555519e+00    5.298330e-01   7.057610e-03
  3.557729e+00    5.569459e-01   7.247844e-03
  3.559940e+00    5.456322e-01   7.185569e-03
  3.562150e+00    5.248591e-01   7.059021e-03
  3.564361e+00    5.230528e-01   7.060010e-03
  3.566571e+00    5.337729e-01   7.145799e-03
  3.568782e+00    5.342747e-01   7.163248e-03
  3.570992e+00    5.290644e-01   7.141903e-03
  3.573203e+00    5.344154e-01   7.192031e-03
  3.575413e+00    5.453879e-01   7.279420e-03
  3.577624e+00    5.347409e-01   7.222109e-03
  3.579834e+00    5.425683e-01   7.288740e-03
  3.582045e+00    5.384827e-01   7.275313e-03
  3.584255e+00    5.263309e-01   7.206683e-03
  3.586465e+00    5.246746e-01   7.209123e-03
  3.588676e+00    5.244099e-01   7.221328e-03
  3.590886e+00    5.371551e-01   7.322297e-03
  3.593097e+00    5.125870e-01   7.167057e-03
  3.595307e+00    5.228400e-01   7.252146e-03
  3.597518e+00    5.355455e-01   7.353935e-03
  3.599728e+00    5.314499e-01   7.339798e-03
  3.601939e+00    5.407778e-01   7.418097e-03
  3.604149e+00    5.304376e-01   7.361155e-03
  3.606360e+00    5.341417e-01   7.400918e-03
  3.608570e+00    5.559883e-01   7.565226e-03
  3.610780e+00    5.322382e-01   7.412896e-03
  3.612991e+00    5.248114e-01   7.370909e-03
  3.615201e+00    5.303245e-01   7.419281e-03
  3.617412e+00    5.368322e-01   7.471933e-03
  3.619622e+00    5.326613e-01   7.448822e-03
  3.621833e+00    5.399092e-01   7.506048e-03
  3.624043e+00    5.392784e-01   7.511233e-03
  3.626254e+00    5.203986e-01   7.388151e-03
  3.628464e+00    5.451545e-01   7.572934e-03
  3.630675e+00    5.269555e-01   7.459470e-03
  3.632885e+00    5.261992e-01   7.468462e-03
  3.635095e+00    5.386658e-01   7.570875e-03
  3.637306e+00    5.481377e-01   7.651707e-03
  3.639516e+00    5.459677e-01   7.651273e-03
  3.641727e+00    5.332994e-01   7.576540e-03
  3.643937e+00    5.080100e-01   7.408936e-03
  3.646148e+00    5.394028e-01   7.649052e-03
  3.648358e+00    5.377841e-01   7.652563e-03
  3.650569e+00    5.168922e-01   7.516933e-03
  3.652779e+00    5.121504e-01   7.496868e-03
  3.654990e+00    5.469469e-01   7.762396e-03
  3.657200e+00    5.308152e-01   7.662011e-03
  3.659410e+00    5.239510e-01   7.627137e-03
  3.661621e+00    5.282154e-01   7.673148e-03
  3.663831e+00    4.948791e-01   7.441713e-03
  3.666042e+00    5.035497e-01   7.521285e-03
  3.668252e+00    5.237656e-01   7.685934e-03
  3.670463e+00    5.369765e-01   7.797610e-03
  3.672673e+00    5.365924e-01   7.810322e-03
  3.674884e+00    5.189932e-01   7.696416e-03
  3.677094e+00    5.230246e-01   7.741625e-03
  3.679305e+00    5.107416e-01   7.665458e-03
  3.681515e+00    5.404400e-01   7.900918e-03
  3.683726e+00    5.133485e-01   7.715947e-03
  3.685936e+00    5.417351e-01   7.942231e-03
  3.688146e+00    5.195746e-01   7.793814e-03
  3.690357e+00    5.246976e-01   7.847998e-03
  3.692567e+00    5.392061e-01   7.972077e-03
  3.694778e+00    5.106245e-01   7.773729e-03
  3.696988e+00    5.201463e-01   7.861730e-03
  3.699199e+00    5.413017e-01   8.036540e-03
  3.701409e+00    5.274898e-01   7.949743e-03
  3.703620e+00    5.286615e-01   7.974942e-03
  3.705830e+00    5.239671e-01   7.955857e-03
  3.708041e+00    5.169436e-01   7.918822e-03
  3.710251e+00    5.287497e-01   8.025529e-03
  3.712461e+00    5.255490e-01   8.017994e-03
  3.714672e+00    5.352119e-01   8.108306e-03
  3.716882e+00    5.218574e-01   8.023280e-03
  3.719093e+00    5.023255e-01   7.888502e-03
  3.721303e+00    5.059628e-01   7.933702e-03
  3.723514e+00    5.318494e-01   8.151671e-03
  3.725724e+00    5.033411e-01   7.947114e-03
  3.727935e+00    4.947945e-01   7.896318e-03
  3.730145e+00    5.360947e-01   8.236966e-03
  3.732356e+00    5.203350e-01   8.132637e-03
  3.734566e+00    5.186017e-01   8.136624e-03
  3.736776e+00    5.197771e-01   8.163683e-03
  3.738987e+00    5.115277e-01   8.116372e-03
  3.741197e+00    5.169560e-01   8.177348e-03
  3.743408e+00    5.076539e-01   8.121432e-03
  3.745618e+00    5.059826e-01   8.126216e-03
  3.747829e+00    5.134996e-01   8.204507e-03
  3.750039e+00    5.128350e-01   8.217583e-03
  3.752250e+00    4.956036e-01   8.096542e-03
  3.754460e+00    4.956442e-01   8.115154e-03
  3.756671e+00    5.055990e-01   8.214949e-03
  3.758881e+00    5.091525e-01   8.262409e-03
  3.761091e+00    5.015391e-01   8.219440e-03
  3.763302e+00    5.324739e-01   8.488642e-03
  3.765512e+00    5.007375e-01   8.250966e-03
  3.767723e+00    5.116276e-01   8.359561e-03
  3.769933e+00    5.324023e-01   8.547431e-03
  3.772144e+00    5.272207e-01   8.525767e-03
  3.774354e+00    5.073640e-01   8.383553e-03
  3.776565e+00    5.008088e-01   8.348946e-03
  3.778775e+00    5.014488e-01   8.374197e-03
  3.780986e+00    4.964377e-01   8.352387e-03
  3.783196e+00    4.946101e-01   8.357055e-03
  3.785407e+00    5.234773e-01   8.618276e-03
  3.787617e+00    5.421660e-01   8.792405e-03
  3.789827e+00    4.996947e-01   8.461415e-03
  3.792038e+00    5.298527e-01   8.734471e-03
  3.794248e+00    4.932685e-01   8.448504e-03
  3.796459e+00    4.896087e-01   8.438201e-03
  3.798669e+00    5.091038e-01   8.626108e-03
  3.800880e+00    4.775083e-01   8.375112e-03
  3.803090e+00    5.230346e-01   8.787522e-03
  3.805301e+00    5.055646e-01   8.661849e-03
  3.807511e+00    5.102825e-01   8.724278e-03
  3.809722e+00    5.072188e-01   8.720547e-03
  3.811932e+00    5.109537e-01   8.774979e-03
  3.814142e+00    5.101548e-01   8.791317e-03
  3.816353e+00    5.029670e-01   8.752040e-03
  3.818563e+00    5.062366e-01   8.803744e-03
  3.820774e+00    4.928127e-01   8.709282e-03
  3.822984e+00    5.011150e-01   8.805726e-03
  3.825195e+00    5.014127e-01   8.832196e-03
  3.827405e+00    5.041815e-01   8.880596e-03
  3.829616e+00    5.013564e-01   8.879835e-03
  3.831826e+00    4.911690e-01   8.813133e-03
  3.834037e+00    5.161211e-01   9.059214e-03
  3.836247e+00    5.138760e-01   9.064608e-03
  3.838457e+00    4.873917e-01   8.852718e-03
  3.840668e+00    5.011193e-01   9.001842e-03
  3.842878e+00    5.012153e-01   9.028356e-03
  3.845089e+00    5.029333e-01   9.069568e-03
  3.847299e+00    5.004545e-01   9.073131e-03
  3.849510e+00    4.907387e-01   9.010369e-03
  3.851720e+00    4.963114e-01   9.082751e-03
  3.853931e+00    4.958163e-01   9.097288e-03
  3.856141e+00    4.992211e-01   9.147619e-03
  3.858352e+00    4.682547e-01   8.878048e-03
  3.860562e+00    4.832481e-01   9.038161e-03
  3.862772e+00    5.109815e-01   9.313797e-03
  3.864983e+00    5.050927e-01   9.279872e-03
  3.867193e+00    5.174579e-01   9.413067e-03
  3.869404e+00    4.753841e-01   9.041690e-03
  3.871614e+00    5.215856e-01   9.491384e-03
  3.873825e+00    5.183235e-01   9.482527e-03
  3.876035e+00    5.255449e-01   9.569607e-03
  3.878246e+00    4.993297e-01   9.353831e-03
  3.880456e+00    4.817190e-01   9.216040e-03
  3.882667e+00    4.956820e-01   9.378120e-03
  3.884877e+00    4.909123e-01   9.362607e-03
  3.887087e+00    5.021785e-01   9.499661e-03
  3.889298e+00    5.090007e-01   9.594944e-03
  3.891508e+00    4.813489e-01   9.360858e-03
  3.893719e+00    4.774665e-01   9.353611e-03
  3.895929e+00    5.052312e-01   9.653662e-03
  3.898140e+00    4.761367e-01   9.402773e-03
  3.900350e+00    4.935152e-01   9.605010e-03
  3.902561e+00    4.704694e-01   9.409849e-03
  3.904771e+00    4.997021e-01   9.730875e-03
  3.906982e+00    5.062386e-01   9.828073e-03
  3.909192e+00    4.670911e-01   9.473132e-03
  3.911403e+00    5.008536e-01   9.843903e-03
  3.913613e+00    4.623633e-01   9.491553e-03
  3.915823e+00    4.808517e-01   9.713850e-03
  3.918034e+00    5.011342e-01   9.952387e-03
  3.920244e+00    4.867499e-01   9.844219e-03
  3.922455e+00    4.764116e-01   9.774734e-03
  3.924665e+00    4.552613e-01   9.590420e-03
  3.926876e+00    4.850543e-01   9.936305e-03
  3.929086e+00    5.056800e-01   1.018337e-02
  3.931297e+00    4.813818e-01   9.970402e-03
  3.933507e+00    4.683923e-01   9.863198e-03
  3.935718e+00    4.969825e-01   1.018877e-02
  3.937928e+00    4.840316e-01   1.008468e-02
  3.940138e+00    4.489718e-01   9.740521e-03
  3.942349e+00    4.849932e-01   1.015365e-02
  3.944559e+00    4.817577e-01   1.014962e-02
  3.946770e+00    4.866474e-01   1.023096e-02
  3.948980e+00    4.797652e-01   1.018903e-02
  3.951191e+00    4.765778e-01   1.018562e-02
  3.953401e+00    4.747807e-01   1.019737e-02
  3.955612e+00    4.801592e-01   1.028636e-02
  3.957822e+00    5.091828e-01   1.062515e-02
  3.960033e+00    4.859814e-01   1.041296e-02
  3.962243e+00    4.822997e-01   1.040612e-02
  3.964453e+00    4.696296e-01   1.030102e-02
  3.966664e+00    4.773185e-01   1.041820e-02
  3.968874e+00    4.886027e-01   1.056903e-02
  3.971085e+00    5.107192e-01   1.082809e-02
  3.973295e+00    5.122759e-01   1.086666e-02
  3.975506e+00    4.858382e-01   1.060423e-02
  3.977716e+00    5.064147e-01   1.084885e-02
  3.979927e+00    4.484413e-01   1.023027e-02
  3.982137e+00    4.895852e-01   1.071160e-02
  3.984348e+00    5.129918e-01   1.098796e-02
  3.986558e+00    4.739664e-01   1.058382e-02
  3.988768e+00    4.691832e-01   1.055284e-02
  3.990979e+00    4.737763e-01   1.062686e-02
  3.993189e+00    4.350586e-01   1.020533e-02
  3.995400e+00    4.712712e-01   1.064463e-02
  3.997610e+00    5.030017e-01   1.102746e-02
  3.999821e+00    5.299428e-01   1.135830e-02
  4.002031e+00    4.917909e-01   1.098051e-02
  4.004242e+00    4.808278e-01   1.089570e-02
  4.006452e+00    4.653477e-01   1.075745e-02
  4.008663e+00    4.845239e-01   1.101681e-02
  4.010873e+00    4.977000e-01   1.120615e-02
  4.013084e+00    4.664527e-01   1.088883e-02
  4.015294e+00    4.904369e-01   1.120651e-02
  4.017504e+00    4.823799e-01   1.115588e-02
  4.019715e+00    4.823284e-01   1.119769e-02
  4.021925e+00    4.813531e-01   1.122916e-02
  4.024136e+00    4.673946e-01   1.110824e-02
  4.026346e+00    4.731261e-01   1.121949e-02
  4.028557e+00    4.891620e-01   1.145282e-02
  4.030767e+00    4.719770e-01   1.129492e-02
  4.032978e+00    4.603955e-01   1.120069e-02
  4.035188e+00    4.463568e-01   1.107276e-02
  4.037399e+00    4.986625e-01   1.175207e-02
  4.039609e+00    4.871455e-01   1.166334e-02
  4.041819e+00    4.803432e-01   1.163037e-02
  4.044030e+00    4.943261e-01   1.184884e-02
  4.046240e+00    4.866589e-01   1.180671e-02
  4.048451e+00    4.930353e-01   1.193513e-02
  4.050661e+00    4.830699e-01   1.186544e-02
  4.052872e+00    4.764197e-01   1.183596e-02
  4.055082e+00    5.269476e-01   1.250353e-02
  4.057293e+00    4.867854e-01   1.207165e-02
  4.059503e+00    4.825164e-01   1.207327e-02
  4.061714e+00    4.608795e-01   1.185468e-02
  4.063924e+00    4.734016e-01   1.207091e-02
  4.066134e+00    4.626496e-01   1.198919e-02
  4.068345e+00    4.696335e-01   1.213751e-02
  4.070555e+00    4.746649e-01   1.226135e-02
  4.072766e+00    4.829386e-01   1.242860e-02
  4.074976e+00    4.305257e-01   1.179327e-02
  4.077187e+00    4.870124e-01   1.260549e-02
  4.079397e+00    4.719920e-01   1.247292e-02
  4.081608e+00    4.699135e-01   1.251025e-02
  4.083818e+00    4.903742e-01   1.284599e-02
  4.086029e+00    4.882448e-01   1.288583e-02
  4.088239e+00    4.762903e-01   1.279557e-02
  4.090449e+00    4.515764e-01   1.252678e-02
  4.092660e+00    4.587048e-01   1.269461e-02
  4.094870e+00    4.870836e-01   1.315430e-02
  4.097081e+00    4.546317e-01   1.277808e-02
  4.099291e+00    4.743380e-01   1.310605e-02
  4.101502e+00    4.731346e-01   1.313848e-02
  4.103712e+00    4.780597e-01   1.325555e-02
  4.105923e+00    4.968839e-01   1.356651e-02
  4.108133e+00    4.796299e-01   1.338029e-02
  4.110344e+00    4.705281e-01   1.330354e-02
  4.112554e+00    4.493848e-01   1.305236e-02
  4.114764e+00    4.510751e-01   1.312947e-02
  4.116975e+00    4.647849e-01   1.338001e-02
  4.119185e+00    4.749022e-01   1.357981e-02
  4.121396e+00    4.965114e-01   1.394267e-02
  4.123606e+00    5.156775e-01   1.426753e-02
  4.125817e+00    4.875970e-01   1.393185e-02
  4.128027e+00    4.891150e-01   1.401219e-02
  4.130238e+00    4.686631e-01   1.377499e-02
  4.132448e+00    4.207703e-01   1.310874e-02
  4.134659e+00    5.243398e-01   1.469631e-02
  4.136869e+00    5.175869e-01   1.466665e-02
  4.139080e+00    5.167766e-01   1.472115e-02
  4.141290e+00    4.872917e-01   1.435843e-02
  4.143500e+00    5.044923e-01   1.467692e-02
  4.145711e+00    4.989367e-01   1.466414e-02
  4.147921e+00    4.717911e-01   1.432500e-02
  4.150132e+00    4.745016e-01   1.443459e-02
  4.152342e+00    5.329202e-01   1.537148e-02
  4.154553e+00    5.233714e-01   1.530584e-02
  4.156763e+00    5.300118e-01   1.547852e-02
  4.158974e+00    5.122516e-01   1.529372e-02
  4.161184e+00    5.228465e-01   1.552748e-02
  4.163395e+00    5.206491e-01   1.557416e-02
  4.165605e+00    4.750120e-01   1.495317e-02
  4.167815e+00    4.661715e-01   1.489078e-02
  4.170026e+00    4.088603e-01   1.401880e-02
  4.172236e+00    4.654891e-01   1.503901e-02
  4.174447e+00    4.763760e-01   1.529654e-02
  4.176657e+00    4.149905e-01   1.435534e-02
  4.178868e+00    4.813659e-01   1.554801e-02
  4.181078e+00    4.926675e-01   1.581827e-02
  4.183289e+00    4.561848e-01   1.530843e-02
  4.185499e+00    4.802131e-01   1.579903e-02
  4.187710e+00    5.151544e-01   1.645956e-02
  4.189920e+00    4.711228e-01   1.583524e-02
  4.192130e+00    4.843701e-01   1.615464e-02
  4.194341e+00    5.423192e-01   1.719814e-02
  4.196551e+00    5.007815e-01   1.663150e-02
  4.198762e+00    4.952361e-01   1.664395e-02
  4.200972e+00    5.181846e-01   1.713533e-02
  4.203183e+00    4.310405e-01   1.573129e-02
  4.205393e+00    4.830982e-01   1.676498e-02
  4.207604e+00    4.744920e-01   1.672834e-02
  4.209814e+00    5.015338e-01   1.731634e-02
  4.212025e+00    4.995392e-01   1.740440e-02
  4.214235e+00    5.041142e-01   1.760784e-02
  4.216445e+00    5.160859e-01   1.794447e-02
  4.218656e+00    4.778125e-01   1.739584e-02
  4.220866e+00    4.550136e-01   1.710130e-02
  4.223077e+00    5.036128e-01   1.812986e-02
  4.225287e+00    4.779262e-01   1.780026e-02
  4.227498e+00    5.002120e-01   1.835329e-02
  4.229708e+00    5.837272e-01   1.998748e-02
  4.231919e+00    5.614502e-01   1.976495e-02
  4.234129e+00    5.342360e-01   1.944156e-02
  4.236340e+00    5.008367e-01   1.898495e-02
  4.238550e+00    4.677195e-01   1.850855e-02
  4.240761e+00    5.185587e-01   1.966087e-02
  4.242971e+00    4.672430e-01   1.883341e-02
  4.245181e+00    4.444833e-01   1.854159e-02
  4.247392e+00    4.819440e-01   1.948771e-02
  4.249602e+00    5.021976e-01   2.009036e-02
  4.251813e+00    4.966283e-01   2.017591e-02
  4.254023e+00    4.190533e-01   1.871976e-02
  4.256234e+00    5.064101e-01   2.079861e-02
  4.258444e+00    4.559285e-01   1.994143e-02
  4.260655e+00    5.053948e-01   2.122575e-02
  4.262865e+00    4.816515e-01   2.095657e-02
  4.265076e+00    4.175812e-01   1.973490e-02
  4.267286e+00    4.544164e-01   2.083042e-02
  4.269496e+00    4.774322e-01   2.161270e-02
  4.271707e+00    4.923548e-01   2.221907e-02
  4.273917e+00    4.166069e-01   2.070252e-02
  4.276128e+00    3.974188e-01   2.048924e-02
  4.278338e+00    4.236413e-01   2.143611e-02
  4.280549e+00    4.941517e-01   2.348329e-02
  4.282759e+00    4.950131e-01   2.384234e-02
  4.284970e+00    4.774853e-01   2.376293e-02
  4.287180e+00    4.219160e-01   2.260454e-02
  4.289391e+00    4.656197e-01   2.392526e-02
  4.291601e+00    4.931343e-01   2.481823e-02
  4.293811e+00    4.938381e-01   2.503062e-02
  4.296022e+00    4.563544e-01   2.425450e-02
  4.298232e+00    5.099000e-01   2.585339e-02
  4.300443e+00    4.331512e-01   2.402539e-02
  4.302653e+00    4.236894e-01   2.396619e-02
  4.304864e+00    4.819644e-01   2.578329e-02
  4.307074e+00    4.542037e-01   2.525471e-02
  4.309285e+00    4.349414e-01   2.493735e-02
  4.311495e+00    5.991860e-01   2.954374e-02
  4.313706e+00    5.598136e-01   2.882496e-02
  4.315916e+00    4.646471e-01   2.651974e-02
  4.318126e+00    4.774682e-01   2.714867e-02
  4.320337e+00    4.553119e-01   2.677952e-02
  4.322547e+00    4.812641e-01   2.782424e-02
  4.324758e+00    3.890154e-01   2.527611e-02
  4.326968e+00    4.813222e-01   2.843141e-02
  4.329179e+00    4.049229e-01   2.636535e-02
  4.331389e+00    4.354756e-01   2.765671e-02
  4.333600e+00    4.762245e-01   2.926708e-02
  4.335810e+00    4.967774e-01   3.024751e-02
  4.338021e+00    5.201447e-01   3.134748e-02
  4.340231e+00    4.388279e-01   2.915396e-02
  4.342442e+00    4.707810e-01   3.060198e-02
  4.344652e+00    5.153109e-01   3.245090e-02
  4.346862e+00    5.653464e-01   3.446657e-02
  4.349073e+00    5.143890e-01   3.335590e-02
  4.351283e+00    4.351887e-01   3.113688e-02
  4.353494e+00    5.375817e-01   3.514359e-02
  4.355704e+00    4.412163e-01   3.234902e-02
  4.357915e+00    5.536739e-01   3.684235e-02
  4.360125e+00    4.372473e-01   3.329911e-02
  4.362336e+00    3.741950e-01   3.136559e-02
  4.364546e+00    4.963562e-01   3.678140e-02
  4.366757e+00    5.574542e-01   3.975775e-02
  4.368967e+00    4.203517e-01   3.521162e-02
  4.371177e+00    5.600737e-01   4.150785e-02
  4.373388e+00    5.373803e-01   4.156896e-02
  4.375598e+00    4.031831e-01   3.682636e-02
  4.377809e+00    3.794661e-01   3.663256e-02
  4.380019e+00    3.052098e-01   3.367855e-02
  4.382230e+00    2.842216e-01   3.340780e-02
  4.384440e+00    2.694324e-01   3.346017e-02
  4.386651e+00    5.669225e-01   5.003393e-02
  4.388861e+00    5.476178e-01   5.082830e-02
  4.391072e+00    4.267895e-01   4.644518e-02
  4.393282e+00    4.036485e-01   4.691797e-02
  4.395492e+00    4.530552e-01   5.176858e-02
  4.397703e+00    5.295475e-01   5.853022e-02
  4.399913e+00    3.229716e-01   4.802272e-02
  4.402124e+00    3.561427e-01   5.328666e-02
  4.404334e+00    5.890625e-01   7.284734e-02
  4.406545e+00    3.485992e-01   6.020671e-02
  4.408755e+00    4.803826e-01   7.666132e-02
  4.410966e+00    4.759997e-01   8.444431e-02
  4.413176e+00    6.316026e-01   1.101175e-01
  4.415387e+00   -6.209868e-01            nan
  4.417597e+00   -1.916099e+00            nan
  4.419807e+00   -3.766224e-01            nan
