# == pyFAI calibration ==
# Distance Sample to Detector: 0.216 m
# PONI: 1.166e-01, 1.308e-01 m
# Rotations: 0.000000 0.000000 0.000000 rad
# 
# == Fit2d calibration ==
# Distance Sample-beamCenter: 216.000 mm
# Center: x=1744.293, y=1555.000 pix
# Tilt: 0.000 deg  TiltPlanRot: 0.000 deg
# 
# Detector Eiger 9M	 PixelSize= 7.500e-05, 7.500e-05 m
#    Detector has a mask: True 
#    Detector has a dark current: False 
#    detector has a flat field: False 
# 
# Wavelength: 9.8e-11 m
# Mask applied: from detector
# Dark current applied: False
# Flat field applied: False
# Polarization factor: None
# Normalization factor: 1.0
# 
# Headers of the input frame:
# {
# "_array_data.header_convention": "SLS_1.0",
# "_array_data.header_contents": "# Detector: Dectris Eiger 9M, S/N E-18-0102\r\n# Pixel_size 75e-6 m x 75e-6 m\r\n# Silicon sensor, thickness 0.000450 m\r\n# Exposure_time 0.024997 s\r\n# Exposure_period 0.025000 s\r\n# Count_cutoff 62318 counts\r\n# Wavelength 0.980106 A\r\n# Detector_distance 0.215992 m\r\n# Beam_xy (1555, 1744) pixels\r\n# Start_angle 0.000000 deg.\r\n# Angle_increment 0.000000 deg.",
# "Content-Type": "application/octet-stream;",
# "conversions": "x-CBF_BYTE_OFFSET",
# "Content-Transfer-Encoding": "BINARY",
# "X-Binary-Size": "10166618",
# "X-Binary-ID": "1",
# "X-Binary-Element-Type": "signed 32-bit integer",
# "X-Binary-Element-Byte-Order": "LITTLE_ENDIAN",
# "Content-MD5": "AYxJ9pxkH1R1hLSCpEXj5Q==",
# "X-Binary-Number-of-Elements": "10166590",
# "X-Binary-Size-Fastest-Dimension": "3110",
# "X-Binary-Size-Second-Dimension": "3269",
# "X-Binary-Size-Padding": "4095"
# }
# --> H:/Proxima2a_2019-04-05/RAW_DATA/C5_gel17_position5/C5_mesh_1_data.cbf/C5_mesh_1_data.cbf000030.dat
#        q_A^-1              I           sigma 
  1.105228e-03    1.507118e+00   6.642944e-01
  3.315685e-03    1.416943e+00   3.915810e-01
  5.526141e-03    1.174318e+00   2.756545e-01
  7.736597e-03    9.641184e-01   2.110014e-01
  9.947054e-03    1.423638e+00   2.260353e-01
  1.215751e-02    1.574016e+00   2.149182e-01
  1.436797e-02    1.387404e+00   1.855997e-01
  1.657842e-02    1.364846e+00   1.713508e-01
  1.878888e-02    1.473889e+00   1.672615e-01
  2.099934e-02    1.319099e+00   1.497065e-01
  2.320979e-02    1.416264e+00   1.475383e-01
  2.542025e-02    1.417397e+00   1.410442e-01
  2.763070e-02    1.390045e+00   1.339692e-01
  2.984116e-02    1.482180e+00   1.331150e-01
  3.205162e-02    1.481828e+00   1.284355e-01
  3.426207e-02    1.432152e+00   1.221151e-01
  3.647253e-02    1.374453e+00   1.159457e-01
  3.868299e-02    1.293433e+00   1.092239e-01
  4.089344e-02    1.329589e+00   1.077059e-01
  4.310390e-02    1.539008e+00   1.128611e-01
  4.531436e-02    1.578795e+00   1.114882e-01
  4.752481e-02    1.555956e+00   1.080731e-01
  4.973527e-02    1.325553e+00   9.751029e-02
  5.194572e-02    1.283957e+00   9.390273e-02
  5.415618e-02    1.418389e+00   9.665770e-02
  5.636664e-02    1.270571e+00   8.967362e-02
  5.857709e-02    1.411053e+00   9.270138e-02
  6.078755e-02    1.332722e+00   8.843559e-02
  6.299801e-02    1.345394e+00   8.728129e-02
  6.520846e-02    1.320767e+00   8.500095e-02
  6.741892e-02    1.404100e+00   8.618841e-02
  6.962938e-02    1.428063e+00   8.553426e-02
  7.183983e-02    1.377741e+00   8.270957e-02
  7.405029e-02    1.464398e+00   8.398674e-02
  7.626074e-02    1.479187e+00   8.317674e-02
  7.847120e-02    1.419948e+00   8.033600e-02
  8.068166e-02    1.384946e+00   7.824465e-02
  8.289211e-02    1.405813e+00   7.777328e-02
  8.510257e-02    1.399148e+00   7.657400e-02
  8.731303e-02    1.438829e+00   7.666010e-02
  8.952348e-02    1.428307e+00   7.543249e-02
  9.173394e-02    1.425949e+00   7.445364e-02
  9.394439e-02    1.418967e+00   7.338978e-02
  9.615485e-02    1.366926e+00   7.119707e-02
  9.836531e-02    1.489765e+00   7.348543e-02
  1.005758e-01    1.448137e+00   7.165132e-02
  1.027862e-01    1.501961e+00   7.218004e-02
  1.049967e-01    1.464090e+00   7.050889e-02
  1.072071e-01    1.477155e+00   7.008803e-02
  1.094176e-01    1.510605e+00   7.015648e-02
  1.116280e-01    1.421599e+00   6.737957e-02
  1.138385e-01    1.456081e+00   6.752522e-02
  1.160490e-01    1.501535e+00   6.791407e-02
  1.182594e-01    1.456413e+00   6.625636e-02
  1.204699e-01    1.554751e+00   6.782518e-02
  1.226803e-01    1.558786e+00   6.729575e-02
  1.248908e-01    1.568688e+00   6.690828e-02
  1.271012e-01    1.513062e+00   6.513608e-02
  1.293117e-01    1.486665e+00   6.401036e-02
  1.315222e-01    1.518065e+00   6.413551e-02
  1.337326e-01    1.437644e+00   6.189440e-02
  1.359431e-01    1.500071e+00   6.326095e-02
  1.381535e-01    1.514133e+00   6.440991e-02
  1.403640e-01    1.513538e+00   6.467529e-02
  1.425744e-01    1.450459e+00   6.341437e-02
  1.447849e-01    1.474102e+00   6.394383e-02
  1.469953e-01    1.657398e+00   6.776045e-02
  1.492058e-01    1.567517e+00   6.582092e-02
  1.514163e-01    1.545440e+00   6.524726e-02
  1.536267e-01    1.531612e+00   6.482784e-02
  1.558372e-01    1.624496e+00   6.661727e-02
  1.580476e-01    1.579880e+00   6.553669e-02
  1.602581e-01    1.588656e+00   6.555153e-02
  1.624685e-01    1.599416e+00   6.559309e-02
  1.646790e-01    1.571367e+00   6.482868e-02
  1.668895e-01    1.646948e+00   6.617781e-02
  1.690999e-01    1.712697e+00   6.728316e-02
  1.713104e-01    1.677235e+00   6.637637e-02
  1.735208e-01    1.665999e+00   6.594791e-02
  1.757313e-01    1.755185e+00   6.747796e-02
  1.779417e-01    1.730804e+00   6.678914e-02
  1.801522e-01    1.717093e+00   6.631219e-02
  1.823626e-01    1.872739e+00   6.902187e-02
  1.845731e-01    1.871927e+00   6.878342e-02
  1.867836e-01    1.836183e+00   6.789362e-02
  1.889940e-01    1.831025e+00   6.757665e-02
  1.912045e-01    1.977176e+00   6.998735e-02
  1.934149e-01    1.894396e+00   6.827731e-02
  1.956254e-01    1.867625e+00   6.756955e-02
  1.978358e-01    1.896835e+00   6.786255e-02
  2.000463e-01    1.845219e+00   6.671105e-02
  2.022568e-01    1.892098e+00   6.733140e-02
  2.044672e-01    1.995332e+00   6.890696e-02
  2.066777e-01    1.919948e+00   6.736846e-02
  2.088881e-01    1.944717e+00   6.757976e-02
  2.110986e-01    1.908305e+00   6.671456e-02
  2.133090e-01    1.843926e+00   6.536636e-02
  2.155195e-01    1.864588e+00   6.551352e-02
  2.177300e-01    1.949075e+00   6.645513e-02
  2.199404e-01    1.877914e+00   6.351191e-02
  2.221509e-01    1.845943e+00   6.193495e-02
  2.243613e-01    1.914587e+00   6.227636e-02
  2.265718e-01    1.994882e+00   6.286819e-02
  2.287822e-01    2.031220e+00   6.281031e-02
  2.309927e-01    2.087322e+00   6.309175e-02
  2.332031e-01    2.048870e+00   6.197294e-02
  2.354136e-01    2.121602e+00   6.255218e-02
  2.376241e-01    2.110244e+00   6.190032e-02
  2.398345e-01    2.108273e+00   6.141350e-02
  2.420450e-01    2.039797e+00   5.997621e-02
  2.442554e-01    2.048983e+00   5.969699e-02
  2.464659e-01    2.085032e+00   5.981553e-02
  2.486763e-01    2.103840e+00   5.968975e-02
  2.508868e-01    2.136760e+00   5.977549e-02
  2.530973e-01    2.008562e+00   5.759528e-02
  2.553077e-01    2.042758e+00   5.773113e-02
  2.575182e-01    2.088120e+00   5.802333e-02
  2.597286e-01    2.053891e+00   5.721125e-02
  2.619391e-01    2.100313e+00   5.752110e-02
  2.641495e-01    2.011684e+00   5.598283e-02
  2.663600e-01    2.003502e+00   5.556162e-02
  2.685704e-01    2.051578e+00   5.591950e-02
  2.707809e-01    2.033231e+00   5.537345e-02
  2.729914e-01    1.926943e+00   5.362574e-02
  2.752018e-01    1.983147e+00   5.411904e-02
  2.774123e-01    2.002242e+00   5.410118e-02
  2.796227e-01    2.045049e+00   5.440599e-02
  2.818332e-01    2.017529e+00   5.376912e-02
  2.840436e-01    1.918156e+00   5.217406e-02
  2.862541e-01    1.917722e+00   5.191737e-02
  2.884646e-01    1.924624e+00   5.176390e-02
  2.906750e-01    1.940889e+00   5.173568e-02
  2.928855e-01    1.932850e+00   5.138921e-02
  2.950959e-01    1.954196e+00   5.143483e-02
  2.973064e-01    1.900603e+00   5.049668e-02
  2.995168e-01    1.880668e+00   5.000364e-02
  3.017273e-01    1.910710e+00   5.017923e-02
  3.039377e-01    1.881443e+00   4.957542e-02
  3.061482e-01    1.857626e+00   4.904752e-02
  3.083587e-01    1.818248e+00   4.831485e-02
  3.105691e-01    1.896864e+00   4.913751e-02
  3.127796e-01    1.882751e+00   4.874857e-02
  3.149900e-01    1.874896e+00   4.844409e-02
  3.172005e-01    1.885715e+00   4.838498e-02
  3.194109e-01    1.837234e+00   4.756181e-02
  3.216214e-01    1.833713e+00   4.732233e-02
  3.238319e-01    1.773525e+00   4.635483e-02
  3.260423e-01    1.850120e+00   4.715662e-02
  3.282528e-01    1.881254e+00   4.736249e-02
  3.304632e-01    1.809311e+00   4.626809e-02
  3.326737e-01    1.835480e+00   4.641964e-02
  3.348841e-01    1.824435e+00   4.610032e-02
  3.370946e-01    1.805979e+00   4.569398e-02
  3.393050e-01    1.811722e+00   4.559319e-02
  3.415155e-01    1.876156e+00   4.622244e-02
  3.437260e-01    1.784564e+00   4.491299e-02
  3.459364e-01    1.766250e+00   4.451662e-02
  3.481469e-01    1.797400e+00   4.474355e-02
  3.503573e-01    1.846344e+00   4.518344e-02
  3.525678e-01    1.806689e+00   4.453634e-02
  3.547782e-01    1.733065e+00   4.346178e-02
  3.569887e-01    1.777487e+00   4.385931e-02
  3.591992e-01    1.725726e+00   4.306309e-02
  3.614096e-01    1.701635e+00   4.261318e-02
  3.636201e-01    1.741683e+00   4.296020e-02
  3.658305e-01    1.744235e+00   4.284503e-02
  3.680410e-01    1.789155e+00   4.324397e-02
  3.702514e-01    1.724879e+00   4.231730e-02
  3.724619e-01    1.739547e+00   4.235213e-02
  3.746724e-01    1.716677e+00   4.193244e-02
  3.768828e-01    1.750178e+00   4.219712e-02
  3.790933e-01    1.781614e+00   4.243570e-02
  3.813037e-01    1.766427e+00   4.211618e-02
  3.835142e-01    1.803030e+00   4.241055e-02
  3.857246e-01    1.750243e+00   4.164990e-02
  3.879351e-01    1.747768e+00   4.148571e-02
  3.901455e-01    1.736100e+00   4.121538e-02
  3.923560e-01    1.728030e+00   4.098878e-02
  3.945665e-01    1.760833e+00   4.124479e-02
  3.967769e-01    1.746677e+00   4.095000e-02
  3.989874e-01    1.822826e+00   4.170249e-02
  4.011978e-01    1.759075e+00   4.084079e-02
  4.034083e-01    1.703439e+00   4.006638e-02
  4.056187e-01    1.679595e+00   3.966240e-02
  4.078292e-01    1.683683e+00   3.959046e-02
  4.100397e-01    1.722285e+00   3.991948e-02
  4.122501e-01    1.698491e+00   3.952416e-02
  4.144606e-01    1.791644e+00   4.047315e-02
  4.166710e-01    1.776168e+00   4.017818e-02
  4.188815e-01    1.693733e+00   3.911883e-02
  4.210919e-01    1.712515e+00   3.921983e-02
  4.233024e-01    1.735534e+00   3.936641e-02
  4.255128e-01    1.764209e+00   3.957557e-02
  4.277233e-01    1.752653e+00   3.933241e-02
  4.299338e-01    1.743068e+00   3.911185e-02
  4.321442e-01    1.779363e+00   3.940387e-02
  4.343547e-01    1.762647e+00   3.910746e-02
  4.365651e-01    1.683419e+00   3.810987e-02
  4.387756e-01    1.678140e+00   3.794349e-02
  4.409860e-01    1.689236e+00   3.796328e-02
  4.431965e-01    1.677199e+00   3.772318e-02
  4.454070e-01    1.673981e+00   3.758213e-02
  4.476174e-01    1.658822e+00   3.730885e-02
  4.498279e-01    1.654102e+00   3.715436e-02
  4.520383e-01    1.669519e+00   3.722468e-02
  4.542488e-01    1.665228e+00   3.707657e-02
  4.564592e-01    1.662760e+00   3.694967e-02
  4.586697e-01    1.654466e+00   3.675960e-02
  4.608801e-01    1.618672e+00   3.626237e-02
  4.630906e-01    1.667210e+00   3.670460e-02
  4.653011e-01    1.651339e+00   3.643342e-02
  4.675115e-01    1.657447e+00   3.640461e-02
  4.697220e-01    1.650408e+00   3.623212e-02
  4.719324e-01    1.655813e+00   3.619752e-02
  4.741429e-01    1.680375e+00   3.637105e-02
  4.763533e-01    1.673908e+00   3.620792e-02
  4.785638e-01    1.651683e+00   3.587385e-02
  4.807743e-01    1.629631e+00   3.554293e-02
  4.829847e-01    1.660583e+00   3.578825e-02
  4.851952e-01    1.688411e+00   3.599554e-02
  4.874056e-01    1.664777e+00   3.565263e-02
  4.896161e-01    1.639053e+00   3.528835e-02
  4.918265e-01    1.616695e+00   3.495982e-02
  4.940370e-01    1.588583e+00   3.456898e-02
  4.962475e-01    1.606490e+00   3.467742e-02
  4.984579e-01    1.647616e+00   3.503192e-02
  5.006684e-01    1.690874e+00   3.540231e-02
  5.028788e-01    1.683469e+00   3.523910e-02
  5.050893e-01    1.653793e+00   3.484219e-02
  5.072997e-01    1.607088e+00   3.426372e-02
  5.095102e-01    1.590042e+00   3.399989e-02
  5.117206e-01    1.597528e+00   3.399878e-02
  5.139311e-01    1.624329e+00   3.420168e-02
  5.161416e-01    1.602284e+00   3.388851e-02
  5.183520e-01    1.618075e+00   3.397417e-02
  5.205625e-01    1.631939e+00   3.403947e-02
  5.227729e-01    1.617584e+00   3.381040e-02
  5.249834e-01    1.641711e+00   3.398252e-02
  5.271938e-01    1.643782e+00   3.392462e-02
  5.294043e-01    1.694506e+00   3.436457e-02
  5.316148e-01    1.727381e+00   3.461686e-02
  5.338252e-01    1.726720e+00   3.453113e-02
  5.360357e-01    1.762843e+00   3.481104e-02
  5.382461e-01    1.725050e+00   3.435802e-02
  5.404566e-01    1.714936e+00   3.417919e-02
  5.426670e-01    1.769915e+00   3.464450e-02
  5.448775e-01    1.754318e+00   3.441447e-02
  5.470879e-01    1.710651e+00   3.390767e-02
  5.492984e-01    1.730159e+00   3.402462e-02
  5.515089e-01    1.777625e+00   3.441171e-02
  5.537193e-01    1.768178e+00   3.424453e-02
  5.559298e-01    1.733862e+00   3.383624e-02
  5.581402e-01    1.717874e+00   3.360625e-02
  5.603507e-01    1.780525e+00   3.413913e-02
  5.625611e-01    1.748000e+00   3.375249e-02
  5.647716e-01    1.739584e+00   3.359802e-02
  5.669821e-01    1.752942e+00   3.365407e-02
  5.691925e-01    1.685777e+00   3.293220e-02
  5.714030e-01    1.695338e+00   3.295503e-02
  5.736134e-01    1.686204e+00   3.279623e-02
  5.758239e-01    1.752409e+00   3.336249e-02
  5.780343e-01    1.701234e+00   3.280225e-02
  5.802448e-01    1.646490e+00   3.220259e-02
  5.824552e-01    1.604316e+00   3.172079e-02
  5.846657e-01    1.601644e+00   3.162831e-02
  5.868762e-01    1.561080e+00   3.116020e-02
  5.890866e-01    1.563859e+00   3.112321e-02
  5.912971e-01    1.592435e+00   3.134125e-02
  5.935075e-01    1.612053e+00   3.146855e-02
  5.957180e-01    1.627175e+00   3.155094e-02
  5.979284e-01    1.583307e+00   3.105920e-02
  6.001389e-01    1.575195e+00   3.091644e-02
  6.023494e-01    1.582699e+00   3.092709e-02
  6.045598e-01    1.606718e+00   3.109741e-02
  6.067703e-01    1.618964e+00   3.115294e-02
  6.089807e-01    1.589913e+00   3.081011e-02
  6.111912e-01    1.563283e+00   3.048998e-02
  6.134016e-01    1.565940e+00   3.045501e-02
  6.156121e-01    1.648591e+00   3.118625e-02
  6.178226e-01    1.676529e+00   3.138716e-02
  6.200330e-01    1.657852e+00   3.115027e-02
  6.222435e-01    1.658412e+00   3.109381e-02
  6.244539e-01    1.655798e+00   3.100846e-02
  6.266644e-01    1.659477e+00   3.098235e-02
  6.288748e-01    1.665799e+00   3.098087e-02
  6.310853e-01    1.697866e+00   3.121692e-02
  6.332957e-01    1.668332e+00   3.088449e-02
  6.355062e-01    1.673316e+00   3.087049e-02
  6.377167e-01    1.675656e+00   3.083278e-02
  6.399271e-01    1.688734e+00   3.089359e-02
  6.421376e-01    1.652643e+00   3.050331e-02
  6.443480e-01    1.688950e+00   3.077792e-02
  6.465585e-01    1.648020e+00   3.034510e-02
  6.487689e-01    1.645852e+00   3.026787e-02
  6.509794e-01    1.620644e+00   2.997855e-02
  6.531899e-01    1.565567e+00   2.940932e-02
  6.554003e-01    1.590408e+00   2.958598e-02
  6.576108e-01    1.598399e+00   2.960499e-02
  6.598212e-01    1.602278e+00   2.958584e-02
  6.620317e-01    1.578050e+00   2.930686e-02
  6.642421e-01    1.600840e+00   2.946313e-02
  6.664526e-01    1.567939e+00   2.910507e-02
  6.686630e-01    1.571397e+00   2.908326e-02
  6.708735e-01    1.585016e+00   2.915545e-02
  6.730840e-01    1.585524e+00   2.910695e-02
  6.752944e-01    1.575877e+00   2.896550e-02
  6.775049e-01    1.562847e+00   2.879312e-02
  6.797153e-01    1.572497e+00   2.882958e-02
  6.819258e-01    1.588244e+00   2.892132e-02
  6.841362e-01    1.591301e+00   2.889707e-02
  6.863467e-01    1.608996e+00   2.900526e-02
  6.885572e-01    1.613719e+00   2.899573e-02
  6.907676e-01    1.592007e+00   2.874844e-02
  6.929781e-01    1.545599e+00   2.827596e-02
  6.951885e-01    1.492588e+00   2.773761e-02
  6.973990e-01    1.539312e+00   2.811859e-02
  6.996094e-01    1.549989e+00   2.816633e-02
  7.018199e-01    1.531497e+00   2.794864e-02
  7.040303e-01    1.540381e+00   2.798036e-02
  7.062408e-01    1.498381e+00   2.754794e-02
  7.084513e-01    1.549084e+00   2.796140e-02
  7.106617e-01    1.564135e+00   2.804811e-02
  7.128722e-01    1.545333e+00   2.783077e-02
  7.150826e-01    1.556702e+00   2.788483e-02
  7.172931e-01    1.565897e+00   2.791884e-02
  7.195035e-01    1.534568e+00   2.759064e-02
  7.217140e-01    1.530201e+00   2.760010e-02
  7.239245e-01    1.483577e+00   2.739644e-02
  7.261349e-01    1.519148e+00   2.782961e-02
  7.283454e-01    1.520667e+00   2.791468e-02
  7.305558e-01    1.525934e+00   2.801613e-02
  7.327663e-01    1.568527e+00   2.844685e-02
  7.349767e-01    1.561031e+00   2.839512e-02
  7.371872e-01    1.515567e+00   2.796757e-02
  7.393976e-01    1.559888e+00   2.835939e-02
  7.416081e-01    1.511211e+00   2.789757e-02
  7.438186e-01    1.491593e+00   2.757542e-02
  7.460290e-01    1.521072e+00   2.755738e-02
  7.482395e-01    1.544640e+00   2.760054e-02
  7.504499e-01    1.513462e+00   2.718696e-02
  7.526604e-01    1.511795e+00   2.705778e-02
  7.548708e-01    1.557394e+00   2.737389e-02
  7.570813e-01    1.500431e+00   2.681886e-02
  7.592918e-01    1.509778e+00   2.686780e-02
  7.615022e-01    1.558032e+00   2.726017e-02
  7.637127e-01    1.537214e+00   2.704506e-02
  7.659231e-01    1.546309e+00   2.709322e-02
  7.681336e-01    1.536361e+00   2.697473e-02
  7.703440e-01    1.504324e+00   2.666148e-02
  7.725545e-01    1.524890e+00   2.681270e-02
  7.747650e-01    1.555517e+00   2.704269e-02
  7.769754e-01    1.498883e+00   2.649442e-02
  7.791859e-01    1.525806e+00   2.667866e-02
  7.813963e-01    1.543021e+00   2.677676e-02
  7.836068e-01    1.521661e+00   2.653981e-02
  7.858172e-01    1.577477e+00   2.697166e-02
  7.880277e-01    1.581150e+00   2.695168e-02
  7.902381e-01    1.573417e+00   2.683684e-02
  7.924486e-01    1.583494e+00   2.687278e-02
  7.946591e-01    1.572128e+00   2.672828e-02
  7.968695e-01    1.604927e+00   2.695735e-02
  7.990800e-01    1.618503e+00   2.702274e-02
  8.012904e-01    1.633051e+00   2.709696e-02
  8.035009e-01    1.659204e+00   2.726448e-02
  8.057113e-01    1.663320e+00   2.725107e-02
  8.079218e-01    1.640416e+00   2.701611e-02
  8.101323e-01    1.627633e+00   2.686494e-02
  8.123427e-01    1.640444e+00   2.692446e-02
  8.145532e-01    1.613315e+00   2.665524e-02
  8.167636e-01    1.615367e+00   2.662731e-02
  8.189741e-01    1.646273e+00   2.683603e-02
  8.211845e-01    1.643993e+00   2.677249e-02
  8.233950e-01    1.645203e+00   2.673879e-02
  8.256054e-01    1.660227e+00   2.681608e-02
  8.278159e-01    1.643734e+00   2.663853e-02
  8.300264e-01    1.599030e+00   2.623121e-02
  8.322368e-01    1.588377e+00   2.610123e-02
  8.344473e-01    1.573496e+00   2.593617e-02
  8.366577e-01    1.627190e+00   2.633254e-02
  8.388682e-01    1.629775e+00   2.631134e-02
  8.410786e-01    1.612677e+00   2.613125e-02
  8.432891e-01    1.565304e+00   2.570368e-02
  8.454996e-01    1.586065e+00   2.583261e-02
  8.477100e-01    1.594707e+00   2.586180e-02
  8.499205e-01    1.586420e+00   2.575401e-02
  8.521309e-01    1.637019e+00   2.612067e-02
  8.543414e-01    1.678183e+00   2.640581e-02
  8.565518e-01    1.613066e+00   2.584816e-02
  8.587623e-01    1.564763e+00   2.541854e-02
  8.609727e-01    1.572226e+00   2.543958e-02
  8.631832e-01    1.578793e+00   2.545336e-02
  8.653937e-01    1.534508e+00   2.505527e-02
  8.676041e-01    1.547388e+00   2.512224e-02
  8.698146e-01    1.547124e+00   2.508170e-02
  8.720250e-01    1.542367e+00   2.500493e-02
  8.742355e-01    1.545530e+00   2.499246e-02
  8.764459e-01    1.566369e+00   2.512201e-02
  8.786564e-01    1.532030e+00   2.480809e-02
  8.808669e-01    1.567747e+00   2.505752e-02
  8.830773e-01    1.566297e+00   2.500825e-02
  8.852878e-01    1.586868e+00   2.513419e-02
  8.874982e-01    1.561079e+00   2.489295e-02
  8.897087e-01    1.556575e+00   2.481986e-02
  8.919191e-01    1.552688e+00   2.475166e-02
  8.941296e-01    1.565404e+00   2.481593e-02
  8.963401e-01    1.556693e+00   2.471085e-02
  8.985505e-01    1.557089e+00   2.467755e-02
  9.007610e-01    1.555662e+00   2.462999e-02
  9.029714e-01    1.531377e+00   2.440195e-02
  9.051819e-01    1.544281e+00   2.446795e-02
  9.073923e-01    1.547841e+00   2.446018e-02
  9.096028e-01    1.529792e+00   2.428301e-02
  9.118132e-01    1.528068e+00   2.423392e-02
  9.140237e-01    1.524111e+00   2.416678e-02
  9.162342e-01    1.564820e+00   2.445321e-02
  9.184446e-01    1.582917e+00   2.455865e-02
  9.206551e-01    1.568523e+00   2.441150e-02
  9.228655e-01    1.589701e+00   2.454061e-02
  9.250760e-01    1.575377e+00   2.439475e-02
  9.272864e-01    1.561575e+00   2.425383e-02
  9.294969e-01    1.592179e+00   2.445464e-02
  9.317074e-01    1.599150e+00   2.447349e-02
  9.339178e-01    1.609877e+00   2.452190e-02
  9.361283e-01    1.604393e+00   2.444401e-02
  9.383387e-01    1.608522e+00   2.444215e-02
  9.405492e-01    1.584588e+00   2.422575e-02
  9.427596e-01    1.619171e+00   2.445343e-02
  9.449701e-01    1.606179e+00   2.432203e-02
  9.471805e-01    1.614340e+00   2.434921e-02
  9.493910e-01    1.651570e+00   2.459456e-02
  9.516015e-01    1.670579e+00   2.470119e-02
  9.538119e-01    1.668044e+00   2.464860e-02
  9.560224e-01    1.680808e+00   2.470790e-02
  9.582328e-01    1.708968e+00   2.488059e-02
  9.604433e-01    1.759166e+00   2.520761e-02
  9.626537e-01    1.775275e+00   2.528874e-02
  9.648642e-01    1.754220e+00   2.510388e-02
  9.670747e-01    1.789196e+00   2.531794e-02
  9.692851e-01    1.801260e+00   2.536938e-02
  9.714956e-01    1.844209e+00   2.563387e-02
  9.737060e-01    1.801950e+00   2.530520e-02
  9.759165e-01    1.770952e+00   2.505122e-02
  9.781269e-01    1.758854e+00   2.493284e-02
  9.803374e-01    1.768178e+00   2.496427e-02
  9.825478e-01    1.767512e+00   2.492664e-02
  9.847583e-01    1.749687e+00   2.476696e-02
  9.869688e-01    1.735393e+00   2.463257e-02
  9.891792e-01    1.739892e+00   2.463169e-02
  9.913897e-01    1.706122e+00   2.435857e-02
  9.936001e-01    1.692483e+00   2.422924e-02
  9.958106e-01    1.686458e+00   2.415322e-02
  9.980210e-01    1.643780e+00   2.381469e-02
  1.000231e+00    1.613767e+00   2.372555e-02
  1.002442e+00    1.614469e+00   2.385678e-02
  1.004652e+00    1.583788e+00   2.369494e-02
  1.006863e+00    1.576105e+00   2.368644e-02
  1.009073e+00    1.532738e+00   2.339406e-02
  1.011284e+00    1.535225e+00   2.344431e-02
  1.013494e+00    1.537657e+00   2.348614e-02
  1.015705e+00    1.543820e+00   2.355542e-02
  1.017915e+00    1.515757e+00   2.335643e-02
  1.020126e+00    1.504771e+00   2.328736e-02
  1.022336e+00    1.495360e+00   2.322586e-02
  1.024547e+00    1.476944e+00   2.309335e-02
  1.026757e+00    1.484536e+00   2.316081e-02
  1.028967e+00    1.492599e+00   2.323118e-02
  1.031178e+00    1.493352e+00   2.324312e-02
  1.033388e+00    1.528016e+00   2.351637e-02
  1.035599e+00    1.523402e+00   2.348429e-02
  1.037809e+00    1.470441e+00   2.307567e-02
  1.040020e+00    1.449883e+00   2.291501e-02
  1.042230e+00    1.449991e+00   2.291776e-02
  1.044441e+00    1.468379e+00   2.306240e-02
  1.046651e+00    1.434650e+00   2.279617e-02
  1.048862e+00    1.434775e+00   2.279637e-02
  1.051072e+00    1.432773e+00   2.277817e-02
  1.053282e+00    1.447326e+00   2.289261e-02
  1.055493e+00    1.434596e+00   2.278751e-02
  1.057703e+00    1.425064e+00   2.271019e-02
  1.059914e+00    1.410451e+00   2.258931e-02
  1.062124e+00    1.430607e+00   2.274616e-02
  1.064335e+00    1.415210e+00   2.262007e-02
  1.066545e+00    1.453296e+00   2.291647e-02
  1.068756e+00    1.496488e+00   2.325078e-02
  1.070966e+00    1.495074e+00   2.323323e-02
  1.073177e+00    1.487878e+00   2.317115e-02
  1.075387e+00    1.452980e+00   2.289262e-02
  1.077597e+00    1.448062e+00   2.284662e-02
  1.079808e+00    1.475967e+00   2.293243e-02
  1.082018e+00    1.481865e+00   2.278790e-02
  1.084229e+00    1.619366e+00   2.370574e-02
  1.086439e+00    2.291240e+00   2.808804e-02
  1.088650e+00    2.726616e+00   3.053729e-02
  1.090860e+00    2.440158e+00   2.880121e-02
  1.093071e+00    1.840483e+00   2.494310e-02
  1.095281e+00    1.494102e+00   2.241541e-02
  1.097492e+00    1.421658e+00   2.181072e-02
  1.099702e+00    1.444893e+00   2.193676e-02
  1.101912e+00    1.464454e+00   2.203549e-02
  1.104123e+00    1.495374e+00   2.221768e-02
  1.106333e+00    1.452508e+00   2.185221e-02
  1.108544e+00    1.430406e+00   2.164106e-02
  1.110754e+00    1.392076e+00   2.130662e-02
  1.112965e+00    1.383752e+00   2.120284e-02
  1.115175e+00    1.402395e+00   2.130426e-02
  1.117386e+00    1.412507e+00   2.134173e-02
  1.119596e+00    1.390762e+00   2.113921e-02
  1.121807e+00    1.391168e+00   2.110375e-02
  1.124017e+00    1.373869e+00   2.093592e-02
  1.126228e+00    1.352900e+00   2.074043e-02
  1.128438e+00    1.326855e+00   2.050405e-02
  1.130648e+00    1.367672e+00   2.078309e-02
  1.132859e+00    1.364314e+00   2.072362e-02
  1.135069e+00    1.352691e+00   2.060091e-02
  1.137280e+00    1.355981e+00   2.059337e-02
  1.139490e+00    1.359648e+00   2.058845e-02
  1.141701e+00    1.373658e+00   2.066128e-02
  1.143911e+00    1.346444e+00   2.042415e-02
  1.146122e+00    1.377584e+00   2.062700e-02
  1.148332e+00    1.368541e+00   2.052744e-02
  1.150543e+00    1.369267e+00   2.050215e-02
  1.152753e+00    1.331166e+00   2.018458e-02
  1.154963e+00    1.314283e+00   2.002576e-02
  1.157174e+00    1.344395e+00   2.022405e-02
  1.159384e+00    1.332800e+00   2.010723e-02
  1.161595e+00    1.326122e+00   2.002742e-02
  1.163805e+00    1.346704e+00   2.015323e-02
  1.166016e+00    1.346488e+00   2.012241e-02
  1.168226e+00    1.336776e+00   2.002108e-02
  1.170437e+00    1.343764e+00   2.004493e-02
  1.172647e+00    1.346887e+00   2.003953e-02
  1.174858e+00    1.335343e+00   1.992566e-02
  1.177068e+00    1.357896e+00   2.006501e-02
  1.179278e+00    1.397205e+00   2.032443e-02
  1.181489e+00    1.380961e+00   2.017872e-02
  1.183699e+00    1.360144e+00   1.999847e-02
  1.185910e+00    1.351601e+00   1.990785e-02
  1.188120e+00    1.337481e+00   1.977710e-02
  1.190331e+00    1.319747e+00   1.961914e-02
  1.192541e+00    1.308815e+00   1.951079e-02
  1.194752e+00    1.347383e+00   1.976916e-02
  1.196962e+00    1.346070e+00   1.973386e-02
  1.199173e+00    1.360061e+00   1.980956e-02
  1.201383e+00    1.351932e+00   1.972308e-02
  1.203593e+00    1.350235e+00   1.968589e-02
  1.205804e+00    1.316209e+00   1.941066e-02
  1.208014e+00    1.315267e+00   1.937721e-02
  1.210225e+00    1.318700e+00   1.937746e-02
  1.212435e+00    1.301638e+00   1.922734e-02
  1.214646e+00    1.361156e+00   1.963580e-02
  1.216856e+00    1.328946e+00   1.937683e-02
  1.219067e+00    1.297750e+00   1.912404e-02
  1.221277e+00    1.319955e+00   1.926220e-02
  1.223488e+00    1.318645e+00   1.922722e-02
  1.225698e+00    1.310033e+00   1.913781e-02
  1.227909e+00    1.328091e+00   1.923934e-02
  1.230119e+00    1.327096e+00   1.920057e-02
  1.232329e+00    1.321242e+00   1.912778e-02
  1.234540e+00    1.307571e+00   1.899874e-02
  1.236750e+00    1.314792e+00   1.902127e-02
  1.238961e+00    1.334508e+00   1.913652e-02
  1.241171e+00    1.343161e+00   1.917436e-02
  1.243382e+00    1.332273e+00   1.907312e-02
  1.245592e+00    1.326079e+00   1.900485e-02
  1.247803e+00    1.342720e+00   1.910014e-02
  1.250013e+00    1.340185e+00   1.905864e-02
  1.252224e+00    1.325639e+00   1.893190e-02
  1.254434e+00    1.348893e+00   1.907347e-02
  1.256644e+00    1.355866e+00   1.909947e-02
  1.258855e+00    1.311382e+00   1.876062e-02
  1.261065e+00    1.317982e+00   1.878465e-02
  1.263276e+00    1.315444e+00   1.874392e-02
  1.265486e+00    1.323183e+00   1.877633e-02
  1.267697e+00    1.339045e+00   1.886560e-02
  1.269907e+00    1.336371e+00   1.882420e-02
  1.272118e+00    1.342568e+00   1.884526e-02
  1.274328e+00    1.330123e+00   1.873517e-02
  1.276539e+00    1.311152e+00   1.857861e-02
  1.278749e+00    1.315405e+00   1.858672e-02
  1.280959e+00    1.324866e+00   1.863111e-02
  1.283170e+00    1.329763e+00   1.864328e-02
  1.285380e+00    1.316326e+00   1.852665e-02
  1.287591e+00    1.343462e+00   1.869466e-02
  1.289801e+00    1.329500e+00   1.857623e-02
  1.292012e+00    1.314728e+00   1.845585e-02
  1.294222e+00    1.340431e+00   1.861920e-02
  1.296433e+00    1.342161e+00   1.861567e-02
  1.298643e+00    1.336245e+00   1.855821e-02
  1.300854e+00    1.334360e+00   1.852879e-02
  1.303064e+00    1.311808e+00   1.835261e-02
  1.305274e+00    1.311182e+00   1.832708e-02
  1.307485e+00    1.315729e+00   1.833757e-02
  1.309695e+00    1.330713e+00   1.841960e-02
  1.311906e+00    1.326602e+00   1.836963e-02
  1.314116e+00    1.336689e+00   1.841862e-02
  1.316327e+00    1.350173e+00   1.848961e-02
  1.318537e+00    1.324646e+00   1.829231e-02
  1.320748e+00    1.332850e+00   1.832744e-02
  1.322958e+00    1.324316e+00   1.824837e-02
  1.325169e+00    1.302873e+00   1.807937e-02
  1.327379e+00    1.322499e+00   1.819344e-02
  1.329589e+00    1.331895e+00   1.823702e-02
  1.331800e+00    1.363273e+00   1.842981e-02
  1.334010e+00    1.334255e+00   1.821209e-02
  1.336221e+00    1.338118e+00   1.821676e-02
  1.338431e+00    1.340017e+00   1.820890e-02
  1.340642e+00    1.356084e+00   1.838205e-02
  1.342852e+00    1.303681e+00   1.812232e-02
  1.345063e+00    1.336291e+00   1.839679e-02
  1.347273e+00    1.313303e+00   1.827265e-02
  1.349484e+00    1.302560e+00   1.822491e-02
  1.351694e+00    1.318254e+00   1.835684e-02
  1.353905e+00    1.314299e+00   1.834704e-02
  1.356115e+00    1.298453e+00   1.825086e-02
  1.358325e+00    1.302621e+00   1.829319e-02
  1.360536e+00    1.306937e+00   1.833493e-02
  1.362746e+00    1.295631e+00   1.826481e-02
  1.364957e+00    1.301382e+00   1.831283e-02
  1.367167e+00    1.297724e+00   1.829410e-02
  1.369378e+00    1.288220e+00   1.823288e-02
  1.371588e+00    1.281514e+00   1.819036e-02
  1.373799e+00    1.303845e+00   1.835179e-02
  1.376009e+00    1.281952e+00   1.820039e-02
  1.378220e+00    1.259483e+00   1.804264e-02
  1.380430e+00    1.275181e+00   1.815738e-02
  1.382640e+00    1.266003e+00   1.809280e-02
  1.384851e+00    1.279294e+00   1.818839e-02
  1.387061e+00    1.290096e+00   1.826531e-02
  1.389272e+00    1.292198e+00   1.828039e-02
  1.391482e+00    1.280601e+00   1.819751e-02
  1.393693e+00    1.233624e+00   1.785977e-02
  1.395903e+00    1.247632e+00   1.795939e-02
  1.398114e+00    1.252942e+00   1.799620e-02
  1.400324e+00    1.247195e+00   1.795280e-02
  1.402535e+00    1.242382e+00   1.791583e-02
  1.404745e+00    1.265198e+00   1.807723e-02
  1.406955e+00    1.238312e+00   1.788148e-02
  1.409166e+00    1.229255e+00   1.781271e-02
  1.411376e+00    1.222150e+00   1.775811e-02
  1.413587e+00    1.232654e+00   1.783047e-02
  1.415797e+00    1.266102e+00   1.806726e-02
  1.418008e+00    1.267023e+00   1.803201e-02
  1.420218e+00    1.237636e+00   1.767387e-02
  1.422429e+00    1.241572e+00   1.761758e-02
  1.424639e+00    1.253440e+00   1.763732e-02
  1.426850e+00    1.239579e+00   1.748550e-02
  1.429060e+00    1.228972e+00   1.736232e-02
  1.431270e+00    1.252201e+00   1.748165e-02
  1.433481e+00    1.235109e+00   1.732154e-02
  1.435691e+00    1.237360e+00   1.729939e-02
  1.437902e+00    1.239394e+00   1.727758e-02
  1.440112e+00    1.235659e+00   1.721666e-02
  1.442323e+00    1.260073e+00   1.735299e-02
  1.444533e+00    1.265521e+00   1.735798e-02
  1.446744e+00    1.237381e+00   1.713319e-02
  1.448954e+00    1.222196e+00   1.699810e-02
  1.451165e+00    1.228835e+00   1.701495e-02
  1.453375e+00    1.243041e+00   1.708525e-02
  1.455586e+00    1.267503e+00   1.722442e-02
  1.457796e+00    1.258028e+00   1.713253e-02
  1.460006e+00    1.266921e+00   1.716577e-02
  1.462217e+00    1.225492e+00   1.685701e-02
  1.464427e+00    1.256194e+00   1.704139e-02
  1.466638e+00    1.228696e+00   1.682893e-02
  1.468848e+00    1.246348e+00   1.692425e-02
  1.471059e+00    1.272979e+00   1.707902e-02
  1.473269e+00    1.267773e+00   1.701967e-02
  1.475480e+00    1.239456e+00   1.680506e-02
  1.477690e+00    1.231662e+00   1.672862e-02
  1.479901e+00    1.237392e+00   1.674396e-02
  1.482111e+00    1.224326e+00   1.663238e-02
  1.484321e+00    1.235632e+00   1.668619e-02
  1.486532e+00    1.225214e+00   1.659372e-02
  1.488742e+00    1.223633e+00   1.656073e-02
  1.490953e+00    1.241067e+00   1.665590e-02
  1.493163e+00    1.241319e+00   1.663551e-02
  1.495374e+00    1.213488e+00   1.642691e-02
  1.497584e+00    1.228143e+00   1.650442e-02
  1.499795e+00    1.247534e+00   1.661267e-02
  1.502005e+00    1.246597e+00   1.658487e-02
  1.504216e+00    1.214493e+00   1.634927e-02
  1.506426e+00    1.213114e+00   1.631952e-02
  1.508636e+00    1.242068e+00   1.649280e-02
  1.510847e+00    1.265775e+00   1.662757e-02
  1.513057e+00    1.258680e+00   1.655579e-02
  1.515268e+00    1.238563e+00   1.639741e-02
  1.517478e+00    1.242035e+00   1.639534e-02
  1.519689e+00    1.246374e+00   1.639907e-02
  1.521899e+00    1.232867e+00   1.628706e-02
  1.524110e+00    1.241287e+00   1.632233e-02
  1.526320e+00    1.244793e+00   1.632585e-02
  1.528531e+00    1.234249e+00   1.623692e-02
  1.530741e+00    1.227131e+00   1.617106e-02
  1.532951e+00    1.235061e+00   1.620377e-02
  1.535162e+00    1.225343e+00   1.622563e-02
  1.537372e+00    1.222935e+00   1.627590e-02
  1.539583e+00    1.207651e+00   1.620754e-02
  1.541793e+00    1.205028e+00   1.619675e-02
  1.544004e+00    1.190878e+00   1.610163e-02
  1.546214e+00    1.213423e+00   1.625184e-02
  1.548425e+00    1.200803e+00   1.616737e-02
  1.550635e+00    1.207703e+00   1.622327e-02
  1.552846e+00    1.198854e+00   1.617321e-02
  1.555056e+00    1.202284e+00   1.615557e-02
  1.557266e+00    1.210163e+00   1.609950e-02
  1.559477e+00    1.204617e+00   1.600440e-02
  1.561687e+00    1.197845e+00   1.592926e-02
  1.563898e+00    1.237443e+00   1.617329e-02
  1.566108e+00    1.222442e+00   1.605917e-02
  1.568319e+00    1.207986e+00   1.594853e-02
  1.570529e+00    1.227178e+00   1.604975e-02
  1.572740e+00    1.241932e+00   1.611837e-02
  1.574950e+00    1.241631e+00   1.609012e-02
  1.577161e+00    1.234834e+00   1.602067e-02
  1.579371e+00    1.222202e+00   1.591504e-02
  1.581582e+00    1.197112e+00   1.573147e-02
  1.583792e+00    1.212427e+00   1.581396e-02
  1.586002e+00    1.220516e+00   1.584920e-02
  1.588213e+00    1.216457e+00   1.580576e-02
  1.590423e+00    1.226164e+00   1.584879e-02
  1.592634e+00    1.217052e+00   1.576838e-02
  1.594844e+00    1.207042e+00   1.568235e-02
  1.597055e+00    1.180826e+00   1.549111e-02
  1.599265e+00    1.202423e+00   1.561174e-02
  1.601476e+00    1.206481e+00   1.561802e-02
  1.603686e+00    1.227613e+00   1.573456e-02
  1.605897e+00    1.224114e+00   1.569209e-02
  1.608107e+00    1.225913e+00   1.568414e-02
  1.610317e+00    1.209060e+00   1.555688e-02
  1.612528e+00    1.208589e+00   1.553487e-02
  1.614738e+00    1.228653e+00   1.564436e-02
  1.616949e+00    1.202186e+00   1.545617e-02
  1.619159e+00    1.175614e+00   1.526605e-02
  1.621370e+00    1.146956e+00   1.506090e-02
  1.623580e+00    1.165229e+00   1.516246e-02
  1.625791e+00    1.153108e+00   1.506555e-02
  1.628001e+00    1.138475e+00   1.495189e-02
  1.630212e+00    1.131233e+00   1.488696e-02
  1.632422e+00    1.139710e+00   1.492510e-02
  1.634632e+00    1.147859e+00   1.496130e-02
  1.636843e+00    1.128094e+00   1.481477e-02
  1.639053e+00    1.133447e+00   1.483289e-02
  1.641264e+00    1.125486e+00   1.476393e-02
  1.643474e+00    1.125379e+00   1.474612e-02
  1.645685e+00    1.121798e+00   1.470625e-02
  1.647895e+00    1.118493e+00   1.466823e-02
  1.650106e+00    1.101232e+00   1.453799e-02
  1.652316e+00    1.102963e+00   1.453324e-02
  1.654527e+00    1.098895e+00   1.449007e-02
  1.656737e+00    1.089677e+00   1.441295e-02
  1.658947e+00    1.091574e+00   1.440951e-02
  1.661158e+00    1.097482e+00   1.443240e-02
  1.663368e+00    1.089605e+00   1.436472e-02
  1.665579e+00    1.078703e+00   1.427684e-02
  1.667789e+00    1.072285e+00   1.421838e-02
  1.670000e+00    1.048799e+00   1.404678e-02
  1.672210e+00    1.045282e+00   1.400778e-02
  1.674421e+00    1.076456e+00   1.420000e-02
  1.676631e+00    1.053863e+00   1.403468e-02
  1.678842e+00    1.041448e+00   1.393641e-02
  1.681052e+00    1.043357e+00   1.393414e-02
  1.683263e+00    1.065869e+00   1.406869e-02
  1.685473e+00    1.061456e+00   1.402457e-02
  1.687683e+00    1.059851e+00   1.399869e-02
  1.689894e+00    1.075279e+00   1.408448e-02
  1.692104e+00    1.107419e+00   1.427829e-02
  1.694315e+00    1.086059e+00   1.412535e-02
  1.696525e+00    1.065065e+00   1.397301e-02
  1.698736e+00    1.044929e+00   1.382563e-02
  1.700946e+00    1.040358e+00   1.378035e-02
  1.703157e+00    1.039245e+00   1.375847e-02
  1.705367e+00    1.024625e+00   1.364705e-02
  1.707578e+00    1.006471e+00   1.351134e-02
  1.709788e+00    9.902167e-01   1.338805e-02
  1.711998e+00    9.985464e-01   1.342954e-02
  1.714209e+00    1.005726e+00   1.346355e-02
  1.716419e+00    1.003821e+00   1.343673e-02
  1.718630e+00    1.007989e+00   1.345050e-02
  1.720840e+00    9.976388e-01   1.336729e-02
  1.723051e+00    9.907254e-01   1.330726e-02
  1.725261e+00    9.993488e-01   1.335053e-02
  1.727472e+00    9.963515e-01   1.331647e-02
  1.729682e+00    9.815558e-01   1.320400e-02
  1.731893e+00    9.895663e-01   1.324400e-02
  1.734103e+00    9.744130e-01   1.312868e-02
  1.736313e+00    9.658898e-01   1.305738e-02
  1.738524e+00    9.755043e-01   1.310856e-02
  1.740734e+00    9.735196e-01   1.308172e-02
  1.742945e+00    9.682968e-01   1.303330e-02
  1.745155e+00    9.652894e-01   1.299980e-02
  1.747366e+00    9.389069e-01   1.280745e-02
  1.749576e+00    9.608917e-01   1.294301e-02
  1.751787e+00    9.625037e-01   1.294068e-02
  1.753997e+00    9.424482e-01   1.279202e-02
  1.756208e+00    9.455206e-01   1.279985e-02
  1.758418e+00    9.439657e-01   1.277640e-02
  1.760628e+00    9.367966e-01   1.271467e-02
  1.762839e+00    9.193113e-01   1.258255e-02
  1.765049e+00    9.298239e-01   1.264137e-02
  1.767260e+00    9.609790e-01   1.283861e-02
  1.769470e+00    9.858664e-01   1.299058e-02
  1.771681e+00    9.998579e-01   1.306899e-02
  1.773891e+00    9.892081e-01   1.298590e-02
  1.776102e+00    9.683370e-01   1.283515e-02
  1.778312e+00    9.954082e-01   1.300023e-02
  1.780523e+00    1.093306e+00   1.361081e-02
  1.782733e+00    1.080096e+00   1.351477e-02
  1.784944e+00    9.907520e-01   1.293051e-02
  1.787154e+00    9.359114e-01   1.255495e-02
  1.789364e+00    9.557906e-01   1.267493e-02
  1.791575e+00    9.733440e-01   1.277794e-02
  1.793785e+00    1.005265e+00   1.297283e-02
  1.795996e+00    9.997705e-01   1.292431e-02
  1.798206e+00    9.646147e-01   1.268222e-02
  1.800417e+00    9.205694e-01   1.237658e-02
  1.802627e+00    9.130753e-01   1.231416e-02
  1.804838e+00    8.935377e-01   1.216973e-02
  1.807048e+00    8.962445e-01   1.217539e-02
  1.809259e+00    8.839014e-01   1.207783e-02
  1.811469e+00    8.763003e-01   1.201108e-02
  1.813679e+00    8.528485e-01   1.183468e-02
  1.815890e+00    8.605207e-01   1.187336e-02
  1.818100e+00    8.429949e-01   1.173720e-02
  1.820311e+00    8.453655e-01   1.173930e-02
  1.822521e+00    8.494864e-01   1.175339e-02
  1.824732e+00    8.718807e-01   1.189263e-02
  1.826942e+00    8.722003e-01   1.188260e-02
  1.829153e+00    8.665615e-01   1.183255e-02
  1.831363e+00    8.600363e-01   1.177605e-02
  1.833574e+00    8.672688e-01   1.181387e-02
  1.835784e+00    8.612795e-01   1.176171e-02
  1.837994e+00    8.766932e-01   1.185477e-02
  1.840205e+00    8.579425e-01   1.171625e-02
  1.842415e+00    8.579102e-01   1.170436e-02
  1.844626e+00    8.618771e-01   1.171990e-02
  1.846836e+00    8.456347e-01   1.159765e-02
  1.849047e+00    8.428434e-01   1.156704e-02
  1.851257e+00    8.546685e-01   1.163838e-02
  1.853468e+00    8.400827e-01   1.152995e-02
  1.855678e+00    8.610649e-01   1.166417e-02
  1.857889e+00    8.617317e-01   1.166016e-02
  1.860099e+00    8.560592e-01   1.161312e-02
  1.862309e+00    8.445347e-01   1.152623e-02
  1.864520e+00    8.262829e-01   1.139256e-02
  1.866730e+00    8.299828e-01   1.140880e-02
  1.868941e+00    8.333857e-01   1.142133e-02
  1.871151e+00    8.502336e-01   1.152482e-02
  1.873362e+00    8.380326e-01   1.143058e-02
  1.875572e+00    8.371703e-01   1.141384e-02
  1.877783e+00    8.355389e-01   1.139136e-02
  1.879993e+00    8.083640e-01   1.119370e-02
  1.882204e+00    8.325484e-01   1.134907e-02
  1.884414e+00    8.255810e-01   1.129055e-02
  1.886624e+00    8.004903e-01   1.110687e-02
  1.888835e+00    8.138314e-01   1.118822e-02
  1.891045e+00    8.423526e-01   1.137171e-02
  1.893256e+00    8.250092e-01   1.124304e-02
  1.895466e+00    7.972187e-01   1.104116e-02
  1.897677e+00    8.000652e-01   1.105015e-02
  1.899887e+00    7.962448e-01   1.101301e-02
  1.902098e+00    8.031258e-01   1.104985e-02
  1.904308e+00    8.044884e-01   1.104878e-02
  1.906519e+00    8.325893e-01   1.122925e-02
  1.908729e+00    8.358050e-01   1.124027e-02
  1.910940e+00    8.348439e-01   1.122263e-02
  1.913150e+00    8.197280e-01   1.111002e-02
  1.915360e+00    8.050323e-01   1.099949e-02
  1.917571e+00    7.911086e-01   1.089328e-02
  1.919781e+00    8.118723e-01   1.102468e-02
  1.921992e+00    8.050048e-01   1.096744e-02
  1.924202e+00    8.030910e-01   1.094372e-02
  1.926413e+00    8.141203e-01   1.100834e-02
  1.928623e+00    8.010984e-01   1.090948e-02
  1.930834e+00    8.243676e-01   1.105627e-02
  1.933044e+00    8.047944e-01   1.091364e-02
  1.935255e+00    7.842067e-01   1.076296e-02
  1.937465e+00    7.843843e-01   1.075394e-02
  1.939675e+00    7.775806e-01   1.069654e-02
  1.941886e+00    7.860449e-01   1.074445e-02
  1.944096e+00    7.947398e-01   1.079357e-02
  1.946307e+00    7.963598e-01   1.079429e-02
  1.948517e+00    7.823585e-01   1.068863e-02
  1.950728e+00    7.805277e-01   1.066599e-02
  1.952938e+00    7.752301e-01   1.061979e-02
  1.955149e+00    7.846106e-01   1.067367e-02
  1.957359e+00    7.816442e-01   1.064355e-02
  1.959570e+00    7.751408e-01   1.058843e-02
  1.961780e+00    7.784961e-01   1.060150e-02
  1.963990e+00    7.636300e-01   1.048986e-02
  1.966201e+00    7.657803e-01   1.049471e-02
  1.968411e+00    7.693796e-01   1.050932e-02
  1.970622e+00    7.608002e-01   1.044067e-02
  1.972832e+00    7.594222e-01   1.042139e-02
  1.975043e+00    7.606530e-01   1.041996e-02
  1.977253e+00    7.841347e-01   1.056963e-02
  1.979464e+00    7.712156e-01   1.047224e-02
  1.981674e+00    7.472101e-01   1.029795e-02
  1.983885e+00    7.611308e-01   1.038353e-02
  1.986095e+00    7.561709e-01   1.034010e-02
  1.988305e+00    7.660559e-01   1.039765e-02
  1.990516e+00    7.768714e-01   1.046089e-02
  1.992726e+00    7.652698e-01   1.037290e-02
  1.994937e+00    7.552931e-01   1.029508e-02
  1.997147e+00    7.722529e-01   1.040029e-02
  1.999358e+00    7.856240e-01   1.048005e-02
  2.001568e+00    7.752906e-01   1.040007e-02
  2.003779e+00    7.673315e-01   1.033467e-02
  2.005989e+00    7.616452e-01   1.028436e-02
  2.008200e+00    7.554196e-01   1.023083e-02
  2.010410e+00    7.646280e-01   1.028127e-02
  2.012621e+00    7.563938e-01   1.021416e-02
  2.014831e+00    7.480161e-01   1.014612e-02
  2.017041e+00    7.412705e-01   1.009005e-02
  2.019252e+00    7.623988e-01   1.022289e-02
  2.021462e+00    7.493326e-01   1.012552e-02
  2.023673e+00    7.493433e-01   1.011629e-02
  2.025883e+00    7.514720e-01   1.012120e-02
  2.028094e+00    7.347113e-01   9.998236e-03
  2.030304e+00    7.495521e-01   1.008923e-02
  2.032515e+00    7.580391e-01   1.013693e-02
  2.034725e+00    7.429852e-01   1.002642e-02
  2.036936e+00    7.475938e-01   1.004818e-02
  2.039146e+00    7.573329e-01   1.010387e-02
  2.041356e+00    7.317970e-01   9.922577e-03
  2.043567e+00    7.527063e-01   1.005404e-02
  2.045777e+00    7.527540e-01   1.004515e-02
  2.047988e+00    7.298175e-01   9.881698e-03
  2.050198e+00    7.451120e-01   9.976317e-03
  2.052409e+00    7.475710e-01   9.985137e-03
  2.054619e+00    7.364256e-01   9.903140e-03
  2.056830e+00    7.292208e-01   9.847491e-03
  2.059040e+00    7.226867e-01   9.795913e-03
  2.061251e+00    7.272619e-01   9.819726e-03
  2.063461e+00    7.409482e-01   9.904135e-03
  2.065671e+00    7.265773e-01   9.799052e-03
  2.067882e+00    7.212756e-01   9.754375e-03
  2.070092e+00    7.427879e-01   9.889603e-03
  2.072303e+00    7.520998e-01   9.942236e-03
  2.074513e+00    7.375492e-01   9.836328e-03
  2.076724e+00    7.314531e-01   9.786207e-03
  2.078934e+00    7.348374e-01   9.799862e-03
  2.081145e+00    7.390141e-01   9.818614e-03
  2.083355e+00    7.422312e-01   9.830797e-03
  2.085566e+00    7.324152e-01   9.756717e-03
  2.087776e+00    7.024747e-01   9.545949e-03
  2.089986e+00    7.105557e-01   9.592074e-03
  2.092197e+00    7.162551e-01   9.621632e-03
  2.094407e+00    7.352204e-01   9.738969e-03
  2.096618e+00    7.325550e-01   9.712402e-03
  2.098828e+00    7.532632e-01   9.839317e-03
  2.101039e+00    7.356871e-01   9.714861e-03
  2.103249e+00    7.014188e-01   9.477405e-03
  2.105460e+00    7.070839e-01   9.506713e-03
  2.107670e+00    7.122015e-01   9.532430e-03
  2.109881e+00    7.070367e-01   9.488757e-03
  2.112091e+00    7.276568e-01   9.617146e-03
  2.114301e+00    6.975895e-01   9.407732e-03
  2.116512e+00    6.994661e-01   9.411724e-03
  2.118722e+00    7.069446e-01   9.453177e-03
  2.120933e+00    7.185943e-01   9.521887e-03
  2.123143e+00    7.211426e-01   9.529852e-03
  2.125354e+00    7.063872e-01   9.423390e-03
  2.127564e+00    6.794327e-01   9.233345e-03
  2.129775e+00    6.903458e-01   9.298624e-03
  2.131985e+00    6.815906e-01   9.230629e-03
  2.134196e+00    6.883261e-01   9.267687e-03
  2.136406e+00    6.842105e-01   9.231375e-03
  2.138617e+00    6.860260e-01   9.235293e-03
  2.140827e+00    6.787549e-01   9.201940e-03
  2.143037e+00    6.950802e-01   9.357033e-03
  2.145248e+00    7.018261e-01   9.424262e-03
  2.147458e+00    7.006818e-01   9.431688e-03
  2.149669e+00    7.056743e-01   9.477091e-03
  2.151879e+00    6.897001e-01   9.378373e-03
  2.154090e+00    6.860276e-01   9.360593e-03
  2.156300e+00    6.700020e-01   9.257080e-03
  2.158511e+00    6.706275e-01   9.266582e-03
  2.160721e+00    6.899018e-01   9.403587e-03
  2.162932e+00    6.873742e-01   9.390067e-03
  2.165142e+00    7.000727e-01   9.479428e-03
  2.167352e+00    6.829153e-01   9.365454e-03
  2.169563e+00    6.677533e-01   9.262798e-03
  2.171773e+00    6.704577e-01   9.283955e-03
  2.173984e+00    6.601217e-01   9.213473e-03
  2.176194e+00    6.802355e-01   9.353978e-03
  2.178405e+00    6.573262e-01   9.195822e-03
  2.180615e+00    6.457183e-01   9.114895e-03
  2.182826e+00    6.620198e-01   9.229894e-03
  2.185036e+00    6.660303e-01   9.257874e-03
  2.187247e+00    6.618205e-01   9.228528e-03
  2.189457e+00    6.578519e-01   9.200399e-03
  2.191667e+00    6.667329e-01   9.262126e-03
  2.193878e+00    6.899197e-01   9.421224e-03
  2.196088e+00    6.923853e-01   9.437391e-03
  2.198299e+00    6.676494e-01   9.266188e-03
  2.200509e+00    6.568850e-01   9.190153e-03
  2.202720e+00    6.510293e-01   9.147963e-03
  2.204930e+00    6.513190e-01   9.148788e-03
  2.207141e+00    6.653234e-01   9.245516e-03
  2.209351e+00    6.692533e-01   9.270919e-03
  2.211562e+00    6.720619e-01   9.288741e-03
  2.213772e+00    6.698377e-01   9.218154e-03
  2.215982e+00    6.630231e-01   9.127380e-03
  2.218193e+00    6.455186e-01   8.977110e-03
  2.220403e+00    6.488913e-01   8.976418e-03
  2.222614e+00    6.523310e-01   8.979571e-03
  2.224824e+00    6.390773e-01   8.869002e-03
  2.227035e+00    6.638076e-01   9.021631e-03
  2.229245e+00    6.584165e-01   8.968148e-03
  2.231456e+00    6.518719e-01   8.908062e-03
  2.233666e+00    6.457917e-01   8.851628e-03
  2.235877e+00    6.430566e-01   8.818870e-03
  2.238087e+00    6.523541e-01   8.869102e-03
  2.240298e+00    6.349514e-01   8.736608e-03
  2.242508e+00    6.434114e-01   8.779747e-03
  2.244718e+00    6.489732e-01   8.802073e-03
  2.246929e+00    6.403172e-01   8.729035e-03
  2.249139e+00    6.482000e-01   8.770401e-03
  2.251350e+00    6.487088e-01   8.762305e-03
  2.253560e+00    6.444584e-01   8.722182e-03
  2.255771e+00    6.478686e-01   8.733968e-03
  2.257981e+00    6.446885e-01   8.701504e-03
  2.260192e+00    6.523567e-01   8.742084e-03
  2.262402e+00    6.452456e-01   8.683627e-03
  2.264613e+00    6.430430e-01   8.658119e-03
  2.266823e+00    6.485432e-01   8.684780e-03
  2.269033e+00    6.695381e-01   8.813798e-03
  2.271244e+00    6.613548e-01   8.749407e-03
  2.273454e+00    6.475823e-01   8.647678e-03
  2.275665e+00    6.444272e-01   8.616406e-03
  2.277875e+00    6.428621e-01   8.596152e-03
  2.280086e+00    6.488053e-01   8.625836e-03
  2.282296e+00    6.462546e-01   8.599561e-03
  2.284507e+00    6.410394e-01   8.554794e-03
  2.286717e+00    6.508239e-01   8.610417e-03
  2.288928e+00    6.317207e-01   8.473435e-03
  2.291138e+00    6.411695e-01   8.527260e-03
  2.293348e+00    6.470314e-01   8.556672e-03
  2.295559e+00    6.298263e-01   8.433017e-03
  2.297769e+00    6.299917e-01   8.425052e-03
  2.299980e+00    6.318279e-01   8.428134e-03
  2.302190e+00    6.341961e-01   8.434918e-03
  2.304401e+00    6.520100e-01   8.543259e-03
  2.306611e+00    6.285375e-01   8.379035e-03
  2.308822e+00    6.274717e-01   8.363688e-03
  2.311032e+00    6.270069e-01   8.354266e-03
  2.313243e+00    6.298059e-01   8.366700e-03
  2.315453e+00    6.425594e-01   8.443473e-03
  2.317663e+00    6.237217e-01   8.309839e-03
  2.319874e+00    6.045314e-01   8.172536e-03
  2.322084e+00    6.290334e-01   8.327662e-03
  2.324295e+00    6.438083e-01   8.416695e-03
  2.326505e+00    6.307816e-01   8.322155e-03
  2.328716e+00    6.155845e-01   8.212928e-03
  2.330926e+00    6.044864e-01   8.130036e-03
  2.333137e+00    6.099292e-01   8.158374e-03
  2.335347e+00    6.146136e-01   8.180963e-03
  2.337558e+00    6.175191e-01   8.192209e-03
  2.339768e+00    6.156148e-01   8.171144e-03
  2.341979e+00    6.310477e-01   8.264620e-03
  2.344189e+00    6.273808e-01   8.232251e-03
  2.346399e+00    6.125306e-01   8.125914e-03
  2.348610e+00    6.146241e-01   8.131449e-03
  2.350820e+00    6.201321e-01   8.159729e-03
  2.353031e+00    6.330352e-01   8.235903e-03
  2.355241e+00    6.171893e-01   8.124227e-03
  2.357452e+00    6.130697e-01   8.088764e-03
  2.359662e+00    6.186200e-01   8.117166e-03
  2.361873e+00    6.142421e-01   8.080262e-03
  2.364083e+00    6.235914e-01   8.133572e-03
  2.366294e+00    6.263906e-01   8.143704e-03
  2.368504e+00    6.301728e-01   8.160168e-03
  2.370714e+00    6.176951e-01   8.070964e-03
  2.372925e+00    6.082790e-01   8.001276e-03
  2.375135e+00    6.125194e-01   8.021118e-03
  2.377346e+00    6.234318e-01   8.084318e-03
  2.379556e+00    6.243675e-01   8.082482e-03
  2.381767e+00    6.029999e-01   7.935235e-03
  2.383977e+00    5.943454e-01   7.870315e-03
  2.386188e+00    5.927892e-01   7.852251e-03
  2.388398e+00    5.980540e-01   7.879231e-03
  2.390609e+00    5.972443e-01   7.866301e-03
  2.392819e+00    5.888524e-01   7.803218e-03
  2.395029e+00    5.947260e-01   7.834529e-03
  2.397240e+00    6.014518e-01   7.870904e-03
  2.399450e+00    6.022191e-01   7.868208e-03
  2.401661e+00    5.928328e-01   7.799078e-03
  2.403871e+00    5.894188e-01   7.768980e-03
  2.406082e+00    5.916880e-01   7.776585e-03
  2.408292e+00    5.944859e-01   7.787273e-03
  2.410503e+00    5.849249e-01   7.717037e-03
  2.412713e+00    6.004794e-01   7.811213e-03
  2.414924e+00    5.966495e-01   7.778862e-03
  2.417134e+00    5.927551e-01   7.745860e-03
  2.419344e+00    5.775934e-01   7.638904e-03
  2.421555e+00    5.850631e-01   7.680743e-03
  2.423765e+00    5.881069e-01   7.693355e-03
  2.425976e+00    5.960418e-01   7.737319e-03
  2.428186e+00    5.753894e-01   7.595003e-03
  2.430397e+00    5.920507e-01   7.696731e-03
  2.432607e+00    5.894405e-01   7.672519e-03
  2.434818e+00    5.660009e-01   7.511071e-03
  2.437028e+00    5.722798e-01   7.545581e-03
  2.439239e+00    5.693170e-01   7.518529e-03
  2.441449e+00    5.838615e-01   7.606831e-03
  2.443659e+00    5.558482e-01   7.414970e-03
  2.445870e+00    5.664878e-01   7.497601e-03
  2.448080e+00    5.629811e-01   7.508549e-03
  2.450291e+00    5.648246e-01   7.537278e-03
  2.452501e+00    5.632954e-01   7.538101e-03
  2.454712e+00    5.584953e-01   7.514228e-03
  2.456922e+00    5.575639e-01   7.514517e-03
  2.459133e+00    5.418831e-01   7.413393e-03
  2.461343e+00    5.419452e-01   7.418064e-03
  2.463554e+00    5.520377e-01   7.490261e-03
  2.465764e+00    5.474547e-01   7.462201e-03
  2.467975e+00    5.488541e-01   7.473978e-03
  2.470185e+00    5.536395e-01   7.508746e-03
  2.472395e+00    5.500515e-01   7.485596e-03
  2.474606e+00    5.333574e-01   7.372657e-03
  2.476816e+00    5.278786e-01   7.335413e-03
  2.479027e+00    5.185395e-01   7.271050e-03
  2.481237e+00    5.195521e-01   7.278429e-03
  2.483448e+00    5.295300e-01   7.348265e-03
  2.485658e+00    5.490639e-01   7.482430e-03
  2.487869e+00    5.251136e-01   7.317494e-03
  2.490079e+00    5.101843e-01   7.212177e-03
  2.492290e+00    5.372590e-01   7.400652e-03
  2.494500e+00    5.200075e-01   7.280164e-03
  2.496710e+00    5.170490e-01   7.258713e-03
  2.498921e+00    5.145074e-01   7.239902e-03
  2.501131e+00    5.061937e-01   7.180236e-03
  2.503342e+00    4.977195e-01   7.118671e-03
  2.505552e+00    4.977401e-01   7.117689e-03
  2.507763e+00    5.166324e-01   7.250139e-03
  2.509973e+00    5.109973e-01   7.209118e-03
  2.512184e+00    5.092571e-01   7.195232e-03
  2.514394e+00    5.305325e-01   7.334607e-03
  2.516605e+00    5.212771e-01   7.223542e-03
  2.518815e+00    5.011486e-01   7.055040e-03
  2.521025e+00    5.065885e-01   7.072635e-03
  2.523236e+00    5.257691e-01   7.187307e-03
  2.525446e+00    5.217785e-01   7.144425e-03
  2.527657e+00    5.225378e-01   7.135071e-03
  2.529867e+00    5.106735e-01   7.039616e-03
  2.532078e+00    5.152811e-01   7.056389e-03
  2.534288e+00    5.230323e-01   7.095414e-03
  2.536499e+00    5.233639e-01   7.085735e-03
  2.538709e+00    5.353715e-01   7.155440e-03
  2.540920e+00    5.233826e-01   7.064260e-03
  2.543130e+00    4.968036e-01   6.872447e-03
  2.545340e+00    5.003219e-01   6.886895e-03
  2.547551e+00    4.971659e-01   6.855443e-03
  2.549761e+00    5.149155e-01   6.967229e-03
  2.551972e+00    5.136188e-01   6.949183e-03
  2.554182e+00    5.004423e-01   6.850477e-03
  2.556393e+00    4.950929e-01   6.804888e-03
  2.558603e+00    4.987400e-01   6.821024e-03
  2.560814e+00    5.129245e-01   6.908687e-03
  2.563024e+00    5.299003e-01   7.013430e-03
  2.565235e+00    5.070854e-01   6.851402e-03
  2.567445e+00    5.124759e-01   6.878208e-03
  2.569656e+00    5.197066e-01   6.916804e-03
  2.571866e+00    5.087007e-01   6.833912e-03
  2.574076e+00    4.969120e-01   6.745169e-03
  2.576287e+00    4.974390e-01   6.740564e-03
  2.578497e+00    5.063767e-01   6.793077e-03
  2.580708e+00    5.015006e-01   6.752332e-03
  2.582918e+00    4.999176e-01   6.734001e-03
  2.585129e+00    4.947262e-01   6.691357e-03
  2.587339e+00    4.980552e-01   6.706265e-03
  2.589550e+00    5.038028e-01   6.737365e-03
  2.591760e+00    5.088395e-01   6.763245e-03
  2.593971e+00    4.975863e-01   6.680635e-03
  2.596181e+00    4.956401e-01   6.661420e-03
  2.598391e+00    4.968298e-01   6.664287e-03
  2.600602e+00    5.003833e-01   6.682227e-03
  2.602812e+00    4.939071e-01   6.631426e-03
  2.605023e+00    4.913591e-01   6.607235e-03
  2.607233e+00    4.972216e-01   6.639491e-03
  2.609444e+00    4.891055e-01   6.577974e-03
  2.611654e+00    4.908956e-01   6.582794e-03
  2.613865e+00    4.867986e-01   6.548370e-03
  2.616075e+00    4.864016e-01   6.538705e-03
  2.618286e+00    4.862702e-01   6.530951e-03
  2.620496e+00    4.901454e-01   6.550326e-03
  2.622706e+00    4.969583e-01   6.590000e-03
  2.624917e+00    4.910011e-01   6.544616e-03
  2.627127e+00    4.928595e-01   6.551297e-03
  2.629338e+00    5.116478e-01   6.668992e-03
  2.631548e+00    4.737078e-01   6.410991e-03
  2.633759e+00    4.873785e-01   6.495781e-03
  2.635969e+00    4.983631e-01   6.561911e-03
  2.638180e+00    5.023247e-01   6.580958e-03
  2.640390e+00    4.939131e-01   6.519078e-03
  2.642601e+00    4.837905e-01   6.445363e-03
  2.644811e+00    4.944670e-01   6.509071e-03
  2.647021e+00    4.905044e-01   6.476437e-03
  2.649232e+00    4.803928e-01   6.402752e-03
  2.651442e+00    4.788096e-01   6.385800e-03
  2.653653e+00    4.899876e-01   6.453193e-03
  2.655863e+00    4.937831e-01   6.471481e-03
  2.658074e+00    4.984826e-01   6.495592e-03
  2.660284e+00    4.955228e-01   6.469938e-03
  2.662495e+00    4.755957e-01   6.331914e-03
  2.664705e+00    4.770254e-01   6.334981e-03
  2.666916e+00    4.810806e-01   6.355482e-03
  2.669126e+00    4.839687e-01   6.368161e-03
  2.671337e+00    4.722458e-01   6.284139e-03
  2.673547e+00    4.810295e-01   6.336006e-03
  2.675757e+00    4.970385e-01   6.434118e-03
  2.677968e+00    4.856296e-01   6.353394e-03
  2.680178e+00    4.839614e-01   6.336127e-03
  2.682389e+00    4.908052e-01   6.374385e-03
  2.684599e+00    4.909042e-01   6.368863e-03
  2.686810e+00    4.796466e-01   6.288889e-03
  2.689020e+00    4.794531e-01   6.281415e-03
  2.691231e+00    4.704324e-01   6.215883e-03
  2.693441e+00    4.732318e-01   6.228307e-03
  2.695652e+00    4.659498e-01   6.173856e-03
  2.697862e+00    4.690911e-01   6.188414e-03
  2.700072e+00    4.861336e-01   6.293767e-03
  2.702283e+00    4.885280e-01   6.303053e-03
  2.704493e+00    4.630842e-01   6.130598e-03
  2.706704e+00    4.705967e-01   6.173818e-03
  2.708914e+00    4.849381e-01   6.261260e-03
  2.711125e+00    4.842001e-01   6.250261e-03
  2.713335e+00    4.790344e-01   6.210790e-03
  2.715546e+00    4.743966e-01   6.174289e-03
  2.717756e+00    4.745776e-01   6.169640e-03
  2.719967e+00    4.650109e-01   6.101072e-03
  2.722177e+00    4.592679e-01   6.057331e-03
  2.724387e+00    4.515883e-01   6.000555e-03
  2.726598e+00    4.806775e-01   6.184791e-03
  2.728808e+00    4.677388e-01   6.094953e-03
  2.731019e+00    4.822688e-01   6.182765e-03
  2.733229e+00    4.949741e-01   6.257836e-03
  2.735440e+00    4.711558e-01   6.099226e-03
  2.737650e+00    4.678744e-01   6.072026e-03
  2.739861e+00    4.728103e-01   6.097973e-03
  2.742071e+00    4.660639e-01   6.048663e-03
  2.744282e+00    4.679901e-01   6.054999e-03
  2.746492e+00    4.760937e-01   6.101205e-03
  2.748702e+00    4.804115e-01   6.122907e-03
  2.750913e+00    4.733789e-01   6.072193e-03
  2.753123e+00    4.728659e-01   6.062839e-03
  2.755334e+00    4.692370e-01   6.033522e-03
  2.757544e+00    4.787009e-01   6.088343e-03
  2.759755e+00    4.708042e-01   6.032088e-03
  2.761965e+00    4.729430e-01   6.039832e-03
  2.764176e+00    4.724151e-01   6.030542e-03
  2.766386e+00    4.584113e-01   5.934807e-03
  2.768597e+00    4.605973e-01   5.943205e-03
  2.770807e+00    4.622611e-01   5.948159e-03
  2.773017e+00    4.540969e-01   5.889577e-03
  2.775228e+00    4.653678e-01   5.956511e-03
  2.777438e+00    4.604498e-01   5.919275e-03
  2.779649e+00    4.654801e-01   5.945696e-03
  2.781859e+00    4.708643e-01   5.974260e-03
  2.784070e+00    4.673538e-01   5.946157e-03
  2.786280e+00    4.637086e-01   5.917232e-03
  2.788491e+00    4.560441e-01   5.862429e-03
  2.790701e+00    4.637822e-01   5.906363e-03
  2.792912e+00    4.803401e-01   6.004893e-03
  2.795122e+00    4.780924e-01   5.985091e-03
  2.797333e+00    4.594314e-01   5.861661e-03
  2.799543e+00    4.629493e-01   5.878266e-03
  2.801753e+00    4.720145e-01   5.929700e-03
  2.803964e+00    4.690664e-01   5.905536e-03
  2.806174e+00    4.702981e-01   5.907169e-03
  2.808385e+00    4.655532e-01   5.870569e-03
  2.810595e+00    4.574098e-01   5.812249e-03
  2.812806e+00    4.711678e-01   5.892432e-03
  2.815016e+00    4.663463e-01   5.857494e-03
  2.817227e+00    4.682001e-01   5.894897e-03
  2.819437e+00    4.655882e-01   5.889420e-03
  2.821648e+00    4.530737e-01   5.811973e-03
  2.823858e+00    4.582285e-01   5.850183e-03
  2.826068e+00    4.614054e-01   5.875352e-03
  2.828279e+00    4.644761e-01   5.898878e-03
  2.830489e+00    4.534059e-01   5.831422e-03
  2.832700e+00    4.594018e-01   5.872383e-03
  2.834910e+00    4.468325e-01   5.793492e-03
  2.837121e+00    4.636753e-01   5.903367e-03
  2.839331e+00    4.575059e-01   5.865182e-03
  2.841542e+00    4.660331e-01   5.920585e-03
  2.843752e+00    4.624352e-01   5.898476e-03
  2.845963e+00    4.616051e-01   5.893576e-03
  2.848173e+00    4.680015e-01   5.934353e-03
  2.850383e+00    4.773174e-01   5.993416e-03
  2.852594e+00    4.719537e-01   5.959576e-03
  2.854804e+00    4.559852e-01   5.857383e-03
  2.857015e+00    4.607326e-01   5.887377e-03
  2.859225e+00    4.609697e-01   5.888627e-03
  2.861436e+00    4.488647e-01   5.810165e-03
  2.863646e+00    4.571967e-01   5.863873e-03
  2.865857e+00    4.479652e-01   5.804706e-03
  2.868067e+00    4.494528e-01   5.814562e-03
  2.870278e+00    4.488735e-01   5.810455e-03
  2.872488e+00    4.581434e-01   5.868990e-03
  2.874698e+00    4.516492e-01   5.826227e-03
  2.876909e+00    4.580527e-01   5.866048e-03
  2.879119e+00    4.531685e-01   5.833101e-03
  2.881330e+00    4.578519e-01   5.861686e-03
  2.883540e+00    4.497925e-01   5.808516e-03
  2.885751e+00    4.521890e-01   5.822327e-03
  2.887961e+00    4.512418e-01   5.814371e-03
  2.890172e+00    4.518601e-01   5.816761e-03
  2.892382e+00    4.449091e-01   5.770078e-03
  2.894593e+00    4.482441e-01   5.789876e-03
  2.896803e+00    4.452906e-01   5.768814e-03
  2.899014e+00    4.460449e-01   5.771811e-03
  2.901224e+00    4.575028e-01   5.843506e-03
  2.903434e+00    4.557017e-01   5.830037e-03
  2.905645e+00    4.663650e-01   5.895629e-03
  2.907855e+00    4.521433e-01   5.802962e-03
  2.910066e+00    4.426379e-01   5.739595e-03
  2.912276e+00    4.483202e-01   5.774207e-03
  2.914487e+00    4.533377e-01   5.804000e-03
  2.916697e+00    4.411710e-01   5.723405e-03
  2.918908e+00    4.384403e-01   5.703704e-03
  2.921118e+00    4.421436e-01   5.725080e-03
  2.923329e+00    4.428925e-01   5.727675e-03
  2.925539e+00    4.405313e-01   5.710119e-03
  2.927749e+00    4.531391e-01   5.788973e-03
  2.929960e+00    4.376364e-01   5.686368e-03
  2.932170e+00    4.395305e-01   5.696375e-03
  2.934381e+00    4.309007e-01   5.637801e-03
  2.936591e+00    4.400643e-01   5.694894e-03
  2.938802e+00    4.454724e-01   5.727117e-03
  2.941012e+00    4.424520e-01   5.705356e-03
  2.943223e+00    4.365396e-01   5.664490e-03
  2.945433e+00    4.364768e-01   5.660390e-03
  2.947644e+00    4.582148e-01   5.795504e-03
  2.949854e+00    4.528443e-01   5.757194e-03
  2.952064e+00    4.387200e-01   5.662544e-03
  2.954275e+00    4.376653e-01   5.651410e-03
  2.956485e+00    4.467391e-01   5.705538e-03
  2.958696e+00    4.359428e-01   5.631893e-03
  2.960906e+00    4.501269e-01   5.718624e-03
  2.963117e+00    4.429113e-01   5.668181e-03
  2.965327e+00    4.381994e-01   5.634113e-03
  2.967538e+00    4.469751e-01   5.687357e-03
  2.969748e+00    4.414213e-01   5.649151e-03
  2.971959e+00    4.457400e-01   5.673594e-03
  2.974169e+00    4.435106e-01   5.656848e-03
  2.976379e+00    4.437030e-01   5.655185e-03
  2.978590e+00    4.452833e-01   5.662153e-03
  2.980800e+00    4.458570e-01   5.663010e-03
  2.983011e+00    4.441465e-01   5.649380e-03
  2.985221e+00    4.417715e-01   5.631144e-03
  2.987432e+00    4.470463e-01   5.661574e-03
  2.989642e+00    4.388240e-01   5.606693e-03
  2.991853e+00    4.443713e-01   5.638759e-03
  2.994063e+00    4.436757e-01   5.631479e-03
  2.996274e+00    4.503470e-01   5.670490e-03
  2.998484e+00    4.526932e-01   5.682528e-03
  3.000694e+00    4.636927e-01   5.747681e-03
  3.002905e+00    4.464427e-01   5.636846e-03
  3.005115e+00    4.438184e-01   5.617296e-03
  3.007326e+00    4.391937e-01   5.584846e-03
  3.009536e+00    4.407920e-01   5.591797e-03
  3.011747e+00    4.484439e-01   5.637210e-03
  3.013957e+00    4.520952e-01   5.656945e-03
  3.016168e+00    4.551391e-01   5.672696e-03
  3.018378e+00    4.437303e-01   5.598132e-03
  3.020589e+00    4.396717e-01   5.569308e-03
  3.022799e+00    4.363904e-01   5.545374e-03
  3.025010e+00    4.510300e-01   5.634392e-03
  3.027220e+00    4.426442e-01   5.578701e-03
  3.029430e+00    4.348527e-01   5.526186e-03
  3.031641e+00    4.494917e-01   5.615309e-03
  3.033851e+00    4.468168e-01   5.595084e-03
  3.036062e+00    4.393804e-01   5.545586e-03
  3.038272e+00    4.454850e-01   5.580419e-03
  3.040483e+00    4.445720e-01   5.571501e-03
  3.042693e+00    4.411819e-01   5.546997e-03
  3.044904e+00    4.385852e-01   5.526674e-03
  3.047114e+00    4.466408e-01   5.572424e-03
  3.049325e+00    4.379498e-01   5.513607e-03
  3.051535e+00    4.368091e-01   5.502084e-03
  3.053745e+00    4.496435e-01   5.577603e-03
  3.055956e+00    4.433143e-01   5.533667e-03
  3.058166e+00    4.415216e-01   5.518248e-03
  3.060377e+00    4.434954e-01   5.525839e-03
  3.062587e+00    4.344296e-01   5.464512e-03
  3.064798e+00    4.462420e-01   5.534074e-03
  3.067008e+00    4.398248e-01   5.489455e-03
  3.069219e+00    4.577834e-01   5.595846e-03
  3.071429e+00    4.518917e-01   5.556220e-03
  3.073640e+00    4.532781e-01   5.561379e-03
  3.075850e+00    4.481058e-01   5.525991e-03
  3.078060e+00    4.381990e-01   5.461483e-03
  3.080271e+00    4.356544e-01   5.442193e-03
  3.082481e+00    4.295116e-01   5.400301e-03
  3.084692e+00    4.332340e-01   5.420343e-03
  3.086902e+00    4.289827e-01   5.390500e-03
  3.089113e+00    4.473535e-01   5.501144e-03
  3.091323e+00    4.458143e-01   5.488314e-03
  3.093534e+00    4.393613e-01   5.445103e-03
  3.095744e+00    4.487938e-01   5.499857e-03
  3.097955e+00    4.446817e-01   5.471090e-03
  3.100165e+00    4.367238e-01   5.418586e-03
  3.102375e+00    4.498638e-01   5.496094e-03
  3.104586e+00    4.425430e-01   5.447708e-03
  3.106796e+00    4.311668e-01   5.373775e-03
  3.109007e+00    4.406523e-01   5.429361e-03
  3.111217e+00    4.281172e-01   5.347965e-03
  3.113428e+00    4.381704e-01   5.407001e-03
  3.115638e+00    4.384897e-01   5.405765e-03
  3.117849e+00    4.397080e-01   5.409571e-03
  3.120059e+00    4.307236e-01   5.350622e-03
  3.122270e+00    4.238145e-01   5.304344e-03
  3.124480e+00    4.352992e-01   5.372091e-03
  3.126691e+00    4.288189e-01   5.328459e-03
  3.128901e+00    4.203903e-01   5.272795e-03
  3.131111e+00    4.252875e-01   5.299649e-03
  3.133322e+00    4.284838e-01   5.316155e-03
  3.135532e+00    4.302762e-01   5.323905e-03
  3.137743e+00    4.270916e-01   5.300772e-03
  3.139953e+00    4.309037e-01   5.320721e-03
  3.142164e+00    4.213454e-01   5.273113e-03
  3.144374e+00    4.343510e-01   5.382013e-03
  3.146585e+00    4.309200e-01   5.375097e-03
  3.148795e+00    4.299075e-01   5.379402e-03
  3.151006e+00    4.233106e-01   5.346329e-03
  3.153216e+00    4.170998e-01   5.313901e-03
  3.155426e+00    4.343500e-01   5.428925e-03
  3.157637e+00    4.355496e-01   5.441925e-03
  3.159847e+00    4.322346e-01   5.425984e-03
  3.162058e+00    4.406239e-01   5.482830e-03
  3.164268e+00    4.196568e-01   5.354766e-03
  3.166479e+00    4.197160e-01   5.358702e-03
  3.168689e+00    4.311394e-01   5.434471e-03
  3.170900e+00    4.353509e-01   5.464110e-03
  3.173110e+00    4.256582e-01   5.405774e-03
  3.175321e+00    4.281567e-01   5.424076e-03
  3.177531e+00    4.206592e-01   5.379069e-03
  3.179741e+00    4.177093e-01   5.362197e-03
  3.181952e+00    4.199394e-01   5.378542e-03
  3.184162e+00    4.071760e-01   5.298315e-03
  3.186373e+00    4.215623e-01   5.392647e-03
  3.188583e+00    4.349755e-01   5.479552e-03
  3.190794e+00    4.243895e-01   5.414214e-03
  3.193004e+00    4.307486e-01   5.455853e-03
  3.195215e+00    4.258260e-01   5.426064e-03
  3.197425e+00    4.249757e-01   5.421854e-03
  3.199636e+00    4.219825e-01   5.401963e-03
  3.201846e+00    4.275506e-01   5.436881e-03
  3.204056e+00    4.429913e-01   5.535078e-03
  3.206267e+00    4.386105e-01   5.508517e-03
  3.208477e+00    4.100520e-01   5.327055e-03
  3.210688e+00    4.241106e-01   5.418435e-03
  3.212898e+00    4.224142e-01   5.408147e-03
  3.215109e+00    4.174183e-01   5.376827e-03
  3.217319e+00    4.262993e-01   5.434346e-03
  3.219530e+00    4.174821e-01   5.378244e-03
  3.221740e+00    4.225572e-01   5.411388e-03
  3.223951e+00    4.149758e-01   5.363089e-03
  3.226161e+00    4.162700e-01   5.371621e-03
  3.228372e+00    4.140759e-01   5.357977e-03
  3.230582e+00    4.048581e-01   5.298132e-03
  3.232792e+00    4.146817e-01   5.362243e-03
  3.235003e+00    4.334247e-01   5.482340e-03
  3.237213e+00    4.240974e-01   5.423130e-03
  3.239424e+00    4.129061e-01   5.351107e-03
  3.241634e+00    4.175871e-01   5.381451e-03
  3.243845e+00    4.219547e-01   5.409608e-03
  3.246055e+00    4.280896e-01   5.448509e-03
  3.248266e+00    4.323740e-01   5.475926e-03
  3.250476e+00    4.285997e-01   5.451652e-03
  3.252687e+00    4.190541e-01   5.390539e-03
  3.254897e+00    4.214191e-01   5.405593e-03
  3.257107e+00    4.209927e-01   5.402559e-03
  3.259318e+00    4.128184e-01   5.349617e-03
  3.261528e+00    4.251142e-01   5.428571e-03
  3.263739e+00    4.088813e-01   5.323353e-03
  3.265949e+00    4.156643e-01   5.367222e-03
  3.268160e+00    4.107639e-01   5.335064e-03
  3.270370e+00    4.198314e-01   5.393147e-03
  3.272581e+00    4.127958e-01   5.347464e-03
  3.274791e+00    4.215261e-01   5.403202e-03
  3.277002e+00    4.275191e-01   5.440918e-03
  3.279212e+00    4.191725e-01   5.387165e-03
  3.281422e+00    4.270914e-01   5.437231e-03
  3.283633e+00    4.142810e-01   5.354387e-03
  3.285843e+00    4.195809e-01   5.388205e-03
  3.288054e+00    4.195572e-01   5.387124e-03
  3.290264e+00    4.130238e-01   5.344697e-03
  3.292475e+00    4.052270e-01   5.293194e-03
  3.294685e+00    4.142575e-01   5.351207e-03
  3.296896e+00    4.237241e-01   5.411270e-03
  3.299106e+00    4.215610e-01   5.396877e-03
  3.301317e+00    4.223182e-01   5.400701e-03
  3.303527e+00    3.994902e-01   5.252257e-03
  3.305737e+00    4.321120e-01   5.461414e-03
  3.307948e+00    4.223982e-01   5.399036e-03
  3.310158e+00    4.155586e-01   5.354312e-03
  3.312369e+00    4.146720e-01   5.347697e-03
  3.314579e+00    4.152862e-01   5.350762e-03
  3.316790e+00    4.212159e-01   5.388115e-03
  3.319000e+00    4.233366e-01   5.400490e-03
  3.321211e+00    4.154028e-01   5.349044e-03
  3.323421e+00    4.213498e-01   5.385986e-03
  3.325632e+00    4.202290e-01   5.377931e-03
  3.327842e+00    4.161019e-01   5.350565e-03
  3.330052e+00    4.046571e-01   5.275402e-03
  3.332263e+00    4.101919e-01   5.310365e-03
  3.334473e+00    4.131610e-01   5.328651e-03
  3.336684e+00    4.106475e-01   5.311147e-03
  3.338894e+00    4.167610e-01   5.349719e-03
  3.341105e+00    4.064394e-01   5.281867e-03
  3.343315e+00    4.174066e-01   5.351515e-03
  3.345526e+00    4.190518e-01   5.361152e-03
  3.347736e+00    4.215687e-01   5.375821e-03
  3.349947e+00    4.060483e-01   5.275029e-03
  3.352157e+00    4.112861e-01   5.307754e-03
  3.354368e+00    4.174870e-01   5.346342e-03
  3.356578e+00    4.059577e-01   5.271020e-03
  3.358788e+00    3.950563e-01   5.198444e-03
  3.360999e+00    4.206304e-01   5.362814e-03
  3.363209e+00    4.055615e-01   5.264902e-03
  3.365420e+00    4.062678e-01   5.267969e-03
  3.367630e+00    4.242772e-01   5.382442e-03
  3.369841e+00    4.108611e-01   5.295254e-03
  3.372051e+00    4.088799e-01   5.280512e-03
  3.374262e+00    4.089038e-01   5.278256e-03
  3.376472e+00    4.069282e-01   5.263051e-03
  3.378683e+00    4.126762e-01   5.297621e-03
  3.380893e+00    4.028442e-01   5.231824e-03
  3.383103e+00    4.147720e-01   5.305997e-03
  3.385314e+00    4.071017e-01   5.254529e-03
  3.387524e+00    3.951940e-01   5.174418e-03
  3.389735e+00    4.099377e-01   5.267447e-03
  3.391945e+00    4.101268e-01   5.264995e-03
  3.394156e+00    4.037635e-01   5.219841e-03
  3.396366e+00    4.020363e-01   5.205271e-03
  3.398577e+00    3.918009e-01   5.135633e-03
  3.400787e+00    4.040884e-01   5.227328e-03
  3.402998e+00    3.939810e-01   5.198879e-03
  3.405208e+00    3.921184e-01   5.206876e-03
  3.407418e+00    3.929859e-01   5.228264e-03
  3.409629e+00    3.901563e-01   5.223176e-03
  3.411839e+00    3.891046e-01   5.227745e-03
  3.414050e+00    3.957272e-01   5.283042e-03
  3.416260e+00    3.908041e-01   5.259657e-03
  3.418471e+00    3.882357e-01   5.251703e-03
  3.420681e+00    3.856659e-01   5.242725e-03
  3.422892e+00    3.707335e-01   5.148014e-03
  3.425102e+00    3.598075e-01   5.079098e-03
  3.427313e+00    3.577147e-01   5.071199e-03
  3.429523e+00    3.734607e-01   5.188548e-03
  3.431733e+00    3.716882e-01   5.182744e-03
  3.433944e+00    3.813963e-01   5.256461e-03
  3.436154e+00    3.661057e-01   5.156129e-03
  3.438365e+00    3.750611e-01   5.224679e-03
  3.440575e+00    3.717136e-01   5.207178e-03
  3.442786e+00    3.712431e-01   5.209422e-03
  3.444996e+00    3.713998e-01   5.215995e-03
  3.447207e+00    3.490410e-01   5.061647e-03
  3.449417e+00    3.575429e-01   5.162948e-03
  3.451628e+00    3.630337e-01   5.231652e-03
  3.453838e+00    3.627369e-01   5.250559e-03
  3.456049e+00    3.570740e-01   5.232963e-03
  3.458259e+00    3.601618e-01   5.277297e-03
  3.460469e+00    3.534614e-01   5.247402e-03
  3.462680e+00    3.567043e-01   5.290239e-03
  3.464890e+00    3.587979e-01   5.323351e-03
  3.467101e+00    3.675620e-01   5.405422e-03
  3.469311e+00    3.877462e-01   5.568803e-03
  3.471522e+00    3.720015e-01   5.470912e-03
  3.473732e+00    3.822132e-01   5.561500e-03
  3.475943e+00    3.849606e-01   5.597212e-03
  3.478153e+00    3.866058e-01   5.624581e-03
  3.480364e+00    3.975152e-01   5.718591e-03
  3.482574e+00    4.028855e-01   5.772429e-03
  3.484784e+00    4.193628e-01   5.904306e-03
  3.486995e+00    4.064746e-01   5.827819e-03
  3.489205e+00    4.114642e-01   5.877937e-03
  3.491416e+00    4.360258e-01   6.065850e-03
  3.493626e+00    4.433796e-01   6.131575e-03
  3.495837e+00    4.435323e-01   6.147424e-03
  3.498047e+00    4.486904e-01   6.197629e-03
  3.500258e+00    4.209872e-01   6.017323e-03
  3.502468e+00    4.407775e-01   6.171331e-03
  3.504679e+00    4.626170e-01   6.336881e-03
  3.506889e+00    4.704037e-01   6.404509e-03
  3.509099e+00    4.722598e-01   6.431518e-03
  3.511310e+00    4.783832e-01   6.487557e-03
  3.513520e+00    4.746318e-01   6.476416e-03
  3.515731e+00    4.702018e-01   6.460216e-03
  3.517941e+00    4.873590e-01   6.591349e-03
  3.520152e+00    5.164418e-01   6.799805e-03
  3.522362e+00    5.083025e-01   6.760614e-03
  3.524573e+00    5.019180e-01   6.732226e-03
  3.526783e+00    5.143893e-01   6.828763e-03
  3.528994e+00    5.135989e-01   6.835726e-03
  3.531204e+00    4.993680e-01   6.752541e-03
  3.533414e+00    5.105352e-01   6.839527e-03
  3.535625e+00    5.203065e-01   6.916948e-03
  3.537835e+00    5.237806e-01   6.952003e-03
  3.540046e+00    5.445929e-01   7.097797e-03
  3.542256e+00    5.274497e-01   6.992677e-03
  3.544467e+00    5.188184e-01   6.942731e-03
  3.546677e+00    5.171003e-01   6.938630e-03
  3.548888e+00    5.192881e-01   6.960684e-03
  3.551098e+00    5.177479e-01   6.957547e-03
  3.553309e+00    5.391731e-01   7.108205e-03
  3.555519e+00    5.289125e-01   7.051458e-03
  3.557729e+00    5.231020e-01   7.024217e-03
  3.559940e+00    5.094464e-01   6.943191e-03
  3.562150e+00    5.385666e-01   7.150595e-03
  3.564361e+00    5.270530e-01   7.086953e-03
  3.566571e+00    5.308652e-01   7.126300e-03
  3.568782e+00    5.348600e-01   7.167191e-03
  3.570992e+00    5.349030e-01   7.181198e-03
  3.573203e+00    5.416791e-01   7.240747e-03
  3.575413e+00    5.415542e-01   7.253793e-03
  3.577624e+00    5.219054e-01   7.134913e-03
  3.579834e+00    5.182340e-01   7.123413e-03
  3.582045e+00    5.229388e-01   7.169551e-03
  3.584255e+00    5.250267e-01   7.197714e-03
  3.586465e+00    5.439869e-01   7.340610e-03
  3.588676e+00    5.261876e-01   7.233567e-03
  3.590886e+00    5.342315e-01   7.302329e-03
  3.593097e+00    5.182149e-01   7.206314e-03
  3.595307e+00    5.268806e-01   7.280087e-03
  3.597518e+00    5.266351e-01   7.292518e-03
  3.599728e+00    5.294578e-01   7.326054e-03
  3.601939e+00    5.183356e-01   7.262524e-03
  3.604149e+00    5.161147e-01   7.261079e-03
  3.606360e+00    5.238726e-01   7.329453e-03
  3.608570e+00    5.352067e-01   7.422454e-03
  3.610780e+00    5.256186e-01   7.366679e-03
  3.612991e+00    5.320265e-01   7.421379e-03
  3.615201e+00    5.381145e-01   7.473590e-03
  3.617412e+00    5.216826e-01   7.365781e-03
  3.619622e+00    5.106579e-01   7.293335e-03
  3.621833e+00    5.287263e-01   7.427898e-03
  3.624043e+00    5.251759e-01   7.412388e-03
  3.626254e+00    5.215844e-01   7.396549e-03
  3.628464e+00    5.144804e-01   7.356790e-03
  3.630675e+00    5.280629e-01   7.467323e-03
  3.632885e+00    5.305452e-01   7.499218e-03
  3.635095e+00    5.345005e-01   7.541554e-03
  3.637306e+00    5.261877e-01   7.496955e-03
  3.639516e+00    5.017831e-01   7.335132e-03
  3.641727e+00    5.323547e-01   7.569812e-03
  3.643937e+00    5.247008e-01   7.529642e-03
  3.646148e+00    5.328038e-01   7.602158e-03
  3.648358e+00    5.386897e-01   7.658965e-03
  3.650569e+00    5.406617e-01   7.687829e-03
  3.652779e+00    5.440017e-01   7.726479e-03
  3.654990e+00    5.226763e-01   7.588265e-03
  3.657200e+00    5.216490e-01   7.595514e-03
  3.659410e+00    5.397097e-01   7.740977e-03
  3.661621e+00    5.151820e-01   7.577938e-03
  3.663831e+00    4.995695e-01   7.476837e-03
  3.666042e+00    5.092226e-01   7.563568e-03
  3.668252e+00    5.361286e-01   7.776130e-03
  3.670463e+00    5.151963e-01   7.637843e-03
  3.672673e+00    5.013407e-01   7.549411e-03
  3.674884e+00    5.144776e-01   7.662822e-03
  3.677094e+00    5.192921e-01   7.713967e-03
  3.679305e+00    5.229483e-01   7.756534e-03
  3.681515e+00    5.260532e-01   7.795021e-03
  3.683726e+00    5.290543e-01   7.833078e-03
  3.685936e+00    5.240411e-01   7.811521e-03
  3.688146e+00    5.156341e-01   7.764149e-03
  3.690357e+00    4.967966e-01   7.636539e-03
  3.692567e+00    5.139080e-01   7.782764e-03
  3.694778e+00    5.194871e-01   7.840927e-03
  3.696988e+00    5.135020e-01   7.811328e-03
  3.699199e+00    5.444988e-01   8.060256e-03
  3.701409e+00    5.375270e-01   8.024997e-03
  3.703620e+00    5.102571e-01   7.834920e-03
  3.705830e+00    5.198728e-01   7.924703e-03
  3.708041e+00    4.956543e-01   7.754050e-03
  3.710251e+00    5.029821e-01   7.827556e-03
  3.712461e+00    5.058877e-01   7.866561e-03
  3.714672e+00    5.063735e-01   7.886837e-03
  3.716882e+00    5.210010e-01   8.016665e-03
  3.719093e+00    5.120111e-01   7.964191e-03
  3.721303e+00    5.141619e-01   7.997766e-03
  3.723514e+00    5.159473e-01   8.028870e-03
  3.725724e+00    5.109797e-01   8.007105e-03
  3.727935e+00    5.445046e-01   8.283542e-03
  3.730145e+00    5.154064e-01   8.076516e-03
  3.732356e+00    4.982023e-01   7.957774e-03
  3.734566e+00    5.018973e-01   8.004474e-03
  3.736776e+00    5.339767e-01   8.274470e-03
  3.738987e+00    5.070543e-01   8.080796e-03
  3.741197e+00    5.092424e-01   8.116135e-03
  3.743408e+00    4.886147e-01   7.967675e-03
  3.745618e+00    4.983839e-01   8.064948e-03
  3.747829e+00    5.121070e-01   8.193361e-03
  3.750039e+00    5.185086e-01   8.262905e-03
  3.752250e+00    4.931197e-01   8.076269e-03
  3.754460e+00    4.731930e-01   7.929208e-03
  3.756671e+00    4.979936e-01   8.152951e-03
  3.758881e+00    4.774409e-01   8.000975e-03
  3.761091e+00    4.959579e-01   8.173569e-03
  3.763302e+00    5.114362e-01   8.319270e-03
  3.765512e+00    4.988199e-01   8.235123e-03
  3.767723e+00    5.083306e-01   8.332589e-03
  3.769933e+00    5.133396e-01   8.393052e-03
  3.772144e+00    5.094677e-01   8.380967e-03
  3.774354e+00    4.905005e-01   8.243063e-03
  3.776565e+00    4.938969e-01   8.291144e-03
  3.778775e+00    4.859225e-01   8.243507e-03
  3.780986e+00    4.971222e-01   8.358135e-03
  3.783196e+00    5.374047e-01   8.711076e-03
  3.785407e+00    5.004161e-01   8.426391e-03
  3.787617e+00    4.981576e-01   8.427966e-03
  3.789827e+00    4.940410e-01   8.413434e-03
  3.792038e+00    4.729227e-01   8.251881e-03
  3.794248e+00    5.067223e-01   8.562940e-03
  3.796459e+00    4.692002e-01   8.260481e-03
  3.798669e+00    4.912958e-01   8.473865e-03
  3.800880e+00    5.073805e-01   8.633113e-03
  3.803090e+00    4.833916e-01   8.447975e-03
  3.805301e+00    4.723308e-01   8.372285e-03
  3.807511e+00    4.955900e-01   8.597741e-03
  3.809722e+00    5.057588e-01   8.707962e-03
  3.811932e+00    4.868433e-01   8.565534e-03
  3.814142e+00    4.985537e-01   8.690697e-03
  3.816353e+00    4.825983e-01   8.573040e-03
  3.818563e+00    5.011701e-01   8.759540e-03
  3.820774e+00    5.007232e-01   8.778908e-03
  3.822984e+00    4.782853e-01   8.602834e-03
  3.825195e+00    4.925892e-01   8.754117e-03
  3.827405e+00    5.104786e-01   8.935887e-03
  3.829616e+00    4.503144e-01   8.415711e-03
  3.831826e+00    5.012297e-01   8.902937e-03
  3.834037e+00    4.785867e-01   8.723600e-03
  3.836247e+00    4.929187e-01   8.877812e-03
  3.838457e+00    5.012859e-01   8.978004e-03
  3.840668e+00    4.850619e-01   8.856513e-03
  3.842878e+00    4.714648e-01   8.756304e-03
  3.845089e+00    4.584661e-01   8.659327e-03
  3.847299e+00    4.733886e-01   8.824362e-03
  3.849510e+00    4.737375e-01   8.852859e-03
  3.851720e+00    4.973625e-01   9.092408e-03
  3.853931e+00    5.152149e-01   9.273538e-03
  3.856141e+00    4.941927e-01   9.101431e-03
  3.858352e+00    4.744505e-01   8.936575e-03
  3.860562e+00    4.800467e-01   9.008218e-03
  3.862772e+00    4.541073e-01   8.780194e-03
  3.864983e+00    4.788998e-01   9.036057e-03
  3.867193e+00    4.783343e-01   9.050150e-03
  3.869404e+00    5.278308e-01   9.527451e-03
  3.871614e+00    5.046105e-01   9.335672e-03
  3.873825e+00    4.787784e-01   9.113640e-03
  3.876035e+00    4.842751e-01   9.186151e-03
  3.878246e+00    4.979503e-01   9.340871e-03
  3.880456e+00    4.740191e-01   9.142149e-03
  3.882667e+00    4.835608e-01   9.262693e-03
  3.884877e+00    4.950725e-01   9.402207e-03
  3.887087e+00    4.921880e-01   9.404710e-03
  3.889298e+00    4.982105e-01   9.492637e-03
  3.891508e+00    4.960908e-01   9.503133e-03
  3.893719e+00    4.836733e-01   9.414272e-03
  3.895929e+00    4.809566e-01   9.418844e-03
  3.898140e+00    4.791611e-01   9.432591e-03
  3.900350e+00    4.911292e-01   9.581813e-03
  3.902561e+00    5.059347e-01   9.758014e-03
  3.904771e+00    4.756427e-01   9.493772e-03
  3.906982e+00    4.908709e-01   9.677735e-03
  3.909192e+00    5.114709e-01   9.912898e-03
  3.911403e+00    4.894449e-01   9.731230e-03
  3.913613e+00    4.742541e-01   9.612781e-03
  3.915823e+00    4.720171e-01   9.624182e-03
  3.918034e+00    4.911129e-01   9.852446e-03
  3.920244e+00    4.943784e-01   9.920998e-03
  3.922455e+00    4.505076e-01   9.505338e-03
  3.924665e+00    4.623527e-01   9.664789e-03
  3.926876e+00    4.857557e-01   9.943448e-03
  3.929086e+00    4.916058e-01   1.004067e-02
  3.931297e+00    4.665809e-01   9.815924e-03
  3.933507e+00    4.748699e-01   9.931169e-03
  3.935718e+00    4.952605e-01   1.017121e-02
  3.937928e+00    4.683544e-01   9.919861e-03
  3.940138e+00    4.711894e-01   9.978704e-03
  3.942349e+00    4.829691e-01   1.013242e-02
  3.944559e+00    4.920782e-01   1.025765e-02
  3.946770e+00    4.955943e-01   1.032476e-02
  3.948980e+00    4.553387e-01   9.926212e-03
  3.951191e+00    4.788023e-01   1.020930e-02
  3.953401e+00    4.847851e-01   1.030428e-02
  3.955612e+00    4.523691e-01   9.984346e-03
  3.957822e+00    4.804520e-01   1.032101e-02
  3.960033e+00    4.577152e-01   1.010553e-02
  3.962243e+00    4.898528e-01   1.048728e-02
  3.964453e+00    4.465567e-01   1.004489e-02
  3.966664e+00    4.686867e-01   1.032347e-02
  3.968874e+00    4.842080e-01   1.052146e-02
  3.971085e+00    4.799520e-01   1.049685e-02
  3.973295e+00    4.574484e-01   1.026870e-02
  3.975506e+00    4.921391e-01   1.067270e-02
  3.977716e+00    4.795044e-01   1.055668e-02
  3.979927e+00    4.757330e-01   1.053699e-02
  3.982137e+00    4.832739e-01   1.064239e-02
  3.984348e+00    4.705448e-01   1.052355e-02
  3.986558e+00    4.742323e-01   1.058674e-02
  3.988768e+00    4.825244e-01   1.070183e-02
  3.990979e+00    4.665385e-01   1.054543e-02
  3.993189e+00    4.583252e-01   1.047459e-02
  3.995400e+00    4.639037e-01   1.056111e-02
  3.997610e+00    4.873274e-01   1.085438e-02
  3.999821e+00    4.790847e-01   1.079952e-02
  4.002031e+00    4.736285e-01   1.077575e-02
  4.004242e+00    4.864931e-01   1.095970e-02
  4.006452e+00    4.931552e-01   1.107413e-02
  4.008663e+00    4.868796e-01   1.104365e-02
  4.010873e+00    4.690851e-01   1.087927e-02
  4.013084e+00    4.476913e-01   1.066754e-02
  4.015294e+00    4.928565e-01   1.123412e-02
  4.017504e+00    4.495270e-01   1.076932e-02
  4.019715e+00    4.547008e-01   1.087225e-02
  4.021925e+00    4.810559e-01   1.122567e-02
  4.024136e+00    4.584736e-01   1.100170e-02
  4.026346e+00    4.748680e-01   1.124026e-02
  4.028557e+00    4.864071e-01   1.142046e-02
  4.030767e+00    4.632216e-01   1.118965e-02
  4.032978e+00    4.623100e-01   1.122392e-02
  4.035188e+00    4.383537e-01   1.097316e-02
  4.037399e+00    4.765773e-01   1.148880e-02
  4.039609e+00    5.060317e-01   1.188730e-02
  4.041819e+00    4.863156e-01   1.170240e-02
  4.044030e+00    4.605027e-01   1.143640e-02
  4.046240e+00    4.473360e-01   1.131954e-02
  4.048451e+00    4.653312e-01   1.159507e-02
  4.050661e+00    4.753041e-01   1.176958e-02
  4.052872e+00    4.914132e-01   1.202066e-02
  4.055082e+00    4.861542e-01   1.200995e-02
  4.057293e+00    5.109372e-01   1.236746e-02
  4.059503e+00    4.545043e-01   1.171762e-02
  4.061714e+00    4.673319e-01   1.193739e-02
  4.063924e+00    4.266188e-01   1.145892e-02
  4.066134e+00    4.828952e-01   1.224866e-02
  4.068345e+00    4.849354e-01   1.233373e-02
  4.070555e+00    4.722803e-01   1.223052e-02
  4.072766e+00    4.780024e-01   1.236482e-02
  4.074976e+00    4.787194e-01   1.243595e-02
  4.077187e+00    4.478825e-01   1.208853e-02
  4.079397e+00    4.598022e-01   1.231079e-02
  4.081608e+00    4.699022e-01   1.250998e-02
  4.083818e+00    4.655935e-01   1.251737e-02
  4.086029e+00    4.754793e-01   1.271626e-02
  4.088239e+00    4.600341e-01   1.257523e-02
  4.090449e+00    4.880289e-01   1.302255e-02
  4.092660e+00    4.823734e-01   1.301803e-02
  4.094870e+00    4.869829e-01   1.315272e-02
  4.097081e+00    4.676967e-01   1.296053e-02
  4.099291e+00    4.584070e-01   1.288415e-02
  4.101502e+00    4.795375e-01   1.322689e-02
  4.103712e+00    4.701708e-01   1.314593e-02
  4.105923e+00    4.784464e-01   1.331242e-02
  4.108133e+00    4.698413e-01   1.324297e-02
  4.110344e+00    4.682510e-01   1.327120e-02
  4.112554e+00    4.476815e-01   1.302756e-02
  4.114764e+00    4.868121e-01   1.363972e-02
  4.116975e+00    4.549384e-01   1.323748e-02
  4.119185e+00    4.861245e-01   1.373942e-02
  4.121396e+00    4.903104e-01   1.385534e-02
  4.123606e+00    4.793622e-01   1.375597e-02
  4.125817e+00    4.869568e-01   1.392251e-02
  4.128027e+00    5.032980e-01   1.421406e-02
  4.130238e+00    4.719794e-01   1.382348e-02
  4.132448e+00    4.640260e-01   1.376616e-02
  4.134659e+00    5.087993e-01   1.447697e-02
  4.136869e+00    4.863526e-01   1.421715e-02
  4.139080e+00    4.566612e-01   1.383850e-02
  4.141290e+00    4.651476e-01   1.402826e-02
  4.143500e+00    4.942803e-01   1.452755e-02
  4.145711e+00    4.241118e-01   1.352011e-02
  4.147921e+00    4.540806e-01   1.405342e-02
  4.150132e+00    4.712961e-01   1.438577e-02
  4.152342e+00    4.603852e-01   1.428714e-02
  4.154553e+00    4.639327e-01   1.441054e-02
  4.156763e+00    4.370401e-01   1.405555e-02
  4.158974e+00    4.996221e-01   1.510370e-02
  4.161184e+00    4.754423e-01   1.480712e-02
  4.163395e+00    4.794761e-01   1.494554e-02
  4.165605e+00    4.749399e-01   1.495205e-02
  4.167815e+00    4.771883e-01   1.506561e-02
  4.170026e+00    4.386167e-01   1.452005e-02
  4.172236e+00    4.833377e-01   1.532445e-02
  4.174447e+00    5.061143e-01   1.576704e-02
  4.176657e+00    4.505381e-01   1.495747e-02
  4.178868e+00    4.323547e-01   1.473539e-02
  4.181078e+00    4.612653e-01   1.530558e-02
  4.183289e+00    4.919341e-01   1.589682e-02
  4.185499e+00    4.796342e-01   1.578952e-02
  4.187710e+00    4.936142e-01   1.611196e-02
  4.189920e+00    4.572145e-01   1.559972e-02
  4.192130e+00    4.448355e-01   1.548137e-02
  4.194341e+00    4.159605e-01   1.506191e-02
  4.196551e+00    4.672280e-01   1.606446e-02
  4.198762e+00    5.058474e-01   1.682109e-02
  4.200972e+00    5.129813e-01   1.704911e-02
  4.203183e+00    5.032551e-01   1.699801e-02
  4.205393e+00    5.076496e-01   1.718568e-02
  4.207604e+00    5.368406e-01   1.779363e-02
  4.209814e+00    5.166060e-01   1.757454e-02
  4.212025e+00    5.220507e-01   1.779210e-02
  4.214235e+00    4.830999e-01   1.723708e-02
  4.216445e+00    4.963349e-01   1.759768e-02
  4.218656e+00    4.654603e-01   1.716960e-02
  4.220866e+00    5.069544e-01   1.805094e-02
  4.223077e+00    4.516356e-01   1.716866e-02
  4.225287e+00    4.903674e-01   1.803081e-02
  4.227498e+00    4.610948e-01   1.762090e-02
  4.229708e+00    4.943559e-01   1.839415e-02
  4.231919e+00    5.094407e-01   1.882710e-02
  4.234129e+00    4.896887e-01   1.861311e-02
  4.236340e+00    5.054916e-01   1.907332e-02
  4.238550e+00    4.485687e-01   1.812554e-02
  4.240761e+00    4.855062e-01   1.902383e-02
  4.242971e+00    4.731253e-01   1.895176e-02
  4.245181e+00    4.722721e-01   1.911253e-02
  4.247392e+00    4.728573e-01   1.930291e-02
  4.249602e+00    4.318350e-01   1.862998e-02
  4.251813e+00    4.612664e-01   1.944442e-02
  4.254023e+00    3.972594e-01   1.822634e-02
  4.256234e+00    4.350947e-01   1.927850e-02
  4.258444e+00    4.428496e-01   1.965312e-02
  4.260655e+00    4.568078e-01   2.017989e-02
  4.262865e+00    4.534322e-01   2.033326e-02
  4.265076e+00    4.056151e-01   1.944993e-02
  4.267286e+00    5.173984e-01   2.222769e-02
  4.269496e+00    3.727515e-01   1.909725e-02
  4.271707e+00    4.717371e-01   2.174849e-02
  4.273917e+00    4.311190e-01   2.105987e-02
  4.276128e+00    4.304638e-01   2.132339e-02
  4.278338e+00    4.330946e-01   2.167449e-02
  4.280549e+00    4.168471e-01   2.156868e-02
  4.282759e+00    4.732538e-01   2.331190e-02
  4.284970e+00    4.305370e-01   2.256447e-02
  4.287180e+00    4.117098e-01   2.232984e-02
  4.289391e+00    4.483765e-01   2.347788e-02
  4.291601e+00    4.941851e-01   2.484428e-02
  4.293811e+00    5.132658e-01   2.551803e-02
  4.296022e+00    4.730356e-01   2.469461e-02
  4.298232e+00    4.954269e-01   2.548357e-02
  4.300443e+00    4.265992e-01   2.384238e-02
  4.302653e+00    5.109457e-01   2.631876e-02
  4.304864e+00    4.961936e-01   2.616132e-02
  4.307074e+00    4.645466e-01   2.554002e-02
  4.309285e+00    4.560829e-01   2.553661e-02
  4.311495e+00    4.947942e-01   2.684735e-02
  4.313706e+00    4.251396e-01   2.511924e-02
  4.315916e+00    4.852774e-01   2.710175e-02
  4.318126e+00    4.536152e-01   2.646238e-02
  4.320337e+00    4.001629e-01   2.510541e-02
  4.322547e+00    4.676733e-01   2.742785e-02
  4.324758e+00    4.470761e-01   2.709703e-02
  4.326968e+00    4.686143e-01   2.805353e-02
  4.329179e+00    3.573824e-01   2.476986e-02
  4.331389e+00    3.039036e-01   2.310365e-02
  4.333600e+00    4.305915e-01   2.782992e-02
  4.335810e+00    4.316942e-01   2.819647e-02
  4.338021e+00    4.618078e-01   2.953727e-02
  4.340231e+00    5.430586e-01   3.243200e-02
  4.342442e+00    5.104161e-01   3.186459e-02
  4.344652e+00    3.981002e-01   2.852323e-02
  4.346862e+00    4.078086e-01   2.927218e-02
  4.349073e+00    4.437089e-01   3.097903e-02
  4.351283e+00    4.966751e-01   3.326464e-02
  4.353494e+00    4.629767e-01   3.261269e-02
  4.355704e+00    5.619914e-01   3.650992e-02
  4.357915e+00    4.953385e-01   3.484798e-02
  4.360125e+00    4.108465e-01   3.227795e-02
  4.362336e+00    3.484666e-01   3.026796e-02
  4.364546e+00    4.280696e-01   3.416005e-02
  4.366757e+00    3.946888e-01   3.345151e-02
  4.368967e+00    3.579149e-01   3.249157e-02
  4.371177e+00    5.035632e-01   3.935996e-02
  4.373388e+00    5.469496e-01   4.193537e-02
  4.375598e+00    4.045705e-01   3.689040e-02
  4.377809e+00    5.637207e-01   4.464835e-02
  4.380019e+00    3.014850e-01   3.347242e-02
  4.382230e+00    4.154942e-01   4.039144e-02
  4.384440e+00    3.102691e-01   3.590921e-02
  4.386651e+00    3.641440e-01   4.009977e-02
  4.388861e+00    4.697804e-01   4.707525e-02
  4.391072e+00    5.481649e-01   5.263842e-02
  4.393282e+00    4.182226e-01   4.775693e-02
  4.395492e+00    4.157877e-01   4.959566e-02
  4.397703e+00    3.455538e-01   4.727873e-02
  4.399913e+00    3.800996e-01   5.210089e-02
  4.402124e+00    3.281553e-01   5.114912e-02
  4.404334e+00    4.193509e-01   6.146440e-02
  4.406545e+00    4.159723e-01   6.577138e-02
  4.408755e+00    3.014868e-01   6.072695e-02
  4.410966e+00    1.024109e-01   3.918385e-02
  4.413176e+00    2.494345e-01   6.919865e-02
  4.415387e+00   -6.487742e-01            nan
  4.417597e+00   -2.031091e+00            nan
  4.419807e+00   -3.766224e-01            nan
