# == pyFAI calibration ==
# Distance Sample to Detector: 0.216 m
# PONI: 1.166e-01, 1.308e-01 m
# Rotations: 0.000000 0.000000 0.000000 rad
# 
# == Fit2d calibration ==
# Distance Sample-beamCenter: 216.000 mm
# Center: x=1744.293, y=1555.000 pix
# Tilt: 0.000 deg  TiltPlanRot: 0.000 deg
# 
# Detector Eiger 9M	 PixelSize= 7.500e-05, 7.500e-05 m
#    Detector has a mask: True 
#    Detector has a dark current: False 
#    detector has a flat field: False 
# 
# Wavelength: 9.8e-11 m
# Mask applied: from detector
# Dark current applied: False
# Flat field applied: False
# Polarization factor: None
# Normalization factor: 1.0
# 
# Headers of the input frame:
# {
# "_array_data.header_convention": "SLS_1.0",
# "_array_data.header_contents": "# Detector: Dectris Eiger 9M, S/N E-18-0102\r\n# Pixel_size 75e-6 m x 75e-6 m\r\n# Silicon sensor, thickness 0.000450 m\r\n# Exposure_time 0.024997 s\r\n# Exposure_period 0.025000 s\r\n# Count_cutoff 62318 counts\r\n# Wavelength 0.980106 A\r\n# Detector_distance 0.215992 m\r\n# Beam_xy (1555, 1744) pixels\r\n# Start_angle 0.000000 deg.\r\n# Angle_increment 0.000000 deg.",
# "Content-Type": "application/octet-stream;",
# "conversions": "x-CBF_BYTE_OFFSET",
# "Content-Transfer-Encoding": "BINARY",
# "X-Binary-Size": "10166590",
# "X-Binary-ID": "1",
# "X-Binary-Element-Type": "signed 32-bit integer",
# "X-Binary-Element-Byte-Order": "LITTLE_ENDIAN",
# "Content-MD5": "thjZxnLR7uj/Qib2C8Diuw==",
# "X-Binary-Number-of-Elements": "10166590",
# "X-Binary-Size-Fastest-Dimension": "3110",
# "X-Binary-Size-Second-Dimension": "3269",
# "X-Binary-Size-Padding": "4095"
# }
# --> H:/Proxima2a_2019-04-05/RAW_DATA/C5_gel17_position5/C5_mesh_1_data.cbf/C5_mesh_1_data.cbf000092.dat
#        q_A^-1              I           sigma 
  1.105228e-03    1.091644e+00   5.653630e-01
  3.315685e-03    1.698154e+00   4.286807e-01
  5.526141e-03    1.574851e+00   3.192213e-01
  7.736597e-03    1.233465e+00   2.386622e-01
  9.947054e-03    1.511777e+00   2.329273e-01
  1.215751e-02    1.500716e+00   2.098543e-01
  1.436797e-02    1.681519e+00   2.043274e-01
  1.657842e-02    1.342483e+00   1.699413e-01
  1.878888e-02    1.217926e+00   1.520457e-01
  2.099934e-02    1.369974e+00   1.525661e-01
  2.320979e-02    1.488922e+00   1.512756e-01
  2.542025e-02    1.326567e+00   1.364501e-01
  2.763070e-02    1.470312e+00   1.377828e-01
  2.984116e-02    1.414104e+00   1.300221e-01
  3.205162e-02    1.431902e+00   1.262534e-01
  3.426207e-02    1.359416e+00   1.189737e-01
  3.647253e-02    1.379863e+00   1.161737e-01
  3.868299e-02    1.412993e+00   1.141605e-01
  4.089344e-02    1.330516e+00   1.077434e-01
  4.310390e-02    1.450730e+00   1.095764e-01
  4.531436e-02    1.405569e+00   1.051942e-01
  4.752481e-02    1.287142e+00   9.829518e-02
  4.973527e-02    1.424375e+00   1.010797e-01
  5.194572e-02    1.523395e+00   1.022844e-01
  5.415618e-02    1.444964e+00   9.755900e-02
  5.636664e-02    1.342747e+00   9.218542e-02
  5.857709e-02    1.445319e+00   9.382021e-02
  6.078755e-02    1.462762e+00   9.264974e-02
  6.299801e-02    1.372471e+00   8.815523e-02
  6.520846e-02    1.456722e+00   8.926863e-02
  6.741892e-02    1.575856e+00   9.130788e-02
  6.962938e-02    1.476113e+00   8.696133e-02
  7.183983e-02    1.547213e+00   8.764903e-02
  7.405029e-02    1.494659e+00   8.485010e-02
  7.626074e-02    1.462677e+00   8.271123e-02
  7.847120e-02    1.476234e+00   8.191276e-02
  8.068166e-02    1.458855e+00   8.030534e-02
  8.289211e-02    1.507233e+00   8.052984e-02
  8.510257e-02    1.560659e+00   8.087298e-02
  8.731303e-02    1.485635e+00   7.789700e-02
  8.952348e-02    1.578701e+00   7.930446e-02
  9.173394e-02    1.472905e+00   7.566957e-02
  9.394439e-02    1.462207e+00   7.449956e-02
  9.615485e-02    1.584088e+00   7.664421e-02
  9.836531e-02    1.516374e+00   7.413883e-02
  1.005758e-01    1.453179e+00   7.177594e-02
  1.027862e-01    1.595594e+00   7.439590e-02
  1.049967e-01    1.553517e+00   7.263032e-02
  1.072071e-01    1.499308e+00   7.061163e-02
  1.094176e-01    1.576225e+00   7.166407e-02
  1.116280e-01    1.605356e+00   7.160203e-02
  1.138385e-01    1.557506e+00   6.983741e-02
  1.160490e-01    1.514112e+00   6.819790e-02
  1.182594e-01    1.639437e+00   7.029633e-02
  1.204699e-01    1.620174e+00   6.923752e-02
  1.226803e-01    1.501894e+00   6.605627e-02
  1.248908e-01    1.545718e+00   6.641659e-02
  1.271012e-01    1.722810e+00   6.950434e-02
  1.293117e-01    1.661857e+00   6.767694e-02
  1.315222e-01    1.682631e+00   6.752237e-02
  1.337326e-01    1.627201e+00   6.584857e-02
  1.359431e-01    1.693662e+00   6.721916e-02
  1.381535e-01    1.665606e+00   6.755488e-02
  1.403640e-01    1.661552e+00   6.776392e-02
  1.425744e-01    1.674140e+00   6.812882e-02
  1.447849e-01    1.595778e+00   6.653056e-02
  1.469953e-01    1.594137e+00   6.645471e-02
  1.492058e-01    1.600041e+00   6.650026e-02
  1.514163e-01    1.592128e+00   6.622548e-02
  1.536267e-01    1.596502e+00   6.618690e-02
  1.558372e-01    1.647453e+00   6.708631e-02
  1.580476e-01    1.604344e+00   6.604216e-02
  1.602581e-01    1.597019e+00   6.572385e-02
  1.624685e-01    1.587670e+00   6.535178e-02
  1.646790e-01    1.665774e+00   6.674773e-02
  1.668895e-01    1.737497e+00   6.797267e-02
  1.690999e-01    1.794479e+00   6.887086e-02
  1.713104e-01    1.761491e+00   6.802312e-02
  1.735208e-01    1.830604e+00   6.912912e-02
  1.757313e-01    1.796997e+00   6.827698e-02
  1.779417e-01    1.841861e+00   6.889857e-02
  1.801522e-01    1.873777e+00   6.927162e-02
  1.823626e-01    1.854779e+00   6.869014e-02
  1.845731e-01    1.961598e+00   7.041158e-02
  1.867836e-01    1.982430e+00   7.054561e-02
  1.889940e-01    1.968687e+00   7.007095e-02
  1.912045e-01    1.958436e+00   6.965488e-02
  1.934149e-01    1.989692e+00   6.997354e-02
  1.956254e-01    1.991218e+00   6.976949e-02
  1.978358e-01    2.025396e+00   7.012458e-02
  2.000463e-01    2.123802e+00   7.156994e-02
  2.022568e-01    2.138152e+00   7.157565e-02
  2.044672e-01    2.075227e+00   7.027297e-02
  2.066777e-01    2.040821e+00   6.945672e-02
  2.088881e-01    1.963888e+00   6.791206e-02
  2.110986e-01    1.961165e+00   6.763224e-02
  2.133090e-01    1.983450e+00   6.779429e-02
  2.155195e-01    2.016268e+00   6.812611e-02
  2.177300e-01    2.042000e+00   6.802087e-02
  2.199404e-01    2.071944e+00   6.671233e-02
  2.221509e-01    1.968425e+00   6.395673e-02
  2.243613e-01    1.981688e+00   6.335828e-02
  2.265718e-01    2.038106e+00   6.354564e-02
  2.287822e-01    2.114413e+00   6.408366e-02
  2.309927e-01    2.151334e+00   6.405187e-02
  2.332031e-01    2.182718e+00   6.396519e-02
  2.354136e-01    2.175274e+00   6.333848e-02
  2.376241e-01    2.172778e+00   6.281079e-02
  2.398345e-01    2.177213e+00   6.240954e-02
  2.420450e-01    2.177039e+00   6.196103e-02
  2.442554e-01    2.150272e+00   6.115472e-02
  2.464659e-01    2.188427e+00   6.128069e-02
  2.486763e-01    2.122818e+00   5.995840e-02
  2.508868e-01    2.132429e+00   5.971485e-02
  2.530973e-01    2.169227e+00   5.985450e-02
  2.553077e-01    2.155210e+00   5.929890e-02
  2.575182e-01    2.182330e+00   5.931780e-02
  2.597286e-01    2.081862e+00   5.759951e-02
  2.619391e-01    2.051944e+00   5.685492e-02
  2.641495e-01    2.063385e+00   5.669764e-02
  2.663600e-01    2.081146e+00   5.662800e-02
  2.685704e-01    2.128630e+00   5.695996e-02
  2.707809e-01    2.076519e+00   5.595979e-02
  2.729914e-01    2.083160e+00   5.575709e-02
  2.752018e-01    2.076028e+00   5.537187e-02
  2.774123e-01    2.065413e+00   5.494800e-02
  2.796227e-01    2.015598e+00   5.401282e-02
  2.818332e-01    2.003051e+00   5.357582e-02
  2.840436e-01    2.079529e+00   5.432441e-02
  2.862541e-01    2.056674e+00   5.376538e-02
  2.884646e-01    1.979766e+00   5.250020e-02
  2.906750e-01    1.906348e+00   5.127328e-02
  2.928855e-01    1.942996e+00   5.152389e-02
  2.950959e-01    2.004792e+00   5.209642e-02
  2.973064e-01    2.031674e+00   5.220883e-02
  2.995168e-01    2.008022e+00   5.166897e-02
  3.017273e-01    2.011160e+00   5.148135e-02
  3.039377e-01    2.008073e+00   5.121657e-02
  3.061482e-01    1.940131e+00   5.012492e-02
  3.083587e-01    1.977174e+00   5.038211e-02
  3.105691e-01    1.893966e+00   4.909998e-02
  3.127796e-01    1.900023e+00   4.897163e-02
  3.149900e-01    1.986785e+00   4.986864e-02
  3.172005e-01    1.965375e+00   4.939640e-02
  3.194109e-01    1.881950e+00   4.813713e-02
  3.216214e-01    1.957605e+00   4.889480e-02
  3.238319e-01    1.954095e+00   4.865744e-02
  3.260423e-01    1.853611e+00   4.720111e-02
  3.282528e-01    1.911322e+00   4.773947e-02
  3.304632e-01    1.899313e+00   4.740489e-02
  3.326737e-01    1.898023e+00   4.720390e-02
  3.348841e-01    1.870685e+00   4.668100e-02
  3.370946e-01    1.843531e+00   4.616658e-02
  3.393050e-01    1.842895e+00   4.598378e-02
  3.415155e-01    1.877473e+00   4.623866e-02
  3.437260e-01    1.889164e+00   4.621049e-02
  3.459364e-01    1.896009e+00   4.612288e-02
  3.481469e-01    1.888502e+00   4.586346e-02
  3.503573e-01    1.860023e+00   4.535052e-02
  3.525678e-01    1.899210e+00   4.566243e-02
  3.547782e-01    1.916485e+00   4.570384e-02
  3.569887e-01    1.847094e+00   4.470986e-02
  3.591992e-01    1.780823e+00   4.374510e-02
  3.614096e-01    1.864837e+00   4.460989e-02
  3.636201e-01    1.836869e+00   4.411852e-02
  3.658305e-01    1.864420e+00   4.429654e-02
  3.680410e-01    1.865489e+00   4.415685e-02
  3.702514e-01    1.816072e+00   4.342153e-02
  3.724619e-01    1.834462e+00   4.349221e-02
  3.746724e-01    1.835103e+00   4.335468e-02
  3.768828e-01    1.906908e+00   4.404604e-02
  3.790933e-01    1.830057e+00   4.300876e-02
  3.813037e-01    1.803775e+00   4.255908e-02
  3.835142e-01    1.891430e+00   4.343777e-02
  3.857246e-01    1.848849e+00   4.280708e-02
  3.879351e-01    1.768897e+00   4.173572e-02
  3.901455e-01    1.822855e+00   4.223260e-02
  3.923560e-01    1.841479e+00   4.231290e-02
  3.945665e-01    1.833318e+00   4.208516e-02
  3.967769e-01    1.809397e+00   4.167874e-02
  3.989874e-01    1.811851e+00   4.157677e-02
  4.011978e-01    1.787835e+00   4.117329e-02
  4.034083e-01    1.793475e+00   4.111158e-02
  4.056187e-01    1.804775e+00   4.111385e-02
  4.078292e-01    1.873150e+00   4.175866e-02
  4.100397e-01    1.787746e+00   4.067106e-02
  4.122501e-01    1.810141e+00   4.080254e-02
  4.144606e-01    1.834924e+00   4.095909e-02
  4.166710e-01    1.861505e+00   4.113203e-02
  4.188815e-01    1.836667e+00   4.073601e-02
  4.210919e-01    1.873672e+00   4.102375e-02
  4.233024e-01    1.821867e+00   4.033368e-02
  4.255128e-01    1.781193e+00   3.976562e-02
  4.277233e-01    1.760359e+00   3.941878e-02
  4.299338e-01    1.774826e+00   3.946653e-02
  4.321442e-01    1.798693e+00   3.961732e-02
  4.343547e-01    1.794718e+00   3.946163e-02
  4.365651e-01    1.776201e+00   3.914599e-02
  4.387756e-01    1.780205e+00   3.908034e-02
  4.409860e-01    1.827531e+00   3.948670e-02
  4.431965e-01    1.801496e+00   3.909604e-02
  4.454070e-01    1.785464e+00   3.881340e-02
  4.476174e-01    1.765272e+00   3.848733e-02
  4.498279e-01    1.751170e+00   3.822900e-02
  4.520383e-01    1.756076e+00   3.817746e-02
  4.542488e-01    1.755820e+00   3.807172e-02
  4.564592e-01    1.746532e+00   3.786904e-02
  4.586697e-01    1.769427e+00   3.801525e-02
  4.608801e-01    1.799841e+00   3.823791e-02
  4.630906e-01    1.714098e+00   3.721717e-02
  4.653011e-01    1.710416e+00   3.707941e-02
  4.675115e-01    1.713727e+00   3.701750e-02
  4.697220e-01    1.746899e+00   3.727624e-02
  4.719324e-01    1.721127e+00   3.690452e-02
  4.741429e-01    1.736473e+00   3.697317e-02
  4.763533e-01    1.745667e+00   3.697588e-02
  4.785638e-01    1.769571e+00   3.713201e-02
  4.807743e-01    1.789591e+00   3.724650e-02
  4.829847e-01    1.725810e+00   3.648437e-02
  4.851952e-01    1.741210e+00   3.655402e-02
  4.874056e-01    1.741305e+00   3.646287e-02
  4.896161e-01    1.730607e+00   3.626054e-02
  4.918265e-01    1.700383e+00   3.585326e-02
  4.940370e-01    1.688620e+00   3.564081e-02
  4.962475e-01    1.698431e+00   3.565593e-02
  4.984579e-01    1.710578e+00   3.569500e-02
  5.006684e-01    1.726087e+00   3.576905e-02
  5.028788e-01    1.712826e+00   3.554503e-02
  5.050893e-01    1.698567e+00   3.531070e-02
  5.072997e-01    1.696846e+00   3.520754e-02
  5.095102e-01    1.729206e+00   3.545656e-02
  5.117206e-01    1.716482e+00   3.524187e-02
  5.139311e-01    1.687587e+00   3.486128e-02
  5.161416e-01    1.714181e+00   3.505187e-02
  5.183520e-01    1.658490e+00   3.439584e-02
  5.205625e-01    1.703101e+00   3.477370e-02
  5.227729e-01    1.737396e+00   3.504017e-02
  5.249834e-01    1.706712e+00   3.464874e-02
  5.271938e-01    1.713236e+00   3.463391e-02
  5.294043e-01    1.745614e+00   3.487895e-02
  5.316148e-01    1.747958e+00   3.482245e-02
  5.338252e-01    1.767333e+00   3.493485e-02
  5.360357e-01    1.780923e+00   3.498910e-02
  5.382461e-01    1.770943e+00   3.481206e-02
  5.404566e-01    1.783055e+00   3.485140e-02
  5.426670e-01    1.784494e+00   3.478690e-02
  5.448775e-01    1.760259e+00   3.447270e-02
  5.470879e-01    1.781946e+00   3.460705e-02
  5.492984e-01    1.753757e+00   3.425588e-02
  5.515089e-01    1.787578e+00   3.450791e-02
  5.537193e-01    1.749514e+00   3.406333e-02
  5.559298e-01    1.762327e+00   3.411283e-02
  5.581402e-01    1.777262e+00   3.418224e-02
  5.603507e-01    1.763494e+00   3.397545e-02
  5.625611e-01    1.871060e+00   3.492036e-02
  5.647716e-01    1.858611e+00   3.472845e-02
  5.669821e-01    1.806641e+00   3.416565e-02
  5.691925e-01    1.786610e+00   3.390280e-02
  5.714030e-01    1.772072e+00   3.369258e-02
  5.736134e-01    1.762098e+00   3.352617e-02
  5.758239e-01    1.770254e+00   3.353195e-02
  5.780343e-01    1.744462e+00   3.321637e-02
  5.802448e-01    1.677196e+00   3.250148e-02
  5.824552e-01    1.688481e+00   3.254221e-02
  5.846657e-01    1.669167e+00   3.228812e-02
  5.868762e-01    1.650716e+00   3.204231e-02
  5.890866e-01    1.671874e+00   3.218009e-02
  5.912971e-01    1.654409e+00   3.194531e-02
  5.935075e-01    1.649953e+00   3.183633e-02
  5.957180e-01    1.654867e+00   3.181827e-02
  5.979284e-01    1.668858e+00   3.188728e-02
  6.001389e-01    1.650583e+00   3.164763e-02
  6.023494e-01    1.657400e+00   3.164851e-02
  6.045598e-01    1.686207e+00   3.185737e-02
  6.067703e-01    1.698920e+00   3.191295e-02
  6.089807e-01    1.686346e+00   3.173070e-02
  6.111912e-01    1.732403e+00   3.209687e-02
  6.134016e-01    1.696679e+00   3.170087e-02
  6.156121e-01    1.688990e+00   3.156608e-02
  6.178226e-01    1.687608e+00   3.149070e-02
  6.200330e-01    1.689491e+00   3.144610e-02
  6.222435e-01    1.704191e+00   3.152004e-02
  6.244539e-01    1.738234e+00   3.177097e-02
  6.266644e-01    1.750399e+00   3.181977e-02
  6.288748e-01    1.727452e+00   3.154898e-02
  6.310853e-01    1.755980e+00   3.174667e-02
  6.332957e-01    1.751810e+00   3.164773e-02
  6.355062e-01    1.729831e+00   3.138748e-02
  6.377167e-01    1.699329e+00   3.104984e-02
  6.399271e-01    1.704716e+00   3.103940e-02
  6.421376e-01    1.761269e+00   3.148986e-02
  6.443480e-01    1.714494e+00   3.100979e-02
  6.465585e-01    1.724913e+00   3.104494e-02
  6.487689e-01    1.750144e+00   3.121212e-02
  6.509794e-01    1.680592e+00   3.052795e-02
  6.531899e-01    1.659316e+00   3.027707e-02
  6.554003e-01    1.660085e+00   3.022713e-02
  6.576108e-01    1.621394e+00   2.981720e-02
  6.598212e-01    1.632787e+00   2.986616e-02
  6.620317e-01    1.632523e+00   2.980841e-02
  6.642421e-01    1.660053e+00   3.000305e-02
  6.664526e-01    1.657165e+00   2.992175e-02
  6.686630e-01    1.626637e+00   2.959003e-02
  6.708735e-01    1.637278e+00   2.963222e-02
  6.730840e-01    1.592216e+00   2.916832e-02
  6.752944e-01    1.607788e+00   2.925730e-02
  6.775049e-01    1.599533e+00   2.912909e-02
  6.797153e-01    1.654305e+00   2.956999e-02
  6.819258e-01    1.666404e+00   2.962441e-02
  6.841362e-01    1.619127e+00   2.914864e-02
  6.863467e-01    1.577542e+00   2.872035e-02
  6.885572e-01    1.636503e+00   2.919970e-02
  6.907676e-01    1.652004e+00   2.928513e-02
  6.929781e-01    1.617854e+00   2.892934e-02
  6.951885e-01    1.601997e+00   2.873623e-02
  6.973990e-01    1.591857e+00   2.859449e-02
  6.996094e-01    1.648101e+00   2.904407e-02
  7.018199e-01    1.658052e+00   2.908050e-02
  7.040303e-01    1.628272e+00   2.876754e-02
  7.062408e-01    1.625002e+00   2.868829e-02
  7.084513e-01    1.626948e+00   2.865554e-02
  7.106617e-01    1.644091e+00   2.875604e-02
  7.128722e-01    1.631282e+00   2.859428e-02
  7.150826e-01    1.594867e+00   2.822457e-02
  7.172931e-01    1.632347e+00   2.850507e-02
  7.195035e-01    1.602069e+00   2.819091e-02
  7.217140e-01    1.625349e+00   2.844524e-02
  7.239245e-01    1.619093e+00   2.862036e-02
  7.261349e-01    1.573661e+00   2.832456e-02
  7.283454e-01    1.559490e+00   2.826876e-02
  7.305558e-01    1.599057e+00   2.867954e-02
  7.327663e-01    1.610079e+00   2.882119e-02
  7.349767e-01    1.592284e+00   2.867796e-02
  7.371872e-01    1.559227e+00   2.836757e-02
  7.393976e-01    1.601603e+00   2.873607e-02
  7.416081e-01    1.624683e+00   2.892597e-02
  7.438186e-01    1.633104e+00   2.885387e-02
  7.460290e-01    1.572672e+00   2.802094e-02
  7.482395e-01    1.545390e+00   2.760722e-02
  7.504499e-01    1.596091e+00   2.791925e-02
  7.526604e-01    1.615405e+00   2.796961e-02
  7.548708e-01    1.610315e+00   2.783509e-02
  7.570813e-01    1.579360e+00   2.751521e-02
  7.592918e-01    1.552455e+00   2.724491e-02
  7.615022e-01    1.563865e+00   2.731115e-02
  7.637127e-01    1.570264e+00   2.733424e-02
  7.659231e-01    1.614127e+00   2.768098e-02
  7.681336e-01    1.599363e+00   2.752224e-02
  7.703440e-01    1.622534e+00   2.768921e-02
  7.725545e-01    1.567867e+00   2.718793e-02
  7.747650e-01    1.606592e+00   2.748306e-02
  7.769754e-01    1.627887e+00   2.761102e-02
  7.791859e-01    1.611922e+00   2.742120e-02
  7.813963e-01    1.615498e+00   2.739839e-02
  7.836068e-01    1.595900e+00   2.717953e-02
  7.858172e-01    1.606795e+00   2.722114e-02
  7.880277e-01    1.602784e+00   2.713545e-02
  7.902381e-01    1.600681e+00   2.706835e-02
  7.924486e-01    1.657963e+00   2.749739e-02
  7.946591e-01    1.674217e+00   2.758247e-02
  7.968695e-01    1.649104e+00   2.732584e-02
  7.990800e-01    1.681279e+00   2.754181e-02
  8.012904e-01    1.658288e+00   2.730554e-02
  8.035009e-01    1.695704e+00   2.756273e-02
  8.057113e-01    1.682717e+00   2.740952e-02
  8.079218e-01    1.653562e+00   2.712413e-02
  8.101323e-01    1.645255e+00   2.700998e-02
  8.123427e-01    1.638489e+00   2.690843e-02
  8.145532e-01    1.648667e+00   2.694569e-02
  8.167636e-01    1.658063e+00   2.697692e-02
  8.189741e-01    1.678196e+00   2.709497e-02
  8.211845e-01    1.650948e+00   2.682906e-02
  8.233950e-01    1.652554e+00   2.679846e-02
  8.256054e-01    1.668243e+00   2.688074e-02
  8.278159e-01    1.670049e+00   2.685089e-02
  8.300264e-01    1.672280e+00   2.682529e-02
  8.322368e-01    1.677644e+00   2.682464e-02
  8.344473e-01    1.671864e+00   2.673459e-02
  8.366577e-01    1.659650e+00   2.659390e-02
  8.388682e-01    1.649853e+00   2.647290e-02
  8.410786e-01    1.664304e+00   2.654622e-02
  8.432891e-01    1.670223e+00   2.655114e-02
  8.454996e-01    1.659101e+00   2.642071e-02
  8.477100e-01    1.655552e+00   2.635054e-02
  8.499205e-01    1.647623e+00   2.624608e-02
  8.521309e-01    1.662758e+00   2.632524e-02
  8.543414e-01    1.649508e+00   2.617924e-02
  8.565518e-01    1.610859e+00   2.583046e-02
  8.587623e-01    1.617540e+00   2.584365e-02
  8.609727e-01    1.620247e+00   2.582516e-02
  8.631832e-01    1.598768e+00   2.561387e-02
  8.653937e-01    1.622382e+00   2.576266e-02
  8.676041e-01    1.635007e+00   2.582371e-02
  8.698146e-01    1.628983e+00   2.573668e-02
  8.720250e-01    1.620015e+00   2.562664e-02
  8.742355e-01    1.632187e+00   2.568356e-02
  8.764459e-01    1.638798e+00   2.569628e-02
  8.786564e-01    1.606026e+00   2.540013e-02
  8.808669e-01    1.591158e+00   2.524393e-02
  8.830773e-01    1.596930e+00   2.525163e-02
  8.852878e-01    1.574528e+00   2.503627e-02
  8.874982e-01    1.599593e+00   2.519814e-02
  8.897087e-01    1.605308e+00   2.520539e-02
  8.919191e-01    1.598281e+00   2.511244e-02
  8.941296e-01    1.602120e+00   2.510526e-02
  8.963401e-01    1.603985e+00   2.508341e-02
  8.985505e-01    1.634635e+00   2.528455e-02
  9.007610e-01    1.634308e+00   2.524493e-02
  9.029714e-01    1.591217e+00   2.487411e-02
  9.051819e-01    1.625451e+00   2.510277e-02
  9.073923e-01    1.621305e+00   2.503391e-02
  9.096028e-01    1.619442e+00   2.498440e-02
  9.118132e-01    1.644430e+00   2.513969e-02
  9.140237e-01    1.638258e+00   2.505542e-02
  9.162342e-01    1.628477e+00   2.494564e-02
  9.184446e-01    1.624217e+00   2.487697e-02
  9.206551e-01    1.633385e+00   2.491111e-02
  9.228655e-01    1.608837e+00   2.468788e-02
  9.250760e-01    1.591095e+00   2.451613e-02
  9.272864e-01    1.605206e+00   2.459032e-02
  9.294969e-01    1.640542e+00   2.482325e-02
  9.317074e-01    1.639705e+00   2.478189e-02
  9.339178e-01    1.612281e+00   2.454020e-02
  9.361283e-01    1.623161e+00   2.458657e-02
  9.383387e-01    1.654519e+00   2.478915e-02
  9.405492e-01    1.688254e+00   2.500563e-02
  9.427596e-01    1.696046e+00   2.502720e-02
  9.449701e-01    1.682284e+00   2.489160e-02
  9.471805e-01    1.648850e+00   2.460810e-02
  9.493910e-01    1.666596e+00   2.470620e-02
  9.516015e-01    1.720250e+00   2.506570e-02
  9.538119e-01    1.745590e+00   2.521504e-02
  9.560224e-01    1.744548e+00   2.517204e-02
  9.582328e-01    1.721184e+00   2.496936e-02
  9.604433e-01    1.782957e+00   2.537750e-02
  9.626537e-01    1.788704e+00   2.538419e-02
  9.648642e-01    1.796355e+00   2.540358e-02
  9.670747e-01    1.793551e+00   2.534875e-02
  9.692851e-01    1.813103e+00   2.545265e-02
  9.714956e-01    1.884916e+00   2.591522e-02
  9.737060e-01    1.897968e+00   2.597064e-02
  9.759165e-01    1.894568e+00   2.591079e-02
  9.781269e-01    1.892424e+00   2.586223e-02
  9.803374e-01    1.879543e+00   2.573844e-02
  9.825478e-01    1.834043e+00   2.539144e-02
  9.847583e-01    1.810174e+00   2.519142e-02
  9.869688e-01    1.816097e+00   2.519882e-02
  9.891792e-01    1.821446e+00   2.520237e-02
  9.913897e-01    1.768176e+00   2.479761e-02
  9.936001e-01    1.716582e+00   2.440113e-02
  9.958106e-01    1.703042e+00   2.427169e-02
  9.980210e-01    1.659917e+00   2.393130e-02
  1.000231e+00    1.667842e+00   2.411977e-02
  1.002442e+00    1.656016e+00   2.416182e-02
  1.004652e+00    1.647987e+00   2.417039e-02
  1.006863e+00    1.620929e+00   2.402090e-02
  1.009073e+00    1.627225e+00   2.410435e-02
  1.011284e+00    1.593034e+00   2.388165e-02
  1.013494e+00    1.549490e+00   2.357636e-02
  1.015705e+00    1.544280e+00   2.355891e-02
  1.017915e+00    1.549783e+00   2.361714e-02
  1.020126e+00    1.538023e+00   2.354324e-02
  1.022336e+00    1.544563e+00   2.360488e-02
  1.024547e+00    1.539740e+00   2.357917e-02
  1.026757e+00    1.508498e+00   2.334701e-02
  1.028967e+00    1.483500e+00   2.316027e-02
  1.031178e+00    1.510199e+00   2.337385e-02
  1.033388e+00    1.524380e+00   2.348840e-02
  1.035599e+00    1.560162e+00   2.376592e-02
  1.037809e+00    1.553856e+00   2.372114e-02
  1.040020e+00    1.512003e+00   2.340078e-02
  1.042230e+00    1.488438e+00   2.321960e-02
  1.044441e+00    1.506176e+00   2.335733e-02
  1.046651e+00    1.513096e+00   2.341110e-02
  1.048862e+00    1.514041e+00   2.341762e-02
  1.051072e+00    1.495354e+00   2.327031e-02
  1.053282e+00    1.496884e+00   2.328125e-02
  1.055493e+00    1.500620e+00   2.330597e-02
  1.057703e+00    1.536859e+00   2.358416e-02
  1.059914e+00    1.577574e+00   2.389012e-02
  1.062124e+00    1.608571e+00   2.411951e-02
  1.064335e+00    1.550806e+00   2.367894e-02
  1.066545e+00    1.612432e+00   2.413855e-02
  1.068756e+00    1.666272e+00   2.453432e-02
  1.070966e+00    1.574986e+00   2.384607e-02
  1.073177e+00    1.536731e+00   2.354849e-02
  1.075387e+00    1.509709e+00   2.333523e-02
  1.077597e+00    1.506186e+00   2.330063e-02
  1.079808e+00    1.520071e+00   2.327254e-02
  1.082018e+00    1.482619e+00   2.279373e-02
  1.084229e+00    1.495118e+00   2.277822e-02
  1.086439e+00    1.576417e+00   2.329833e-02
  1.088650e+00    1.587536e+00   2.330132e-02
  1.090860e+00    1.535469e+00   2.284654e-02
  1.093071e+00    1.467519e+00   2.227275e-02
  1.095281e+00    1.467733e+00   2.221667e-02
  1.097492e+00    1.456405e+00   2.207566e-02
  1.099702e+00    1.477354e+00   2.218181e-02
  1.101912e+00    1.463000e+00   2.202456e-02
  1.104123e+00    1.441008e+00   2.181007e-02
  1.106333e+00    1.413504e+00   2.155682e-02
  1.108544e+00    1.446615e+00   2.176330e-02
  1.110754e+00    1.419717e+00   2.151712e-02
  1.112965e+00    1.435982e+00   2.159928e-02
  1.115175e+00    1.425864e+00   2.148180e-02
  1.117386e+00    1.429259e+00   2.146790e-02
  1.119596e+00    1.400666e+00   2.121436e-02
  1.121807e+00    1.396251e+00   2.114225e-02
  1.124017e+00    1.398221e+00   2.112064e-02
  1.126228e+00    1.387651e+00   2.100511e-02
  1.128438e+00    1.398388e+00   2.104951e-02
  1.130648e+00    1.401893e+00   2.104150e-02
  1.132859e+00    1.404751e+00   2.102848e-02
  1.135069e+00    1.394385e+00   2.091601e-02
  1.137280e+00    1.379245e+00   2.076927e-02
  1.139490e+00    1.377266e+00   2.072142e-02
  1.141701e+00    1.374764e+00   2.066959e-02
  1.143911e+00    1.360439e+00   2.053002e-02
  1.146122e+00    1.390087e+00   2.072040e-02
  1.148332e+00    1.390570e+00   2.069200e-02
  1.150543e+00    1.363226e+00   2.045688e-02
  1.152753e+00    1.378862e+00   2.054297e-02
  1.154963e+00    1.374133e+00   2.047668e-02
  1.157174e+00    1.401773e+00   2.065111e-02
  1.159384e+00    1.413253e+00   2.070521e-02
  1.161595e+00    1.375747e+00   2.039873e-02
  1.163805e+00    1.354027e+00   2.020795e-02
  1.166016e+00    1.357980e+00   2.020810e-02
  1.168226e+00    1.382658e+00   2.036176e-02
  1.170437e+00    1.367281e+00   2.021958e-02
  1.172647e+00    1.373881e+00   2.023934e-02
  1.174858e+00    1.344898e+00   1.999683e-02
  1.177068e+00    1.341999e+00   1.994722e-02
  1.179278e+00    1.379298e+00   2.019376e-02
  1.181489e+00    1.372571e+00   2.011733e-02
  1.183699e+00    1.377871e+00   2.012836e-02
  1.185910e+00    1.380260e+00   2.011780e-02
  1.188120e+00    1.380308e+00   2.009124e-02
  1.190331e+00    1.376818e+00   2.003884e-02
  1.192541e+00    1.367584e+00   1.994403e-02
  1.194752e+00    1.361328e+00   1.987123e-02
  1.196962e+00    1.374550e+00   1.994151e-02
  1.199173e+00    1.370164e+00   1.988301e-02
  1.201383e+00    1.341652e+00   1.964794e-02
  1.203593e+00    1.379178e+00   1.989574e-02
  1.205804e+00    1.367262e+00   1.978353e-02
  1.208014e+00    1.368099e+00   1.976256e-02
  1.210225e+00    1.366900e+00   1.972841e-02
  1.212435e+00    1.404868e+00   1.997521e-02
  1.214646e+00    1.487324e+00   2.052567e-02
  1.216856e+00    1.472944e+00   2.039962e-02
  1.219067e+00    1.433957e+00   2.010263e-02
  1.221277e+00    1.372801e+00   1.964403e-02
  1.223488e+00    1.374846e+00   1.963266e-02
  1.225698e+00    1.379686e+00   1.963999e-02
  1.227909e+00    1.374639e+00   1.957361e-02
  1.230119e+00    1.340056e+00   1.929408e-02
  1.232329e+00    1.337150e+00   1.924257e-02
  1.234540e+00    1.352422e+00   1.932183e-02
  1.236750e+00    1.363279e+00   1.936881e-02
  1.238961e+00    1.394919e+00   1.956489e-02
  1.241171e+00    1.387931e+00   1.949129e-02
  1.243382e+00    1.398328e+00   1.954023e-02
  1.245592e+00    1.406663e+00   1.957379e-02
  1.247803e+00    1.368442e+00   1.928223e-02
  1.250013e+00    1.360776e+00   1.920449e-02
  1.252224e+00    1.392097e+00   1.940064e-02
  1.254434e+00    1.408181e+00   1.948814e-02
  1.256644e+00    1.448200e+00   1.973908e-02
  1.258855e+00    1.411627e+00   1.946448e-02
  1.261065e+00    1.392596e+00   1.930906e-02
  1.263276e+00    1.389987e+00   1.926770e-02
  1.265486e+00    1.380515e+00   1.917880e-02
  1.267697e+00    1.357587e+00   1.899577e-02
  1.269907e+00    1.358821e+00   1.898165e-02
  1.272118e+00    1.354623e+00   1.892969e-02
  1.274328e+00    1.351041e+00   1.888189e-02
  1.276539e+00    1.353273e+00   1.887468e-02
  1.278749e+00    1.346855e+00   1.880761e-02
  1.280959e+00    1.384755e+00   1.904754e-02
  1.283170e+00    1.425284e+00   1.930125e-02
  1.285380e+00    1.404026e+00   1.913388e-02
  1.287591e+00    1.357399e+00   1.879140e-02
  1.289801e+00    1.358589e+00   1.877832e-02
  1.292012e+00    1.370127e+00   1.884067e-02
  1.294222e+00    1.391085e+00   1.896774e-02
  1.296433e+00    1.407306e+00   1.906208e-02
  1.298643e+00    1.412953e+00   1.908345e-02
  1.300854e+00    1.369603e+00   1.877190e-02
  1.303064e+00    1.357716e+00   1.867096e-02
  1.305274e+00    1.388013e+00   1.885638e-02
  1.307485e+00    1.353248e+00   1.859720e-02
  1.309695e+00    1.368037e+00   1.867612e-02
  1.311906e+00    1.364664e+00   1.863130e-02
  1.314116e+00    1.371558e+00   1.865730e-02
  1.316327e+00    1.371025e+00   1.863185e-02
  1.318537e+00    1.346955e+00   1.844571e-02
  1.320748e+00    1.373105e+00   1.860213e-02
  1.322958e+00    1.381166e+00   1.863594e-02
  1.325169e+00    1.350186e+00   1.840472e-02
  1.327379e+00    1.381990e+00   1.859813e-02
  1.329589e+00    1.381582e+00   1.857411e-02
  1.331800e+00    1.364356e+00   1.843712e-02
  1.334010e+00    1.366624e+00   1.843167e-02
  1.336221e+00    1.365523e+00   1.840236e-02
  1.338431e+00    1.357427e+00   1.832681e-02
  1.340642e+00    1.378996e+00   1.853668e-02
  1.342852e+00    1.367265e+00   1.855899e-02
  1.345063e+00    1.370948e+00   1.863383e-02
  1.347273e+00    1.369118e+00   1.865690e-02
  1.349484e+00    1.350095e+00   1.855450e-02
  1.351694e+00    1.367069e+00   1.869362e-02
  1.353905e+00    1.366892e+00   1.871052e-02
  1.356115e+00    1.387117e+00   1.886367e-02
  1.358325e+00    1.363443e+00   1.871543e-02
  1.360536e+00    1.349070e+00   1.862811e-02
  1.362746e+00    1.333000e+00   1.852635e-02
  1.364957e+00    1.322873e+00   1.846342e-02
  1.367167e+00    1.324416e+00   1.848128e-02
  1.369378e+00    1.327296e+00   1.850733e-02
  1.371588e+00    1.319691e+00   1.845932e-02
  1.373799e+00    1.361959e+00   1.875631e-02
  1.376009e+00    1.361576e+00   1.875709e-02
  1.378220e+00    1.336098e+00   1.858332e-02
  1.380430e+00    1.317049e+00   1.845304e-02
  1.382640e+00    1.325708e+00   1.851452e-02
  1.384851e+00    1.335806e+00   1.858577e-02
  1.387061e+00    1.321607e+00   1.848704e-02
  1.389272e+00    1.296813e+00   1.831301e-02
  1.391482e+00    1.306483e+00   1.838049e-02
  1.393693e+00    1.288394e+00   1.825192e-02
  1.395903e+00    1.283096e+00   1.821287e-02
  1.398114e+00    1.295578e+00   1.829984e-02
  1.400324e+00    1.290067e+00   1.825875e-02
  1.402535e+00    1.318959e+00   1.845971e-02
  1.404745e+00    1.300408e+00   1.832707e-02
  1.406955e+00    1.317652e+00   1.844542e-02
  1.409166e+00    1.303683e+00   1.834405e-02
  1.411376e+00    1.326875e+00   1.850330e-02
  1.413587e+00    1.320149e+00   1.845247e-02
  1.415797e+00    1.287972e+00   1.822265e-02
  1.418008e+00    1.258964e+00   1.797458e-02
  1.420218e+00    1.264672e+00   1.786585e-02
  1.422429e+00    1.276718e+00   1.786520e-02
  1.424639e+00    1.277879e+00   1.780842e-02
  1.426850e+00    1.301637e+00   1.791784e-02
  1.429060e+00    1.295517e+00   1.782619e-02
  1.431270e+00    1.292612e+00   1.776149e-02
  1.433481e+00    1.282650e+00   1.765176e-02
  1.435691e+00    1.261385e+00   1.746653e-02
  1.437902e+00    1.281845e+00   1.757096e-02
  1.440112e+00    1.284295e+00   1.755223e-02
  1.442323e+00    1.267399e+00   1.740337e-02
  1.444533e+00    1.256887e+00   1.729866e-02
  1.446744e+00    1.250921e+00   1.722667e-02
  1.448954e+00    1.277751e+00   1.738012e-02
  1.451165e+00    1.294134e+00   1.746117e-02
  1.453375e+00    1.285460e+00   1.737435e-02
  1.455586e+00    1.270334e+00   1.724364e-02
  1.457796e+00    1.299328e+00   1.741148e-02
  1.460006e+00    1.281896e+00   1.726693e-02
  1.462217e+00    1.248039e+00   1.701137e-02
  1.464427e+00    1.281756e+00   1.721389e-02
  1.466638e+00    1.281208e+00   1.718478e-02
  1.468848e+00    1.314330e+00   1.737971e-02
  1.471059e+00    1.298491e+00   1.724931e-02
  1.473269e+00    1.294556e+00   1.719852e-02
  1.475480e+00    1.289422e+00   1.714044e-02
  1.477690e+00    1.259288e+00   1.691522e-02
  1.479901e+00    1.250157e+00   1.683008e-02
  1.482111e+00    1.276819e+00   1.698521e-02
  1.484321e+00    1.261916e+00   1.686272e-02
  1.486532e+00    1.271879e+00   1.690677e-02
  1.488742e+00    1.281782e+00   1.694966e-02
  1.490953e+00    1.282846e+00   1.693393e-02
  1.493163e+00    1.281597e+00   1.690324e-02
  1.495374e+00    1.235846e+00   1.657755e-02
  1.497584e+00    1.259427e+00   1.671330e-02
  1.499795e+00    1.263619e+00   1.671943e-02
  1.502005e+00    1.260691e+00   1.667836e-02
  1.504216e+00    1.254075e+00   1.661354e-02
  1.506426e+00    1.270838e+00   1.670327e-02
  1.508636e+00    1.279093e+00   1.673684e-02
  1.510847e+00    1.262660e+00   1.660709e-02
  1.513057e+00    1.280152e+00   1.669641e-02
  1.515268e+00    1.270208e+00   1.660556e-02
  1.517478e+00    1.268381e+00   1.656832e-02
  1.519689e+00    1.275323e+00   1.658842e-02
  1.521899e+00    1.262168e+00   1.647946e-02
  1.524110e+00    1.270043e+00   1.651032e-02
  1.526320e+00    1.269587e+00   1.648763e-02
  1.528531e+00    1.268626e+00   1.646148e-02
  1.530741e+00    1.278470e+00   1.650587e-02
  1.532951e+00    1.264816e+00   1.639779e-02
  1.535162e+00    1.253389e+00   1.641028e-02
  1.537372e+00    1.239656e+00   1.638678e-02
  1.539583e+00    1.244308e+00   1.645168e-02
  1.541793e+00    1.227977e+00   1.635026e-02
  1.544004e+00    1.231924e+00   1.637676e-02
  1.546214e+00    1.239438e+00   1.642513e-02
  1.548425e+00    1.252637e+00   1.651262e-02
  1.550635e+00    1.245331e+00   1.647408e-02
  1.552846e+00    1.244873e+00   1.648070e-02
  1.555056e+00    1.242212e+00   1.642165e-02
  1.557266e+00    1.213477e+00   1.612153e-02
  1.559477e+00    1.217353e+00   1.608877e-02
  1.561687e+00    1.236754e+00   1.618590e-02
  1.563898e+00    1.273058e+00   1.640439e-02
  1.566108e+00    1.283930e+00   1.645807e-02
  1.568319e+00    1.274275e+00   1.638030e-02
  1.570529e+00    1.262366e+00   1.627824e-02
  1.572740e+00    1.267607e+00   1.628412e-02
  1.574950e+00    1.260393e+00   1.621125e-02
  1.577161e+00    1.260548e+00   1.618659e-02
  1.579371e+00    1.254671e+00   1.612506e-02
  1.581582e+00    1.267560e+00   1.618772e-02
  1.583792e+00    1.247994e+00   1.604427e-02
  1.586002e+00    1.234036e+00   1.593673e-02
  1.588213e+00    1.263245e+00   1.610687e-02
  1.590423e+00    1.275517e+00   1.616459e-02
  1.592634e+00    1.247832e+00   1.596656e-02
  1.594844e+00    1.236532e+00   1.587274e-02
  1.597055e+00    1.226635e+00   1.578874e-02
  1.599265e+00    1.241844e+00   1.586558e-02
  1.601476e+00    1.246104e+00   1.587243e-02
  1.603686e+00    1.223973e+00   1.571122e-02
  1.605897e+00    1.230241e+00   1.573130e-02
  1.608107e+00    1.243037e+00   1.579330e-02
  1.610317e+00    1.240474e+00   1.575768e-02
  1.612528e+00    1.225533e+00   1.564340e-02
  1.614738e+00    1.241165e+00   1.572381e-02
  1.616949e+00    1.244222e+00   1.572406e-02
  1.619159e+00    1.238291e+00   1.566770e-02
  1.621370e+00    1.226928e+00   1.557713e-02
  1.623580e+00    1.223498e+00   1.553694e-02
  1.625791e+00    1.177061e+00   1.522124e-02
  1.628001e+00    1.155080e+00   1.506052e-02
  1.630212e+00    1.178643e+00   1.519572e-02
  1.632422e+00    1.166322e+00   1.509835e-02
  1.634632e+00    1.182494e+00   1.518534e-02
  1.636843e+00    1.180221e+00   1.515318e-02
  1.639053e+00    1.170392e+00   1.507268e-02
  1.641264e+00    1.177999e+00   1.510443e-02
  1.643474e+00    1.171008e+00   1.504211e-02
  1.645685e+00    1.147907e+00   1.487639e-02
  1.647895e+00    1.116923e+00   1.465794e-02
  1.650106e+00    1.130821e+00   1.473199e-02
  1.652316e+00    1.148621e+00   1.483100e-02
  1.654527e+00    1.139988e+00   1.475851e-02
  1.656737e+00    1.131487e+00   1.468687e-02
  1.658947e+00    1.118694e+00   1.458741e-02
  1.661158e+00    1.101980e+00   1.446194e-02
  1.663368e+00    1.112923e+00   1.451762e-02
  1.665579e+00    1.117316e+00   1.453010e-02
  1.667789e+00    1.120722e+00   1.453597e-02
  1.670000e+00    1.121945e+00   1.452834e-02
  1.672210e+00    1.149826e+00   1.469158e-02
  1.674421e+00    1.120118e+00   1.448515e-02
  1.676631e+00    1.101360e+00   1.434743e-02
  1.678842e+00    1.127970e+00   1.450377e-02
  1.681052e+00    1.118140e+00   1.442487e-02
  1.683263e+00    1.106967e+00   1.433736e-02
  1.685473e+00    1.113259e+00   1.436271e-02
  1.687683e+00    1.109287e+00   1.432146e-02
  1.689894e+00    1.101940e+00   1.425803e-02
  1.692104e+00    1.093498e+00   1.418827e-02
  1.694315e+00    1.075338e+00   1.405544e-02
  1.696525e+00    1.082857e+00   1.408923e-02
  1.698736e+00    1.082936e+00   1.407482e-02
  1.700946e+00    1.088357e+00   1.409466e-02
  1.703157e+00    1.069799e+00   1.395925e-02
  1.705367e+00    1.095516e+00   1.411124e-02
  1.707578e+00    1.089061e+00   1.405479e-02
  1.709788e+00    1.050307e+00   1.378829e-02
  1.711998e+00    1.059024e+00   1.383026e-02
  1.714209e+00    1.031861e+00   1.363736e-02
  1.716419e+00    1.032357e+00   1.362637e-02
  1.718630e+00    1.016372e+00   1.350632e-02
  1.720840e+00    1.026477e+00   1.355911e-02
  1.723051e+00    1.023436e+00   1.352514e-02
  1.725261e+00    1.043060e+00   1.363937e-02
  1.727472e+00    1.019728e+00   1.347179e-02
  1.729682e+00    1.021680e+00   1.347116e-02
  1.731893e+00    1.014717e+00   1.341126e-02
  1.734103e+00    1.013279e+00   1.338793e-02
  1.736313e+00    1.026640e+00   1.346175e-02
  1.738524e+00    1.009924e+00   1.333783e-02
  1.740734e+00    9.856657e-01   1.316306e-02
  1.742945e+00    9.828165e-01   1.313065e-02
  1.745155e+00    9.763653e-01   1.307416e-02
  1.747366e+00    9.719490e-01   1.303086e-02
  1.749576e+00    9.677287e-01   1.298899e-02
  1.751787e+00    9.691460e-01   1.298525e-02
  1.753997e+00    9.775338e-01   1.302796e-02
  1.756208e+00    9.874778e-01   1.308076e-02
  1.758418e+00    1.026981e+00   1.332634e-02
  1.760628e+00    1.021958e+00   1.328004e-02
  1.762839e+00    9.954377e-01   1.309317e-02
  1.765049e+00    9.975014e-01   1.309336e-02
  1.767260e+00    9.781820e-01   1.295303e-02
  1.769470e+00    9.687460e-01   1.287731e-02
  1.771681e+00    9.754460e-01   1.290846e-02
  1.773891e+00    9.501129e-01   1.272670e-02
  1.776102e+00    9.488513e-01   1.270535e-02
  1.778312e+00    9.569600e-01   1.274672e-02
  1.780523e+00    9.516915e-01   1.269877e-02
  1.782733e+00    9.565340e-01   1.271826e-02
  1.784944e+00    9.456496e-01   1.263271e-02
  1.787154e+00    9.782898e-01   1.283605e-02
  1.789364e+00    9.936041e-01   1.292322e-02
  1.791575e+00    1.005641e+00   1.298822e-02
  1.793785e+00    1.009883e+00   1.300260e-02
  1.795996e+00    1.011425e+00   1.299941e-02
  1.798206e+00    9.955606e-01   1.288405e-02
  1.800417e+00    9.531279e-01   1.259354e-02
  1.802627e+00    9.418058e-01   1.250640e-02
  1.804838e+00    9.552619e-01   1.258302e-02
  1.807048e+00    9.410594e-01   1.247609e-02
  1.809259e+00    9.190817e-01   1.231585e-02
  1.811469e+00    8.986011e-01   1.216295e-02
  1.813679e+00    8.946464e-01   1.212122e-02
  1.815890e+00    8.778796e-01   1.199253e-02
  1.818100e+00    8.661690e-01   1.189742e-02
  1.820311e+00    8.800508e-01   1.197772e-02
  1.822521e+00    9.060645e-01   1.213847e-02
  1.824732e+00    9.173771e-01   1.219900e-02
  1.826942e+00    8.841432e-01   1.196368e-02
  1.829153e+00    8.788552e-01   1.191618e-02
  1.831363e+00    9.058323e-01   1.208551e-02
  1.833574e+00    9.052269e-01   1.206964e-02
  1.835784e+00    8.945852e-01   1.198697e-02
  1.837994e+00    8.772911e-01   1.185882e-02
  1.840205e+00    8.782184e-01   1.185388e-02
  1.842415e+00    8.766587e-01   1.183156e-02
  1.844626e+00    9.016737e-01   1.198742e-02
  1.846836e+00    8.852203e-01   1.186599e-02
  1.849047e+00    8.732259e-01   1.177370e-02
  1.851257e+00    8.521807e-01   1.162142e-02
  1.853468e+00    8.571635e-01   1.164658e-02
  1.855678e+00    8.388750e-01   1.151290e-02
  1.857889e+00    8.449718e-01   1.154622e-02
  1.860099e+00    8.629922e-01   1.166002e-02
  1.862309e+00    8.546356e-01   1.159495e-02
  1.864520e+00    8.553644e-01   1.159131e-02
  1.866730e+00    8.528768e-01   1.156507e-02
  1.868941e+00    8.468423e-01   1.151318e-02
  1.871151e+00    8.381819e-01   1.144285e-02
  1.873362e+00    8.361864e-01   1.141798e-02
  1.875572e+00    8.266620e-01   1.134198e-02
  1.877783e+00    8.405468e-01   1.142545e-02
  1.879993e+00    8.389499e-01   1.140349e-02
  1.882204e+00    8.345867e-01   1.136295e-02
  1.884414e+00    8.475201e-01   1.143958e-02
  1.886624e+00    8.403859e-01   1.138027e-02
  1.888835e+00    8.393771e-01   1.136250e-02
  1.891045e+00    8.307649e-01   1.129322e-02
  1.893256e+00    8.188751e-01   1.120116e-02
  1.895466e+00    8.212456e-01   1.120629e-02
  1.897677e+00    8.270093e-01   1.123469e-02
  1.899887e+00    8.278430e-01   1.122940e-02
  1.902098e+00    8.195813e-01   1.116249e-02
  1.904308e+00    8.073792e-01   1.106863e-02
  1.906519e+00    8.234935e-01   1.116773e-02
  1.908729e+00    8.407811e-01   1.127368e-02
  1.910940e+00    8.433114e-01   1.127939e-02
  1.913150e+00    8.418536e-01   1.125897e-02
  1.915360e+00    8.257582e-01   1.114018e-02
  1.917571e+00    8.192486e-01   1.108532e-02
  1.919781e+00    8.310995e-01   1.115448e-02
  1.921992e+00    8.188514e-01   1.106136e-02
  1.924202e+00    8.298374e-01   1.112447e-02
  1.926413e+00    8.047774e-01   1.094499e-02
  1.928623e+00    8.183495e-01   1.102632e-02
  1.930834e+00    8.288211e-01   1.108610e-02
  1.933044e+00    8.331851e-01   1.110446e-02
  1.935255e+00    8.055629e-01   1.090853e-02
  1.937465e+00    8.158125e-01   1.096725e-02
  1.939675e+00    8.116440e-01   1.092833e-02
  1.941886e+00    8.035321e-01   1.086330e-02
  1.944096e+00    8.031836e-01   1.085078e-02
  1.946307e+00    7.986193e-01   1.080956e-02
  1.948517e+00    8.106376e-01   1.088010e-02
  1.950728e+00    7.926937e-01   1.074879e-02
  1.952938e+00    8.023847e-01   1.080417e-02
  1.955149e+00    7.890177e-01   1.070363e-02
  1.957359e+00    7.936361e-01   1.072487e-02
  1.959570e+00    7.956367e-01   1.072750e-02
  1.961780e+00    8.015126e-01   1.075708e-02
  1.963990e+00    7.864771e-01   1.064562e-02
  1.966201e+00    7.980345e-01   1.071344e-02
  1.968411e+00    7.960239e-01   1.068976e-02
  1.970622e+00    7.944468e-01   1.066901e-02
  1.972832e+00    8.036532e-01   1.072059e-02
  1.975043e+00    8.059226e-01   1.072554e-02
  1.977253e+00    8.004536e-01   1.067905e-02
  1.979464e+00    8.063276e-01   1.070797e-02
  1.981674e+00    8.028218e-01   1.067428e-02
  1.983885e+00    7.995269e-01   1.064222e-02
  1.986095e+00    7.993422e-01   1.063117e-02
  1.988305e+00    7.843705e-01   1.052122e-02
  1.990516e+00    7.866600e-01   1.052658e-02
  1.992726e+00    7.900311e-01   1.053938e-02
  1.994937e+00    7.875724e-01   1.051276e-02
  1.997147e+00    7.824906e-01   1.046903e-02
  1.999358e+00    7.806607e-01   1.044688e-02
  2.001568e+00    7.754512e-01   1.040114e-02
  2.003779e+00    7.823186e-01   1.043511e-02
  2.005989e+00    7.706010e-01   1.034465e-02
  2.008200e+00    7.904019e-01   1.046502e-02
  2.010410e+00    7.876266e-01   1.043476e-02
  2.012621e+00    8.076001e-01   1.055424e-02
  2.014831e+00    7.925903e-01   1.044404e-02
  2.017041e+00    7.797982e-01   1.034895e-02
  2.019252e+00    7.760412e-01   1.031396e-02
  2.021462e+00    7.836130e-01   1.035453e-02
  2.023673e+00    7.833724e-01   1.034344e-02
  2.025883e+00    7.690118e-01   1.023865e-02
  2.028094e+00    7.568419e-01   1.014769e-02
  2.030304e+00    7.679631e-01   1.021241e-02
  2.032515e+00    7.684559e-01   1.020632e-02
  2.034725e+00    7.640993e-01   1.016790e-02
  2.036936e+00    7.678638e-01   1.018350e-02
  2.039146e+00    7.599777e-01   1.012150e-02
  2.041356e+00    7.468404e-01   1.002405e-02
  2.043567e+00    7.495713e-01   1.003309e-02
  2.045777e+00    7.494809e-01   1.002327e-02
  2.047988e+00    7.594233e-01   1.008012e-02
  2.050198e+00    7.663071e-01   1.011722e-02
  2.052409e+00    7.742365e-01   1.016164e-02
  2.054619e+00    7.509654e-01   1.000044e-02
  2.056830e+00    7.403042e-01   9.922033e-03
  2.059040e+00    7.504274e-01   9.982156e-03
  2.061251e+00    7.444654e-01   9.935200e-03
  2.063461e+00    7.484740e-01   9.954300e-03
  2.065671e+00    7.715761e-01   1.009792e-02
  2.067882e+00    7.509355e-01   9.952929e-03
  2.070092e+00    7.497830e-01   9.936064e-03
  2.072303e+00    7.601494e-01   9.995295e-03
  2.074513e+00    7.527077e-01   9.936902e-03
  2.076724e+00    7.513377e-01   9.918326e-03
  2.078934e+00    7.376193e-01   9.818409e-03
  2.081145e+00    7.424324e-01   9.841296e-03
  2.083355e+00    7.616135e-01   9.958304e-03
  2.085566e+00    7.571563e-01   9.920159e-03
  2.087776e+00    7.386864e-01   9.788883e-03
  2.089986e+00    7.638356e-01   9.945187e-03
  2.092197e+00    7.851571e-01   1.007380e-02
  2.094407e+00    7.678028e-01   9.952446e-03
  2.096618e+00    7.446144e-01   9.792039e-03
  2.098828e+00    7.528321e-01   9.836488e-03
  2.101039e+00    7.491230e-01   9.803155e-03
  2.103249e+00    7.520398e-01   9.813438e-03
  2.105460e+00    7.395952e-01   9.722821e-03
  2.107670e+00    7.291900e-01   9.645453e-03
  2.109881e+00    7.074347e-01   9.491446e-03
  2.112091e+00    7.288555e-01   9.625034e-03
  2.114301e+00    7.359130e-01   9.662704e-03
  2.116512e+00    7.258784e-01   9.587776e-03
  2.118722e+00    7.296334e-01   9.603675e-03
  2.120933e+00    7.164927e-01   9.507975e-03
  2.123143e+00    6.894125e-01   9.317836e-03
  2.125354e+00    6.955132e-01   9.350563e-03
  2.127564e+00    7.264550e-01   9.547488e-03
  2.129775e+00    7.197246e-01   9.494442e-03
  2.131985e+00    6.929762e-01   9.307407e-03
  2.134196e+00    7.017717e-01   9.357762e-03
  2.136406e+00    6.929077e-01   9.289865e-03
  2.138617e+00    7.091813e-01   9.389841e-03
  2.140827e+00    7.249325e-01   9.509818e-03
  2.143037e+00    7.118925e-01   9.469519e-03
  2.145248e+00    7.233386e-01   9.567620e-03
  2.147458e+00    6.999149e-01   9.426526e-03
  2.149669e+00    7.094596e-01   9.502470e-03
  2.151879e+00    7.185772e-01   9.572686e-03
  2.154090e+00    7.084613e-01   9.512414e-03
  2.156300e+00    7.141626e-01   9.557280e-03
  2.158511e+00    7.112609e-01   9.543190e-03
  2.160721e+00    7.082648e-01   9.527930e-03
  2.162932e+00    6.968003e-01   9.454228e-03
  2.165142e+00    6.993315e-01   9.474411e-03
  2.167352e+00    7.171568e-01   9.597354e-03
  2.169563e+00    6.966974e-01   9.461429e-03
  2.171773e+00    6.865070e-01   9.394411e-03
  2.173984e+00    7.067958e-01   9.533623e-03
  2.176194e+00    7.059985e-01   9.529486e-03
  2.178405e+00    6.826429e-01   9.371225e-03
  2.180615e+00    6.811340e-01   9.361518e-03
  2.182826e+00    7.000685e-01   9.491435e-03
  2.185036e+00    6.970819e-01   9.471233e-03
  2.187247e+00    6.745873e-01   9.317106e-03
  2.189457e+00    6.829385e-01   9.374194e-03
  2.191667e+00    6.768012e-01   9.331791e-03
  2.193878e+00    6.900165e-01   9.421909e-03
  2.196088e+00    6.819074e-01   9.365678e-03
  2.198299e+00    6.930265e-01   9.440647e-03
  2.200509e+00    6.912174e-01   9.427249e-03
  2.202720e+00    6.964172e-01   9.461483e-03
  2.204930e+00    6.791480e-01   9.342201e-03
  2.207141e+00    6.725411e-01   9.295534e-03
  2.209351e+00    6.973096e-01   9.463238e-03
  2.211562e+00    6.955419e-01   9.449618e-03
  2.213772e+00    6.796890e-01   9.285704e-03
  2.215982e+00    6.834688e-01   9.267029e-03
  2.218193e+00    6.704746e-01   9.148997e-03
  2.220403e+00    6.742408e-01   9.150077e-03
  2.222614e+00    6.630929e-01   9.053343e-03
  2.224824e+00    6.611221e-01   9.020665e-03
  2.227035e+00    6.671417e-01   9.044264e-03
  2.229245e+00    6.857179e-01   9.152177e-03
  2.231456e+00    6.828789e-01   9.117469e-03
  2.233666e+00    6.834972e-01   9.106360e-03
  2.235877e+00    6.589487e-01   8.927183e-03
  2.238087e+00    6.825210e-01   9.071858e-03
  2.240298e+00    6.676600e-01   8.958801e-03
  2.242508e+00    6.723850e-01   8.975266e-03
  2.244718e+00    6.719525e-01   8.956532e-03
  2.246929e+00    6.763126e-01   8.971036e-03
  2.249139e+00    6.758834e-01   8.955751e-03
  2.251350e+00    6.462993e-01   8.746016e-03
  2.253560e+00    6.554634e-01   8.796331e-03
  2.255771e+00    6.716013e-01   8.892501e-03
  2.257981e+00    6.598798e-01   8.803425e-03
  2.260192e+00    6.525335e-01   8.743280e-03
  2.262402e+00    6.825011e-01   8.930785e-03
  2.264613e+00    6.641054e-01   8.798781e-03
  2.266823e+00    6.541544e-01   8.722271e-03
  2.269033e+00    6.767041e-01   8.860843e-03
  2.271244e+00    6.592766e-01   8.735648e-03
  2.273454e+00    6.658692e-01   8.768916e-03
  2.275665e+00    6.651822e-01   8.754071e-03
  2.277875e+00    6.594160e-01   8.706117e-03
  2.280086e+00    6.553133e-01   8.669006e-03
  2.282296e+00    6.561884e-01   8.665385e-03
  2.284507e+00    6.627031e-01   8.698149e-03
  2.286717e+00    6.700068e-01   8.736390e-03
  2.288928e+00    6.566849e-01   8.639244e-03
  2.291138e+00    6.634064e-01   8.673867e-03
  2.293348e+00    6.572596e-01   8.624042e-03
  2.295559e+00    6.539305e-01   8.592859e-03
  2.297769e+00    6.573314e-01   8.605928e-03
  2.299980e+00    6.546628e-01   8.579085e-03
  2.302190e+00    6.507112e-01   8.544046e-03
  2.304401e+00    6.582521e-01   8.584051e-03
  2.306611e+00    6.530555e-01   8.540896e-03
  2.308822e+00    6.456939e-01   8.484269e-03
  2.311032e+00    6.494742e-01   8.502616e-03
  2.313243e+00    6.486251e-01   8.490796e-03
  2.315453e+00    6.471625e-01   8.473658e-03
  2.317663e+00    6.507968e-01   8.488259e-03
  2.319874e+00    6.415806e-01   8.419256e-03
  2.322084e+00    6.565981e-01   8.508173e-03
  2.324295e+00    6.409460e-01   8.397982e-03
  2.326505e+00    6.301325e-01   8.317861e-03
  2.328716e+00    6.367098e-01   8.352648e-03
  2.330926e+00    6.459078e-01   8.403969e-03
  2.333137e+00    6.407662e-01   8.362069e-03
  2.335347e+00    6.350489e-01   8.315872e-03
  2.337558e+00    6.426419e-01   8.357174e-03
  2.339768e+00    6.542674e-01   8.423761e-03
  2.341979e+00    6.576544e-01   8.437058e-03
  2.344189e+00    6.533506e-01   8.400900e-03
  2.346399e+00    6.553421e-01   8.405083e-03
  2.348610e+00    6.326362e-01   8.249755e-03
  2.350820e+00    6.313609e-01   8.233281e-03
  2.353031e+00    6.187041e-01   8.142140e-03
  2.355241e+00    6.407770e-01   8.277996e-03
  2.357452e+00    6.369305e-01   8.244683e-03
  2.359662e+00    6.362939e-01   8.232299e-03
  2.361873e+00    6.415466e-01   8.257909e-03
  2.364083e+00    6.412528e-01   8.247947e-03
  2.366294e+00    6.405921e-01   8.235513e-03
  2.368504e+00    6.349252e-01   8.190878e-03
  2.370714e+00    6.291730e-01   8.145601e-03
  2.372925e+00    6.172648e-01   8.060159e-03
  2.375135e+00    6.120383e-01   8.017968e-03
  2.377346e+00    6.316587e-01   8.137484e-03
  2.379556e+00    6.292411e-01   8.113966e-03
  2.381767e+00    6.150035e-01   8.013818e-03
  2.383977e+00    6.240773e-01   8.064762e-03
  2.386188e+00    6.174905e-01   8.014187e-03
  2.388398e+00    6.135135e-01   7.980426e-03
  2.390609e+00    6.102283e-01   7.951329e-03
  2.392819e+00    6.160300e-01   7.981278e-03
  2.395029e+00    6.081874e-01   7.922697e-03
  2.397240e+00    6.001444e-01   7.862355e-03
  2.399450e+00    6.208767e-01   7.989150e-03
  2.401661e+00    5.997027e-01   7.844148e-03
  2.403871e+00    5.943644e-01   7.801502e-03
  2.406082e+00    5.920970e-01   7.779273e-03
  2.408292e+00    5.943042e-01   7.786070e-03
  2.410503e+00    5.896028e-01   7.747843e-03
  2.412713e+00    6.033919e-01   7.830140e-03
  2.414924e+00    6.114765e-01   7.874902e-03
  2.417134e+00    6.202388e-01   7.923403e-03
  2.419344e+00    6.050966e-01   7.818662e-03
  2.421555e+00    6.037609e-01   7.802504e-03
  2.423765e+00    6.222412e-01   7.913478e-03
  2.425976e+00    6.187186e-01   7.883119e-03
  2.428186e+00    6.163455e-01   7.860668e-03
  2.430397e+00    6.038974e-01   7.773364e-03
  2.432607e+00    5.917457e-01   7.687505e-03
  2.434818e+00    5.925927e-01   7.685462e-03
  2.437028e+00    6.209373e-01   7.859819e-03
  2.439239e+00    5.975594e-01   7.702783e-03
  2.441449e+00    5.910637e-01   7.653593e-03
  2.443659e+00    5.983770e-01   7.693399e-03
  2.445870e+00    5.968361e-01   7.695817e-03
  2.448080e+00    5.872200e-01   7.668506e-03
  2.450291e+00    5.845747e-01   7.667907e-03
  2.452501e+00    5.848123e-01   7.680727e-03
  2.454712e+00    5.700876e-01   7.591815e-03
  2.456922e+00    5.752432e-01   7.632717e-03
  2.459133e+00    5.541568e-01   7.496879e-03
  2.461343e+00    5.662959e-01   7.582901e-03
  2.463554e+00    5.462608e-01   7.450969e-03
  2.465764e+00    5.566549e-01   7.524624e-03
  2.467975e+00    5.778571e-01   7.668914e-03
  2.470185e+00    5.563177e-01   7.526900e-03
  2.472395e+00    5.560771e-01   7.526468e-03
  2.474606e+00    5.586995e-01   7.545781e-03
  2.476816e+00    5.528497e-01   7.506898e-03
  2.479027e+00    5.557606e-01   7.527498e-03
  2.481237e+00    5.428054e-01   7.439518e-03
  2.483448e+00    5.426430e-01   7.438710e-03
  2.485658e+00    5.304854e-01   7.354756e-03
  2.487869e+00    5.344666e-01   7.382349e-03
  2.490079e+00    5.322363e-01   7.366416e-03
  2.492290e+00    5.271174e-01   7.330467e-03
  2.494500e+00    5.338423e-01   7.376357e-03
  2.496710e+00    5.257216e-01   7.319356e-03
  2.498921e+00    5.308295e-01   7.353825e-03
  2.501131e+00    5.386426e-01   7.406800e-03
  2.503342e+00    5.293421e-01   7.341324e-03
  2.505552e+00    5.410149e-01   7.420670e-03
  2.507763e+00    5.245990e-01   7.305838e-03
  2.509973e+00    5.225880e-01   7.290411e-03
  2.512184e+00    5.233512e-01   7.294132e-03
  2.514394e+00    5.119557e-01   7.205055e-03
  2.516605e+00    5.318026e-01   7.296081e-03
  2.518815e+00    5.222566e-01   7.202100e-03
  2.521025e+00    5.241145e-01   7.193936e-03
  2.523236e+00    5.200388e-01   7.148040e-03
  2.525446e+00    5.173498e-01   7.114049e-03
  2.527657e+00    5.235592e-01   7.142018e-03
  2.529867e+00    5.225711e-01   7.121154e-03
  2.532078e+00    5.167261e-01   7.066278e-03
  2.534288e+00    5.265428e-01   7.119178e-03
  2.536499e+00    5.370261e-01   7.177629e-03
  2.538709e+00    5.351145e-01   7.153725e-03
  2.540920e+00    5.384233e-01   7.165036e-03
  2.543130e+00    5.227202e-01   7.049418e-03
  2.545340e+00    5.300166e-01   7.088324e-03
  2.547551e+00    5.331038e-01   7.098896e-03
  2.549761e+00    5.238128e-01   7.027172e-03
  2.551972e+00    5.325339e-01   7.075975e-03
  2.554182e+00    5.295732e-01   7.047036e-03
  2.556393e+00    5.299981e-01   7.040688e-03
  2.558603e+00    5.145865e-01   6.928548e-03
  2.560814e+00    5.234928e-01   6.979504e-03
  2.563024e+00    5.176243e-01   6.931720e-03
  2.565235e+00    5.164911e-01   6.914639e-03
  2.567445e+00    5.309181e-01   7.000871e-03
  2.569656e+00    5.304439e-01   6.987896e-03
  2.571866e+00    5.292615e-01   6.970654e-03
  2.574076e+00    5.107492e-01   6.838435e-03
  2.576287e+00    5.112143e-01   6.833258e-03
  2.578497e+00    5.130492e-01   6.837693e-03
  2.580708e+00    5.148830e-01   6.841822e-03
  2.582918e+00    5.167317e-01   6.846313e-03
  2.585129e+00    5.159637e-01   6.833462e-03
  2.587339e+00    5.193119e-01   6.847884e-03
  2.589550e+00    5.220063e-01   6.858000e-03
  2.591760e+00    5.226427e-01   6.854370e-03
  2.593971e+00    5.192515e-01   6.824523e-03
  2.596181e+00    5.134863e-01   6.780278e-03
  2.598391e+00    5.162687e-01   6.793416e-03
  2.600602e+00    5.244764e-01   6.841210e-03
  2.602812e+00    5.135176e-01   6.761790e-03
  2.605023e+00    5.086510e-01   6.722500e-03
  2.607233e+00    5.065382e-01   6.701397e-03
  2.609444e+00    5.154981e-01   6.753121e-03
  2.611654e+00    5.091801e-01   6.704270e-03
  2.613865e+00    5.106420e-01   6.706823e-03
  2.616075e+00    5.051963e-01   6.663831e-03
  2.618286e+00    4.915280e-01   6.566180e-03
  2.620496e+00    4.999462e-01   6.615478e-03
  2.622706e+00    5.022348e-01   6.624899e-03
  2.624917e+00    5.074263e-01   6.653172e-03
  2.627127e+00    5.123142e-01   6.679363e-03
  2.629338e+00    4.953521e-01   6.561930e-03
  2.631548e+00    5.026461e-01   6.603886e-03
  2.633759e+00    5.036500e-01   6.603333e-03
  2.635969e+00    4.955129e-01   6.543133e-03
  2.638180e+00    5.047339e-01   6.596718e-03
  2.640390e+00    5.044353e-01   6.588140e-03
  2.642601e+00    5.088606e-01   6.610271e-03
  2.644811e+00    4.910170e-01   6.486321e-03
  2.647021e+00    4.790245e-01   6.400202e-03
  2.649232e+00    4.901491e-01   6.467427e-03
  2.651442e+00    4.958574e-01   6.498489e-03
  2.653653e+00    5.142749e-01   6.611186e-03
  2.655863e+00    5.088484e-01   6.569475e-03
  2.658074e+00    4.950358e-01   6.473102e-03
  2.660284e+00    4.913472e-01   6.442612e-03
  2.662495e+00    4.984891e-01   6.482514e-03
  2.664705e+00    5.149910e-01   6.582234e-03
  2.666916e+00    4.927400e-01   6.432067e-03
  2.669126e+00    4.940613e-01   6.434201e-03
  2.671337e+00    4.930285e-01   6.420934e-03
  2.673547e+00    4.834450e-01   6.351902e-03
  2.675757e+00    4.894189e-01   6.384610e-03
  2.677968e+00    4.951617e-01   6.415442e-03
  2.680178e+00    4.917426e-01   6.386855e-03
  2.682389e+00    5.020742e-01   6.447152e-03
  2.684599e+00    5.039154e-01   6.452710e-03
  2.686810e+00    4.858616e-01   6.329507e-03
  2.689020e+00    4.930931e-01   6.370131e-03
  2.691231e+00    4.908431e-01   6.349283e-03
  2.693441e+00    4.947045e-01   6.368053e-03
  2.695652e+00    4.895374e-01   6.328189e-03
  2.697862e+00    4.958775e-01   6.362654e-03
  2.700072e+00    4.889963e-01   6.312282e-03
  2.702283e+00    4.963870e-01   6.353536e-03
  2.704493e+00    4.953546e-01   6.340601e-03
  2.706704e+00    4.996161e-01   6.361330e-03
  2.708914e+00    5.056652e-01   6.393666e-03
  2.711125e+00    4.952440e-01   6.321145e-03
  2.713335e+00    4.964907e-01   6.322950e-03
  2.715546e+00    4.804712e-01   6.213688e-03
  2.717756e+00    4.849073e-01   6.236419e-03
  2.719967e+00    4.788804e-01   6.191394e-03
  2.722177e+00    4.883011e-01   6.245837e-03
  2.724387e+00    4.839374e-01   6.211781e-03
  2.726598e+00    4.897289e-01   6.242751e-03
  2.728808e+00    4.857959e-01   6.211483e-03
  2.731019e+00    4.771945e-01   6.150177e-03
  2.733229e+00    4.687688e-01   6.089909e-03
  2.735440e+00    4.733078e-01   6.113143e-03
  2.737650e+00    4.875714e-01   6.198513e-03
  2.739861e+00    4.754066e-01   6.114694e-03
  2.742071e+00    4.859981e-01   6.176658e-03
  2.744282e+00    4.956014e-01   6.231060e-03
  2.746492e+00    4.897177e-01   6.187885e-03
  2.748702e+00    4.877560e-01   6.169534e-03
  2.750913e+00    4.789869e-01   6.108069e-03
  2.753123e+00    4.798556e-01   6.107461e-03
  2.755334e+00    4.957396e-01   6.201581e-03
  2.757544e+00    4.815322e-01   6.106319e-03
  2.759755e+00    4.733167e-01   6.048160e-03
  2.761965e+00    4.787146e-01   6.076584e-03
  2.764176e+00    4.662183e-01   5.990845e-03
  2.766386e+00    4.807756e-01   6.077857e-03
  2.768597e+00    4.797111e-01   6.065264e-03
  2.770807e+00    4.781774e-01   6.049687e-03
  2.773017e+00    4.708711e-01   5.997375e-03
  2.775228e+00    4.748154e-01   6.016675e-03
  2.777438e+00    4.724386e-01   5.995848e-03
  2.779649e+00    4.662935e-01   5.950876e-03
  2.781859e+00    4.887577e-01   6.086718e-03
  2.784070e+00    4.847835e-01   6.056013e-03
  2.786280e+00    4.855548e-01   6.055015e-03
  2.788491e+00    4.802050e-01   6.015720e-03
  2.790701e+00    4.783659e-01   5.998515e-03
  2.792912e+00    4.905463e-01   6.068351e-03
  2.795122e+00    4.843560e-01   6.024173e-03
  2.797333e+00    4.805502e-01   5.994857e-03
  2.799543e+00    4.719547e-01   5.935170e-03
  2.801753e+00    4.757675e-01   5.953229e-03
  2.803964e+00    4.783325e-01   5.963580e-03
  2.806174e+00    4.760233e-01   5.943014e-03
  2.808385e+00    4.807310e-01   5.965484e-03
  2.810595e+00    4.790162e-01   5.947952e-03
  2.812806e+00    4.793440e-01   5.943333e-03
  2.815016e+00    4.763877e-01   5.920228e-03
  2.817227e+00    4.717816e-01   5.917415e-03
  2.819437e+00    4.570685e-01   5.835277e-03
  2.821648e+00    4.650337e-01   5.888169e-03
  2.823858e+00    4.792421e-01   5.982829e-03
  2.826068e+00    4.872313e-01   6.037533e-03
  2.828279e+00    4.724854e-01   5.949534e-03
  2.830489e+00    4.546980e-01   5.839719e-03
  2.832700e+00    4.709091e-01   5.945464e-03
  2.834910e+00    4.776134e-01   5.989730e-03
  2.837121e+00    4.640390e-01   5.905688e-03
  2.839331e+00    4.714980e-01   5.954182e-03
  2.841542e+00    4.695425e-01   5.942843e-03
  2.843752e+00    4.762668e-01   5.986046e-03
  2.845963e+00    4.609763e-01   5.889563e-03
  2.848173e+00    4.690447e-01   5.940946e-03
  2.850383e+00    4.799279e-01   6.009797e-03
  2.852594e+00    4.653104e-01   5.917481e-03
  2.854804e+00    4.674220e-01   5.930385e-03
  2.857015e+00    4.757851e-01   5.982762e-03
  2.859225e+00    4.685901e-01   5.937110e-03
  2.861436e+00    4.705933e-01   5.949130e-03
  2.863646e+00    4.681410e-01   5.933648e-03
  2.865857e+00    4.611741e-01   5.889660e-03
  2.868067e+00    4.588084e-01   5.874760e-03
  2.870278e+00    4.508897e-01   5.823497e-03
  2.872488e+00    4.602108e-01   5.882207e-03
  2.874698e+00    4.622753e-01   5.894374e-03
  2.876909e+00    4.474077e-01   5.797494e-03
  2.879119e+00    4.604018e-01   5.879442e-03
  2.881330e+00    4.727954e-01   5.956584e-03
  2.883540e+00    4.734820e-01   5.959514e-03
  2.885751e+00    4.584738e-01   5.862655e-03
  2.887961e+00    4.536274e-01   5.829716e-03
  2.890172e+00    4.523465e-01   5.819891e-03
  2.892382e+00    4.619239e-01   5.879370e-03
  2.894593e+00    4.667501e-01   5.908184e-03
  2.896803e+00    4.589016e-01   5.856324e-03
  2.899014e+00    4.564326e-01   5.838637e-03
  2.901224e+00    4.715482e-01   5.932512e-03
  2.903434e+00    4.732543e-01   5.941268e-03
  2.905645e+00    4.688914e-01   5.911575e-03
  2.907855e+00    4.630083e-01   5.872267e-03
  2.910066e+00    4.556769e-01   5.823519e-03
  2.912276e+00    4.593581e-01   5.844862e-03
  2.914487e+00    4.549127e-01   5.814069e-03
  2.916697e+00    4.592392e-01   5.839432e-03
  2.918908e+00    4.689216e-01   5.898626e-03
  2.921118e+00    4.743595e-01   5.930000e-03
  2.923329e+00    4.630412e-01   5.856508e-03
  2.925539e+00    4.564633e-01   5.812467e-03
  2.927749e+00    4.545071e-01   5.797705e-03
  2.929960e+00    4.508258e-01   5.771409e-03
  2.932170e+00    4.674075e-01   5.874232e-03
  2.934381e+00    4.549508e-01   5.793013e-03
  2.936591e+00    4.494230e-01   5.755131e-03
  2.938802e+00    4.540267e-01   5.781842e-03
  2.941012e+00    4.532731e-01   5.774701e-03
  2.943223e+00    4.554811e-01   5.786070e-03
  2.945433e+00    4.563242e-01   5.787661e-03
  2.947644e+00    4.561945e-01   5.782722e-03
  2.949854e+00    4.672330e-01   5.847929e-03
  2.952064e+00    4.611409e-01   5.805440e-03
  2.954275e+00    4.743720e-01   5.883617e-03
  2.956485e+00    4.533604e-01   5.747681e-03
  2.958696e+00    4.446179e-01   5.687647e-03
  2.960906e+00    4.641005e-01   5.806710e-03
  2.963117e+00    4.552177e-01   5.746376e-03
  2.965327e+00    4.506990e-01   5.713918e-03
  2.967538e+00    4.490879e-01   5.700784e-03
  2.969748e+00    4.513116e-01   5.712072e-03
  2.971959e+00    4.658869e-01   5.800404e-03
  2.974169e+00    4.589870e-01   5.754701e-03
  2.976379e+00    4.590314e-01   5.752038e-03
  2.978590e+00    4.636007e-01   5.777424e-03
  2.980800e+00    4.760683e-01   5.851739e-03
  2.983011e+00    4.712863e-01   5.819419e-03
  2.985221e+00    4.552247e-01   5.716254e-03
  2.987432e+00    4.499543e-01   5.679955e-03
  2.989642e+00    4.476219e-01   5.662614e-03
  2.991853e+00    4.570526e-01   5.718658e-03
  2.994063e+00    4.418644e-01   5.619973e-03
  2.996274e+00    4.435404e-01   5.627477e-03
  2.998484e+00    4.690567e-01   5.784317e-03
  3.000694e+00    4.556152e-01   5.697399e-03
  3.002905e+00    4.732703e-01   5.803716e-03
  3.005115e+00    4.766050e-01   5.821093e-03
  3.007326e+00    4.541440e-01   5.679112e-03
  3.009536e+00    4.557013e-01   5.685574e-03
  3.011747e+00    4.561835e-01   5.685651e-03
  3.013957e+00    4.550219e-01   5.675233e-03
  3.016168e+00    4.578879e-01   5.689794e-03
  3.018378e+00    4.519097e-01   5.649487e-03
  3.020589e+00    4.542913e-01   5.661152e-03
  3.022799e+00    4.501967e-01   5.632404e-03
  3.025010e+00    4.576943e-01   5.675869e-03
  3.027220e+00    4.497630e-01   5.623378e-03
  3.029430e+00    4.583172e-01   5.673330e-03
  3.031641e+00    4.524513e-01   5.633761e-03
  3.033851e+00    4.499361e-01   5.614589e-03
  3.036062e+00    4.591728e-01   5.669090e-03
  3.038272e+00    4.611445e-01   5.677663e-03
  3.040483e+00    4.457484e-01   5.578874e-03
  3.042693e+00    4.518169e-01   5.613455e-03
  3.044904e+00    4.565006e-01   5.638421e-03
  3.047114e+00    4.516872e-01   5.603801e-03
  3.049325e+00    4.683537e-01   5.701783e-03
  3.051535e+00    4.582557e-01   5.635549e-03
  3.053745e+00    4.526290e-01   5.596084e-03
  3.055956e+00    4.625488e-01   5.652436e-03
  3.058166e+00    4.524517e-01   5.586137e-03
  3.060377e+00    4.478948e-01   5.553181e-03
  3.062587e+00    4.397926e-01   5.498143e-03
  3.064798e+00    4.522631e-01   5.571275e-03
  3.067008e+00    4.445861e-01   5.519088e-03
  3.069219e+00    4.511907e-01   5.555424e-03
  3.071429e+00    4.429109e-01   5.500720e-03
  3.073640e+00    4.495442e-01   5.538428e-03
  3.075850e+00    4.500143e-01   5.537731e-03
  3.078060e+00    4.631361e-01   5.614733e-03
  3.080271e+00    4.556458e-01   5.565654e-03
  3.082481e+00    4.514506e-01   5.536512e-03
  3.084692e+00    4.630940e-01   5.604008e-03
  3.086902e+00    4.561389e-01   5.558526e-03
  3.089113e+00    4.437804e-01   5.479125e-03
  3.091323e+00    4.638565e-01   5.598272e-03
  3.093534e+00    4.512613e-01   5.518341e-03
  3.095744e+00    4.496969e-01   5.505408e-03
  3.097955e+00    4.517580e-01   5.514425e-03
  3.100165e+00    4.471725e-01   5.483042e-03
  3.102375e+00    4.504277e-01   5.499529e-03
  3.104586e+00    4.398552e-01   5.431151e-03
  3.106796e+00    4.351866e-01   5.398754e-03
  3.109007e+00    4.520280e-01   5.498989e-03
  3.111217e+00    4.474309e-01   5.467273e-03
  3.113428e+00    4.450917e-01   5.449534e-03
  3.115638e+00    4.433564e-01   5.435692e-03
  3.117849e+00    4.531958e-01   5.491906e-03
  3.120059e+00    4.539188e-01   5.492789e-03
  3.122270e+00    4.541589e-01   5.490962e-03
  3.124480e+00    4.411855e-01   5.408293e-03
  3.126691e+00    4.451552e-01   5.429009e-03
  3.128901e+00    4.246964e-01   5.299725e-03
  3.131111e+00    4.343956e-01   5.356104e-03
  3.133322e+00    4.482163e-01   5.437173e-03
  3.135532e+00    4.528434e-01   5.461745e-03
  3.137743e+00    4.402618e-01   5.381882e-03
  3.139953e+00    4.455648e-01   5.410479e-03
  3.142164e+00    4.651361e-01   5.540350e-03
  3.144374e+00    4.558877e-01   5.513840e-03
  3.146585e+00    4.467518e-01   5.472947e-03
  3.148795e+00    4.360227e-01   5.417527e-03
  3.151006e+00    4.504410e-01   5.514973e-03
  3.153216e+00    4.594818e-01   5.577350e-03
  3.155426e+00    4.518824e-01   5.537436e-03
  3.157637e+00    4.448097e-01   5.499440e-03
  3.159847e+00    4.486989e-01   5.528391e-03
  3.162058e+00    4.367175e-01   5.458473e-03
  3.164268e+00    4.365076e-01   5.461206e-03
  3.166479e+00    4.417163e-01   5.497355e-03
  3.168689e+00    4.427890e-01   5.507403e-03
  3.170900e+00    4.404247e-01   5.495864e-03
  3.173110e+00    4.330693e-01   5.452638e-03
  3.175321e+00    4.145468e-01   5.337169e-03
  3.177531e+00    4.334511e-01   5.460222e-03
  3.179741e+00    4.379885e-01   5.490814e-03
  3.181952e+00    4.436622e-01   5.528377e-03
  3.184162e+00    4.509999e-01   5.576154e-03
  3.186373e+00    4.346503e-01   5.475727e-03
  3.188583e+00    4.373449e-01   5.494463e-03
  3.190794e+00    4.313068e-01   5.458149e-03
  3.193004e+00    4.402179e-01   5.515500e-03
  3.195215e+00    4.263712e-01   5.429544e-03
  3.197425e+00    4.303139e-01   5.455793e-03
  3.199636e+00    4.339418e-01   5.477961e-03
  3.201846e+00    4.354423e-01   5.486852e-03
  3.204056e+00    4.259825e-01   5.427779e-03
  3.206267e+00    4.419595e-01   5.529490e-03
  3.208477e+00    4.386767e-01   5.509852e-03
  3.210688e+00    4.303464e-01   5.458122e-03
  3.212898e+00    4.349531e-01   5.487840e-03
  3.215109e+00    4.198043e-01   5.392181e-03
  3.217319e+00    4.295780e-01   5.455185e-03
  3.219530e+00    4.343838e-01   5.486040e-03
  3.221740e+00    4.241652e-01   5.421665e-03
  3.223951e+00    4.347620e-01   5.489454e-03
  3.226161e+00    4.293562e-01   5.455413e-03
  3.228372e+00    4.235780e-01   5.419102e-03
  3.230582e+00    4.287799e-01   5.452416e-03
  3.232792e+00    4.208682e-01   5.402099e-03
  3.235003e+00    4.239816e-01   5.422289e-03
  3.237213e+00    4.278987e-01   5.447374e-03
  3.239424e+00    4.241058e-01   5.423177e-03
  3.241634e+00    4.354583e-01   5.495419e-03
  3.243845e+00    4.316051e-01   5.471108e-03
  3.246055e+00    4.419534e-01   5.536040e-03
  3.248266e+00    4.368926e-01   5.504456e-03
  3.250476e+00    4.366531e-01   5.502643e-03
  3.252687e+00    4.219884e-01   5.409379e-03
  3.254897e+00    4.228087e-01   5.414505e-03
  3.257107e+00    4.199004e-01   5.395551e-03
  3.259318e+00    4.328682e-01   5.477966e-03
  3.261528e+00    4.199264e-01   5.395357e-03
  3.263739e+00    4.174286e-01   5.378719e-03
  3.265949e+00    4.168583e-01   5.374903e-03
  3.268160e+00    4.167932e-01   5.374092e-03
  3.270370e+00    4.029990e-01   5.283924e-03
  3.272581e+00    4.233188e-01   5.415184e-03
  3.274791e+00    4.306403e-01   5.461310e-03
  3.277002e+00    4.270871e-01   5.438169e-03
  3.279212e+00    4.278115e-01   5.442392e-03
  3.281422e+00    4.277364e-01   5.441329e-03
  3.283633e+00    4.157727e-01   5.364031e-03
  3.285843e+00    4.200761e-01   5.391383e-03
  3.288054e+00    4.189875e-01   5.383447e-03
  3.290264e+00    4.449222e-01   5.547236e-03
  3.292475e+00    4.249080e-01   5.420242e-03
  3.294685e+00    4.180991e-01   5.375952e-03
  3.296896e+00    4.262228e-01   5.427197e-03
  3.299106e+00    4.214621e-01   5.396246e-03
  3.301317e+00    4.344615e-01   5.477788e-03
  3.303527e+00    4.227829e-01   5.403211e-03
  3.305737e+00    4.289461e-01   5.441382e-03
  3.307948e+00    4.206510e-01   5.387852e-03
  3.310158e+00    4.248886e-01   5.414072e-03
  3.312369e+00    4.382536e-01   5.497662e-03
  3.314579e+00    4.205931e-01   5.384839e-03
  3.316790e+00    4.302437e-01   5.445557e-03
  3.319000e+00    4.506439e-01   5.571932e-03
  3.321211e+00    4.244020e-01   5.406676e-03
  3.323421e+00    4.365468e-01   5.482259e-03
  3.325632e+00    4.198529e-01   5.375530e-03
  3.327842e+00    4.247511e-01   5.405874e-03
  3.330052e+00    4.173521e-01   5.357526e-03
  3.332263e+00    4.172814e-01   5.356046e-03
  3.334473e+00    4.336954e-01   5.459452e-03
  3.336684e+00    4.376737e-01   5.483147e-03
  3.338894e+00    4.235462e-01   5.393106e-03
  3.341105e+00    4.154550e-01   5.340116e-03
  3.343315e+00    4.216574e-01   5.378691e-03
  3.345526e+00    4.134427e-01   5.325161e-03
  3.347736e+00    4.264092e-01   5.406590e-03
  3.349947e+00    4.186409e-01   5.356191e-03
  3.352157e+00    4.223982e-01   5.378986e-03
  3.354368e+00    4.356622e-01   5.461475e-03
  3.356578e+00    4.144193e-01   5.325667e-03
  3.358788e+00    4.225111e-01   5.376042e-03
  3.360999e+00    4.260250e-01   5.397109e-03
  3.363209e+00    4.283132e-01   5.410544e-03
  3.365420e+00    4.135126e-01   5.314761e-03
  3.367630e+00    4.033761e-01   5.248193e-03
  3.369841e+00    4.047115e-01   5.255478e-03
  3.372051e+00    4.194349e-01   5.348205e-03
  3.374262e+00    4.234869e-01   5.371556e-03
  3.376472e+00    4.162440e-01   5.322976e-03
  3.378683e+00    4.169631e-01   5.325044e-03
  3.380893e+00    4.262116e-01   5.381417e-03
  3.383103e+00    4.176691e-01   5.324510e-03
  3.385314e+00    4.194805e-01   5.333794e-03
  3.387524e+00    4.242519e-01   5.361293e-03
  3.389735e+00    4.224184e-01   5.347029e-03
  3.391945e+00    4.095115e-01   5.261057e-03
  3.394156e+00    4.197048e-01   5.321862e-03
  3.396366e+00    4.305010e-01   5.386412e-03
  3.398577e+00    4.096780e-01   5.251482e-03
  3.400787e+00    3.879026e-01   5.121586e-03
  3.402998e+00    3.995052e-01   5.235175e-03
  3.405208e+00    3.905258e-01   5.196317e-03
  3.407418e+00    3.865337e-01   5.185165e-03
  3.409629e+00    3.817812e-01   5.166789e-03
  3.411839e+00    3.907755e-01   5.238974e-03
  3.414050e+00    4.040608e-01   5.338355e-03
  3.416260e+00    3.924073e-01   5.270453e-03
  3.418471e+00    3.936418e-01   5.288139e-03
  3.420681e+00    3.721312e-01   5.149912e-03
  3.422892e+00    3.791496e-01   5.206103e-03
  3.425102e+00    4.005237e-01   5.358772e-03
  3.427313e+00    3.875313e-01   5.278329e-03
  3.429523e+00    3.769109e-01   5.212456e-03
  3.431733e+00    3.814521e-01   5.250399e-03
  3.433944e+00    3.861755e-01   5.289289e-03
  3.436154e+00    3.774045e-01   5.235082e-03
  3.438365e+00    3.820603e-01   5.273203e-03
  3.440575e+00    3.814123e-01   5.274665e-03
  3.442786e+00    3.951742e-01   5.374702e-03
  3.444996e+00    3.823571e-01   5.292380e-03
  3.447207e+00    3.705570e-01   5.215313e-03
  3.449417e+00    3.855084e-01   5.361066e-03
  3.451628e+00    3.736489e-01   5.307605e-03
  3.453838e+00    3.606543e-01   5.235445e-03
  3.456049e+00    3.924725e-01   5.486222e-03
  3.458259e+00    3.696500e-01   5.346363e-03
  3.460469e+00    3.639494e-01   5.324689e-03
  3.462680e+00    3.722116e-01   5.403993e-03
  3.464890e+00    3.788482e-01   5.470066e-03
  3.467101e+00    3.663868e-01   5.396796e-03
  3.469311e+00    3.962487e-01   5.629519e-03
  3.471522e+00    3.843597e-01   5.561066e-03
  3.473732e+00    3.897466e-01   5.616017e-03
  3.475943e+00    4.216234e-01   5.857677e-03
  3.478153e+00    4.111941e-01   5.800697e-03
  3.480364e+00    4.087771e-01   5.799033e-03
  3.482574e+00    4.152370e-01   5.860237e-03
  3.484784e+00    4.142505e-01   5.868218e-03
  3.486995e+00    4.378066e-01   6.048234e-03
  3.489205e+00    4.447530e-01   6.111101e-03
  3.491416e+00    4.449879e-01   6.127880e-03
  3.493626e+00    4.670490e-01   6.293111e-03
  3.495837e+00    4.530605e-01   6.213111e-03
  3.498047e+00    4.583695e-01   6.264105e-03
  3.500258e+00    4.614063e-01   6.299567e-03
  3.502468e+00    4.590315e-01   6.297844e-03
  3.504679e+00    4.638158e-01   6.345080e-03
  3.506889e+00    4.791299e-01   6.463639e-03
  3.509099e+00    4.579270e-01   6.333180e-03
  3.511310e+00    4.765808e-01   6.475326e-03
  3.513520e+00    4.874462e-01   6.563229e-03
  3.515731e+00    4.911570e-01   6.602615e-03
  3.517941e+00    5.155120e-01   6.779067e-03
  3.520152e+00    5.114976e-01   6.767187e-03
  3.522362e+00    4.984096e-01   6.694508e-03
  3.524573e+00    5.016063e-01   6.730135e-03
  3.526783e+00    5.029628e-01   6.752482e-03
  3.528994e+00    5.147736e-01   6.843530e-03
  3.531204e+00    5.340552e-01   6.983105e-03
  3.533414e+00    5.352958e-01   7.003445e-03
  3.535625e+00    5.346367e-01   7.011547e-03
  3.537835e+00    5.306044e-01   6.997155e-03
  3.540046e+00    5.274416e-01   6.985145e-03
  3.542256e+00    5.311552e-01   7.017173e-03
  3.544467e+00    5.371212e-01   7.064135e-03
  3.546677e+00    5.353099e-01   7.059743e-03
  3.548888e+00    5.425101e-01   7.114630e-03
  3.551098e+00    5.396017e-01   7.102835e-03
  3.553309e+00    5.363196e-01   7.089397e-03
  3.555519e+00    5.266269e-01   7.036230e-03
  3.557729e+00    5.301985e-01   7.071682e-03
  3.559940e+00    5.209976e-01   7.021459e-03
  3.562150e+00    5.416983e-01   7.171341e-03
  3.564361e+00    5.465561e-01   7.216909e-03
  3.566571e+00    5.394922e-01   7.183988e-03
  3.568782e+00    5.412715e-01   7.209987e-03
  3.570992e+00    5.446317e-01   7.246232e-03
  3.573203e+00    5.394249e-01   7.225662e-03
  3.575413e+00    5.485628e-01   7.300576e-03
  3.577624e+00    5.470971e-01   7.305069e-03
  3.579834e+00    5.408738e-01   7.277346e-03
  3.582045e+00    5.389117e-01   7.278216e-03
  3.584255e+00    5.423157e-01   7.315291e-03
  3.586465e+00    5.473068e-01   7.362958e-03
  3.588676e+00    5.612660e-01   7.470782e-03
  3.590886e+00    5.406282e-01   7.345928e-03
  3.593097e+00    5.337497e-01   7.313527e-03
  3.595307e+00    5.501754e-01   7.439284e-03
  3.597518e+00    5.421774e-01   7.399358e-03
  3.599728e+00    5.392770e-01   7.393661e-03
  3.601939e+00    5.428542e-01   7.432296e-03
  3.604149e+00    5.411449e-01   7.435104e-03
  3.606360e+00    5.464355e-01   7.485589e-03
  3.608570e+00    5.546449e-01   7.556055e-03
  3.610780e+00    5.612075e-01   7.611970e-03
  3.612991e+00    5.613926e-01   7.623464e-03
  3.615201e+00    5.588041e-01   7.615893e-03
  3.617412e+00    5.445448e-01   7.525455e-03
  3.619622e+00    5.281392e-01   7.417116e-03
  3.621833e+00    5.385392e-01   7.496525e-03
  3.624043e+00    5.669909e-01   7.701783e-03
  3.626254e+00    5.290198e-01   7.449140e-03
  3.628464e+00    5.328700e-01   7.487096e-03
  3.630675e+00    5.442491e-01   7.580899e-03
  3.632885e+00    5.333368e-01   7.518941e-03
  3.635095e+00    5.515919e-01   7.661174e-03
  3.637306e+00    5.353083e-01   7.561647e-03
  3.639516e+00    5.388193e-01   7.601003e-03
  3.641727e+00    5.382243e-01   7.611435e-03
  3.643937e+00    5.343049e-01   7.598274e-03
  3.646148e+00    5.225184e-01   7.528403e-03
  3.648358e+00    5.468379e-01   7.716656e-03
  3.650569e+00    5.558391e-01   7.795008e-03
  3.652779e+00    5.476874e-01   7.752595e-03
  3.654990e+00    5.496733e-01   7.781755e-03
  3.657200e+00    5.287039e-01   7.646722e-03
  3.659410e+00    5.331073e-01   7.693497e-03
  3.661621e+00    5.216713e-01   7.625488e-03
  3.663831e+00    5.411447e-01   7.781738e-03
  3.666042e+00    5.212954e-01   7.652728e-03
  3.668252e+00    5.647060e-01   7.980654e-03
  3.670463e+00    5.739467e-01   8.061559e-03
  3.672673e+00    5.659972e-01   8.021483e-03
  3.674884e+00    5.355370e-01   7.818108e-03
  3.677094e+00    5.419702e-01   7.880582e-03
  3.679305e+00    5.480334e-01   7.940382e-03
  3.681515e+00    5.222265e-01   7.766678e-03
  3.683726e+00    5.232111e-01   7.789673e-03
  3.685936e+00    5.491892e-01   7.996693e-03
  3.688146e+00    5.408724e-01   7.951939e-03
  3.690357e+00    5.344051e-01   7.920288e-03
  3.692567e+00    5.235110e-01   7.855187e-03
  3.694778e+00    5.421583e-01   8.010165e-03
  3.696988e+00    5.388846e-01   8.002117e-03
  3.699199e+00    5.360134e-01   7.997151e-03
  3.701409e+00    5.571120e-01   8.169951e-03
  3.703620e+00    5.344353e-01   8.018340e-03
  3.705830e+00    5.411456e-01   8.085229e-03
  3.708041e+00    5.198089e-01   7.940739e-03
  3.710251e+00    5.382345e-01   8.097191e-03
  3.712461e+00    5.491770e-01   8.196261e-03
  3.714672e+00    5.412270e-01   8.153759e-03
  3.716882e+00    5.271330e-01   8.063689e-03
  3.719093e+00    5.230152e-01   8.049331e-03
  3.721303e+00    5.031335e-01   7.911567e-03
  3.723514e+00    4.998654e-01   7.902723e-03
  3.725724e+00    5.100124e-01   7.999545e-03
  3.727935e+00    5.122232e-01   8.034252e-03
  3.730145e+00    5.174530e-01   8.092518e-03
  3.732356e+00    4.976793e-01   7.953579e-03
  3.734566e+00    4.842328e-01   7.862398e-03
  3.736776e+00    5.297009e-01   8.241234e-03
  3.738987e+00    5.169967e-01   8.159619e-03
  3.741197e+00    5.238796e-01   8.231950e-03
  3.743408e+00    5.251006e-01   8.259786e-03
  3.745618e+00    5.333465e-01   8.343075e-03
  3.747829e+00    5.268444e-01   8.310435e-03
  3.750039e+00    5.125593e-01   8.215385e-03
  3.752250e+00    5.050116e-01   8.173036e-03
  3.754460e+00    5.089833e-01   8.223591e-03
  3.756671e+00    5.317339e-01   8.424589e-03
  3.758881e+00    5.144973e-01   8.305728e-03
  3.761091e+00    5.126171e-01   8.309696e-03
  3.763302e+00    5.120636e-01   8.324370e-03
  3.765512e+00    5.109028e-01   8.334267e-03
  3.767723e+00    5.320135e-01   8.524493e-03
  3.769933e+00    5.440838e-01   8.640707e-03
  3.772144e+00    5.117868e-01   8.400060e-03
  3.774354e+00    5.095394e-01   8.401449e-03
  3.776565e+00    5.353270e-01   8.631881e-03
  3.778775e+00    5.229995e-01   8.552280e-03
  3.780986e+00    4.858135e-01   8.262536e-03
  3.783196e+00    5.227878e-01   8.591807e-03
  3.785407e+00    5.180146e-01   8.573227e-03
  3.787617e+00    5.120035e-01   8.544320e-03
  3.789827e+00    4.823228e-01   8.313037e-03
  3.792038e+00    4.907612e-01   8.406079e-03
  3.794248e+00    4.986564e-01   8.494510e-03
  3.796459e+00    5.050222e-01   8.569965e-03
  3.798669e+00    5.236470e-01   8.748470e-03
  3.800880e+00    5.112658e-01   8.666105e-03
  3.803090e+00    5.177971e-01   8.743406e-03
  3.805301e+00    5.417877e-01   8.966735e-03
  3.807511e+00    4.986440e-01   8.624289e-03
  3.809722e+00    5.131323e-01   8.771186e-03
  3.811932e+00    4.843560e-01   8.543608e-03
  3.814142e+00    5.048486e-01   8.745412e-03
  3.816353e+00    4.967403e-01   8.697699e-03
  3.818563e+00    4.835604e-01   8.604356e-03
  3.820774e+00    4.711269e-01   8.515441e-03
  3.822984e+00    4.908291e-01   8.714921e-03
  3.825195e+00    5.090219e-01   8.898975e-03
  3.827405e+00    5.234425e-01   9.048579e-03
  3.829616e+00    5.303457e-01   9.132938e-03
  3.831826e+00    5.336325e-01   9.186241e-03
  3.834037e+00    5.107682e-01   9.012158e-03
  3.836247e+00    4.681471e-01   8.651913e-03
  3.838457e+00    4.903010e-01   8.879074e-03
  3.840668e+00    5.014188e-01   9.004514e-03
  3.842878e+00    5.353369e-01   9.330587e-03
  3.845089e+00    5.199180e-01   9.221474e-03
  3.847299e+00    5.011951e-01   9.079843e-03
  3.849510e+00    4.967095e-01   9.064963e-03
  3.851720e+00    4.866621e-01   8.994122e-03
  3.853931e+00    5.092139e-01   9.219324e-03
  3.856141e+00    5.142055e-01   9.283884e-03
  3.858352e+00    5.041711e-01   9.212228e-03
  3.860562e+00    5.073609e-01   9.260909e-03
  3.862772e+00    5.046168e-01   9.255642e-03
  3.864983e+00    5.031253e-01   9.261807e-03
  3.867193e+00    4.698400e-01   8.969492e-03
  3.869404e+00    4.915942e-01   9.194535e-03
  3.871614e+00    5.037072e-01   9.327311e-03
  3.873825e+00    4.901258e-01   9.220988e-03
  3.876035e+00    5.114481e-01   9.440375e-03
  3.878246e+00    4.899128e-01   9.265191e-03
  3.880456e+00    5.087999e-01   9.471526e-03
  3.882667e+00    5.184346e-01   9.590981e-03
  3.884877e+00    4.815759e-01   9.273192e-03
  3.887087e+00    5.042161e-01   9.518879e-03
  3.889298e+00    5.271612e-01   9.764556e-03
  3.891508e+00    5.330799e-01   9.851047e-03
  3.893719e+00    4.962991e-01   9.536372e-03
  3.895929e+00    4.936646e-01   9.542460e-03
  3.898140e+00    5.125914e-01   9.756090e-03
  3.900350e+00    4.955171e-01   9.624506e-03
  3.902561e+00    5.007171e-01   9.707637e-03
  3.904771e+00    4.784902e-01   9.522108e-03
  3.906982e+00    5.126656e-01   9.890241e-03
  3.909192e+00    5.029266e-01   9.829832e-03
  3.911403e+00    4.825391e-01   9.662271e-03
  3.913613e+00    4.864843e-01   9.735911e-03
  3.915823e+00    4.928652e-01   9.834494e-03
  3.918034e+00    4.848659e-01   9.789491e-03
  3.920244e+00    4.858329e-01   9.834920e-03
  3.922455e+00    5.095980e-01   1.010940e-02
  3.924665e+00    5.066327e-01   1.011709e-02
  3.926876e+00    4.866756e-01   9.952947e-03
  3.929086e+00    4.961319e-01   1.008674e-02
  3.931297e+00    4.931981e-01   1.009200e-02
  3.933507e+00    4.955437e-01   1.014507e-02
  3.935718e+00    4.907737e-01   1.012501e-02
  3.937928e+00    5.029826e-01   1.028011e-02
  3.940138e+00    4.675748e-01   9.940308e-03
  3.942349e+00    4.811178e-01   1.011302e-02
  3.944559e+00    4.617152e-01   9.936128e-03
  3.946770e+00    4.936585e-01   1.030454e-02
  3.948980e+00    4.897491e-01   1.029443e-02
  3.951191e+00    4.813302e-01   1.023624e-02
  3.953401e+00    5.255802e-01   1.072903e-02
  3.955612e+00    4.808924e-01   1.029432e-02
  3.957822e+00    4.993693e-01   1.052225e-02
  3.960033e+00    5.229210e-01   1.080132e-02
  3.962243e+00    5.132882e-01   1.073529e-02
  3.964453e+00    4.655920e-01   1.025672e-02
  3.966664e+00    5.239129e-01   1.091480e-02
  3.968874e+00    4.882226e-01   1.056498e-02
  3.971085e+00    4.973466e-01   1.068543e-02
  3.973295e+00    4.848086e-01   1.057130e-02
  3.975506e+00    4.965757e-01   1.072066e-02
  3.977716e+00    5.385256e-01   1.118752e-02
  3.979927e+00    5.027979e-01   1.083266e-02
  3.982137e+00    4.552060e-01   1.032872e-02
  3.984348e+00    4.997772e-01   1.084542e-02
  3.986558e+00    4.890965e-01   1.075141e-02
  3.988768e+00    4.740877e-01   1.060788e-02
  3.990979e+00    4.682274e-01   1.056448e-02
  3.993189e+00    4.874693e-01   1.080244e-02
  3.995400e+00    4.875301e-01   1.082679e-02
  3.997610e+00    5.075694e-01   1.107748e-02
  3.999821e+00    4.796280e-01   1.080567e-02
  4.002031e+00    4.798073e-01   1.084584e-02
  4.004242e+00    4.848473e-01   1.094114e-02
  4.006452e+00    4.659883e-01   1.076484e-02
  4.008663e+00    5.036210e-01   1.123184e-02
  4.010873e+00    4.854438e-01   1.106733e-02
  4.013084e+00    4.888691e-01   1.114740e-02
  4.015294e+00    4.688032e-01   1.095663e-02
  4.017504e+00    4.765587e-01   1.108827e-02
  4.019715e+00    5.010152e-01   1.141251e-02
  4.021925e+00    4.688448e-01   1.108247e-02
  4.024136e+00    4.477339e-01   1.087190e-02
  4.026346e+00    4.578884e-01   1.103753e-02
  4.028557e+00    4.504305e-01   1.099005e-02
  4.030767e+00    4.738814e-01   1.131754e-02
  4.032978e+00    4.696819e-01   1.131307e-02
  4.035188e+00    5.017062e-01   1.173929e-02
  4.037399e+00    4.860096e-01   1.160201e-02
  4.039609e+00    5.092056e-01   1.192455e-02
  4.041819e+00    5.056537e-01   1.193283e-02
  4.044030e+00    4.667541e-01   1.151370e-02
  4.046240e+00    4.753851e-01   1.166903e-02
  4.048451e+00    4.973253e-01   1.198700e-02
  4.050661e+00    5.073124e-01   1.215950e-02
  4.052872e+00    4.960099e-01   1.207672e-02
  4.055082e+00    5.213578e-01   1.243715e-02
  4.057293e+00    5.091388e-01   1.234563e-02
  4.059503e+00    5.125228e-01   1.244304e-02
  4.061714e+00    4.857842e-01   1.217080e-02
  4.063924e+00    4.545686e-01   1.182839e-02
  4.066134e+00    4.618940e-01   1.197934e-02
  4.068345e+00    4.844653e-01   1.232777e-02
  4.070555e+00    5.028352e-01   1.261986e-02
  4.072766e+00    4.974182e-01   1.261351e-02
  4.074976e+00    4.607701e-01   1.220055e-02
  4.077187e+00    4.468890e-01   1.207509e-02
  4.079397e+00    4.519309e-01   1.220496e-02
  4.081608e+00    4.838442e-01   1.269432e-02
  4.083818e+00    4.811621e-01   1.272472e-02
  4.086029e+00    5.219768e-01   1.332345e-02
  4.088239e+00    4.819708e-01   1.287174e-02
  4.090449e+00    4.653582e-01   1.271646e-02
  4.092660e+00    4.608804e-01   1.272470e-02
  4.094870e+00    4.775673e-01   1.302506e-02
  4.097081e+00    4.821050e-01   1.315854e-02
  4.099291e+00    4.777018e-01   1.315247e-02
  4.101502e+00    4.855045e-01   1.330901e-02
  4.103712e+00    4.563313e-01   1.295094e-02
  4.105923e+00    5.122137e-01   1.377408e-02
  4.108133e+00    4.950266e-01   1.359343e-02
  4.110344e+00    4.896477e-01   1.357094e-02
  4.112554e+00    4.912125e-01   1.364625e-02
  4.114764e+00    4.716291e-01   1.342541e-02
  4.116975e+00    4.571409e-01   1.326966e-02
  4.119185e+00    4.705059e-01   1.351663e-02
  4.121396e+00    4.918687e-01   1.387741e-02
  4.123606e+00    5.146666e-01   1.425349e-02
  4.125817e+00    4.889748e-01   1.395152e-02
  4.128027e+00    5.088573e-01   1.429213e-02
  4.130238e+00    5.144137e-01   1.443172e-02
  4.132448e+00    5.138819e-01   1.448677e-02
  4.134659e+00    4.861812e-01   1.415148e-02
  4.136869e+00    4.879283e-01   1.424022e-02
  4.139080e+00    4.712301e-01   1.405748e-02
  4.141290e+00    4.934458e-01   1.444860e-02
  4.143500e+00    4.988865e-01   1.459517e-02
  4.145711e+00    5.093607e-01   1.481643e-02
  4.147921e+00    4.591747e-01   1.413231e-02
  4.150132e+00    4.746081e-01   1.443624e-02
  4.152342e+00    5.366513e-01   1.542530e-02
  4.154553e+00    5.091270e-01   1.509602e-02
  4.156763e+00    4.703805e-01   1.458186e-02
  4.158974e+00    5.092875e-01   1.524925e-02
  4.161184e+00    5.026569e-01   1.522494e-02
  4.163395e+00    4.902857e-01   1.511314e-02
  4.165605e+00    4.912153e-01   1.520614e-02
  4.167815e+00    4.710810e-01   1.496886e-02
  4.170026e+00    4.750999e-01   1.511170e-02
  4.172236e+00    5.009308e-01   1.560112e-02
  4.174447e+00    4.699889e-01   1.519385e-02
  4.176657e+00    4.876851e-01   1.556166e-02
  4.178868e+00    4.542583e-01   1.510417e-02
  4.181078e+00    4.521766e-01   1.515406e-02
  4.183289e+00    4.754165e-01   1.562785e-02
  4.185499e+00    4.474743e-01   1.525116e-02
  4.187710e+00    4.394793e-01   1.520253e-02
  4.189920e+00    4.594105e-01   1.563724e-02
  4.192130e+00    4.407871e-01   1.541033e-02
  4.194341e+00    5.015810e-01   1.653990e-02
  4.196551e+00    4.730620e-01   1.616433e-02
  4.198762e+00    5.110230e-01   1.690715e-02
  4.200972e+00    5.351198e-01   1.741307e-02
  4.203183e+00    4.766364e-01   1.654248e-02
  4.205393e+00    5.040227e-01   1.712414e-02
  4.207604e+00    5.340593e-01   1.774711e-02
  4.209814e+00    5.244291e-01   1.770736e-02
  4.212025e+00    5.241756e-01   1.782848e-02
  4.214235e+00    4.875113e-01   1.731547e-02
  4.216445e+00    4.950893e-01   1.757567e-02
  4.218656e+00    4.698097e-01   1.724941e-02
  4.220866e+00    4.980915e-01   1.789247e-02
  4.223077e+00    4.887300e-01   1.785994e-02
  4.225287e+00    4.372385e-01   1.702582e-02
  4.227498e+00    4.800406e-01   1.797971e-02
  4.229708e+00    4.737613e-01   1.800656e-02
  4.231919e+00    4.724846e-01   1.813143e-02
  4.234129e+00    4.812385e-01   1.845196e-02
  4.236340e+00    4.920855e-01   1.881859e-02
  4.238550e+00    4.803186e-01   1.875576e-02
  4.240761e+00    5.411609e-01   2.008467e-02
  4.242971e+00    5.379255e-01   2.020791e-02
  4.245181e+00    4.748395e-01   1.916434e-02
  4.247392e+00    4.824999e-01   1.949867e-02
  4.249602e+00    5.715871e-01   2.143367e-02
  4.251813e+00    5.142658e-01   2.053072e-02
  4.254023e+00    4.877988e-01   2.019727e-02
  4.256234e+00    5.440055e-01   2.155673e-02
  4.258444e+00    4.499064e-01   1.980910e-02
  4.260655e+00    5.676990e-01   2.249612e-02
  4.262865e+00    4.659904e-01   2.061334e-02
  4.265076e+00    4.483970e-01   2.044972e-02
  4.267286e+00    5.172603e-01   2.222460e-02
  4.269496e+00    5.198327e-01   2.255186e-02
  4.271707e+00    4.869785e-01   2.209700e-02
  4.273917e+00    4.846420e-01   2.232936e-02
  4.276128e+00    5.369503e-01   2.381576e-02
  4.278338e+00    4.580410e-01   2.228978e-02
  4.280549e+00    4.166611e-01   2.156363e-02
  4.282759e+00    4.907612e-01   2.373937e-02
  4.284970e+00    4.899132e-01   2.407004e-02
  4.287180e+00    4.771121e-01   2.403746e-02
  4.289391e+00    5.237519e-01   2.537489e-02
  4.291601e+00    4.739197e-01   2.432996e-02
  4.293811e+00    4.206096e-01   2.310047e-02
  4.296022e+00    5.103973e-01   2.565054e-02
  4.298232e+00    5.261110e-01   2.626127e-02
  4.300443e+00    4.895410e-01   2.554064e-02
  4.302653e+00    5.295155e-01   2.679344e-02
  4.304864e+00    5.468175e-01   2.746320e-02
  4.307074e+00    4.420745e-01   2.491579e-02
  4.309285e+00    4.731462e-01   2.600954e-02
  4.311495e+00    4.203601e-01   2.474540e-02
  4.313706e+00    5.893964e-01   2.957686e-02
  4.315916e+00    4.704036e-01   2.668312e-02
  4.318126e+00    4.129388e-01   2.524769e-02
  4.320337e+00    4.333734e-01   2.612579e-02
  4.322547e+00    5.043007e-01   2.848262e-02
  4.324758e+00    4.424440e-01   2.695614e-02
  4.326968e+00    4.812942e-01   2.843020e-02
  4.329179e+00    4.610311e-01   2.813254e-02
  4.331389e+00    5.058449e-01   2.980734e-02
  4.333600e+00    4.986645e-01   2.994920e-02
  4.335810e+00    4.886357e-01   2.999923e-02
  4.338021e+00    4.219079e-01   2.823242e-02
  4.340231e+00    4.431987e-01   2.929878e-02
  4.342442e+00    5.785023e-01   3.392252e-02
  4.344652e+00    4.649992e-01   3.082685e-02
  4.346862e+00    4.095120e-01   2.933411e-02
  4.349073e+00    4.122798e-01   2.986156e-02
  4.351283e+00    4.904619e-01   3.305533e-02
  4.353494e+00    5.139386e-01   3.436177e-02
  4.355704e+00    3.838000e-01   3.017166e-02
  4.357915e+00    5.308861e-01   3.607530e-02
  4.360125e+00    4.504486e-01   3.379973e-02
  4.362336e+00    3.748485e-01   3.139309e-02
  4.364546e+00    3.863216e-01   3.244949e-02
  4.366757e+00    4.223195e-01   3.460467e-02
  4.368967e+00    4.992636e-01   3.837349e-02
  4.371177e+00    4.913515e-01   3.887878e-02
  4.373388e+00    4.754379e-01   3.909788e-02
  4.375598e+00    6.052146e-01   4.511978e-02
  4.377809e+00    4.690405e-01   4.072788e-02
  4.380019e+00    5.510230e-01   4.525111e-02
  4.382230e+00    3.422337e-01   3.666036e-02
  4.384440e+00    2.912568e-01   3.478966e-02
  4.386651e+00    6.006198e-01   5.150125e-02
  4.388861e+00    5.206435e-01   4.955981e-02
  4.391072e+00    5.380938e-01   5.215248e-02
  4.393282e+00    4.534517e-01   4.972759e-02
  4.395492e+00    5.702663e-01   5.808248e-02
  4.397703e+00    3.637660e-01   4.850981e-02
  4.399913e+00    4.853968e-01   5.887284e-02
  4.402124e+00    2.739256e-01   4.672623e-02
  4.404334e+00    4.521945e-01   6.382941e-02
  4.406545e+00    2.973660e-01   5.561342e-02
  4.408755e+00    2.616736e-01   5.656753e-02
  4.410966e+00    2.819427e-01   6.500888e-02
  4.413176e+00    1.113068e-01   4.622393e-02
  4.415387e+00   -6.015599e-01            nan
  4.417597e+00   -2.029266e+00            nan
  4.419807e+00   -3.766224e-01            nan
