# == pyFAI calibration ==
# Distance Sample to Detector: 0.216 m
# PONI: 1.166e-01, 1.308e-01 m
# Rotations: 0.000000 0.000000 0.000000 rad
# 
# == Fit2d calibration ==
# Distance Sample-beamCenter: 216.000 mm
# Center: x=1744.293, y=1555.000 pix
# Tilt: 0.000 deg  TiltPlanRot: 0.000 deg
# 
# Detector Eiger 9M	 PixelSize= 7.500e-05, 7.500e-05 m
#    Detector has a mask: True 
#    Detector has a dark current: False 
#    detector has a flat field: False 
# 
# Wavelength: 9.8e-11 m
# Mask applied: from detector
# Dark current applied: False
# Flat field applied: False
# Polarization factor: None
# Normalization factor: 1.0
# 
# Headers of the input frame:
# {
# "_array_data.header_convention": "SLS_1.0",
# "_array_data.header_contents": "# Detector: Dectris Eiger 9M, S/N E-18-0102\r\n# Pixel_size 75e-6 m x 75e-6 m\r\n# Silicon sensor, thickness 0.000450 m\r\n# Exposure_time 0.024997 s\r\n# Exposure_period 0.025000 s\r\n# Count_cutoff 62318 counts\r\n# Wavelength 0.980106 A\r\n# Detector_distance 0.215992 m\r\n# Beam_xy (1555, 1744) pixels\r\n# Start_angle 0.000000 deg.\r\n# Angle_increment 0.000000 deg.",
# "Content-Type": "application/octet-stream;",
# "conversions": "x-CBF_BYTE_OFFSET",
# "Content-Transfer-Encoding": "BINARY",
# "X-Binary-Size": "10166594",
# "X-Binary-ID": "1",
# "X-Binary-Element-Type": "signed 32-bit integer",
# "X-Binary-Element-Byte-Order": "LITTLE_ENDIAN",
# "Content-MD5": "WF0e5Trts9zxbcT5QL9ocA==",
# "X-Binary-Number-of-Elements": "10166590",
# "X-Binary-Size-Fastest-Dimension": "3110",
# "X-Binary-Size-Second-Dimension": "3269",
# "X-Binary-Size-Padding": "4095"
# }
# --> H:/Proxima2a_2019-04-05/RAW_DATA/C5_gel17_position5/C5_mesh_1_data.cbf/C5_mesh_1_data.cbf000157.dat
#        q_A^-1              I           sigma 
  1.105228e-03    1.603023e+00   6.851045e-01
  3.315685e-03    1.162959e+00   3.547543e-01
  5.526141e-03    1.499361e+00   3.114764e-01
  7.736597e-03    1.296664e+00   2.446999e-01
  9.947054e-03    1.357492e+00   2.207218e-01
  1.215751e-02    1.586313e+00   2.157561e-01
  1.436797e-02    1.411645e+00   1.872141e-01
  1.657842e-02    1.519801e+00   1.808164e-01
  1.878888e-02    1.551829e+00   1.716269e-01
  2.099934e-02    1.591920e+00   1.644609e-01
  2.320979e-02    1.502684e+00   1.519731e-01
  2.542025e-02    1.457966e+00   1.430484e-01
  2.763070e-02    1.455816e+00   1.371019e-01
  2.984116e-02    1.424349e+00   1.304923e-01
  3.205162e-02    1.463939e+00   1.276579e-01
  3.426207e-02    1.397701e+00   1.206374e-01
  3.647253e-02    1.227358e+00   1.095659e-01
  3.868299e-02    1.396543e+00   1.134940e-01
  4.089344e-02    1.447371e+00   1.123752e-01
  4.310390e-02    1.377997e+00   1.067943e-01
  4.531436e-02    1.442670e+00   1.065735e-01
  4.752481e-02    1.461034e+00   1.047247e-01
  4.973527e-02    1.522322e+00   1.044973e-01
  5.194572e-02    1.541477e+00   1.028896e-01
  5.415618e-02    1.515868e+00   9.992392e-02
  5.636664e-02    1.477580e+00   9.670317e-02
  5.857709e-02    1.575570e+00   9.795655e-02
  6.078755e-02    1.409139e+00   9.093568e-02
  6.299801e-02    1.453267e+00   9.071291e-02
  6.520846e-02    1.484341e+00   9.011094e-02
  6.741892e-02    1.530403e+00   8.998140e-02
  6.962938e-02    1.402091e+00   8.475289e-02
  7.183983e-02    1.415383e+00   8.383184e-02
  7.405029e-02    1.576309e+00   8.713686e-02
  7.626074e-02    1.548742e+00   8.510987e-02
  7.847120e-02    1.527962e+00   8.333556e-02
  8.068166e-02    1.391987e+00   7.844330e-02
  8.289211e-02    1.430256e+00   7.844649e-02
  8.510257e-02    1.567978e+00   8.106238e-02
  8.731303e-02    1.515016e+00   7.866353e-02
  8.952348e-02    1.439336e+00   7.572316e-02
  9.173394e-02    1.562831e+00   7.794527e-02
  9.394439e-02    1.594880e+00   7.780606e-02
  9.615485e-02    1.493056e+00   7.440940e-02
  9.836531e-02    1.589384e+00   7.590263e-02
  1.005758e-01    1.571747e+00   7.464673e-02
  1.027862e-01    1.511697e+00   7.241362e-02
  1.049967e-01    1.472340e+00   7.070725e-02
  1.072071e-01    1.621605e+00   7.343502e-02
  1.094176e-01    1.610090e+00   7.242984e-02
  1.116280e-01    1.478779e+00   6.872129e-02
  1.138385e-01    1.547884e+00   6.962137e-02
  1.160490e-01    1.559149e+00   6.920473e-02
  1.182594e-01    1.563414e+00   6.864712e-02
  1.204699e-01    1.562030e+00   6.798379e-02
  1.226803e-01    1.553476e+00   6.718104e-02
  1.248908e-01    1.569078e+00   6.691661e-02
  1.271012e-01    1.506223e+00   6.498871e-02
  1.293117e-01    1.559162e+00   6.555251e-02
  1.315222e-01    1.641692e+00   6.669588e-02
  1.337326e-01    1.660427e+00   6.651743e-02
  1.359431e-01    1.701054e+00   6.736570e-02
  1.381535e-01    1.661045e+00   6.746233e-02
  1.403640e-01    1.648713e+00   6.750163e-02
  1.425744e-01    1.564282e+00   6.585558e-02
  1.447849e-01    1.557539e+00   6.572857e-02
  1.469953e-01    1.665214e+00   6.792005e-02
  1.492058e-01    1.494997e+00   6.428032e-02
  1.514163e-01    1.514493e+00   6.459067e-02
  1.536267e-01    1.630820e+00   6.689447e-02
  1.558372e-01    1.709469e+00   6.833736e-02
  1.580476e-01    1.615792e+00   6.627736e-02
  1.602581e-01    1.590910e+00   6.559802e-02
  1.624685e-01    1.648733e+00   6.659665e-02
  1.646790e-01    1.669189e+00   6.681611e-02
  1.668895e-01    1.709054e+00   6.741402e-02
  1.690999e-01    1.664887e+00   6.633744e-02
  1.713104e-01    1.741724e+00   6.764037e-02
  1.735208e-01    1.840668e+00   6.931887e-02
  1.757313e-01    1.798520e+00   6.830592e-02
  1.779417e-01    1.829923e+00   6.867493e-02
  1.801522e-01    1.885755e+00   6.949268e-02
  1.823626e-01    1.834624e+00   6.831590e-02
  1.845731e-01    1.858571e+00   6.853756e-02
  1.867836e-01    2.010316e+00   7.104002e-02
  1.889940e-01    2.011012e+00   7.082018e-02
  1.912045e-01    1.916727e+00   6.890916e-02
  1.934149e-01    2.019005e+00   7.048708e-02
  1.956254e-01    2.034667e+00   7.052658e-02
  1.978358e-01    2.030452e+00   7.021205e-02
  2.000463e-01    2.015421e+00   6.971988e-02
  2.022568e-01    2.051768e+00   7.011485e-02
  2.044672e-01    1.973898e+00   6.853589e-02
  2.066777e-01    1.964644e+00   6.814808e-02
  2.088881e-01    2.031348e+00   6.906860e-02
  2.110986e-01    1.971677e+00   6.781327e-02
  2.133090e-01    1.984934e+00   6.781964e-02
  2.155195e-01    2.013268e+00   6.807543e-02
  2.177300e-01    1.943065e+00   6.635258e-02
  2.199404e-01    1.941130e+00   6.457204e-02
  2.221509e-01    1.951479e+00   6.368083e-02
  2.243613e-01    1.945918e+00   6.278386e-02
  2.265718e-01    1.990937e+00   6.280600e-02
  2.287822e-01    2.085242e+00   6.364005e-02
  2.309927e-01    2.074378e+00   6.289584e-02
  2.332031e-01    2.161725e+00   6.365683e-02
  2.354136e-01    2.151771e+00   6.299537e-02
  2.376241e-01    2.259513e+00   6.405218e-02
  2.398345e-01    2.237568e+00   6.326868e-02
  2.420450e-01    2.185313e+00   6.207865e-02
  2.442554e-01    2.229456e+00   6.227056e-02
  2.464659e-01    2.111952e+00   6.020043e-02
  2.486763e-01    2.133932e+00   6.011513e-02
  2.508868e-01    2.117640e+00   5.950744e-02
  2.530973e-01    2.145918e+00   5.953204e-02
  2.553077e-01    2.141695e+00   5.911268e-02
  2.575182e-01    2.193958e+00   5.947562e-02
  2.597286e-01    2.167268e+00   5.876910e-02
  2.619391e-01    2.106863e+00   5.761074e-02
  2.641495e-01    2.114163e+00   5.739103e-02
  2.663600e-01    2.116343e+00   5.710487e-02
  2.685704e-01    2.078679e+00   5.628765e-02
  2.707809e-01    2.079536e+00   5.600043e-02
  2.729914e-01    2.114883e+00   5.618005e-02
  2.752018e-01    2.066645e+00   5.524660e-02
  2.774123e-01    2.064321e+00   5.493348e-02
  2.796227e-01    2.013273e+00   5.398165e-02
  2.818332e-01    2.004046e+00   5.358914e-02
  2.840436e-01    2.034050e+00   5.372711e-02
  2.862541e-01    2.020674e+00   5.329276e-02
  2.884646e-01    1.987382e+00   5.260107e-02
  2.906750e-01    2.003258e+00   5.256033e-02
  2.928855e-01    2.059073e+00   5.304065e-02
  2.950959e-01    2.046231e+00   5.263208e-02
  2.973064e-01    2.057402e+00   5.253837e-02
  2.995168e-01    1.972727e+00   5.121288e-02
  3.017273e-01    1.983402e+00   5.112484e-02
  3.039377e-01    2.034429e+00   5.155158e-02
  3.061482e-01    2.011973e+00   5.104452e-02
  3.083587e-01    2.003048e+00   5.071073e-02
  3.105691e-01    1.892834e+00   4.908530e-02
  3.127796e-01    1.874892e+00   4.864670e-02
  3.149900e-01    1.977815e+00   4.975593e-02
  3.172005e-01    1.925571e+00   4.889365e-02
  3.194109e-01    1.952261e+00   4.902809e-02
  3.216214e-01    1.911347e+00   4.831369e-02
  3.238319e-01    1.891336e+00   4.786970e-02
  3.260423e-01    1.862964e+00   4.732005e-02
  3.282528e-01    1.863630e+00   4.714009e-02
  3.304632e-01    1.934088e+00   4.783690e-02
  3.326737e-01    1.909195e+00   4.734262e-02
  3.348841e-01    1.896853e+00   4.700636e-02
  3.370946e-01    1.842615e+00   4.615513e-02
  3.393050e-01    1.760255e+00   4.494094e-02
  3.415155e-01    1.796705e+00   4.523313e-02
  3.437260e-01    1.849011e+00   4.571675e-02
  3.459364e-01    1.900028e+00   4.617172e-02
  3.481469e-01    1.882024e+00   4.578473e-02
  3.503573e-01    1.811384e+00   4.475364e-02
  3.525678e-01    1.826444e+00   4.477914e-02
  3.547782e-01    1.810115e+00   4.441740e-02
  3.569887e-01    1.844265e+00   4.467558e-02
  3.591992e-01    1.823576e+00   4.426711e-02
  3.614096e-01    1.809876e+00   4.394759e-02
  3.636201e-01    1.839799e+00   4.415370e-02
  3.658305e-01    1.851484e+00   4.414259e-02
  3.680410e-01    1.857206e+00   4.405869e-02
  3.702514e-01    1.831402e+00   4.360443e-02
  3.724619e-01    1.828761e+00   4.342459e-02
  3.746724e-01    1.826819e+00   4.325672e-02
  3.768828e-01    1.846813e+00   4.334643e-02
  3.790933e-01    1.800323e+00   4.265793e-02
  3.813037e-01    1.800181e+00   4.251668e-02
  3.835142e-01    1.760843e+00   4.191146e-02
  3.857246e-01    1.848262e+00   4.280026e-02
  3.879351e-01    1.821086e+00   4.234694e-02
  3.901455e-01    1.803686e+00   4.200998e-02
  3.923560e-01    1.771919e+00   4.150602e-02
  3.945665e-01    1.835485e+00   4.211001e-02
  3.967769e-01    1.867445e+00   4.234201e-02
  3.989874e-01    1.815287e+00   4.161620e-02
  4.011978e-01    1.824667e+00   4.159523e-02
  4.034083e-01    1.825001e+00   4.147135e-02
  4.056187e-01    1.817972e+00   4.126392e-02
  4.078292e-01    1.779884e+00   4.070580e-02
  4.100397e-01    1.774385e+00   4.051878e-02
  4.122501e-01    1.789009e+00   4.056368e-02
  4.144606e-01    1.851043e+00   4.113860e-02
  4.166710e-01    1.843310e+00   4.093052e-02
  4.188815e-01    1.866297e+00   4.106329e-02
  4.210919e-01    1.879421e+00   4.108665e-02
  4.233024e-01    1.842794e+00   4.056467e-02
  4.255128e-01    1.861998e+00   4.065760e-02
  4.277233e-01    1.827698e+00   4.016566e-02
  4.299338e-01    1.836956e+00   4.015137e-02
  4.321442e-01    1.839196e+00   4.006090e-02
  4.343547e-01    1.828168e+00   3.982766e-02
  4.365651e-01    1.838250e+00   3.982388e-02
  4.387756e-01    1.809502e+00   3.940061e-02
  4.409860e-01    1.806968e+00   3.926393e-02
  4.431965e-01    1.770395e+00   3.875708e-02
  4.454070e-01    1.807103e+00   3.904788e-02
  4.476174e-01    1.780688e+00   3.865501e-02
  4.498279e-01    1.789402e+00   3.864406e-02
  4.520383e-01    1.748880e+00   3.809914e-02
  4.542488e-01    1.747339e+00   3.797968e-02
  4.564592e-01    1.757903e+00   3.799210e-02
  4.586697e-01    1.737388e+00   3.766954e-02
  4.608801e-01    1.709546e+00   3.726637e-02
  4.630906e-01    1.768721e+00   3.780551e-02
  4.653011e-01    1.756544e+00   3.757608e-02
  4.675115e-01    1.749704e+00   3.740406e-02
  4.697220e-01    1.720866e+00   3.699743e-02
  4.719324e-01    1.728767e+00   3.698634e-02
  4.741429e-01    1.741498e+00   3.702662e-02
  4.763533e-01    1.741734e+00   3.693421e-02
  4.785638e-01    1.706695e+00   3.646637e-02
  4.807743e-01    1.724659e+00   3.656454e-02
  4.829847e-01    1.765086e+00   3.689717e-02
  4.851952e-01    1.730508e+00   3.644154e-02
  4.874056e-01    1.701187e+00   3.604038e-02
  4.896161e-01    1.730318e+00   3.625750e-02
  4.918265e-01    1.716052e+00   3.601807e-02
  4.940370e-01    1.676604e+00   3.551377e-02
  4.962475e-01    1.681891e+00   3.548189e-02
  4.984579e-01    1.715836e+00   3.574984e-02
  5.006684e-01    1.671213e+00   3.519588e-02
  5.028788e-01    1.748690e+00   3.591523e-02
  5.050893e-01    1.707369e+00   3.540206e-02
  5.072997e-01    1.687681e+00   3.511234e-02
  5.095102e-01    1.698318e+00   3.513845e-02
  5.117206e-01    1.748039e+00   3.556434e-02
  5.139311e-01    1.758389e+00   3.558507e-02
  5.161416e-01    1.740448e+00   3.531941e-02
  5.183520e-01    1.666333e+00   3.447709e-02
  5.205625e-01    1.642126e+00   3.414554e-02
  5.227729e-01    1.665678e+00   3.430934e-02
  5.249834e-01    1.699178e+00   3.457217e-02
  5.271938e-01    1.743208e+00   3.493553e-02
  5.294043e-01    1.763436e+00   3.505657e-02
  5.316148e-01    1.744805e+00   3.479100e-02
  5.338252e-01    1.765840e+00   3.492011e-02
  5.360357e-01    1.743322e+00   3.461777e-02
  5.382461e-01    1.761293e+00   3.471706e-02
  5.404566e-01    1.767177e+00   3.469588e-02
  5.426670e-01    1.752854e+00   3.447712e-02
  5.448775e-01    1.774413e+00   3.461101e-02
  5.470879e-01    1.781497e+00   3.460268e-02
  5.492984e-01    1.816200e+00   3.486039e-02
  5.515089e-01    1.774846e+00   3.438480e-02
  5.537193e-01    1.787570e+00   3.443180e-02
  5.559298e-01    1.813150e+00   3.460125e-02
  5.581402e-01    1.782045e+00   3.422820e-02
  5.603507e-01    1.748515e+00   3.383087e-02
  5.625611e-01    1.799132e+00   3.424258e-02
  5.647716e-01    1.788629e+00   3.406835e-02
  5.669821e-01    1.832382e+00   3.440818e-02
  5.691925e-01    1.787524e+00   3.391148e-02
  5.714030e-01    1.710351e+00   3.310063e-02
  5.736134e-01    1.718375e+00   3.310761e-02
  5.758239e-01    1.746959e+00   3.331059e-02
  5.780343e-01    1.749271e+00   3.326212e-02
  5.802448e-01    1.724820e+00   3.295968e-02
  5.824552e-01    1.694314e+00   3.259839e-02
  5.846657e-01    1.703936e+00   3.262266e-02
  5.868762e-01    1.695309e+00   3.247224e-02
  5.890866e-01    1.671007e+00   3.217176e-02
  5.912971e-01    1.679514e+00   3.218678e-02
  5.935075e-01    1.652704e+00   3.186286e-02
  5.957180e-01    1.637593e+00   3.165177e-02
  5.979284e-01    1.674397e+00   3.194014e-02
  6.001389e-01    1.652298e+00   3.166407e-02
  6.023494e-01    1.657526e+00   3.164972e-02
  6.045598e-01    1.681879e+00   3.181646e-02
  6.067703e-01    1.695107e+00   3.187712e-02
  6.089807e-01    1.704165e+00   3.189791e-02
  6.111912e-01    1.670030e+00   3.151380e-02
  6.134016e-01    1.650363e+00   3.126517e-02
  6.156121e-01    1.674463e+00   3.143004e-02
  6.178226e-01    1.715315e+00   3.174813e-02
  6.200330e-01    1.720484e+00   3.173324e-02
  6.222435e-01    1.701687e+00   3.149687e-02
  6.244539e-01    1.716963e+00   3.157599e-02
  6.266644e-01    1.722296e+00   3.156330e-02
  6.288748e-01    1.724383e+00   3.152095e-02
  6.310853e-01    1.734462e+00   3.155154e-02
  6.332957e-01    1.728513e+00   3.143661e-02
  6.355062e-01    1.690396e+00   3.102764e-02
  6.377167e-01    1.703774e+00   3.109041e-02
  6.399271e-01    1.733346e+00   3.129897e-02
  6.421376e-01    1.731452e+00   3.122217e-02
  6.443480e-01    1.726244e+00   3.111586e-02
  6.465585e-01    1.719341e+00   3.099477e-02
  6.487689e-01    1.718201e+00   3.092597e-02
  6.509794e-01    1.717837e+00   3.086438e-02
  6.531899e-01    1.680660e+00   3.047117e-02
  6.554003e-01    1.662422e+00   3.024840e-02
  6.576108e-01    1.673033e+00   3.028829e-02
  6.598212e-01    1.623710e+00   2.978305e-02
  6.620317e-01    1.605228e+00   2.955816e-02
  6.642421e-01    1.602716e+00   2.948037e-02
  6.664526e-01    1.647419e+00   2.983362e-02
  6.686630e-01    1.664524e+00   2.993266e-02
  6.708735e-01    1.677213e+00   2.999141e-02
  6.730840e-01    1.644736e+00   2.964547e-02
  6.752944e-01    1.655216e+00   2.968569e-02
  6.775049e-01    1.628811e+00   2.939450e-02
  6.797153e-01    1.591933e+00   2.900719e-02
  6.819258e-01    1.634777e+00   2.934193e-02
  6.841362e-01    1.611305e+00   2.907814e-02
  6.863467e-01    1.615305e+00   2.906206e-02
  6.885572e-01    1.642185e+00   2.925037e-02
  6.907676e-01    1.602584e+00   2.884376e-02
  6.929781e-01    1.594709e+00   2.872166e-02
  6.951885e-01    1.586607e+00   2.859787e-02
  6.973990e-01    1.580405e+00   2.849144e-02
  6.996094e-01    1.626416e+00   2.885237e-02
  7.018199e-01    1.647115e+00   2.898441e-02
  7.040303e-01    1.670628e+00   2.913930e-02
  7.062408e-01    1.634309e+00   2.877034e-02
  7.084513e-01    1.612586e+00   2.852878e-02
  7.106617e-01    1.597104e+00   2.834217e-02
  7.128722e-01    1.550979e+00   2.788159e-02
  7.150826e-01    1.568561e+00   2.799082e-02
  7.172931e-01    1.616119e+00   2.836302e-02
  7.195035e-01    1.569699e+00   2.790466e-02
  7.217140e-01    1.597532e+00   2.820078e-02
  7.239245e-01    1.613104e+00   2.856737e-02
  7.261349e-01    1.644638e+00   2.895625e-02
  7.283454e-01    1.648095e+00   2.906076e-02
  7.305558e-01    1.587262e+00   2.857358e-02
  7.327663e-01    1.604616e+00   2.877226e-02
  7.349767e-01    1.587396e+00   2.863389e-02
  7.371872e-01    1.593195e+00   2.867490e-02
  7.393976e-01    1.556241e+00   2.832622e-02
  7.416081e-01    1.585002e+00   2.857053e-02
  7.438186e-01    1.622561e+00   2.876057e-02
  7.460290e-01    1.623699e+00   2.847188e-02
  7.482395e-01    1.574961e+00   2.787011e-02
  7.504499e-01    1.559147e+00   2.759424e-02
  7.526604e-01    1.562044e+00   2.750378e-02
  7.548708e-01    1.571947e+00   2.750148e-02
  7.570813e-01    1.579260e+00   2.751434e-02
  7.592918e-01    1.571287e+00   2.740964e-02
  7.615022e-01    1.591706e+00   2.755319e-02
  7.637127e-01    1.586819e+00   2.747795e-02
  7.659231e-01    1.600660e+00   2.756527e-02
  7.681336e-01    1.560624e+00   2.718690e-02
  7.703440e-01    1.558869e+00   2.714053e-02
  7.725545e-01    1.592483e+00   2.740051e-02
  7.747650e-01    1.714282e+00   2.838920e-02
  7.769754e-01    1.661519e+00   2.789482e-02
  7.791859e-01    1.610109e+00   2.740577e-02
  7.813963e-01    1.592734e+00   2.720469e-02
  7.836068e-01    1.573926e+00   2.699174e-02
  7.858172e-01    1.643426e+00   2.752968e-02
  7.880277e-01    1.698531e+00   2.793416e-02
  7.902381e-01    1.796039e+00   2.867260e-02
  7.924486e-01    1.828087e+00   2.887374e-02
  7.946591e-01    1.751219e+00   2.820965e-02
  7.968695e-01    1.696568e+00   2.771630e-02
  7.990800e-01    1.732347e+00   2.795696e-02
  8.012904e-01    1.743781e+00   2.800057e-02
  8.035009e-01    1.683025e+00   2.745951e-02
  8.057113e-01    1.618550e+00   2.688183e-02
  8.079218e-01    1.638677e+00   2.700176e-02
  8.101323e-01    1.613730e+00   2.674995e-02
  8.123427e-01    1.645353e+00   2.696472e-02
  8.145532e-01    1.667982e+00   2.710306e-02
  8.167636e-01    1.697334e+00   2.729453e-02
  8.189741e-01    1.665761e+00   2.699441e-02
  8.211845e-01    1.632241e+00   2.667663e-02
  8.233950e-01    1.656977e+00   2.683429e-02
  8.256054e-01    1.685733e+00   2.702129e-02
  8.278159e-01    1.679548e+00   2.692715e-02
  8.300264e-01    1.667921e+00   2.679030e-02
  8.322368e-01    1.650952e+00   2.661040e-02
  8.344473e-01    1.622909e+00   2.634026e-02
  8.366577e-01    1.624295e+00   2.630911e-02
  8.388682e-01    1.672149e+00   2.665119e-02
  8.410786e-01    1.646961e+00   2.640754e-02
  8.432891e-01    1.664645e+00   2.650675e-02
  8.454996e-01    1.684454e+00   2.662181e-02
  8.477100e-01    1.673008e+00   2.648911e-02
  8.499205e-01    1.650631e+00   2.627004e-02
  8.521309e-01    1.682015e+00   2.647725e-02
  8.543414e-01    1.675954e+00   2.638826e-02
  8.565518e-01    1.672242e+00   2.631800e-02
  8.587623e-01    1.659187e+00   2.617424e-02
  8.609727e-01    1.646210e+00   2.603126e-02
  8.631832e-01    1.629367e+00   2.585782e-02
  8.653937e-01    1.666946e+00   2.611410e-02
  8.676041e-01    1.645408e+00   2.590572e-02
  8.698146e-01    1.648430e+00   2.588985e-02
  8.720250e-01    1.599241e+00   2.546181e-02
  8.742355e-01    1.614325e+00   2.554263e-02
  8.764459e-01    1.609915e+00   2.546883e-02
  8.786564e-01    1.590741e+00   2.527895e-02
  8.808669e-01    1.591364e+00   2.524558e-02
  8.830773e-01    1.599981e+00   2.527572e-02
  8.852878e-01    1.626872e+00   2.544903e-02
  8.874982e-01    1.598759e+00   2.519158e-02
  8.897087e-01    1.560428e+00   2.485057e-02
  8.919191e-01    1.578553e+00   2.495695e-02
  8.941296e-01    1.601535e+00   2.510069e-02
  8.963401e-01    1.617620e+00   2.518978e-02
  8.985505e-01    1.603471e+00   2.504239e-02
  9.007610e-01    1.607384e+00   2.503609e-02
  9.029714e-01    1.603055e+00   2.496648e-02
  9.051819e-01    1.587241e+00   2.480597e-02
  9.073923e-01    1.592374e+00   2.480954e-02
  9.096028e-01    1.618536e+00   2.497741e-02
  9.118132e-01    1.606198e+00   2.484574e-02
  9.140237e-01    1.635460e+00   2.503401e-02
  9.162342e-01    1.626163e+00   2.492792e-02
  9.184446e-01    1.612648e+00   2.478821e-02
  9.206551e-01    1.603941e+00   2.468557e-02
  9.228655e-01    1.587618e+00   2.452453e-02
  9.250760e-01    1.622324e+00   2.475556e-02
  9.272864e-01    1.605496e+00   2.459255e-02
  9.294969e-01    1.595706e+00   2.448172e-02
  9.317074e-01    1.606932e+00   2.453296e-02
  9.339178e-01    1.635412e+00   2.471561e-02
  9.361283e-01    1.654070e+00   2.481954e-02
  9.383387e-01    1.669188e+00   2.489882e-02
  9.405492e-01    1.671474e+00   2.488105e-02
  9.427596e-01    1.667496e+00   2.481566e-02
  9.449701e-01    1.647299e+00   2.463141e-02
  9.471805e-01    1.657386e+00   2.467170e-02
  9.493910e-01    1.689911e+00   2.487841e-02
  9.516015e-01    1.712097e+00   2.500624e-02
  9.538119e-01    1.736532e+00   2.514953e-02
  9.560224e-01    1.733379e+00   2.509133e-02
  9.582328e-01    1.737094e+00   2.508450e-02
  9.604433e-01    1.741165e+00   2.507832e-02
  9.626537e-01    1.757762e+00   2.516367e-02
  9.648642e-01    1.788617e+00   2.534880e-02
  9.670747e-01    1.795539e+00   2.536278e-02
  9.692851e-01    1.806725e+00   2.540785e-02
  9.714956e-01    1.835439e+00   2.557284e-02
  9.737060e-01    1.824963e+00   2.546627e-02
  9.759165e-01    1.839315e+00   2.553015e-02
  9.781269e-01    1.846523e+00   2.554666e-02
  9.803374e-01    1.876296e+00   2.571617e-02
  9.825478e-01    1.826740e+00   2.534086e-02
  9.847583e-01    1.833149e+00   2.535075e-02
  9.869688e-01    1.870639e+00   2.557442e-02
  9.891792e-01    1.809423e+00   2.511906e-02
  9.913897e-01    1.805577e+00   2.505847e-02
  9.936001e-01    1.828999e+00   2.518746e-02
  9.958106e-01    1.779930e+00   2.481356e-02
  9.980210e-01    1.680664e+00   2.408040e-02
  1.000231e+00    1.658049e+00   2.404885e-02
  1.002442e+00    1.673408e+00   2.428835e-02
  1.004652e+00    1.663963e+00   2.428728e-02
  1.006863e+00    1.635008e+00   2.412500e-02
  1.009073e+00    1.601485e+00   2.391294e-02
  1.011284e+00    1.610333e+00   2.401097e-02
  1.013494e+00    1.598110e+00   2.394337e-02
  1.015705e+00    1.633222e+00   2.422785e-02
  1.017915e+00    1.639374e+00   2.429018e-02
  1.020126e+00    1.603025e+00   2.403562e-02
  1.022336e+00    1.541437e+00   2.358099e-02
  1.024547e+00    1.564566e+00   2.376849e-02
  1.026757e+00    1.570291e+00   2.382039e-02
  1.028967e+00    1.542442e+00   2.361588e-02
  1.031178e+00    1.573157e+00   2.385609e-02
  1.033388e+00    1.555740e+00   2.372879e-02
  1.035599e+00    1.520677e+00   2.346326e-02
  1.037809e+00    1.572453e+00   2.386266e-02
  1.040020e+00    1.541138e+00   2.362514e-02
  1.042230e+00    1.530715e+00   2.354706e-02
  1.044441e+00    1.516999e+00   2.344112e-02
  1.046651e+00    1.517436e+00   2.344463e-02
  1.048862e+00    1.532487e+00   2.355985e-02
  1.051072e+00    1.528979e+00   2.353047e-02
  1.053282e+00    1.582570e+00   2.393831e-02
  1.055493e+00    1.576265e+00   2.388618e-02
  1.057703e+00    1.538011e+00   2.359302e-02
  1.059914e+00    1.590005e+00   2.398405e-02
  1.062124e+00    1.621328e+00   2.421495e-02
  1.064335e+00    1.637083e+00   2.432870e-02
  1.066545e+00    1.602208e+00   2.406195e-02
  1.068756e+00    1.514493e+00   2.339027e-02
  1.070966e+00    1.449169e+00   2.287377e-02
  1.073177e+00    1.470054e+00   2.303194e-02
  1.075387e+00    1.455661e+00   2.291373e-02
  1.077597e+00    1.444250e+00   2.281653e-02
  1.079808e+00    1.478700e+00   2.295364e-02
  1.082018e+00    1.488503e+00   2.283891e-02
  1.084229e+00    1.440114e+00   2.235533e-02
  1.086439e+00    1.455267e+00   2.238518e-02
  1.088650e+00    1.456231e+00   2.231690e-02
  1.090860e+00    1.437572e+00   2.210621e-02
  1.093071e+00    1.436293e+00   2.203451e-02
  1.095281e+00    1.451519e+00   2.209362e-02
  1.097492e+00    1.440668e+00   2.195607e-02
  1.099702e+00    1.416210e+00   2.171795e-02
  1.101912e+00    1.460828e+00   2.200818e-02
  1.104123e+00    1.439203e+00   2.179642e-02
  1.106333e+00    1.400558e+00   2.145788e-02
  1.108544e+00    1.423815e+00   2.159112e-02
  1.110754e+00    1.409896e+00   2.144257e-02
  1.112965e+00    1.387909e+00   2.123467e-02
  1.115175e+00    1.413255e+00   2.138659e-02
  1.117386e+00    1.415309e+00   2.136287e-02
  1.119596e+00    1.435746e+00   2.147836e-02
  1.121807e+00    1.431222e+00   2.140540e-02
  1.124017e+00    1.414617e+00   2.124411e-02
  1.126228e+00    1.401690e+00   2.111111e-02
  1.128438e+00    1.413283e+00   2.116130e-02
  1.130648e+00    1.398733e+00   2.101778e-02
  1.132859e+00    1.389298e+00   2.091251e-02
  1.135069e+00    1.388984e+00   2.087545e-02
  1.137280e+00    1.366111e+00   2.067015e-02
  1.139490e+00    1.390335e+00   2.081949e-02
  1.141701e+00    1.391737e+00   2.079679e-02
  1.143911e+00    1.366400e+00   2.057496e-02
  1.146122e+00    1.375676e+00   2.061271e-02
  1.148332e+00    1.403476e+00   2.078779e-02
  1.150543e+00    1.375714e+00   2.055037e-02
  1.152753e+00    1.346049e+00   2.029708e-02
  1.154963e+00    1.356934e+00   2.034811e-02
  1.157174e+00    1.390889e+00   2.057079e-02
  1.159384e+00    1.362040e+00   2.032660e-02
  1.161595e+00    1.393553e+00   2.053028e-02
  1.163805e+00    1.394656e+00   2.050889e-02
  1.166016e+00    1.407758e+00   2.057512e-02
  1.168226e+00    1.412534e+00   2.058058e-02
  1.170437e+00    1.390227e+00   2.038854e-02
  1.172647e+00    1.377806e+00   2.026823e-02
  1.174858e+00    1.385089e+00   2.029342e-02
  1.177068e+00    1.379730e+00   2.022570e-02
  1.179278e+00    1.362414e+00   2.006978e-02
  1.181489e+00    1.431121e+00   2.054189e-02
  1.183699e+00    1.422077e+00   2.044872e-02
  1.185910e+00    1.369450e+00   2.003887e-02
  1.188120e+00    1.370699e+00   2.002117e-02
  1.190331e+00    1.373018e+00   2.001117e-02
  1.192541e+00    1.367391e+00   1.994260e-02
  1.194752e+00    1.384065e+00   2.003648e-02
  1.196962e+00    1.377085e+00   1.995991e-02
  1.199173e+00    1.388819e+00   2.001789e-02
  1.201383e+00    1.361421e+00   1.979219e-02
  1.203593e+00    1.343046e+00   1.963341e-02
  1.205804e+00    1.377746e+00   1.985921e-02
  1.208014e+00    1.376893e+00   1.982598e-02
  1.210225e+00    1.378671e+00   1.981317e-02
  1.212435e+00    1.359383e+00   1.964922e-02
  1.214646e+00    1.372967e+00   1.972080e-02
  1.216856e+00    1.369112e+00   1.966747e-02
  1.219067e+00    1.335212e+00   1.939812e-02
  1.221277e+00    1.325163e+00   1.930018e-02
  1.223488e+00    1.323090e+00   1.925959e-02
  1.225698e+00    1.349548e+00   1.942429e-02
  1.227909e+00    1.360703e+00   1.947414e-02
  1.230119e+00    1.340723e+00   1.929888e-02
  1.232329e+00    1.352549e+00   1.935306e-02
  1.234540e+00    1.349257e+00   1.929921e-02
  1.236750e+00    1.371654e+00   1.942824e-02
  1.238961e+00    1.370324e+00   1.939163e-02
  1.241171e+00    1.401625e+00   1.958720e-02
  1.243382e+00    1.394996e+00   1.951694e-02
  1.245592e+00    1.405194e+00   1.956357e-02
  1.247803e+00    1.370142e+00   1.929419e-02
  1.250013e+00    1.404697e+00   1.951194e-02
  1.252224e+00    1.435728e+00   1.970233e-02
  1.254434e+00    1.399155e+00   1.942559e-02
  1.256644e+00    1.405659e+00   1.944701e-02
  1.258855e+00    1.383704e+00   1.927099e-02
  1.261065e+00    1.336448e+00   1.891580e-02
  1.263276e+00    1.345707e+00   1.895831e-02
  1.265486e+00    1.334870e+00   1.885906e-02
  1.267697e+00    1.360107e+00   1.901340e-02
  1.269907e+00    1.336628e+00   1.882600e-02
  1.272118e+00    1.346236e+00   1.887099e-02
  1.274328e+00    1.388269e+00   1.914026e-02
  1.276539e+00    1.417930e+00   1.932031e-02
  1.278749e+00    1.475093e+00   1.968259e-02
  1.280959e+00    1.512138e+00   1.990438e-02
  1.283170e+00    1.476149e+00   1.964267e-02
  1.285380e+00    1.391945e+00   1.905140e-02
  1.287591e+00    1.358827e+00   1.880128e-02
  1.289801e+00    1.345483e+00   1.868754e-02
  1.292012e+00    1.332981e+00   1.858353e-02
  1.294222e+00    1.350920e+00   1.869190e-02
  1.296433e+00    1.356379e+00   1.871401e-02
  1.298643e+00    1.357403e+00   1.870454e-02
  1.300854e+00    1.376794e+00   1.882110e-02
  1.303064e+00    1.394119e+00   1.891961e-02
  1.305274e+00    1.387302e+00   1.885158e-02
  1.307485e+00    1.327714e+00   1.842091e-02
  1.309695e+00    1.333853e+00   1.844133e-02
  1.311906e+00    1.365138e+00   1.863450e-02
  1.314116e+00    1.374184e+00   1.867517e-02
  1.316327e+00    1.382866e+00   1.871211e-02
  1.318537e+00    1.391980e+00   1.875147e-02
  1.320748e+00    1.367966e+00   1.856731e-02
  1.322958e+00    1.387787e+00   1.868054e-02
  1.325169e+00    1.361285e+00   1.848021e-02
  1.327379e+00    1.344643e+00   1.834514e-02
  1.329589e+00    1.354265e+00   1.838953e-02
  1.331800e+00    1.375965e+00   1.851542e-02
  1.334010e+00    1.369431e+00   1.845057e-02
  1.336221e+00    1.372519e+00   1.844946e-02
  1.338431e+00    1.318488e+00   1.806204e-02
  1.340642e+00    1.333085e+00   1.822548e-02
  1.342852e+00    1.353273e+00   1.846379e-02
  1.345063e+00    1.345046e+00   1.845695e-02
  1.347273e+00    1.358455e+00   1.858409e-02
  1.349484e+00    1.375597e+00   1.872891e-02
  1.351694e+00    1.354373e+00   1.860663e-02
  1.353905e+00    1.309256e+00   1.831181e-02
  1.356115e+00    1.359574e+00   1.867544e-02
  1.358325e+00    1.348689e+00   1.861388e-02
  1.360536e+00    1.343896e+00   1.859236e-02
  1.362746e+00    1.318219e+00   1.842335e-02
  1.364957e+00    1.339597e+00   1.857976e-02
  1.367167e+00    1.331359e+00   1.852966e-02
  1.369378e+00    1.354228e+00   1.869415e-02
  1.371588e+00    1.333547e+00   1.855600e-02
  1.373799e+00    1.304907e+00   1.835926e-02
  1.376009e+00    1.346159e+00   1.865059e-02
  1.378220e+00    1.327059e+00   1.852034e-02
  1.380430e+00    1.307547e+00   1.838638e-02
  1.382640e+00    1.283108e+00   1.821462e-02
  1.384851e+00    1.277060e+00   1.817251e-02
  1.387061e+00    1.275591e+00   1.816232e-02
  1.389272e+00    1.307676e+00   1.838955e-02
  1.391482e+00    1.296035e+00   1.830684e-02
  1.393693e+00    1.286384e+00   1.823769e-02
  1.395903e+00    1.273768e+00   1.814653e-02
  1.398114e+00    1.309901e+00   1.840070e-02
  1.400324e+00    1.320281e+00   1.847133e-02
  1.402535e+00    1.294516e+00   1.828787e-02
  1.404745e+00    1.263002e+00   1.806156e-02
  1.406955e+00    1.280082e+00   1.818053e-02
  1.409166e+00    1.306531e+00   1.836408e-02
  1.411376e+00    1.270373e+00   1.810507e-02
  1.413587e+00    1.269906e+00   1.809792e-02
  1.415797e+00    1.255774e+00   1.799342e-02
  1.418008e+00    1.263735e+00   1.800860e-02
  1.420218e+00    1.280413e+00   1.797670e-02
  1.422429e+00    1.262314e+00   1.776413e-02
  1.424639e+00    1.295146e+00   1.792833e-02
  1.426850e+00    1.307280e+00   1.795663e-02
  1.429060e+00    1.288523e+00   1.777802e-02
  1.431270e+00    1.323831e+00   1.797468e-02
  1.433481e+00    1.330738e+00   1.797962e-02
  1.435691e+00    1.306624e+00   1.777698e-02
  1.437902e+00    1.300626e+00   1.769923e-02
  1.440112e+00    1.301033e+00   1.766623e-02
  1.442323e+00    1.282012e+00   1.750342e-02
  1.444533e+00    1.293579e+00   1.754932e-02
  1.446744e+00    1.312235e+00   1.764381e-02
  1.448954e+00    1.283759e+00   1.742095e-02
  1.451165e+00    1.274505e+00   1.732825e-02
  1.453375e+00    1.278074e+00   1.732434e-02
  1.455586e+00    1.283015e+00   1.732950e-02
  1.457796e+00    1.263330e+00   1.716862e-02
  1.460006e+00    1.255189e+00   1.708610e-02
  1.462217e+00    1.256404e+00   1.706828e-02
  1.464427e+00    1.287798e+00   1.725442e-02
  1.466638e+00    1.269786e+00   1.710802e-02
  1.468848e+00    1.254427e+00   1.697904e-02
  1.471059e+00    1.271867e+00   1.707154e-02
  1.473269e+00    1.284373e+00   1.713075e-02
  1.475480e+00    1.278993e+00   1.707098e-02
  1.477690e+00    1.262917e+00   1.693956e-02
  1.479901e+00    1.256391e+00   1.687200e-02
  1.482111e+00    1.271674e+00   1.695095e-02
  1.484321e+00    1.274996e+00   1.694989e-02
  1.486532e+00    1.265934e+00   1.686721e-02
  1.488742e+00    1.262074e+00   1.681885e-02
  1.490953e+00    1.271788e+00   1.686080e-02
  1.493163e+00    1.235671e+00   1.659761e-02
  1.495374e+00    1.287213e+00   1.691853e-02
  1.497584e+00    1.311124e+00   1.705288e-02
  1.499795e+00    1.279503e+00   1.682421e-02
  1.502005e+00    1.244992e+00   1.657419e-02
  1.504216e+00    1.233802e+00   1.647870e-02
  1.506426e+00    1.256976e+00   1.661193e-02
  1.508636e+00    1.252691e+00   1.656320e-02
  1.510847e+00    1.251607e+00   1.653424e-02
  1.513057e+00    1.266584e+00   1.660767e-02
  1.515268e+00    1.290755e+00   1.673933e-02
  1.517478e+00    1.286003e+00   1.668301e-02
  1.519689e+00    1.271008e+00   1.656034e-02
  1.521899e+00    1.264461e+00   1.649441e-02
  1.524110e+00    1.272746e+00   1.652789e-02
  1.526320e+00    1.246195e+00   1.633504e-02
  1.528531e+00    1.240745e+00   1.627958e-02
  1.530741e+00    1.272250e+00   1.646566e-02
  1.532951e+00    1.274945e+00   1.646333e-02
  1.535162e+00    1.252576e+00   1.640495e-02
  1.537372e+00    1.245804e+00   1.642736e-02
  1.539583e+00    1.278800e+00   1.667814e-02
  1.541793e+00    1.287929e+00   1.674462e-02
  1.544004e+00    1.263458e+00   1.658506e-02
  1.546214e+00    1.232219e+00   1.637723e-02
  1.548425e+00    1.270250e+00   1.662828e-02
  1.550635e+00    1.259055e+00   1.656461e-02
  1.552846e+00    1.255681e+00   1.655209e-02
  1.555056e+00    1.264138e+00   1.656592e-02
  1.557266e+00    1.250943e+00   1.636852e-02
  1.559477e+00    1.214317e+00   1.606871e-02
  1.561687e+00    1.230624e+00   1.614573e-02
  1.563898e+00    1.236966e+00   1.617019e-02
  1.566108e+00    1.251764e+00   1.625061e-02
  1.568319e+00    1.258243e+00   1.627692e-02
  1.570529e+00    1.225501e+00   1.603879e-02
  1.572740e+00    1.245201e+00   1.613956e-02
  1.574950e+00    1.277444e+00   1.632052e-02
  1.577161e+00    1.288536e+00   1.636531e-02
  1.579371e+00    1.263511e+00   1.618177e-02
  1.581582e+00    1.246738e+00   1.605423e-02
  1.583792e+00    1.230711e+00   1.593278e-02
  1.586002e+00    1.241127e+00   1.598245e-02
  1.588213e+00    1.270720e+00   1.615445e-02
  1.590423e+00    1.291792e+00   1.626737e-02
  1.592634e+00    1.298873e+00   1.628983e-02
  1.594844e+00    1.285567e+00   1.618441e-02
  1.597055e+00    1.284401e+00   1.615623e-02
  1.599265e+00    1.266133e+00   1.601999e-02
  1.601476e+00    1.270036e+00   1.602412e-02
  1.603686e+00    1.264068e+00   1.596648e-02
  1.605897e+00    1.265926e+00   1.595783e-02
  1.608107e+00    1.246583e+00   1.581581e-02
  1.610317e+00    1.266572e+00   1.592258e-02
  1.612528e+00    1.278106e+00   1.597539e-02
  1.614738e+00    1.314486e+00   1.618159e-02
  1.616949e+00    1.347843e+00   1.636571e-02
  1.619159e+00    1.360560e+00   1.642303e-02
  1.621370e+00    1.285566e+00   1.594504e-02
  1.623580e+00    1.250099e+00   1.570493e-02
  1.625791e+00    1.212483e+00   1.544858e-02
  1.628001e+00    1.173190e+00   1.517813e-02
  1.630212e+00    1.185142e+00   1.523755e-02
  1.632422e+00    1.175698e+00   1.515891e-02
  1.634632e+00    1.170312e+00   1.510692e-02
  1.636843e+00    1.167864e+00   1.507366e-02
  1.639053e+00    1.176549e+00   1.511226e-02
  1.641264e+00    1.181163e+00   1.512471e-02
  1.643474e+00    1.187336e+00   1.514660e-02
  1.645685e+00    1.172530e+00   1.503510e-02
  1.647895e+00    1.163047e+00   1.495753e-02
  1.650106e+00    1.150902e+00   1.486223e-02
  1.652316e+00    1.146442e+00   1.481693e-02
  1.654527e+00    1.135038e+00   1.472644e-02
  1.656737e+00    1.112934e+00   1.456595e-02
  1.658947e+00    1.116787e+00   1.457497e-02
  1.661158e+00    1.130666e+00   1.464896e-02
  1.663368e+00    1.111671e+00   1.450946e-02
  1.665579e+00    1.105829e+00   1.445522e-02
  1.667789e+00    1.102587e+00   1.441788e-02
  1.670000e+00    1.122707e+00   1.453326e-02
  1.672210e+00    1.178837e+00   1.487577e-02
  1.674421e+00    1.215332e+00   1.508820e-02
  1.676631e+00    1.203852e+00   1.500021e-02
  1.678842e+00    1.133589e+00   1.453987e-02
  1.681052e+00    1.102847e+00   1.432588e-02
  1.683263e+00    1.098846e+00   1.428468e-02
  1.685473e+00    1.121138e+00   1.441344e-02
  1.687683e+00    1.105093e+00   1.429437e-02
  1.689894e+00    1.094355e+00   1.420886e-02
  1.692104e+00    1.125744e+00   1.439594e-02
  1.694315e+00    1.120247e+00   1.434595e-02
  1.696525e+00    1.085065e+00   1.410360e-02
  1.698736e+00    1.083963e+00   1.408150e-02
  1.700946e+00    1.053407e+00   1.386651e-02
  1.703157e+00    1.043280e+00   1.378516e-02
  1.705367e+00    1.051195e+00   1.382285e-02
  1.707578e+00    1.056562e+00   1.384348e-02
  1.709788e+00    1.011636e+00   1.353209e-02
  1.711998e+00    1.026139e+00   1.361383e-02
  1.714209e+00    1.036270e+00   1.366645e-02
  1.716419e+00    1.031501e+00   1.362075e-02
  1.718630e+00    1.010068e+00   1.346435e-02
  1.720840e+00    1.019834e+00   1.351517e-02
  1.723051e+00    1.026393e+00   1.354467e-02
  1.725261e+00    1.021739e+00   1.349926e-02
  1.727472e+00    1.020986e+00   1.348009e-02
  1.729682e+00    9.947177e-01   1.329224e-02
  1.731893e+00    9.960343e-01   1.328722e-02
  1.734103e+00    9.695976e-01   1.309617e-02
  1.736313e+00    1.012364e+00   1.336781e-02
  1.738524e+00    1.010757e+00   1.334334e-02
  1.740734e+00    9.951047e-01   1.322593e-02
  1.742945e+00    9.871294e-01   1.315944e-02
  1.745155e+00    9.935600e-01   1.318878e-02
  1.747366e+00    9.893389e-01   1.314691e-02
  1.749576e+00    9.720879e-01   1.301823e-02
  1.751787e+00    9.560935e-01   1.289751e-02
  1.753997e+00    9.693885e-01   1.297355e-02
  1.756208e+00    9.871825e-01   1.307882e-02
  1.758418e+00    9.717295e-01   1.296293e-02
  1.760628e+00    9.388197e-01   1.272841e-02
  1.762839e+00    9.257615e-01   1.262659e-02
  1.765049e+00    9.618537e-01   1.285727e-02
  1.767260e+00    9.466290e-01   1.274240e-02
  1.769470e+00    9.293684e-01   1.261288e-02
  1.771681e+00    9.465897e-01   1.271609e-02
  1.773891e+00    9.461886e-01   1.270039e-02
  1.776102e+00    9.443730e-01   1.267533e-02
  1.778312e+00    9.414510e-01   1.264301e-02
  1.780523e+00    9.376953e-01   1.260505e-02
  1.782733e+00    9.275627e-01   1.252416e-02
  1.784944e+00    9.395204e-01   1.259171e-02
  1.787154e+00    9.358364e-01   1.255445e-02
  1.789364e+00    9.168154e-01   1.241384e-02
  1.791575e+00    9.101126e-01   1.235592e-02
  1.793785e+00    9.193907e-01   1.240637e-02
  1.795996e+00    9.284493e-01   1.245478e-02
  1.798206e+00    9.198623e-01   1.238452e-02
  1.800417e+00    9.158140e-01   1.234455e-02
  1.802627e+00    9.308869e-01   1.243370e-02
  1.804838e+00    9.351860e-01   1.245010e-02
  1.807048e+00    9.573032e-01   1.258329e-02
  1.809259e+00    9.435907e-01   1.247898e-02
  1.811469e+00    9.213560e-01   1.231598e-02
  1.813679e+00    9.072393e-01   1.220624e-02
  1.815890e+00    9.059725e-01   1.218289e-02
  1.818100e+00    9.061863e-01   1.216916e-02
  1.820311e+00    8.993140e-01   1.210810e-02
  1.822521e+00    8.885571e-01   1.202065e-02
  1.824732e+00    8.883507e-01   1.200444e-02
  1.826942e+00    9.023359e-01   1.208610e-02
  1.829153e+00    9.795852e-01   1.258054e-02
  1.831363e+00    9.819536e-01   1.258307e-02
  1.833574e+00    9.778088e-01   1.254419e-02
  1.835784e+00    9.351808e-01   1.225595e-02
  1.837994e+00    8.984159e-01   1.200075e-02
  1.840205e+00    8.929750e-01   1.195306e-02
  1.842415e+00    8.745521e-01   1.181735e-02
  1.844626e+00    8.663989e-01   1.175058e-02
  1.846836e+00    8.767806e-01   1.180930e-02
  1.849047e+00    8.805223e-01   1.182276e-02
  1.851257e+00    8.615017e-01   1.168482e-02
  1.853468e+00    8.677070e-01   1.171799e-02
  1.855678e+00    8.635932e-01   1.168128e-02
  1.857889e+00    8.524591e-01   1.159728e-02
  1.860099e+00    8.356298e-01   1.147370e-02
  1.862309e+00    8.338287e-01   1.145293e-02
  1.864520e+00    8.429785e-01   1.150707e-02
  1.866730e+00    8.596236e-01   1.161073e-02
  1.868941e+00    8.443840e-01   1.149646e-02
  1.871151e+00    8.607869e-01   1.159612e-02
  1.873362e+00    8.743848e-01   1.167587e-02
  1.875572e+00    8.525504e-01   1.151819e-02
  1.877783e+00    8.615569e-01   1.156737e-02
  1.879993e+00    8.598309e-01   1.154453e-02
  1.882204e+00    8.440399e-01   1.142714e-02
  1.884414e+00    8.476428e-01   1.144040e-02
  1.886624e+00    8.445491e-01   1.140843e-02
  1.888835e+00    8.434737e-01   1.139018e-02
  1.891045e+00    8.459817e-01   1.139618e-02
  1.893256e+00    8.411760e-01   1.135265e-02
  1.895466e+00    8.563808e-01   1.144350e-02
  1.897677e+00    8.531529e-01   1.141088e-02
  1.899887e+00    8.441734e-01   1.133963e-02
  1.902098e+00    8.390401e-01   1.129421e-02
  1.904308e+00    8.335192e-01   1.124638e-02
  1.906519e+00    8.304536e-01   1.121484e-02
  1.908729e+00    8.490584e-01   1.132903e-02
  1.910940e+00    8.369313e-01   1.123665e-02
  1.913150e+00    8.378481e-01   1.123214e-02
  1.915360e+00    8.306167e-01   1.117290e-02
  1.917571e+00    8.200205e-01   1.109056e-02
  1.919781e+00    8.331730e-01   1.116837e-02
  1.921992e+00    8.352286e-01   1.117143e-02
  1.924202e+00    8.305737e-01   1.112942e-02
  1.926413e+00    8.240771e-01   1.107544e-02
  1.928623e+00    8.063363e-01   1.094510e-02
  1.930834e+00    8.150418e-01   1.099356e-02
  1.933044e+00    8.376555e-01   1.113418e-02
  1.935255e+00    8.701164e-01   1.133718e-02
  1.937465e+00    8.513900e-01   1.120387e-02
  1.939675e+00    8.133993e-01   1.094014e-02
  1.941886e+00    8.137372e-01   1.093208e-02
  1.944096e+00    7.975469e-01   1.081262e-02
  1.946307e+00    8.031890e-01   1.084047e-02
  1.948517e+00    8.142927e-01   1.090457e-02
  1.950728e+00    8.265832e-01   1.097617e-02
  1.952938e+00    8.025048e-01   1.080499e-02
  1.955149e+00    7.758033e-01   1.061362e-02
  1.957359e+00    8.008226e-01   1.077330e-02
  1.959570e+00    8.102910e-01   1.082585e-02
  1.961780e+00    7.891552e-01   1.067384e-02
  1.963990e+00    7.901745e-01   1.067061e-02
  1.966201e+00    7.879934e-01   1.064585e-02
  1.968411e+00    7.671249e-01   1.049391e-02
  1.970622e+00    7.746167e-01   1.053503e-02
  1.972832e+00    7.805780e-01   1.056555e-02
  1.975043e+00    7.986659e-01   1.067714e-02
  1.977253e+00    8.039063e-01   1.070206e-02
  1.979464e+00    7.878278e-01   1.058443e-02
  1.981674e+00    7.999353e-01   1.065506e-02
  1.983885e+00    7.904131e-01   1.058140e-02
  1.986095e+00    7.767313e-01   1.047973e-02
  1.988305e+00    7.710481e-01   1.043149e-02
  1.990516e+00    7.860324e-01   1.052238e-02
  1.992726e+00    7.971204e-01   1.058655e-02
  1.994937e+00    7.930625e-01   1.054935e-02
  1.997147e+00    7.959062e-01   1.055839e-02
  1.999358e+00    7.938154e-01   1.053453e-02
  2.001568e+00    7.953344e-01   1.053365e-02
  2.003779e+00    8.239667e-01   1.070926e-02
  2.005989e+00    8.311719e-01   1.074352e-02
  2.008200e+00    8.142750e-01   1.062191e-02
  2.010410e+00    8.020738e-01   1.053002e-02
  2.012621e+00    8.080136e-01   1.055694e-02
  2.014831e+00    7.912614e-01   1.043528e-02
  2.017041e+00    7.885213e-01   1.040667e-02
  2.019252e+00    7.908043e-01   1.041160e-02
  2.021462e+00    7.623093e-01   1.021282e-02
  2.023673e+00    7.786846e-01   1.031244e-02
  2.025883e+00    7.797207e-01   1.030968e-02
  2.028094e+00    7.785339e-01   1.029210e-02
  2.030304e+00    7.772580e-01   1.027402e-02
  2.032515e+00    8.026171e-01   1.043071e-02
  2.034725e+00    8.170386e-01   1.051422e-02
  2.036936e+00    8.135859e-01   1.048232e-02
  2.039146e+00    7.925329e-01   1.033602e-02
  2.041356e+00    7.821437e-01   1.025822e-02
  2.043567e+00    7.778096e-01   1.022033e-02
  2.045777e+00    7.656708e-01   1.013096e-02
  2.047988e+00    7.462742e-01   9.992489e-03
  2.050198e+00    7.464782e-01   9.985466e-03
  2.052409e+00    7.352020e-01   9.902188e-03
  2.054619e+00    7.542597e-01   1.002232e-02
  2.056830e+00    7.533541e-01   1.000912e-02
  2.059040e+00    7.617029e-01   1.005686e-02
  2.061251e+00    7.719792e-01   1.011711e-02
  2.063461e+00    7.733362e-01   1.011829e-02
  2.065671e+00    7.772259e-01   1.013483e-02
  2.067882e+00    7.455842e-01   9.917402e-03
  2.070092e+00    7.592774e-01   9.998780e-03
  2.072303e+00    7.484038e-01   9.917777e-03
  2.074513e+00    7.552189e-01   9.953441e-03
  2.076724e+00    7.543882e-01   9.938451e-03
  2.078934e+00    7.458788e-01   9.873223e-03
  2.081145e+00    7.442711e-01   9.853468e-03
  2.083355e+00    7.780854e-01   1.006542e-02
  2.085566e+00    7.873738e-01   1.011614e-02
  2.087776e+00    8.275771e-01   1.036113e-02
  2.089986e+00    8.172263e-01   1.028691e-02
  2.092197e+00    8.364085e-01   1.039739e-02
  2.094407e+00    8.021620e-01   1.017271e-02
  2.096618e+00    7.486048e-01   9.818248e-03
  2.098828e+00    7.377065e-01   9.737180e-03
  2.101039e+00    7.401271e-01   9.744117e-03
  2.103249e+00    7.261716e-01   9.643184e-03
  2.105460e+00    7.163020e-01   9.568487e-03
  2.107670e+00    7.352960e-01   9.685745e-03
  2.109881e+00    7.375602e-01   9.691404e-03
  2.112091e+00    7.447518e-01   9.729476e-03
  2.114301e+00    7.033728e-01   9.446647e-03
  2.116512e+00    7.019187e-01   9.428207e-03
  2.118722e+00    7.152324e-01   9.508426e-03
  2.120933e+00    7.125550e-01   9.481799e-03
  2.123143e+00    6.997626e-01   9.387514e-03
  2.125354e+00    7.176611e-01   9.498277e-03
  2.127564e+00    7.230325e-01   9.524992e-03
  2.129775e+00    7.051858e-01   9.398043e-03
  2.131985e+00    7.183306e-01   9.476140e-03
  2.134196e+00    7.068770e-01   9.391744e-03
  2.136406e+00    7.136184e-01   9.427664e-03
  2.138617e+00    7.283114e-01   9.515662e-03
  2.140827e+00    7.262555e-01   9.518490e-03
  2.143037e+00    7.109730e-01   9.463401e-03
  2.145248e+00    7.184342e-01   9.535121e-03
  2.147458e+00    7.088891e-01   9.486767e-03
  2.149669e+00    7.230132e-01   9.592812e-03
  2.151879e+00    7.073255e-01   9.497446e-03
  2.154090e+00    7.206538e-01   9.593913e-03
  2.156300e+00    7.108562e-01   9.535127e-03
  2.158511e+00    7.238304e-01   9.627139e-03
  2.160721e+00    7.240652e-01   9.633619e-03
  2.162932e+00    7.136346e-01   9.567755e-03
  2.165142e+00    7.166343e-01   9.590906e-03
  2.167352e+00    7.015614e-01   9.492429e-03
  2.169563e+00    6.939445e-01   9.442716e-03
  2.171773e+00    7.022517e-01   9.501521e-03
  2.173984e+00    6.967592e-01   9.465701e-03
  2.176194e+00    7.042193e-01   9.517461e-03
  2.178405e+00    7.149761e-01   9.590576e-03
  2.180615e+00    6.992023e-01   9.484898e-03
  2.182826e+00    6.822207e-01   9.369655e-03
  2.185036e+00    6.812122e-01   9.362801e-03
  2.187247e+00    7.040670e-01   9.518488e-03
  2.189457e+00    6.923566e-01   9.438623e-03
  2.191667e+00    6.900108e-01   9.422422e-03
  2.193878e+00    6.963637e-01   9.465138e-03
  2.196088e+00    6.773886e-01   9.334616e-03
  2.198299e+00    6.840232e-01   9.379112e-03
  2.200509e+00    6.863847e-01   9.394237e-03
  2.202720e+00    6.884139e-01   9.406963e-03
  2.204930e+00    6.711946e-01   9.287340e-03
  2.207141e+00    6.703765e-01   9.280560e-03
  2.209351e+00    6.767105e-01   9.322415e-03
  2.211562e+00    6.730993e-01   9.295910e-03
  2.213772e+00    6.685634e-01   9.209389e-03
  2.215982e+00    6.812665e-01   9.252082e-03
  2.218193e+00    6.797183e-01   9.211847e-03
  2.220403e+00    6.656247e-01   9.091427e-03
  2.222614e+00    6.746005e-01   9.131557e-03
  2.224824e+00    6.668871e-01   9.059919e-03
  2.227035e+00    6.682708e-01   9.051921e-03
  2.229245e+00    6.802358e-01   9.115511e-03
  2.231456e+00    6.852013e-01   9.132965e-03
  2.233666e+00    6.622107e-01   8.963446e-03
  2.235877e+00    6.555210e-01   8.903928e-03
  2.238087e+00    6.762449e-01   9.030034e-03
  2.240298e+00    6.964374e-01   9.149835e-03
  2.242508e+00    6.758331e-01   8.998247e-03
  2.244718e+00    6.878479e-01   9.061860e-03
  2.246929e+00    6.755874e-01   8.966237e-03
  2.249139e+00    6.739764e-01   8.943087e-03
  2.251350e+00    6.674014e-01   8.887651e-03
  2.253560e+00    6.701570e-01   8.894378e-03
  2.255771e+00    6.735243e-01   8.905229e-03
  2.257981e+00    6.658248e-01   8.842994e-03
  2.260192e+00    6.779112e-01   8.911653e-03
  2.262402e+00    6.795708e-01   8.911615e-03
  2.264613e+00    6.649539e-01   8.804385e-03
  2.266823e+00    6.737434e-01   8.851914e-03
  2.269033e+00    6.821107e-01   8.896164e-03
  2.271244e+00    6.783584e-01   8.861170e-03
  2.273454e+00    6.766896e-01   8.839861e-03
  2.275665e+00    7.140900e-01   9.070171e-03
  2.277875e+00    7.077358e-01   9.019472e-03
  2.280086e+00    6.947456e-01   8.926015e-03
  2.282296e+00    6.719199e-01   8.768664e-03
  2.284507e+00    6.588279e-01   8.672685e-03
  2.286717e+00    6.436048e-01   8.562529e-03
  2.288928e+00    6.503778e-01   8.597640e-03
  2.291138e+00    6.617639e-01   8.663132e-03
  2.293348e+00    6.557980e-01   8.614446e-03
  2.295559e+00    6.444687e-01   8.530489e-03
  2.297769e+00    6.337162e-01   8.449910e-03
  2.299980e+00    6.590142e-01   8.607536e-03
  2.302190e+00    6.602594e-01   8.606510e-03
  2.304401e+00    6.606466e-01   8.599640e-03
  2.306611e+00    6.663228e-01   8.627219e-03
  2.308822e+00    6.533632e-01   8.534513e-03
  2.311032e+00    6.492160e-01   8.500921e-03
  2.313243e+00    6.558253e-01   8.537797e-03
  2.315453e+00    6.437746e-01   8.451445e-03
  2.317663e+00    6.426191e-01   8.434764e-03
  2.319874e+00    6.453569e-01   8.443991e-03
  2.322084e+00    6.583341e-01   8.519416e-03
  2.324295e+00    6.548245e-01   8.488402e-03
  2.326505e+00    6.560490e-01   8.487183e-03
  2.328716e+00    6.452887e-01   8.408757e-03
  2.330926e+00    6.388041e-01   8.357615e-03
  2.333137e+00    6.302823e-01   8.293387e-03
  2.335347e+00    6.480932e-01   8.400826e-03
  2.337558e+00    6.559795e-01   8.443469e-03
  2.339768e+00    6.477586e-01   8.381763e-03
  2.341979e+00    6.335368e-01   8.280908e-03
  2.344189e+00    6.561798e-01   8.419074e-03
  2.346399e+00    6.261070e-01   8.215468e-03
  2.348610e+00    6.418224e-01   8.309416e-03
  2.350820e+00    6.466025e-01   8.332065e-03
  2.353031e+00    6.426135e-01   8.297969e-03
  2.355241e+00    6.332588e-01   8.229319e-03
  2.357452e+00    6.275976e-01   8.184040e-03
  2.359662e+00    6.346575e-01   8.221703e-03
  2.361873e+00    6.291431e-01   8.177701e-03
  2.364083e+00    6.321443e-01   8.189151e-03
  2.366294e+00    6.391451e-01   8.226203e-03
  2.368504e+00    6.363528e-01   8.200081e-03
  2.370714e+00    6.405920e-01   8.219182e-03
  2.372925e+00    6.260036e-01   8.117025e-03
  2.375135e+00    6.252080e-01   8.103771e-03
  2.377346e+00    6.326765e-01   8.144048e-03
  2.379556e+00    6.315997e-01   8.129140e-03
  2.381767e+00    6.343277e-01   8.138753e-03
  2.383977e+00    6.234202e-01   8.060529e-03
  2.386188e+00    6.210810e-01   8.037445e-03
  2.388398e+00    6.216493e-01   8.033163e-03
  2.390609e+00    6.177408e-01   8.000131e-03
  2.392819e+00    6.170253e-01   7.987712e-03
  2.395029e+00    6.288375e-01   8.056073e-03
  2.397240e+00    6.114929e-01   7.936351e-03
  2.399450e+00    6.194401e-01   7.979906e-03
  2.401661e+00    6.106236e-01   7.915241e-03
  2.403871e+00    6.047310e-01   7.869241e-03
  2.406082e+00    6.109511e-01   7.902164e-03
  2.408292e+00    6.159148e-01   7.926365e-03
  2.410503e+00    6.189291e-01   7.938190e-03
  2.412713e+00    6.035668e-01   7.831284e-03
  2.414924e+00    5.923001e-01   7.750455e-03
  2.417134e+00    5.886606e-01   7.719045e-03
  2.419344e+00    6.073347e-01   7.833108e-03
  2.421555e+00    6.111656e-01   7.850203e-03
  2.423765e+00    6.091037e-01   7.829503e-03
  2.425976e+00    6.040218e-01   7.788930e-03
  2.428186e+00    6.062183e-01   7.795817e-03
  2.430397e+00    6.055728e-01   7.784142e-03
  2.432607e+00    5.868762e-01   7.655799e-03
  2.434818e+00    6.036654e-01   7.756942e-03
  2.437028e+00    6.007159e-01   7.730784e-03
  2.439239e+00    5.919889e-01   7.666784e-03
  2.441449e+00    5.982049e-01   7.699691e-03
  2.443659e+00    5.787862e-01   7.566423e-03
  2.445870e+00    5.926517e-01   7.668783e-03
  2.448080e+00    5.860812e-01   7.661065e-03
  2.450291e+00    5.786961e-01   7.629265e-03
  2.452501e+00    5.894755e-01   7.711282e-03
  2.454712e+00    5.840180e-01   7.684002e-03
  2.456922e+00    5.857061e-01   7.701817e-03
  2.459133e+00    5.803652e-01   7.672125e-03
  2.461343e+00    5.579495e-01   7.526809e-03
  2.463554e+00    5.594601e-01   7.540445e-03
  2.465764e+00    5.533138e-01   7.502017e-03
  2.467975e+00    5.697790e-01   7.615121e-03
  2.470185e+00    5.539698e-01   7.510999e-03
  2.472395e+00    5.373180e-01   7.398441e-03
  2.474606e+00    5.359448e-01   7.390519e-03
  2.476816e+00    5.457075e-01   7.458239e-03
  2.479027e+00    5.530748e-01   7.509282e-03
  2.481237e+00    5.560609e-01   7.529806e-03
  2.483448e+00    5.445333e-01   7.451660e-03
  2.485658e+00    5.455283e-01   7.458297e-03
  2.487869e+00    5.389441e-01   7.413213e-03
  2.490079e+00    5.461163e-01   7.461838e-03
  2.492290e+00    5.566474e-01   7.533008e-03
  2.494500e+00    5.485197e-01   7.477075e-03
  2.496710e+00    5.440378e-01   7.445752e-03
  2.498921e+00    5.437608e-01   7.442886e-03
  2.501131e+00    5.427440e-01   7.434928e-03
  2.503342e+00    5.470626e-01   7.463197e-03
  2.505552e+00    5.453958e-01   7.450668e-03
  2.507763e+00    5.302356e-01   7.344966e-03
  2.509973e+00    5.362458e-01   7.385060e-03
  2.512184e+00    5.464087e-01   7.453086e-03
  2.514394e+00    5.328780e-01   7.350816e-03
  2.516605e+00    5.302808e-01   7.285629e-03
  2.518815e+00    5.344815e-01   7.285897e-03
  2.521025e+00    5.292231e-01   7.228921e-03
  2.523236e+00    5.300989e-01   7.216846e-03
  2.525446e+00    5.298840e-01   7.199703e-03
  2.527657e+00    5.302844e-01   7.187758e-03
  2.529867e+00    5.316151e-01   7.182499e-03
  2.532078e+00    5.342407e-01   7.185046e-03
  2.534288e+00    5.289518e-01   7.135443e-03
  2.536499e+00    5.434185e-01   7.220227e-03
  2.538709e+00    5.184303e-01   7.041339e-03
  2.540920e+00    5.241916e-01   7.069681e-03
  2.543130e+00    5.395143e-01   7.161770e-03
  2.545340e+00    5.234401e-01   7.044220e-03
  2.547551e+00    5.271516e-01   7.059144e-03
  2.549761e+00    5.415084e-01   7.144881e-03
  2.551972e+00    5.287215e-01   7.050612e-03
  2.554182e+00    5.195186e-01   6.979818e-03
  2.556393e+00    5.165945e-01   6.951082e-03
  2.558603e+00    5.240155e-01   6.991723e-03
  2.560814e+00    5.334376e-01   7.045505e-03
  2.563024e+00    5.225639e-01   6.964701e-03
  2.565235e+00    5.280486e-01   6.991580e-03
  2.567445e+00    5.130843e-01   6.882303e-03
  2.569656e+00    5.109787e-01   6.858482e-03
  2.571866e+00    5.127150e-01   6.860807e-03
  2.574076e+00    5.119042e-01   6.846173e-03
  2.576287e+00    5.140295e-01   6.852036e-03
  2.578497e+00    5.179641e-01   6.870378e-03
  2.580708e+00    5.183018e-01   6.864483e-03
  2.582918e+00    5.238773e-01   6.893500e-03
  2.585129e+00    5.187401e-01   6.851821e-03
  2.587339e+00    5.116714e-01   6.797318e-03
  2.589550e+00    5.143980e-01   6.807850e-03
  2.591760e+00    5.096699e-01   6.768763e-03
  2.593971e+00    5.245258e-01   6.859084e-03
  2.596181e+00    5.256735e-01   6.860275e-03
  2.598391e+00    5.212569e-01   6.826153e-03
  2.600602e+00    5.270631e-01   6.858062e-03
  2.602812e+00    5.133949e-01   6.760979e-03
  2.605023e+00    5.180074e-01   6.784044e-03
  2.607233e+00    5.082172e-01   6.712505e-03
  2.609444e+00    5.049910e-01   6.683934e-03
  2.611654e+00    5.176677e-01   6.759911e-03
  2.613865e+00    5.182741e-01   6.756762e-03
  2.616075e+00    5.138424e-01   6.720612e-03
  2.618286e+00    5.070649e-01   6.669135e-03
  2.620496e+00    5.108192e-01   6.687052e-03
  2.622706e+00    5.053746e-01   6.645564e-03
  2.624917e+00    4.995924e-01   6.601631e-03
  2.627127e+00    4.941380e-01   6.559792e-03
  2.629338e+00    5.017857e-01   6.604403e-03
  2.631548e+00    5.053393e-01   6.621567e-03
  2.633759e+00    4.960572e-01   6.553370e-03
  2.635969e+00    5.083968e-01   6.627635e-03
  2.638180e+00    5.082004e-01   6.619337e-03
  2.640390e+00    5.091651e-01   6.618963e-03
  2.642601e+00    5.035030e-01   6.575370e-03
  2.644811e+00    5.084580e-01   6.600506e-03
  2.647021e+00    5.126848e-01   6.621250e-03
  2.649232e+00    5.067531e-01   6.576064e-03
  2.651442e+00    5.102448e-01   6.592110e-03
  2.653653e+00    4.958744e-01   6.491847e-03
  2.655863e+00    4.907517e-01   6.451584e-03
  2.658074e+00    5.009775e-01   6.511831e-03
  2.660284e+00    5.062912e-01   6.539843e-03
  2.662495e+00    5.228745e-01   6.639175e-03
  2.664705e+00    5.134004e-01   6.572091e-03
  2.666916e+00    4.859511e-01   6.387577e-03
  2.669126e+00    5.073525e-01   6.520171e-03
  2.671337e+00    5.107338e-01   6.535210e-03
  2.673547e+00    4.928636e-01   6.413483e-03
  2.675757e+00    4.923886e-01   6.403966e-03
  2.677968e+00    4.854828e-01   6.352418e-03
  2.680178e+00    5.032500e-01   6.461153e-03
  2.682389e+00    4.945937e-01   6.398948e-03
  2.684599e+00    4.986886e-01   6.419160e-03
  2.686810e+00    4.946238e-01   6.386312e-03
  2.689020e+00    4.948348e-01   6.381379e-03
  2.691231e+00    4.998102e-01   6.407020e-03
  2.693441e+00    4.906363e-01   6.341823e-03
  2.695652e+00    4.833538e-01   6.288080e-03
  2.697862e+00    4.947193e-01   6.355227e-03
  2.700072e+00    4.842045e-01   6.281276e-03
  2.702283e+00    4.858862e-01   6.285984e-03
  2.704493e+00    4.799376e-01   6.241148e-03
  2.706704e+00    4.874979e-01   6.283719e-03
  2.708914e+00    4.905694e-01   6.297494e-03
  2.711125e+00    4.987231e-01   6.343305e-03
  2.713335e+00    4.894852e-01   6.278183e-03
  2.715546e+00    4.938817e-01   6.299796e-03
  2.717756e+00    4.962810e-01   6.309153e-03
  2.719967e+00    4.766169e-01   6.176740e-03
  2.722177e+00    4.870599e-01   6.237895e-03
  2.724387e+00    4.955801e-01   6.286051e-03
  2.726598e+00    4.874725e-01   6.228358e-03
  2.728808e+00    4.849654e-01   6.206168e-03
  2.731019e+00    4.866981e-01   6.211115e-03
  2.733229e+00    4.799613e-01   6.162190e-03
  2.735440e+00    4.869328e-01   6.200490e-03
  2.737650e+00    4.935667e-01   6.236515e-03
  2.739861e+00    4.933748e-01   6.229178e-03
  2.742071e+00    4.766025e-01   6.116672e-03
  2.744282e+00    4.832872e-01   6.153160e-03
  2.746492e+00    4.790558e-01   6.120156e-03
  2.748702e+00    4.837290e-01   6.144012e-03
  2.750913e+00    4.839986e-01   6.139930e-03
  2.753123e+00    4.848721e-01   6.139315e-03
  2.755334e+00    4.740669e-01   6.064510e-03
  2.757544e+00    4.758436e-01   6.070139e-03
  2.759755e+00    4.754111e-01   6.061518e-03
  2.761965e+00    4.792982e-01   6.080295e-03
  2.764176e+00    4.689188e-01   6.008170e-03
  2.766386e+00    4.823462e-01   6.087765e-03
  2.768597e+00    4.813142e-01   6.075399e-03
  2.770807e+00    4.733085e-01   6.018808e-03
  2.773017e+00    4.803703e-01   6.057563e-03
  2.775228e+00    4.735246e-01   6.008497e-03
  2.777438e+00    4.834998e-01   6.065619e-03
  2.779649e+00    4.837805e-01   6.061449e-03
  2.781859e+00    4.902113e-01   6.095761e-03
  2.784070e+00    4.780270e-01   6.013676e-03
  2.786280e+00    4.752301e-01   5.990290e-03
  2.788491e+00    4.848201e-01   6.044546e-03
  2.790701e+00    4.741735e-01   5.972189e-03
  2.792912e+00    4.691661e-01   5.934634e-03
  2.795122e+00    4.761125e-01   5.972680e-03
  2.797333e+00    4.686989e-01   5.920483e-03
  2.799543e+00    4.706838e-01   5.927162e-03
  2.801753e+00    4.802047e-01   5.980934e-03
  2.803964e+00    4.738287e-01   5.935431e-03
  2.806174e+00    4.828480e-01   5.985463e-03
  2.808385e+00    4.833845e-01   5.981938e-03
  2.810595e+00    4.776500e-01   5.939457e-03
  2.812806e+00    4.730869e-01   5.904420e-03
  2.815016e+00    4.662115e-01   5.856655e-03
  2.817227e+00    4.736155e-01   5.928880e-03
  2.819437e+00    4.823748e-01   5.994653e-03
  2.821648e+00    4.846676e-01   6.011196e-03
  2.823858e+00    4.818184e-01   5.998877e-03
  2.826068e+00    4.808168e-01   5.997675e-03
  2.828279e+00    4.755438e-01   5.968734e-03
  2.830489e+00    4.831380e-01   6.019588e-03
  2.832700e+00    4.718792e-01   5.951596e-03
  2.834910e+00    4.661914e-01   5.917661e-03
  2.837121e+00    4.786270e-01   5.997789e-03
  2.839331e+00    4.730462e-01   5.963976e-03
  2.841542e+00    4.666527e-01   5.924523e-03
  2.843752e+00    4.726495e-01   5.963258e-03
  2.845963e+00    4.704779e-01   5.949941e-03
  2.848173e+00    4.831304e-01   6.029517e-03
  2.850383e+00    4.641631e-01   5.910263e-03
  2.852594e+00    4.530762e-01   5.839167e-03
  2.854804e+00    4.660593e-01   5.921725e-03
  2.857015e+00    4.723636e-01   5.961223e-03
  2.859225e+00    4.713903e-01   5.954813e-03
  2.861436e+00    4.701091e-01   5.946066e-03
  2.863646e+00    4.743704e-01   5.972994e-03
  2.865857e+00    4.713218e-01   5.954115e-03
  2.868067e+00    4.602396e-01   5.883909e-03
  2.870278e+00    4.754035e-01   5.979694e-03
  2.872488e+00    4.871141e-01   6.051716e-03
  2.874698e+00    4.702365e-01   5.944901e-03
  2.876909e+00    4.721388e-01   5.955575e-03
  2.879119e+00    4.676062e-01   5.925280e-03
  2.881330e+00    4.631936e-01   5.895796e-03
  2.883540e+00    4.667429e-01   5.916929e-03
  2.885751e+00    4.837523e-01   6.022101e-03
  2.887961e+00    4.787960e-01   5.989265e-03
  2.890172e+00    4.664370e-01   5.909847e-03
  2.892382e+00    4.622483e-01   5.881444e-03
  2.894593e+00    4.575662e-01   5.849770e-03
  2.896803e+00    4.538019e-01   5.823686e-03
  2.899014e+00    4.583472e-01   5.850876e-03
  2.901224e+00    4.609309e-01   5.865343e-03
  2.903434e+00    4.704773e-01   5.923815e-03
  2.905645e+00    4.534069e-01   5.813142e-03
  2.907855e+00    4.737597e-01   5.940039e-03
  2.910066e+00    4.645699e-01   5.880080e-03
  2.912276e+00    4.540713e-01   5.811128e-03
  2.914487e+00    4.641259e-01   5.872651e-03
  2.916697e+00    4.705222e-01   5.910712e-03
  2.918908e+00    4.695736e-01   5.902756e-03
  2.921118e+00    4.556105e-01   5.811629e-03
  2.923329e+00    4.515857e-01   5.783589e-03
  2.925539e+00    4.592974e-01   5.830490e-03
  2.927749e+00    4.615500e-01   5.842438e-03
  2.929960e+00    4.682840e-01   5.882101e-03
  2.932170e+00    4.736279e-01   5.913199e-03
  2.934381e+00    4.599501e-01   5.824746e-03
  2.936591e+00    4.641500e-01   5.848670e-03
  2.938802e+00    4.504459e-01   5.758998e-03
  2.941012e+00    4.514041e-01   5.762785e-03
  2.943223e+00    4.577445e-01   5.800423e-03
  2.945433e+00    4.524795e-01   5.763230e-03
  2.947644e+00    4.591896e-01   5.801670e-03
  2.949854e+00    4.596230e-01   5.800118e-03
  2.952064e+00    4.558150e-01   5.771809e-03
  2.954275e+00    4.545179e-01   5.759187e-03
  2.956485e+00    4.541088e-01   5.752402e-03
  2.958696e+00    4.606951e-01   5.789578e-03
  2.960906e+00    4.590246e-01   5.774864e-03
  2.963117e+00    4.549654e-01   5.744794e-03
  2.965327e+00    4.583168e-01   5.761991e-03
  2.967538e+00    4.595188e-01   5.766604e-03
  2.969748e+00    4.824226e-01   5.905675e-03
  2.971959e+00    4.699502e-01   5.825642e-03
  2.974169e+00    4.771792e-01   5.867632e-03
  2.976379e+00    4.819870e-01   5.894113e-03
  2.978590e+00    4.746202e-01   5.845693e-03
  2.980800e+00    4.634182e-01   5.773478e-03
  2.983011e+00    4.560869e-01   5.724808e-03
  2.985221e+00    4.595050e-01   5.743055e-03
  2.987432e+00    4.568220e-01   5.723152e-03
  2.989642e+00    4.599829e-01   5.740251e-03
  2.991853e+00    4.574498e-01   5.721144e-03
  2.994063e+00    4.742798e-01   5.822476e-03
  2.996274e+00    4.542708e-01   5.695133e-03
  2.998484e+00    4.690288e-01   5.784157e-03
  3.000694e+00    4.522194e-01   5.676137e-03
  3.002905e+00    4.478532e-01   5.645727e-03
  3.005115e+00    4.570828e-01   5.700615e-03
  3.007326e+00    4.662676e-01   5.754408e-03
  3.009536e+00    4.675027e-01   5.758720e-03
  3.011747e+00    4.676900e-01   5.756918e-03
  3.013957e+00    4.471357e-01   5.625843e-03
  3.016168e+00    4.485258e-01   5.631330e-03
  3.018378e+00    4.315429e-01   5.520721e-03
  3.020589e+00    4.567727e-01   5.676562e-03
  3.022799e+00    4.736886e-01   5.777489e-03
  3.025010e+00    4.659817e-01   5.727035e-03
  3.027220e+00    4.590605e-01   5.681197e-03
  3.029430e+00    4.624808e-01   5.699044e-03
  3.031641e+00    4.495832e-01   5.615884e-03
  3.033851e+00    4.622210e-01   5.690692e-03
  3.036062e+00    4.713311e-01   5.743682e-03
  3.038272e+00    4.595844e-01   5.668058e-03
  3.040483e+00    4.522602e-01   5.619468e-03
  3.042693e+00    4.551755e-01   5.634277e-03
  3.044904e+00    4.474062e-01   5.581977e-03
  3.047114e+00    4.511986e-01   5.600775e-03
  3.049325e+00    4.573100e-01   5.634159e-03
  3.051535e+00    4.482827e-01   5.573887e-03
  3.053745e+00    4.460400e-01   5.555203e-03
  3.055956e+00    4.574540e-01   5.621213e-03
  3.058166e+00    4.539585e-01   5.595431e-03
  3.060377e+00    4.498613e-01   5.565350e-03
  3.062587e+00    4.562539e-01   5.600100e-03
  3.064798e+00    4.519784e-01   5.569523e-03
  3.067008e+00    4.568414e-01   5.594637e-03
  3.069219e+00    4.615404e-01   5.618773e-03
  3.071429e+00    4.515283e-01   5.553981e-03
  3.073640e+00    4.462053e-01   5.517825e-03
  3.075850e+00    4.598244e-01   5.597766e-03
  3.078060e+00    4.522611e-01   5.548435e-03
  3.080271e+00    4.484240e-01   5.521357e-03
  3.082481e+00    4.664500e-01   5.627733e-03
  3.084692e+00    4.575037e-01   5.570094e-03
  3.086902e+00    4.485163e-01   5.511876e-03
  3.089113e+00    4.455732e-01   5.490179e-03
  3.091323e+00    4.614144e-01   5.583517e-03
  3.093534e+00    4.514331e-01   5.519395e-03
  3.095744e+00    4.595722e-01   5.565514e-03
  3.097955e+00    4.502351e-01   5.505133e-03
  3.100165e+00    4.562737e-01   5.538550e-03
  3.102375e+00    4.606791e-01   5.561761e-03
  3.104586e+00    4.456119e-01   5.466569e-03
  3.106796e+00    4.634449e-01   5.571291e-03
  3.109007e+00    4.334312e-01   5.384698e-03
  3.111217e+00    4.525943e-01   5.498704e-03
  3.113428e+00    4.580540e-01   5.528339e-03
  3.115638e+00    4.415226e-01   5.424430e-03
  3.117849e+00    4.465095e-01   5.451248e-03
  3.120059e+00    4.325719e-01   5.362082e-03
  3.122270e+00    4.500592e-01   5.466114e-03
  3.124480e+00    4.456004e-01   5.435275e-03
  3.126691e+00    4.582326e-01   5.508174e-03
  3.128901e+00    4.458389e-01   5.430045e-03
  3.131111e+00    4.460889e-01   5.427714e-03
  3.133322e+00    4.513081e-01   5.455903e-03
  3.135532e+00    4.364225e-01   5.361805e-03
  3.137743e+00    4.551309e-01   5.471990e-03
  3.139953e+00    4.578823e-01   5.484762e-03
  3.142164e+00    4.559145e-01   5.485169e-03
  3.144374e+00    4.490625e-01   5.472403e-03
  3.146585e+00    4.458333e-01   5.467325e-03
  3.148795e+00    4.376923e-01   5.427879e-03
  3.151006e+00    4.350308e-01   5.419841e-03
  3.153216e+00    4.421650e-01   5.471228e-03
  3.155426e+00    4.522456e-01   5.539635e-03
  3.157637e+00    4.455984e-01   5.504342e-03
  3.159847e+00    4.542485e-01   5.562449e-03
  3.162058e+00    4.383457e-01   5.468655e-03
  3.164268e+00    4.346977e-01   5.449865e-03
  3.166479e+00    4.558368e-01   5.584525e-03
  3.168689e+00    4.436044e-01   5.512486e-03
  3.170900e+00    4.358260e-01   5.467090e-03
  3.173110e+00    4.428010e-01   5.513553e-03
  3.175321e+00    4.380299e-01   5.486253e-03
  3.177531e+00    4.525237e-01   5.579058e-03
  3.179741e+00    4.475490e-01   5.550427e-03
  3.181952e+00    4.410658e-01   5.512184e-03
  3.184162e+00    4.520163e-01   5.582434e-03
  3.186373e+00    4.482974e-01   5.561024e-03
  3.188583e+00    4.296318e-01   5.445804e-03
  3.190794e+00    4.328617e-01   5.467979e-03
  3.193004e+00    4.412770e-01   5.522111e-03
  3.195215e+00    4.522305e-01   5.591772e-03
  3.197425e+00    4.323769e-01   5.468864e-03
  3.199636e+00    4.362133e-01   5.492296e-03
  3.201846e+00    4.332765e-01   5.473169e-03
  3.204056e+00    4.384030e-01   5.506350e-03
  3.206267e+00    4.326520e-01   5.470954e-03
  3.208477e+00    4.567463e-01   5.622173e-03
  3.210688e+00    4.449214e-01   5.549788e-03
  3.212898e+00    4.364526e-01   5.497289e-03
  3.215109e+00    4.376562e-01   5.505624e-03
  3.217319e+00    4.330613e-01   5.477282e-03
  3.219530e+00    4.376289e-01   5.506479e-03
  3.221740e+00    4.494233e-01   5.580746e-03
  3.223951e+00    4.492799e-01   5.580370e-03
  3.226161e+00    4.410332e-01   5.529100e-03
  3.228372e+00    4.251131e-01   5.428921e-03
  3.230582e+00    4.276282e-01   5.445078e-03
  3.232792e+00    4.396474e-01   5.521302e-03
  3.235003e+00    4.354281e-01   5.494993e-03
  3.237213e+00    4.352835e-01   5.494190e-03
  3.239424e+00    4.325989e-01   5.477204e-03
  3.241634e+00    4.437278e-01   5.547350e-03
  3.243845e+00    4.261683e-01   5.436569e-03
  3.246055e+00    4.267226e-01   5.439792e-03
  3.248266e+00    4.268925e-01   5.441103e-03
  3.250476e+00    4.310004e-01   5.466904e-03
  3.252687e+00    4.349124e-01   5.491570e-03
  3.254897e+00    4.408038e-01   5.528540e-03
  3.257107e+00    4.271208e-01   5.441731e-03
  3.259318e+00    4.239357e-01   5.421175e-03
  3.261528e+00    4.308639e-01   5.465142e-03
  3.263739e+00    4.284956e-01   5.449558e-03
  3.265949e+00    4.233215e-01   5.416416e-03
  3.268160e+00    4.303944e-01   5.461064e-03
  3.270370e+00    4.348193e-01   5.488564e-03
  3.272581e+00    4.177322e-01   5.379368e-03
  3.274791e+00    4.245887e-01   5.422786e-03
  3.277002e+00    4.253835e-01   5.427306e-03
  3.279212e+00    4.256318e-01   5.428516e-03
  3.281422e+00    4.321952e-01   5.469615e-03
  3.283633e+00    4.319735e-01   5.467537e-03
  3.285843e+00    4.243855e-01   5.418961e-03
  3.288054e+00    4.239655e-01   5.415347e-03
  3.290264e+00    4.193039e-01   5.385171e-03
  3.292475e+00    4.325722e-01   5.468878e-03
  3.294685e+00    4.157618e-01   5.360933e-03
  3.296896e+00    4.234054e-01   5.409222e-03
  3.299106e+00    4.305968e-01   5.454398e-03
  3.301317e+00    4.364277e-01   5.490185e-03
  3.303527e+00    4.336725e-01   5.472343e-03
  3.305737e+00    4.220595e-01   5.397541e-03
  3.307948e+00    4.236243e-01   5.406858e-03
  3.310158e+00    4.266730e-01   5.425422e-03
  3.312369e+00    4.412634e-01   5.516506e-03
  3.314579e+00    4.248768e-01   5.412200e-03
  3.316790e+00    4.357549e-01   5.480316e-03
  3.319000e+00    4.302579e-01   5.444469e-03
  3.321211e+00    4.204094e-01   5.381166e-03
  3.323421e+00    4.311119e-01   5.448030e-03
  3.325632e+00    4.110089e-01   5.318611e-03
  3.327842e+00    4.251706e-01   5.408530e-03
  3.330052e+00    4.272460e-01   5.420664e-03
  3.332263e+00    4.217503e-01   5.384652e-03
  3.334473e+00    4.349431e-01   5.467298e-03
  3.336684e+00    4.163538e-01   5.347953e-03
  3.338894e+00    4.197938e-01   5.369141e-03
  3.341105e+00    4.102701e-01   5.306698e-03
  3.343315e+00    4.431440e-01   5.514023e-03
  3.345526e+00    4.274766e-01   5.414777e-03
  3.347736e+00    4.315325e-01   5.438982e-03
  3.349947e+00    4.203824e-01   5.367320e-03
  3.352157e+00    4.184423e-01   5.353748e-03
  3.354368e+00    4.144873e-01   5.327099e-03
  3.356578e+00    4.101535e-01   5.298177e-03
  3.358788e+00    4.017192e-01   5.242107e-03
  3.360999e+00    4.135335e-01   5.317375e-03
  3.363209e+00    4.229290e-01   5.376430e-03
  3.365420e+00    4.211708e-01   5.363756e-03
  3.367630e+00    4.139010e-01   5.316204e-03
  3.369841e+00    4.113266e-01   5.298253e-03
  3.372051e+00    4.200983e-01   5.352446e-03
  3.374262e+00    4.250531e-01   5.381478e-03
  3.376472e+00    4.082480e-01   5.271599e-03
  3.378683e+00    4.090714e-01   5.274417e-03
  3.380893e+00    4.305991e-01   5.409041e-03
  3.383103e+00    4.103570e-01   5.277700e-03
  3.385314e+00    4.051747e-01   5.242066e-03
  3.387524e+00    4.146312e-01   5.300138e-03
  3.389735e+00    4.226217e-01   5.348308e-03
  3.391945e+00    4.304252e-01   5.393711e-03
  3.394156e+00    4.353417e-01   5.420110e-03
  3.396366e+00    4.147920e-01   5.287226e-03
  3.398577e+00    4.030806e-01   5.209025e-03
  3.400787e+00    4.198509e-01   5.328314e-03
  3.402998e+00    3.996241e-01   5.235980e-03
  3.405208e+00    4.082477e-01   5.312874e-03
  3.407418e+00    4.085535e-01   5.330806e-03
  3.409629e+00    4.011280e-01   5.296130e-03
  3.411839e+00    4.002146e-01   5.301857e-03
  3.414050e+00    3.988760e-01   5.304006e-03
  3.416260e+00    3.901243e-01   5.255091e-03
  3.418471e+00    3.947527e-01   5.295612e-03
  3.420681e+00    3.766685e-01   5.181192e-03
  3.422892e+00    3.961779e-01   5.321724e-03
  3.425102e+00    4.038865e-01   5.381219e-03
  3.427313e+00    3.785187e-01   5.216613e-03
  3.429523e+00    3.637037e-01   5.120298e-03
  3.431733e+00    3.835087e-01   5.264521e-03
  3.433944e+00    3.793831e-01   5.242590e-03
  3.436154e+00    3.842642e-01   5.282420e-03
  3.438365e+00    3.962667e-01   5.370354e-03
  3.440575e+00    3.917569e-01   5.345718e-03
  3.442786e+00    3.866510e-01   5.316436e-03
  3.444996e+00    3.681651e-01   5.193231e-03
  3.447207e+00    3.519837e-01   5.082928e-03
  3.449417e+00    3.652620e-01   5.218386e-03
  3.451628e+00    3.695210e-01   5.278202e-03
  3.453838e+00    3.642616e-01   5.261560e-03
  3.456049e+00    3.569465e-01   5.232057e-03
  3.458259e+00    3.523193e-01   5.219505e-03
  3.460469e+00    3.879858e-01   5.497691e-03
  3.462680e+00    3.795931e-01   5.457344e-03
  3.464890e+00    3.799902e-01   5.478304e-03
  3.467101e+00    3.678918e-01   5.407864e-03
  3.469311e+00    3.822314e-01   5.529045e-03
  3.471522e+00    3.892777e-01   5.596506e-03
  3.473732e+00    3.894134e-01   5.613645e-03
  3.475943e+00    3.994791e-01   5.701772e-03
  3.478153e+00    4.118618e-01   5.805379e-03
  3.480364e+00    4.106583e-01   5.812388e-03
  3.482574e+00    4.278384e-01   5.948491e-03
  3.484784e+00    4.207015e-01   5.913729e-03
  3.486995e+00    4.379825e-01   6.049452e-03
  3.489205e+00    4.476258e-01   6.130777e-03
  3.491416e+00    4.579993e-01   6.216863e-03
  3.493626e+00    4.486994e-01   6.168236e-03
  3.495837e+00    4.577197e-01   6.244978e-03
  3.498047e+00    4.439411e-01   6.164735e-03
  3.500258e+00    4.530441e-01   6.242216e-03
  3.502468e+00    4.613908e-01   6.313976e-03
  3.504679e+00    4.826364e-01   6.472559e-03
  3.506889e+00    4.882021e-01   6.524546e-03
  3.509099e+00    4.918252e-01   6.563384e-03
  3.511310e+00    4.900237e-01   6.566031e-03
  3.513520e+00    4.918141e-01   6.592561e-03
  3.515731e+00    5.062069e-01   6.703022e-03
  3.517941e+00    5.007809e-01   6.681522e-03
  3.520152e+00    5.025760e-01   6.707890e-03
  3.522362e+00    5.118113e-01   6.783898e-03
  3.524573e+00    5.143502e-01   6.815098e-03
  3.526783e+00    5.350550e-01   6.964582e-03
  3.528994e+00    5.296466e-01   6.941691e-03
  3.531204e+00    5.224718e-01   6.906963e-03
  3.533414e+00    5.316214e-01   6.979377e-03
  3.535625e+00    5.258559e-01   6.953715e-03
  3.537835e+00    5.240335e-01   6.953695e-03
  3.540046e+00    5.321411e-01   7.016188e-03
  3.542256e+00    5.504672e-01   7.143615e-03
  3.544467e+00    5.338215e-01   7.042377e-03
  3.546677e+00    5.564167e-01   7.197602e-03
  3.548888e+00    5.354375e-01   7.068099e-03
  3.551098e+00    5.238173e-01   6.998209e-03
  3.553309e+00    5.249002e-01   7.013478e-03
  3.555519e+00    5.539978e-01   7.216737e-03
  3.557729e+00    5.530251e-01   7.222339e-03
  3.559940e+00    5.451425e-01   7.182299e-03
  3.562150e+00    5.351367e-01   7.127826e-03
  3.564361e+00    5.107934e-01   6.976783e-03
  3.566571e+00    5.390057e-01   7.180717e-03
  3.568782e+00    5.377867e-01   7.186773e-03
  3.570992e+00    5.343529e-01   7.177496e-03
  3.573203e+00    5.619485e-01   7.374971e-03
  3.575413e+00    5.585118e-01   7.366500e-03
  3.577624e+00    5.441139e-01   7.285111e-03
  3.579834e+00    5.371826e-01   7.252493e-03
  3.582045e+00    5.322739e-01   7.233255e-03
  3.584255e+00    5.248266e-01   7.196364e-03
  3.586465e+00    5.293216e-01   7.240985e-03
  3.588676e+00    5.369619e-01   7.307225e-03
  3.590886e+00    5.582974e-01   7.465002e-03
  3.593097e+00    5.466505e-01   7.401362e-03
  3.595307e+00    5.480517e-01   7.424938e-03
  3.597518e+00    5.403915e-01   7.387136e-03
  3.599728e+00    5.421702e-01   7.413496e-03
  3.601939e+00    5.314181e-01   7.353606e-03
  3.604149e+00    5.349754e-01   7.392567e-03
  3.606360e+00    5.324308e-01   7.389087e-03
  3.608570e+00    5.192630e-01   7.311076e-03
  3.610780e+00    5.332769e-01   7.420120e-03
  3.612991e+00    5.378757e-01   7.462090e-03
  3.615201e+00    5.322291e-01   7.432584e-03
  3.617412e+00    5.343003e-01   7.454310e-03
  3.619622e+00    5.337319e-01   7.456279e-03
  3.621833e+00    5.416656e-01   7.518248e-03
  3.624043e+00    5.686723e-01   7.713232e-03
  3.626254e+00    5.455472e-01   7.564562e-03
  3.628464e+00    5.402473e-01   7.538758e-03
  3.630675e+00    5.453863e-01   7.588807e-03
  3.632885e+00    5.373170e-01   7.546958e-03
  3.635095e+00    5.406718e-01   7.584966e-03
  3.637306e+00    5.367657e-01   7.571954e-03
  3.639516e+00    5.174806e-01   7.448949e-03
  3.641727e+00    5.351514e-01   7.589685e-03
  3.643937e+00    5.272610e-01   7.547988e-03
  3.646148e+00    5.610067e-01   7.800762e-03
  3.648358e+00    5.546467e-01   7.771591e-03
  3.650569e+00    5.475370e-01   7.736551e-03
  3.652779e+00    5.364193e-01   7.672441e-03
  3.654990e+00    5.429227e-01   7.733801e-03
  3.657200e+00    5.383028e-01   7.715851e-03
  3.659410e+00    5.306083e-01   7.675445e-03
  3.661621e+00    5.245531e-01   7.646517e-03
  3.663831e+00    5.272975e-01   7.681538e-03
  3.666042e+00    5.416294e-01   7.800529e-03
  3.668252e+00    5.383581e-01   7.792308e-03
  3.670463e+00    5.327569e-01   7.766871e-03
  3.672673e+00    5.598920e-01   7.978085e-03
  3.674884e+00    5.502874e-01   7.925035e-03
  3.677094e+00    5.404997e-01   7.869941e-03
  3.679305e+00    5.321293e-01   7.824277e-03
  3.681515e+00    5.372433e-01   7.877547e-03
  3.683726e+00    5.226925e-01   7.785815e-03
  3.685936e+00    5.290527e-01   7.848747e-03
  3.688146e+00    5.360718e-01   7.916566e-03
  3.690357e+00    5.407822e-01   7.967376e-03
  3.692567e+00    5.312036e-01   7.912704e-03
  3.694778e+00    5.389016e-01   7.986073e-03
  3.696988e+00    5.288584e-01   7.927301e-03
  3.699199e+00    5.202079e-01   7.878412e-03
  3.701409e+00    5.193760e-01   7.888357e-03
  3.703620e+00    5.502365e-01   8.136021e-03
  3.705830e+00    5.561721e-01   8.196699e-03
  3.708041e+00    5.299349e-01   8.017720e-03
  3.710251e+00    5.376078e-01   8.092486e-03
  3.712461e+00    5.144995e-01   7.933291e-03
  3.714672e+00    5.192833e-01   7.986704e-03
  3.716882e+00    5.470653e-01   8.214728e-03
  3.719093e+00    5.489684e-01   8.246632e-03
  3.721303e+00    5.120689e-01   7.981505e-03
  3.723514e+00    5.257024e-01   8.104381e-03
  3.725724e+00    5.010211e-01   7.928754e-03
  3.727935e+00    5.416061e-01   8.261464e-03
  3.730145e+00    5.299482e-01   8.189574e-03
  3.732356e+00    5.177765e-01   8.112648e-03
  3.734566e+00    5.098962e-01   8.068026e-03
  3.736776e+00    5.247192e-01   8.202424e-03
  3.738987e+00    5.252863e-01   8.224771e-03
  3.741197e+00    5.017128e-01   8.055944e-03
  3.743408e+00    5.070882e-01   8.116834e-03
  3.745618e+00    5.276424e-01   8.298350e-03
  3.747829e+00    5.240739e-01   8.288537e-03
  3.750039e+00    5.478552e-01   8.493533e-03
  3.752250e+00    5.083086e-01   8.199666e-03
  3.754460e+00    5.317500e-01   8.405505e-03
  3.756671e+00    5.238511e-01   8.361945e-03
  3.758881e+00    5.206369e-01   8.355096e-03
  3.761091e+00    5.237256e-01   8.399255e-03
  3.763302e+00    5.265599e-01   8.441413e-03
  3.765512e+00    5.162930e-01   8.378095e-03
  3.767723e+00    5.305785e-01   8.513011e-03
  3.769933e+00    5.142015e-01   8.400089e-03
  3.772144e+00    5.023796e-01   8.322482e-03
  3.774354e+00    4.979518e-01   8.305376e-03
  3.776565e+00    5.093582e-01   8.419925e-03
  3.778775e+00    5.063101e-01   8.414675e-03
  3.780986e+00    5.234439e-01   8.576553e-03
  3.783196e+00    5.250015e-01   8.609989e-03
  3.785407e+00    5.037243e-01   8.454163e-03
  3.787617e+00    5.311599e-01   8.702639e-03
  3.789827e+00    5.226089e-01   8.653302e-03
  3.792038e+00    5.147876e-01   8.609362e-03
  3.794248e+00    5.197672e-01   8.672455e-03
  3.796459e+00    5.001616e-01   8.528662e-03
  3.798669e+00    5.016172e-01   8.562451e-03
  3.800880e+00    5.151315e-01   8.698770e-03
  3.803090e+00    5.147553e-01   8.717769e-03
  3.805301e+00    5.050859e-01   8.657684e-03
  3.807511e+00    5.046667e-01   8.676160e-03
  3.809722e+00    4.972639e-01   8.634514e-03
  3.811932e+00    4.828856e-01   8.530633e-03
  3.814142e+00    4.766434e-01   8.497616e-03
  3.816353e+00    4.873902e-01   8.615439e-03
  3.818563e+00    5.047550e-01   8.790840e-03
  3.820774e+00    5.135705e-01   8.890810e-03
  3.822984e+00    4.946204e-01   8.748529e-03
  3.825195e+00    4.957915e-01   8.782517e-03
  3.827405e+00    5.087482e-01   8.920702e-03
  3.829616e+00    4.995367e-01   8.863707e-03
  3.831826e+00    5.029942e-01   8.918626e-03
  3.834037e+00    4.925413e-01   8.849836e-03
  3.836247e+00    5.079399e-01   9.012132e-03
  3.838457e+00    4.909912e-01   8.885322e-03
  3.840668e+00    5.115827e-01   9.095309e-03
  3.842878e+00    5.192731e-01   9.189565e-03
  3.845089e+00    4.959339e-01   9.006260e-03
  3.847299e+00    5.192554e-01   9.241950e-03
  3.849510e+00    5.099570e-01   9.185061e-03
  3.851720e+00    5.174580e-01   9.274292e-03
  3.853931e+00    5.263347e-01   9.373144e-03
  3.856141e+00    4.914764e-01   9.076297e-03
  3.858352e+00    4.981715e-01   9.157280e-03
  3.860562e+00    5.137275e-01   9.318823e-03
  3.862772e+00    4.924063e-01   9.142988e-03
  3.864983e+00    5.008911e-01   9.241199e-03
  3.867193e+00    5.083020e-01   9.329385e-03
  3.869404e+00    5.048940e-01   9.318082e-03
  3.871614e+00    4.978613e-01   9.273054e-03
  3.873825e+00    5.162563e-01   9.463605e-03
  3.876035e+00    4.785852e-01   9.132059e-03
  3.878246e+00    5.091991e-01   9.445786e-03
  3.880456e+00    5.304148e-01   9.670642e-03
  3.882667e+00    5.267985e-01   9.668004e-03
  3.884877e+00    4.910533e-01   9.363981e-03
  3.887087e+00    5.040702e-01   9.517533e-03
  3.889298e+00    4.955020e-01   9.466808e-03
  3.891508e+00    5.203977e-01   9.733200e-03
  3.893719e+00    4.978527e-01   9.551183e-03
  3.895929e+00    5.085278e-01   9.685078e-03
  3.898140e+00    5.124652e-01   9.754894e-03
  3.900350e+00    5.084003e-01   9.748828e-03
  3.902561e+00    5.138998e-01   9.834554e-03
  3.904771e+00    5.105159e-01   9.835637e-03
  3.906982e+00    4.991616e-01   9.759128e-03
  3.909192e+00    4.802397e-01   9.605547e-03
  3.911403e+00    5.044932e-01   9.879611e-03
  3.913613e+00    5.108981e-01   9.977220e-03
  3.915823e+00    4.859229e-01   9.765000e-03
  3.918034e+00    4.903712e-01   9.844950e-03
  3.920244e+00    4.918745e-01   9.895840e-03
  3.922455e+00    4.918557e-01   9.931903e-03
  3.924665e+00    5.142949e-01   1.019331e-02
  3.926876e+00    4.983025e-01   1.007106e-02
  3.929086e+00    4.791845e-01   9.913053e-03
  3.931297e+00    4.674955e-01   9.825466e-03
  3.933507e+00    4.953002e-01   1.014257e-02
  3.935718e+00    5.136481e-01   1.035822e-02
  3.937928e+00    4.944717e-01   1.019277e-02
  3.940138e+00    4.805195e-01   1.007701e-02
  3.942349e+00    4.891993e-01   1.019751e-02
  3.944559e+00    5.227851e-01   1.057287e-02
  3.946770e+00    5.066462e-01   1.043925e-02
  3.948980e+00    4.579479e-01   9.954632e-03
  3.951191e+00    4.732716e-01   1.015021e-02
  3.953401e+00    4.994096e-01   1.045850e-02
  3.955612e+00    5.194479e-01   1.069895e-02
  3.957822e+00    5.203136e-01   1.074072e-02
  3.960033e+00    4.912688e-01   1.046935e-02
  3.962243e+00    4.944293e-01   1.053618e-02
  3.964453e+00    4.906850e-01   1.052945e-02
  3.966664e+00    5.254089e-01   1.093038e-02
  3.968874e+00    4.812429e-01   1.048917e-02
  3.971085e+00    4.905343e-01   1.061198e-02
  3.973295e+00    4.920519e-01   1.065004e-02
  3.975506e+00    4.806985e-01   1.054789e-02
  3.977716e+00    5.308232e-01   1.110716e-02
  3.979927e+00    5.352800e-01   1.117708e-02
  3.982137e+00    5.072134e-01   1.090278e-02
  3.984348e+00    4.798969e-01   1.062761e-02
  3.986558e+00    5.357828e-01   1.125275e-02
  3.988768e+00    4.727144e-01   1.059259e-02
  3.990979e+00    4.638885e-01   1.051535e-02
  3.993189e+00    4.783296e-01   1.070071e-02
  3.995400e+00    4.997157e-01   1.096117e-02
  3.997610e+00    5.214314e-01   1.122784e-02
  3.999821e+00    5.199445e-01   1.125053e-02
  4.002031e+00    5.235347e-01   1.132937e-02
  4.004242e+00    4.873592e-01   1.096946e-02
  4.006452e+00    5.037883e-01   1.119289e-02
  4.008663e+00    5.129657e-01   1.133566e-02
  4.010873e+00    4.700482e-01   1.089038e-02
  4.013084e+00    4.797534e-01   1.104293e-02
  4.015294e+00    5.002778e-01   1.131844e-02
  4.017504e+00    4.831649e-01   1.116491e-02
  4.019715e+00    4.994027e-01   1.139413e-02
  4.021925e+00    4.967496e-01   1.140733e-02
  4.024136e+00    5.088329e-01   1.159017e-02
  4.026346e+00    5.096731e-01   1.164491e-02
  4.028557e+00    4.841926e-01   1.139438e-02
  4.030767e+00    5.059413e-01   1.169423e-02
  4.032978e+00    5.051479e-01   1.173245e-02
  4.035188e+00    4.650644e-01   1.130255e-02
  4.037399e+00    5.131143e-01   1.192102e-02
  4.039609e+00    4.719687e-01   1.148030e-02
  4.041819e+00    4.656433e-01   1.145107e-02
  4.044030e+00    4.715748e-01   1.157289e-02
  4.046240e+00    4.783049e-01   1.170490e-02
  4.048451e+00    5.062626e-01   1.209422e-02
  4.050661e+00    4.975326e-01   1.204166e-02
  4.052872e+00    4.991066e-01   1.211445e-02
  4.055082e+00    5.078900e-01   1.227540e-02
  4.057293e+00    4.899768e-01   1.211121e-02
  4.059503e+00    4.920653e-01   1.219211e-02
  4.061714e+00    5.160162e-01   1.254373e-02
  4.063924e+00    5.087683e-01   1.251366e-02
  4.066134e+00    5.116748e-01   1.260849e-02
  4.068345e+00    4.999891e-01   1.252370e-02
  4.070555e+00    5.017111e-01   1.260576e-02
  4.072766e+00    5.066271e-01   1.272979e-02
  4.074976e+00    4.733918e-01   1.236652e-02
  4.077187e+00    4.766696e-01   1.247089e-02
  4.079397e+00    4.690800e-01   1.243446e-02
  4.081608e+00    5.029866e-01   1.294285e-02
  4.083818e+00    4.878069e-01   1.281247e-02
  4.086029e+00    5.221195e-01   1.332528e-02
  4.088239e+00    4.879726e-01   1.295154e-02
  4.090449e+00    5.078793e-01   1.328473e-02
  4.092660e+00    4.728692e-01   1.288927e-02
  4.094870e+00    4.496717e-01   1.263902e-02
  4.097081e+00    4.774944e-01   1.309533e-02
  4.099291e+00    4.791934e-01   1.317303e-02
  4.101502e+00    4.884648e-01   1.334951e-02
  4.103712e+00    4.750395e-01   1.321372e-02
  4.105923e+00    4.760631e-01   1.327917e-02
  4.108133e+00    4.801781e-01   1.338795e-02
  4.110344e+00    4.726709e-01   1.333367e-02
  4.112554e+00    4.639466e-01   1.326229e-02
  4.114764e+00    4.730641e-01   1.344551e-02
  4.116975e+00    5.162127e-01   1.410094e-02
  4.119185e+00    4.563653e-01   1.331221e-02
  4.121396e+00    4.418546e-01   1.315281e-02
  4.123606e+00    4.897625e-01   1.390427e-02
  4.125817e+00    4.658656e-01   1.361797e-02
  4.128027e+00    4.865716e-01   1.397552e-02
  4.130238e+00    5.033501e-01   1.427571e-02
  4.132448e+00    4.955573e-01   1.422621e-02
  4.134659e+00    4.797413e-01   1.405748e-02
  4.136869e+00    4.508309e-01   1.368824e-02
  4.139080e+00    4.738416e-01   1.409630e-02
  4.141290e+00    4.738337e-01   1.415860e-02
  4.143500e+00    5.205550e-01   1.490880e-02
  4.145711e+00    4.908505e-01   1.454485e-02
  4.147921e+00    5.026747e-01   1.478635e-02
  4.150132e+00    4.788671e-01   1.450097e-02
  4.152342e+00    4.781156e-01   1.455971e-02
  4.154553e+00    4.837214e-01   1.471442e-02
  4.156763e+00    5.030025e-01   1.507913e-02
  4.158974e+00    4.870061e-01   1.491207e-02
  4.161184e+00    4.741450e-01   1.478665e-02
  4.163395e+00    4.813643e-01   1.497497e-02
  4.165605e+00    4.662549e-01   1.481476e-02
  4.167815e+00    4.761411e-01   1.504909e-02
  4.170026e+00    5.108553e-01   1.567014e-02
  4.172236e+00    4.796534e-01   1.526609e-02
  4.174447e+00    5.085616e-01   1.580502e-02
  4.176657e+00    4.733674e-01   1.533157e-02
  4.178868e+00    5.019347e-01   1.587681e-02
  4.181078e+00    5.331194e-01   1.645493e-02
  4.183289e+00    4.745266e-01   1.561305e-02
  4.185499e+00    4.531800e-01   1.534789e-02
  4.187710e+00    4.943379e-01   1.612355e-02
  4.189920e+00    4.957626e-01   1.624400e-02
  4.192130e+00    4.999146e-01   1.641180e-02
  4.194341e+00    4.723008e-01   1.604968e-02
  4.196551e+00    5.217414e-01   1.697559e-02
  4.198762e+00    4.711326e-01   1.623399e-02
  4.200972e+00    5.213456e-01   1.718749e-02
  4.203183e+00    4.504482e-01   1.608150e-02
  4.205393e+00    5.168388e-01   1.734054e-02
  4.207604e+00    5.093110e-01   1.733132e-02
  4.209814e+00    4.934700e-01   1.717646e-02
  4.212025e+00    4.650512e-01   1.679301e-02
  4.214235e+00    5.224348e-01   1.792479e-02
  4.216445e+00    4.828347e-01   1.735672e-02
  4.218656e+00    4.616508e-01   1.709903e-02
  4.220866e+00    4.278363e-01   1.658267e-02
  4.223077e+00    5.120155e-01   1.828043e-02
  4.225287e+00    4.548979e-01   1.736619e-02
  4.227498e+00    4.875857e-01   1.812025e-02
  4.229708e+00    5.016941e-01   1.853003e-02
  4.231919e+00    4.787876e-01   1.825197e-02
  4.234129e+00    5.562593e-01   1.983789e-02
  4.236340e+00    5.151875e-01   1.925522e-02
  4.238550e+00    4.808993e-01   1.876770e-02
  4.240761e+00    4.888334e-01   1.908873e-02
  4.242971e+00    5.176329e-01   1.982312e-02
  4.245181e+00    4.418326e-01   1.848624e-02
  4.247392e+00    4.597802e-01   1.903422e-02
  4.249602e+00    4.789871e-01   1.962084e-02
  4.251813e+00    4.679455e-01   1.958399e-02
  4.254023e+00    4.956934e-01   2.035995e-02
  4.256234e+00    5.384089e-01   2.144559e-02
  4.258444e+00    5.259412e-01   2.141771e-02
  4.260655e+00    4.366021e-01   1.972892e-02
  4.262865e+00    4.309960e-01   1.982373e-02
  4.265076e+00    4.565987e-01   2.063577e-02
  4.267286e+00    4.783874e-01   2.137368e-02
  4.269496e+00    4.918566e-01   2.193640e-02
  4.271707e+00    4.676051e-01   2.165352e-02
  4.273917e+00    4.566484e-01   2.167428e-02
  4.276128e+00    4.456781e-01   2.169771e-02
  4.278338e+00    4.056170e-01   2.097503e-02
  4.280549e+00    5.004520e-01   2.363297e-02
  4.282759e+00    4.895087e-01   2.370907e-02
  4.284970e+00    4.923474e-01   2.412975e-02
  4.287180e+00    4.876308e-01   2.430107e-02
  4.289391e+00    5.246930e-01   2.539783e-02
  4.291601e+00    5.089916e-01   2.521383e-02
  4.293811e+00    4.616429e-01   2.420086e-02
  4.296022e+00    5.781447e-01   2.730001e-02
  4.298232e+00    4.920138e-01   2.539596e-02
  4.300443e+00    4.567672e-01   2.467155e-02
  4.302653e+00    3.877384e-01   2.292755e-02
  4.304864e+00    4.437647e-01   2.474047e-02
  4.307074e+00    4.919048e-01   2.628062e-02
  4.309285e+00    5.643119e-01   2.840564e-02
  4.311495e+00    4.137085e-01   2.454919e-02
  4.313706e+00    5.353420e-01   2.818766e-02
  4.315916e+00    4.596692e-01   2.637759e-02
  4.318126e+00    4.628215e-01   2.672858e-02
  4.320337e+00    6.034018e-01   3.082857e-02
  4.322547e+00    4.418539e-01   2.666118e-02
  4.324758e+00    4.009808e-01   2.566168e-02
  4.326968e+00    5.000526e-01   2.897922e-02
  4.329179e+00    4.273116e-01   2.708415e-02
  4.331389e+00    4.121611e-01   2.690645e-02
  4.333600e+00    5.770948e-01   3.221794e-02
  4.335810e+00    4.331202e-01   2.824308e-02
  4.338021e+00    5.454947e-01   3.210226e-02
  4.340231e+00    4.450310e-01   2.935985e-02
  4.342442e+00    4.036520e-01   2.833609e-02
  4.344652e+00    3.981656e-01   2.852578e-02
  4.346862e+00    4.347399e-01   3.022394e-02
  4.349073e+00    4.049205e-01   2.959391e-02
  4.351283e+00    3.412572e-01   2.757359e-02
  4.353494e+00    3.855079e-01   2.975904e-02
  4.355704e+00    5.291947e-01   3.542886e-02
  4.357915e+00    4.300094e-01   3.246848e-02
  4.360125e+00    4.928637e-01   3.535194e-02
  4.362336e+00    4.502434e-01   3.440782e-02
  4.364546e+00    4.056057e-01   3.324885e-02
  4.366757e+00    5.544496e-01   3.964923e-02
  4.368967e+00    5.053984e-01   3.861060e-02
  4.371177e+00    4.364072e-01   3.663924e-02
  4.373388e+00    5.418405e-01   4.174099e-02
  4.375598e+00    5.084860e-01   4.135664e-02
  4.377809e+00    5.431780e-01   4.382668e-02
  4.380019e+00    3.815559e-01   3.765602e-02
  4.382230e+00    5.591259e-01   4.685593e-02
  4.384440e+00    3.676536e-01   3.908953e-02
  4.386651e+00    5.695240e-01   5.014928e-02
  4.388861e+00    5.152825e-01   4.930402e-02
  4.391072e+00    4.706365e-01   4.877236e-02
  4.393282e+00    4.082689e-01   4.718666e-02
  4.395492e+00    3.377902e-01   4.470128e-02
  4.397703e+00    4.599586e-01   5.454509e-02
  4.399913e+00    5.845578e-01   6.460823e-02
  4.402124e+00    3.205247e-01   5.055491e-02
  4.404334e+00    4.608225e-01   6.443019e-02
  4.406545e+00    1.564526e-01   4.033859e-02
  4.408755e+00    4.070430e-01   7.056144e-02
  4.410966e+00    4.601058e-01   8.303222e-02
  4.413176e+00    3.818864e-01   8.562880e-02
  4.415387e+00   -7.037345e-01            nan
  4.417597e+00   -1.789165e+00            nan
  4.419807e+00   -3.766224e-01            nan
