# == pyFAI calibration ==
# Distance Sample to Detector: 0.216 m
# PONI: 1.166e-01, 1.308e-01 m
# Rotations: 0.000000 0.000000 0.000000 rad
# 
# == Fit2d calibration ==
# Distance Sample-beamCenter: 216.000 mm
# Center: x=1744.293, y=1555.000 pix
# Tilt: 0.000 deg  TiltPlanRot: 0.000 deg
# 
# Detector Eiger 9M	 PixelSize= 7.500e-05, 7.500e-05 m
#    Detector has a mask: True 
#    Detector has a dark current: False 
#    detector has a flat field: False 
# 
# Wavelength: 9.8e-11 m
# Mask applied: from detector
# Dark current applied: False
# Flat field applied: False
# Polarization factor: None
# Normalization factor: 1.0
# 
# Headers of the input frame:
# {
# "_array_data.header_convention": "SLS_1.0",
# "_array_data.header_contents": "# Detector: Dectris Eiger 9M, S/N E-18-0102\r\n# Pixel_size 75e-6 m x 75e-6 m\r\n# Silicon sensor, thickness 0.000450 m\r\n# Exposure_time 0.024997 s\r\n# Exposure_period 0.025000 s\r\n# Count_cutoff 62318 counts\r\n# Wavelength 0.980106 A\r\n# Detector_distance 0.215992 m\r\n# Beam_xy (1555, 1744) pixels\r\n# Start_angle 0.000000 deg.\r\n# Angle_increment 0.000000 deg.",
# "Content-Type": "application/octet-stream;",
# "conversions": "x-CBF_BYTE_OFFSET",
# "Content-Transfer-Encoding": "BINARY",
# "X-Binary-Size": "10166590",
# "X-Binary-ID": "1",
# "X-Binary-Element-Type": "signed 32-bit integer",
# "X-Binary-Element-Byte-Order": "LITTLE_ENDIAN",
# "Content-MD5": "CFn5R/kCCpYiIIPcvZL0oA==",
# "X-Binary-Number-of-Elements": "10166590",
# "X-Binary-Size-Fastest-Dimension": "3110",
# "X-Binary-Size-Second-Dimension": "3269",
# "X-Binary-Size-Padding": "4095"
# }
# --> H:/Proxima2a_2019-04-05/RAW_DATA/C5_gel17_position5/C5_mesh_1_data.cbf/C5_mesh_1_data.cbf000010.dat
#        q_A^-1              I           sigma 
  1.105228e-03    6.562560e-01   4.383526e-01
  3.315685e-03    9.433745e-01   3.195122e-01
  5.526141e-03    1.538601e+00   3.155260e-01
  7.736597e-03    1.565472e+00   2.688703e-01
  9.947054e-03    1.078040e+00   1.966953e-01
  1.215751e-02    1.325420e+00   1.972174e-01
  1.436797e-02    1.412810e+00   1.872913e-01
  1.657842e-02    1.542022e+00   1.821335e-01
  1.878888e-02    1.434355e+00   1.650030e-01
  2.099934e-02    1.209638e+00   1.433606e-01
  2.320979e-02    1.352627e+00   1.441856e-01
  2.542025e-02    1.421795e+00   1.412628e-01
  2.763070e-02    1.427940e+00   1.357830e-01
  2.984116e-02    1.318634e+00   1.255563e-01
  3.205162e-02    1.414145e+00   1.254681e-01
  3.426207e-02    1.565357e+00   1.276679e-01
  3.647253e-02    1.500773e+00   1.211566e-01
  3.868299e-02    1.327799e+00   1.106654e-01
  4.089344e-02    1.248699e+00   1.043781e-01
  4.310390e-02    1.337099e+00   1.051975e-01
  4.531436e-02    1.380854e+00   1.042653e-01
  4.752481e-02    1.337405e+00   1.001960e-01
  4.973527e-02    1.292413e+00   9.628361e-02
  5.194572e-02    1.361765e+00   9.670614e-02
  5.415618e-02    1.438524e+00   9.734133e-02
  5.636664e-02    1.506565e+00   9.764706e-02
  5.857709e-02    1.536729e+00   9.674160e-02
  6.078755e-02    1.440283e+00   9.193508e-02
  6.299801e-02    1.456595e+00   9.081671e-02
  6.520846e-02    1.403669e+00   8.762805e-02
  6.741892e-02    1.381171e+00   8.548178e-02
  6.962938e-02    1.507614e+00   8.788431e-02
  7.183983e-02    1.539289e+00   8.742430e-02
  7.405029e-02    1.486874e+00   8.462884e-02
  7.626074e-02    1.478204e+00   8.314909e-02
  7.847120e-02    1.394207e+00   7.960450e-02
  8.068166e-02    1.429135e+00   7.948311e-02
  8.289211e-02    1.522316e+00   8.093179e-02
  8.510257e-02    1.520344e+00   7.982159e-02
  8.731303e-02    1.540855e+00   7.933149e-02
  8.952348e-02    1.487936e+00   7.699096e-02
  9.173394e-02    1.470172e+00   7.559934e-02
  9.394439e-02    1.416671e+00   7.333037e-02
  9.615485e-02    1.400581e+00   7.206823e-02
  9.836531e-02    1.497609e+00   7.367864e-02
  1.005758e-01    1.555365e+00   7.425670e-02
  1.027862e-01    1.507265e+00   7.230739e-02
  1.049967e-01    1.486973e+00   7.105776e-02
  1.072071e-01    1.541729e+00   7.160360e-02
  1.094176e-01    1.561903e+00   7.133775e-02
  1.116280e-01    1.549011e+00   7.033426e-02
  1.138385e-01    1.532758e+00   6.928034e-02
  1.160490e-01    1.574562e+00   6.954597e-02
  1.182594e-01    1.535294e+00   6.802696e-02
  1.204699e-01    1.466679e+00   6.587616e-02
  1.226803e-01    1.443377e+00   6.475664e-02
  1.248908e-01    1.502736e+00   6.548667e-02
  1.271012e-01    1.516226e+00   6.520415e-02
  1.293117e-01    1.577355e+00   6.593386e-02
  1.315222e-01    1.554745e+00   6.490570e-02
  1.337326e-01    1.633524e+00   6.597636e-02
  1.359431e-01    1.680734e+00   6.696214e-02
  1.381535e-01    1.545884e+00   6.508174e-02
  1.403640e-01    1.532786e+00   6.508522e-02
  1.425744e-01    1.609771e+00   6.680622e-02
  1.447849e-01    1.552380e+00   6.561968e-02
  1.469953e-01    1.586897e+00   6.630361e-02
  1.492058e-01    1.595656e+00   6.640910e-02
  1.514163e-01    1.557411e+00   6.549946e-02
  1.536267e-01    1.607383e+00   6.641205e-02
  1.558372e-01    1.703274e+00   6.821341e-02
  1.580476e-01    1.654974e+00   6.707613e-02
  1.602581e-01    1.637195e+00   6.654543e-02
  1.624685e-01    1.536746e+00   6.429517e-02
  1.646790e-01    1.518087e+00   6.372015e-02
  1.668895e-01    1.545982e+00   6.411721e-02
  1.690999e-01    1.650468e+00   6.604953e-02
  1.713104e-01    1.707958e+00   6.698152e-02
  1.735208e-01    1.695095e+00   6.652131e-02
  1.757313e-01    1.771617e+00   6.779310e-02
  1.779417e-01    1.795549e+00   6.802686e-02
  1.801522e-01    1.759240e+00   6.712110e-02
  1.823626e-01    1.802531e+00   6.771573e-02
  1.845731e-01    1.876346e+00   6.886455e-02
  1.867836e-01    1.894026e+00   6.895471e-02
  1.889940e-01    1.910665e+00   6.903064e-02
  1.912045e-01    1.935071e+00   6.923813e-02
  1.934149e-01    1.944543e+00   6.917508e-02
  1.956254e-01    2.003968e+00   6.999251e-02
  1.978358e-01    2.036391e+00   7.031468e-02
  2.000463e-01    1.936816e+00   6.834677e-02
  2.022568e-01    2.037261e+00   6.986654e-02
  2.044672e-01    1.927911e+00   6.773282e-02
  2.066777e-01    1.912742e+00   6.724188e-02
  2.088881e-01    1.872945e+00   6.632099e-02
  2.110986e-01    1.970714e+00   6.779665e-02
  2.133090e-01    2.075619e+00   6.935158e-02
  2.155195e-01    2.021877e+00   6.822082e-02
  2.177300e-01    1.921897e+00   6.599019e-02
  2.199404e-01    2.012748e+00   6.575245e-02
  2.221509e-01    1.935703e+00   6.342289e-02
  2.243613e-01    1.942646e+00   6.273106e-02
  2.265718e-01    1.974035e+00   6.253882e-02
  2.287822e-01    2.095942e+00   6.380313e-02
  2.309927e-01    2.118338e+00   6.355877e-02
  2.332031e-01    2.170238e+00   6.378207e-02
  2.354136e-01    2.186954e+00   6.350829e-02
  2.376241e-01    2.205255e+00   6.327848e-02
  2.398345e-01    2.115398e+00   6.151720e-02
  2.420450e-01    2.170218e+00   6.186388e-02
  2.442554e-01    2.127773e+00   6.083393e-02
  2.464659e-01    2.136566e+00   6.055024e-02
  2.486763e-01    2.124923e+00   5.998811e-02
  2.508868e-01    2.130652e+00   5.968997e-02
  2.530973e-01    2.093006e+00   5.879352e-02
  2.553077e-01    2.085716e+00   5.833504e-02
  2.575182e-01    2.083700e+00   5.796186e-02
  2.597286e-01    2.031821e+00   5.690306e-02
  2.619391e-01    1.992244e+00   5.602172e-02
  2.641495e-01    2.102589e+00   5.723372e-02
  2.663600e-01    2.123927e+00   5.720710e-02
  2.685704e-01    2.069172e+00   5.615879e-02
  2.707809e-01    1.969779e+00   5.450256e-02
  2.729914e-01    1.982020e+00   5.438671e-02
  2.752018e-01    2.114725e+00   5.588555e-02
  2.774123e-01    2.034078e+00   5.452961e-02
  2.796227e-01    2.007824e+00   5.390855e-02
  2.818332e-01    2.014399e+00   5.372740e-02
  2.840436e-01    1.977548e+00   5.297564e-02
  2.862541e-01    2.020256e+00   5.328721e-02
  2.884646e-01    2.021768e+00   5.305419e-02
  2.906750e-01    2.028970e+00   5.289659e-02
  2.928855e-01    2.022859e+00   5.257213e-02
  2.950959e-01    2.045449e+00   5.262203e-02
  2.973064e-01    2.005454e+00   5.187086e-02
  2.995168e-01    1.935500e+00   5.072736e-02
  3.017273e-01    1.869921e+00   4.964075e-02
  3.039377e-01    1.876435e+00   4.950938e-02
  3.061482e-01    1.857679e+00   4.904824e-02
  3.083587e-01    1.896423e+00   4.934255e-02
  3.105691e-01    1.827630e+00   4.823245e-02
  3.127796e-01    1.820761e+00   4.793931e-02
  3.149900e-01    1.890597e+00   4.864649e-02
  3.172005e-01    1.833349e+00   4.770844e-02
  3.194109e-01    1.914912e+00   4.855684e-02
  3.216214e-01    1.937302e+00   4.864060e-02
  3.238319e-01    1.933359e+00   4.839858e-02
  3.260423e-01    1.922345e+00   4.806828e-02
  3.282528e-01    1.908095e+00   4.769915e-02
  3.304632e-01    1.853703e+00   4.683226e-02
  3.326737e-01    1.806716e+00   4.605450e-02
  3.348841e-01    1.866920e+00   4.663399e-02
  3.370946e-01    1.832630e+00   4.602990e-02
  3.393050e-01    1.814005e+00   4.562194e-02
  3.415155e-01    1.781726e+00   4.504419e-02
  3.437260e-01    1.804035e+00   4.515731e-02
  3.459364e-01    1.835104e+00   4.537605e-02
  3.481469e-01    1.809130e+00   4.488930e-02
  3.503573e-01    1.817162e+00   4.482497e-02
  3.525678e-01    1.793144e+00   4.436905e-02
  3.547782e-01    1.804434e+00   4.434766e-02
  3.569887e-01    1.797839e+00   4.410969e-02
  3.591992e-01    1.810005e+00   4.410207e-02
  3.614096e-01    1.821184e+00   4.408468e-02
  3.636201e-01    1.804797e+00   4.373167e-02
  3.658305e-01    1.814500e+00   4.369948e-02
  3.680410e-01    1.811654e+00   4.351504e-02
  3.702514e-01    1.801809e+00   4.325069e-02
  3.724619e-01    1.775527e+00   4.278790e-02
  3.746724e-01    1.749640e+00   4.233309e-02
  3.768828e-01    1.789357e+00   4.266684e-02
  3.790933e-01    1.762993e+00   4.221333e-02
  3.813037e-01    1.822488e+00   4.277929e-02
  3.835142e-01    1.793099e+00   4.229357e-02
  3.857246e-01    1.825738e+00   4.253869e-02
  3.879351e-01    1.774581e+00   4.180272e-02
  3.901455e-01    1.769017e+00   4.160427e-02
  3.923560e-01    1.787203e+00   4.168466e-02
  3.945665e-01    1.765965e+00   4.130485e-02
  3.967769e-01    1.762892e+00   4.113965e-02
  3.989874e-01    1.716763e+00   4.047107e-02
  4.011978e-01    1.743485e+00   4.065941e-02
  4.034083e-01    1.749624e+00   4.060588e-02
  4.056187e-01    1.749881e+00   4.048378e-02
  4.078292e-01    1.745964e+00   4.031606e-02
  4.100397e-01    1.806992e+00   4.088936e-02
  4.122501e-01    1.802795e+00   4.071969e-02
  4.144606e-01    1.822285e+00   4.081778e-02
  4.166710e-01    1.785132e+00   4.027944e-02
  4.188815e-01    1.779849e+00   4.010096e-02
  4.210919e-01    1.799500e+00   4.020357e-02
  4.233024e-01    1.856192e+00   4.071184e-02
  4.255128e-01    1.820402e+00   4.020092e-02
  4.277233e-01    1.817018e+00   4.004812e-02
  4.299338e-01    1.779601e+00   3.951961e-02
  4.321442e-01    1.787852e+00   3.949776e-02
  4.343547e-01    1.780657e+00   3.930673e-02
  4.365651e-01    1.775767e+00   3.914122e-02
  4.387756e-01    1.755276e+00   3.880576e-02
  4.409860e-01    1.732053e+00   3.844139e-02
  4.431965e-01    1.766939e+00   3.871923e-02
  4.454070e-01    1.762493e+00   3.856292e-02
  4.476174e-01    1.707333e+00   3.785046e-02
  4.498279e-01    1.650074e+00   3.710909e-02
  4.520383e-01    1.688319e+00   3.743369e-02
  4.542488e-01    1.694538e+00   3.740142e-02
  4.564592e-01    1.749563e+00   3.790189e-02
  4.586697e-01    1.701329e+00   3.727657e-02
  4.608801e-01    1.728549e+00   3.747293e-02
  4.630906e-01    1.780284e+00   3.792888e-02
  4.653011e-01    1.756470e+00   3.757529e-02
  4.675115e-01    1.720757e+00   3.709336e-02
  4.697220e-01    1.740379e+00   3.720660e-02
  4.719324e-01    1.724157e+00   3.693700e-02
  4.741429e-01    1.707770e+00   3.666632e-02
  4.763533e-01    1.706059e+00   3.655400e-02
  4.785638e-01    1.720161e+00   3.660994e-02
  4.807743e-01    1.717903e+00   3.649288e-02
  4.829847e-01    1.667187e+00   3.585935e-02
  4.851952e-01    1.669051e+00   3.578859e-02
  4.874056e-01    1.724311e+00   3.628449e-02
  4.896161e-01    1.691850e+00   3.585223e-02
  4.918265e-01    1.716877e+00   3.602671e-02
  4.940370e-01    1.697362e+00   3.573296e-02
  4.962475e-01    1.698817e+00   3.565997e-02
  4.984579e-01    1.702578e+00   3.561145e-02
  5.006684e-01    1.651642e+00   3.498921e-02
  5.028788e-01    1.646024e+00   3.484499e-02
  5.050893e-01    1.699801e+00   3.532350e-02
  5.072997e-01    1.702301e+00   3.526410e-02
  5.095102e-01    1.677207e+00   3.491938e-02
  5.117206e-01    1.661998e+00   3.467804e-02
  5.139311e-01    1.664640e+00   3.462346e-02
  5.161416e-01    1.631914e+00   3.420042e-02
  5.183520e-01    1.661463e+00   3.442665e-02
  5.205625e-01    1.637658e+00   3.409908e-02
  5.227729e-01    1.623511e+00   3.387227e-02
  5.249834e-01    1.601422e+00   3.356296e-02
  5.271938e-01    1.649184e+00   3.398030e-02
  5.294043e-01    1.749369e+00   3.491643e-02
  5.316148e-01    1.758774e+00   3.493002e-02
  5.338252e-01    1.800864e+00   3.526471e-02
  5.360357e-01    1.765439e+00   3.483666e-02
  5.382461e-01    1.772697e+00   3.482928e-02
  5.404566e-01    1.795608e+00   3.497386e-02
  5.426670e-01    1.771884e+00   3.466378e-02
  5.448775e-01    1.734209e+00   3.421666e-02
  5.470879e-01    1.718440e+00   3.398477e-02
  5.492984e-01    1.751272e+00   3.423159e-02
  5.515089e-01    1.822841e+00   3.484661e-02
  5.537193e-01    1.772017e+00   3.428170e-02
  5.559298e-01    1.792181e+00   3.440056e-02
  5.581402e-01    1.791541e+00   3.431928e-02
  5.603507e-01    1.786344e+00   3.419487e-02
  5.625611e-01    1.786765e+00   3.412469e-02
  5.647716e-01    1.774430e+00   3.393286e-02
  5.669821e-01    1.800627e+00   3.410874e-02
  5.691925e-01    1.727272e+00   3.333505e-02
  5.714030e-01    1.738722e+00   3.337402e-02
  5.736134e-01    1.727907e+00   3.319933e-02
  5.758239e-01    1.708439e+00   3.294129e-02
  5.780343e-01    1.664504e+00   3.244621e-02
  5.802448e-01    1.633147e+00   3.207185e-02
  5.824552e-01    1.616997e+00   3.184590e-02
  5.846657e-01    1.606276e+00   3.167400e-02
  5.868762e-01    1.657566e+00   3.210872e-02
  5.890866e-01    1.628572e+00   3.176063e-02
  5.912971e-01    1.643762e+00   3.184234e-02
  5.935075e-01    1.649756e+00   3.183443e-02
  5.957180e-01    1.670355e+00   3.196682e-02
  5.979284e-01    1.660196e+00   3.180441e-02
  6.001389e-01    1.634828e+00   3.149623e-02
  6.023494e-01    1.636709e+00   3.145035e-02
  6.045598e-01    1.619841e+00   3.122416e-02
  6.067703e-01    1.657494e+00   3.152146e-02
  6.089807e-01    1.658664e+00   3.146918e-02
  6.111912e-01    1.679206e+00   3.160023e-02
  6.134016e-01    1.678463e+00   3.153023e-02
  6.156121e-01    1.667637e+00   3.136590e-02
  6.178226e-01    1.683723e+00   3.145442e-02
  6.200330e-01    1.684652e+00   3.140104e-02
  6.222435e-01    1.699935e+00   3.148064e-02
  6.244539e-01    1.744183e+00   3.182530e-02
  6.266644e-01    1.752416e+00   3.183810e-02
  6.288748e-01    1.710896e+00   3.139744e-02
  6.310853e-01    1.699644e+00   3.123326e-02
  6.332957e-01    1.746071e+00   3.159584e-02
  6.355062e-01    1.708124e+00   3.118993e-02
  6.377167e-01    1.707622e+00   3.112550e-02
  6.399271e-01    1.682591e+00   3.083733e-02
  6.421376e-01    1.690665e+00   3.085223e-02
  6.443480e-01    1.680483e+00   3.070067e-02
  6.465585e-01    1.675632e+00   3.059825e-02
  6.487689e-01    1.717795e+00   3.092231e-02
  6.509794e-01    1.672842e+00   3.045751e-02
  6.531899e-01    1.609201e+00   2.981634e-02
  6.554003e-01    1.613884e+00   2.980355e-02
  6.576108e-01    1.628612e+00   2.988348e-02
  6.598212e-01    1.600865e+00   2.957279e-02
  6.620317e-01    1.614029e+00   2.963907e-02
  6.642421e-01    1.658772e+00   2.999149e-02
  6.664526e-01    1.651903e+00   2.987421e-02
  6.686630e-01    1.616673e+00   2.949928e-02
  6.708735e-01    1.598868e+00   2.928258e-02
  6.730840e-01    1.575042e+00   2.901058e-02
  6.752944e-01    1.584399e+00   2.904370e-02
  6.775049e-01    1.606088e+00   2.918873e-02
  6.797153e-01    1.616393e+00   2.922920e-02
  6.819258e-01    1.611393e+00   2.913133e-02
  6.841362e-01    1.597715e+00   2.895526e-02
  6.863467e-01    1.590297e+00   2.883622e-02
  6.885572e-01    1.588054e+00   2.876425e-02
  6.907676e-01    1.597625e+00   2.879908e-02
  6.929781e-01    1.623850e+00   2.898291e-02
  6.951885e-01    1.613731e+00   2.884127e-02
  6.973990e-01    1.584157e+00   2.852527e-02
  6.996094e-01    1.588722e+00   2.851606e-02
  7.018199e-01    1.597638e+00   2.854578e-02
  7.040303e-01    1.618034e+00   2.867694e-02
  7.062408e-01    1.621078e+00   2.865364e-02
  7.084513e-01    1.605656e+00   2.846741e-02
  7.106617e-01    1.595607e+00   2.832888e-02
  7.128722e-01    1.589254e+00   2.822351e-02
  7.150826e-01    1.579751e+00   2.809050e-02
  7.172931e-01    1.584183e+00   2.808139e-02
  7.195035e-01    1.522686e+00   2.748361e-02
  7.217140e-01    1.568433e+00   2.794275e-02
  7.239245e-01    1.582804e+00   2.829781e-02
  7.261349e-01    1.566310e+00   2.825830e-02
  7.283454e-01    1.595534e+00   2.859359e-02
  7.305558e-01    1.549530e+00   2.823191e-02
  7.327663e-01    1.590178e+00   2.864251e-02
  7.349767e-01    1.580017e+00   2.856727e-02
  7.371872e-01    1.561337e+00   2.838676e-02
  7.393976e-01    1.535704e+00   2.813870e-02
  7.416081e-01    1.559101e+00   2.833614e-02
  7.438186e-01    1.536313e+00   2.798575e-02
  7.460290e-01    1.566647e+00   2.796717e-02
  7.482395e-01    1.582382e+00   2.793571e-02
  7.504499e-01    1.542724e+00   2.744852e-02
  7.526604e-01    1.567773e+00   2.755416e-02
  7.548708e-01    1.559074e+00   2.738864e-02
  7.570813e-01    1.565444e+00   2.739372e-02
  7.592918e-01    1.567155e+00   2.737359e-02
  7.615022e-01    1.588886e+00   2.752876e-02
  7.637127e-01    1.592914e+00   2.753067e-02
  7.659231e-01    1.554261e+00   2.716282e-02
  7.681336e-01    1.536888e+00   2.697934e-02
  7.703440e-01    1.543605e+00   2.700733e-02
  7.725545e-01    1.551534e+00   2.704594e-02
  7.747650e-01    1.590652e+00   2.734638e-02
  7.769754e-01    1.574439e+00   2.715398e-02
  7.791859e-01    1.618071e+00   2.747343e-02
  7.813963e-01    1.669678e+00   2.785404e-02
  7.836068e-01    1.684528e+00   2.792403e-02
  7.858172e-01    1.671133e+00   2.776080e-02
  7.880277e-01    1.675430e+00   2.774357e-02
  7.902381e-01    1.665278e+00   2.760915e-02
  7.924486e-01    1.618191e+00   2.716560e-02
  7.946591e-01    1.600076e+00   2.696481e-02
  7.968695e-01    1.632874e+00   2.719104e-02
  7.990800e-01    1.658645e+00   2.735579e-02
  8.012904e-01    1.625710e+00   2.703600e-02
  8.035009e-01    1.628692e+00   2.701263e-02
  8.057113e-01    1.629462e+00   2.697229e-02
  8.079218e-01    1.653208e+00   2.712121e-02
  8.101323e-01    1.659159e+00   2.712386e-02
  8.123427e-01    1.676895e+00   2.722195e-02
  8.145532e-01    1.654563e+00   2.699384e-02
  8.167636e-01    1.619721e+00   2.666318e-02
  8.189741e-01    1.594677e+00   2.641215e-02
  8.211845e-01    1.633309e+00   2.668533e-02
  8.233950e-01    1.685980e+00   2.706813e-02
  8.256054e-01    1.687035e+00   2.703172e-02
  8.278159e-01    1.629364e+00   2.652184e-02
  8.300264e-01    1.619268e+00   2.639667e-02
  8.322368e-01    1.647273e+00   2.658072e-02
  8.344473e-01    1.634000e+00   2.643012e-02
  8.366577e-01    1.624139e+00   2.630785e-02
  8.388682e-01    1.594340e+00   2.602374e-02
  8.410786e-01    1.596834e+00   2.600256e-02
  8.432891e-01    1.577762e+00   2.580576e-02
  8.454996e-01    1.613055e+00   2.605147e-02
  8.477100e-01    1.655323e+00   2.634872e-02
  8.499205e-01    1.634120e+00   2.613832e-02
  8.521309e-01    1.629886e+00   2.606373e-02
  8.543414e-01    1.619219e+00   2.593777e-02
  8.565518e-01    1.583801e+00   2.561259e-02
  8.587623e-01    1.606969e+00   2.575907e-02
  8.609727e-01    1.623443e+00   2.585062e-02
  8.631832e-01    1.641201e+00   2.595154e-02
  8.653937e-01    1.624236e+00   2.577740e-02
  8.676041e-01    1.639814e+00   2.586164e-02
  8.698146e-01    1.642496e+00   2.584321e-02
  8.720250e-01    1.639967e+00   2.578397e-02
  8.742355e-01    1.633502e+00   2.569390e-02
  8.764459e-01    1.618286e+00   2.553496e-02
  8.786564e-01    1.608529e+00   2.541990e-02
  8.808669e-01    1.587960e+00   2.521857e-02
  8.830773e-01    1.546594e+00   2.485046e-02
  8.852878e-01    1.560569e+00   2.492504e-02
  8.874982e-01    1.599722e+00   2.519914e-02
  8.897087e-01    1.637322e+00   2.545548e-02
  8.919191e-01    1.584124e+00   2.500099e-02
  8.941296e-01    1.565684e+00   2.481814e-02
  8.963401e-01    1.572989e+00   2.483987e-02
  8.985505e-01    1.561047e+00   2.470887e-02
  9.007610e-01    1.604240e+00   2.501158e-02
  9.029714e-01    1.589584e+00   2.486138e-02
  9.051819e-01    1.561564e+00   2.460450e-02
  9.073923e-01    1.578980e+00   2.470498e-02
  9.096028e-01    1.601236e+00   2.484357e-02
  9.118132e-01    1.585408e+00   2.468442e-02
  9.140237e-01    1.572927e+00   2.455075e-02
  9.162342e-01    1.588313e+00   2.463609e-02
  9.184446e-01    1.600589e+00   2.469536e-02
  9.206551e-01    1.607452e+00   2.471257e-02
  9.228655e-01    1.577144e+00   2.444350e-02
  9.250760e-01    1.633854e+00   2.484335e-02
  9.272864e-01    1.631957e+00   2.479439e-02
  9.294969e-01    1.612420e+00   2.460959e-02
  9.317074e-01    1.646006e+00   2.482944e-02
  9.339178e-01    1.648103e+00   2.481132e-02
  9.361283e-01    1.629287e+00   2.463293e-02
  9.383387e-01    1.635991e+00   2.464996e-02
  9.405492e-01    1.630236e+00   2.457222e-02
  9.427596e-01    1.646649e+00   2.466004e-02
  9.449701e-01    1.663796e+00   2.475443e-02
  9.471805e-01    1.673820e+00   2.479372e-02
  9.493910e-01    1.658869e+00   2.464887e-02
  9.516015e-01    1.655209e+00   2.458728e-02
  9.538119e-01    1.690431e+00   2.481345e-02
  9.560224e-01    1.688898e+00   2.476730e-02
  9.582328e-01    1.706086e+00   2.485960e-02
  9.604433e-01    1.781509e+00   2.536719e-02
  9.626537e-01    1.763240e+00   2.520287e-02
  9.648642e-01    1.751613e+00   2.508522e-02
  9.670747e-01    1.784129e+00   2.528207e-02
  9.692851e-01    1.801811e+00   2.537326e-02
  9.714956e-01    1.868017e+00   2.579879e-02
  9.737060e-01    1.846240e+00   2.561430e-02
  9.759165e-01    1.879853e+00   2.580994e-02
  9.781269e-01    1.885876e+00   2.581747e-02
  9.803374e-01    1.849632e+00   2.553281e-02
  9.825478e-01    1.847073e+00   2.548148e-02
  9.847583e-01    1.813855e+00   2.521703e-02
  9.869688e-01    1.750211e+00   2.473752e-02
  9.891792e-01    1.762677e+00   2.479244e-02
  9.913897e-01    1.766243e+00   2.478402e-02
  9.936001e-01    1.765195e+00   2.474425e-02
  9.958106e-01    1.733619e+00   2.448860e-02
  9.980210e-01    1.718391e+00   2.434918e-02
  1.000231e+00    1.709285e+00   2.441759e-02
  1.002442e+00    1.712427e+00   2.456989e-02
  1.004652e+00    1.682953e+00   2.442548e-02
  1.006863e+00    1.696702e+00   2.457592e-02
  1.009073e+00    1.686821e+00   2.454178e-02
  1.011284e+00    1.655182e+00   2.434302e-02
  1.013494e+00    1.700938e+00   2.470167e-02
  1.015705e+00    1.689300e+00   2.464029e-02
  1.017915e+00    1.675526e+00   2.455655e-02
  1.020126e+00    1.654103e+00   2.441553e-02
  1.022336e+00    1.640641e+00   2.432797e-02
  1.024547e+00    1.582388e+00   2.390351e-02
  1.026757e+00    1.547775e+00   2.364898e-02
  1.028967e+00    1.560760e+00   2.375571e-02
  1.031178e+00    1.555056e+00   2.371844e-02
  1.033388e+00    1.556278e+00   2.373288e-02
  1.035599e+00    1.559778e+00   2.376300e-02
  1.037809e+00    1.519862e+00   2.346023e-02
  1.040020e+00    1.526344e+00   2.351146e-02
  1.042230e+00    1.555830e+00   2.373943e-02
  1.044441e+00    1.625852e+00   2.426753e-02
  1.046651e+00    1.653165e+00   2.447072e-02
  1.048862e+00    1.620182e+00   2.422456e-02
  1.051072e+00    1.556661e+00   2.374254e-02
  1.053282e+00    1.572373e+00   2.386108e-02
  1.055493e+00    1.524917e+00   2.349391e-02
  1.057703e+00    1.495915e+00   2.326792e-02
  1.059914e+00    1.474856e+00   2.309928e-02
  1.062124e+00    1.493209e+00   2.323852e-02
  1.064335e+00    1.470680e+00   2.305912e-02
  1.066545e+00    1.468742e+00   2.303795e-02
  1.068756e+00    1.473753e+00   2.307349e-02
  1.070966e+00    1.460117e+00   2.296000e-02
  1.073177e+00    1.463598e+00   2.298132e-02
  1.075387e+00    1.452473e+00   2.288862e-02
  1.077597e+00    1.423530e+00   2.265228e-02
  1.079808e+00    1.421142e+00   2.250249e-02
  1.082018e+00    1.420720e+00   2.231282e-02
  1.084229e+00    1.414620e+00   2.215656e-02
  1.086439e+00    1.401873e+00   2.197069e-02
  1.088650e+00    1.438590e+00   2.218129e-02
  1.090860e+00    1.421138e+00   2.197950e-02
  1.093071e+00    1.435001e+00   2.202459e-02
  1.095281e+00    1.431296e+00   2.193919e-02
  1.097492e+00    1.411183e+00   2.173023e-02
  1.099702e+00    1.414065e+00   2.170148e-02
  1.101912e+00    1.401125e+00   2.155378e-02
  1.104123e+00    1.392021e+00   2.143614e-02
  1.106333e+00    1.396353e+00   2.142563e-02
  1.108544e+00    1.409597e+00   2.148305e-02
  1.110754e+00    1.426138e+00   2.156572e-02
  1.112965e+00    1.441727e+00   2.164246e-02
  1.115175e+00    1.426947e+00   2.148995e-02
  1.117386e+00    1.442011e+00   2.156344e-02
  1.119596e+00    1.422211e+00   2.137691e-02
  1.121807e+00    1.395564e+00   2.113706e-02
  1.124017e+00    1.394246e+00   2.109060e-02
  1.126228e+00    1.369584e+00   2.086792e-02
  1.128438e+00    1.396681e+00   2.103665e-02
  1.130648e+00    1.390649e+00   2.095695e-02
  1.132859e+00    1.368691e+00   2.075683e-02
  1.135069e+00    1.372258e+00   2.074938e-02
  1.137280e+00    1.381839e+00   2.078878e-02
  1.139490e+00    1.368952e+00   2.065879e-02
  1.141701e+00    1.361993e+00   2.057336e-02
  1.143911e+00    1.376069e+00   2.064762e-02
  1.146122e+00    1.376955e+00   2.062230e-02
  1.148332e+00    1.388406e+00   2.067587e-02
  1.150543e+00    1.372254e+00   2.052451e-02
  1.152753e+00    1.366089e+00   2.044761e-02
  1.154963e+00    1.359014e+00   2.036370e-02
  1.157174e+00    1.371394e+00   2.042612e-02
  1.159384e+00    1.392597e+00   2.055333e-02
  1.161595e+00    1.370751e+00   2.036165e-02
  1.163805e+00    1.361254e+00   2.026179e-02
  1.166016e+00    1.359878e+00   2.022222e-02
  1.168226e+00    1.343337e+00   2.007013e-02
  1.170437e+00    1.379379e+00   2.030884e-02
  1.172647e+00    1.369017e+00   2.020349e-02
  1.174858e+00    1.353975e+00   2.006419e-02
  1.177068e+00    1.364234e+00   2.011180e-02
  1.179278e+00    1.353435e+00   2.000355e-02
  1.181489e+00    1.351360e+00   1.996127e-02
  1.183699e+00    1.392043e+00   2.023159e-02
  1.185910e+00    1.418035e+00   2.039125e-02
  1.188120e+00    1.389240e+00   2.015614e-02
  1.190331e+00    1.377385e+00   2.004297e-02
  1.192541e+00    1.357100e+00   1.986743e-02
  1.194752e+00    1.381432e+00   2.001740e-02
  1.196962e+00    1.368940e+00   1.990081e-02
  1.199173e+00    1.348138e+00   1.972252e-02
  1.201383e+00    1.345987e+00   1.967968e-02
  1.203593e+00    1.340150e+00   1.961223e-02
  1.205804e+00    1.316702e+00   1.941430e-02
  1.208014e+00    1.340772e+00   1.956418e-02
  1.210225e+00    1.351158e+00   1.961447e-02
  1.212435e+00    1.343051e+00   1.953083e-02
  1.214646e+00    1.327749e+00   1.939335e-02
  1.216856e+00    1.325248e+00   1.934984e-02
  1.219067e+00    1.331159e+00   1.936864e-02
  1.221277e+00    1.312222e+00   1.920570e-02
  1.223488e+00    1.359500e+00   1.952278e-02
  1.225698e+00    1.330518e+00   1.928687e-02
  1.227909e+00    1.349546e+00   1.939411e-02
  1.230119e+00    1.373709e+00   1.953485e-02
  1.232329e+00    1.356395e+00   1.938057e-02
  1.234540e+00    1.349426e+00   1.930042e-02
  1.236750e+00    1.353733e+00   1.930089e-02
  1.238961e+00    1.365754e+00   1.935928e-02
  1.241171e+00    1.342020e+00   1.916622e-02
  1.243382e+00    1.344350e+00   1.915938e-02
  1.245592e+00    1.368814e+00   1.930864e-02
  1.247803e+00    1.400400e+00   1.950607e-02
  1.250013e+00    1.371643e+00   1.928104e-02
  1.252224e+00    1.362927e+00   1.919630e-02
  1.254434e+00    1.364070e+00   1.918049e-02
  1.256644e+00    1.349633e+00   1.905551e-02
  1.258855e+00    1.383311e+00   1.926822e-02
  1.261065e+00    1.425696e+00   1.953719e-02
  1.263276e+00    1.409132e+00   1.939994e-02
  1.265486e+00    1.390518e+00   1.924816e-02
  1.267697e+00    1.366152e+00   1.905562e-02
  1.269907e+00    1.370335e+00   1.906189e-02
  1.272118e+00    1.395689e+00   1.921447e-02
  1.274328e+00    1.385952e+00   1.912430e-02
  1.276539e+00    1.386222e+00   1.910306e-02
  1.278749e+00    1.390483e+00   1.910979e-02
  1.280959e+00    1.398630e+00   1.914275e-02
  1.283170e+00    1.403996e+00   1.915658e-02
  1.285380e+00    1.373610e+00   1.892550e-02
  1.287591e+00    1.369714e+00   1.887643e-02
  1.289801e+00    1.418564e+00   1.918833e-02
  1.292012e+00    1.419176e+00   1.917495e-02
  1.294222e+00    1.403853e+00   1.905460e-02
  1.296433e+00    1.398327e+00   1.900118e-02
  1.298643e+00    1.380834e+00   1.886531e-02
  1.300854e+00    1.359678e+00   1.870374e-02
  1.303064e+00    1.376808e+00   1.880178e-02
  1.305274e+00    1.375321e+00   1.876999e-02
  1.307485e+00    1.361572e+00   1.865429e-02
  1.309695e+00    1.369978e+00   1.868938e-02
  1.311906e+00    1.385254e+00   1.877130e-02
  1.314116e+00    1.388616e+00   1.877298e-02
  1.316327e+00    1.392391e+00   1.877647e-02
  1.318537e+00    1.357489e+00   1.851768e-02
  1.320748e+00    1.363182e+00   1.853483e-02
  1.322958e+00    1.357502e+00   1.847559e-02
  1.325169e+00    1.344155e+00   1.836357e-02
  1.327379e+00    1.364157e+00   1.847774e-02
  1.329589e+00    1.394694e+00   1.866202e-02
  1.331800e+00    1.387722e+00   1.859435e-02
  1.334010e+00    1.383251e+00   1.854345e-02
  1.336221e+00    1.380493e+00   1.850295e-02
  1.338431e+00    1.420081e+00   1.874498e-02
  1.340642e+00    1.458558e+00   1.906391e-02
  1.342852e+00    1.472545e+00   1.926026e-02
  1.345063e+00    1.453836e+00   1.918889e-02
  1.347273e+00    1.395292e+00   1.883438e-02
  1.349484e+00    1.367099e+00   1.867099e-02
  1.351694e+00    1.362036e+00   1.865916e-02
  1.353905e+00    1.415836e+00   1.904256e-02
  1.356115e+00    1.407938e+00   1.900472e-02
  1.358325e+00    1.377367e+00   1.881075e-02
  1.360536e+00    1.381646e+00   1.885167e-02
  1.362746e+00    1.392320e+00   1.893407e-02
  1.364957e+00    1.371481e+00   1.879959e-02
  1.367167e+00    1.320775e+00   1.845587e-02
  1.369378e+00    1.319609e+00   1.845365e-02
  1.371588e+00    1.342388e+00   1.861739e-02
  1.373799e+00    1.341979e+00   1.861823e-02
  1.376009e+00    1.333711e+00   1.856417e-02
  1.378220e+00    1.326561e+00   1.851686e-02
  1.380430e+00    1.310709e+00   1.840859e-02
  1.382640e+00    1.301869e+00   1.834729e-02
  1.384851e+00    1.307637e+00   1.838877e-02
  1.387061e+00    1.305027e+00   1.837070e-02
  1.389272e+00    1.329878e+00   1.854499e-02
  1.391482e+00    1.310414e+00   1.840812e-02
  1.393693e+00    1.284307e+00   1.822294e-02
  1.395903e+00    1.290449e+00   1.826497e-02
  1.398114e+00    1.294965e+00   1.829551e-02
  1.400324e+00    1.313169e+00   1.842150e-02
  1.402535e+00    1.309933e+00   1.839645e-02
  1.404745e+00    1.282496e+00   1.820040e-02
  1.406955e+00    1.273471e+00   1.813356e-02
  1.409166e+00    1.286203e+00   1.822064e-02
  1.411376e+00    1.268132e+00   1.808910e-02
  1.413587e+00    1.243783e+00   1.791080e-02
  1.415797e+00    1.299458e+00   1.830370e-02
  1.418008e+00    1.294223e+00   1.822454e-02
  1.420218e+00    1.268177e+00   1.789061e-02
  1.422429e+00    1.260381e+00   1.775052e-02
  1.424639e+00    1.274774e+00   1.778678e-02
  1.426850e+00    1.285809e+00   1.780856e-02
  1.429060e+00    1.283028e+00   1.774007e-02
  1.431270e+00    1.269146e+00   1.759954e-02
  1.433481e+00    1.250246e+00   1.742736e-02
  1.435691e+00    1.273385e+00   1.754940e-02
  1.437902e+00    1.262115e+00   1.743524e-02
  1.440112e+00    1.254110e+00   1.734472e-02
  1.442323e+00    1.275715e+00   1.746036e-02
  1.444533e+00    1.272962e+00   1.740894e-02
  1.446744e+00    1.253690e+00   1.724572e-02
  1.448954e+00    1.274288e+00   1.735656e-02
  1.451165e+00    1.271760e+00   1.730958e-02
  1.453375e+00    1.264004e+00   1.722873e-02
  1.455586e+00    1.233021e+00   1.698851e-02
  1.457796e+00    1.253076e+00   1.709879e-02
  1.460006e+00    1.250107e+00   1.705147e-02
  1.462217e+00    1.257583e+00   1.707630e-02
  1.464427e+00    1.258824e+00   1.705922e-02
  1.466638e+00    1.250066e+00   1.697464e-02
  1.468848e+00    1.294611e+00   1.724883e-02
  1.471059e+00    1.280913e+00   1.713217e-02
  1.473269e+00    1.241147e+00   1.684001e-02
  1.475480e+00    1.235236e+00   1.677641e-02
  1.477690e+00    1.250242e+00   1.685434e-02
  1.479901e+00    1.256028e+00   1.686955e-02
  1.482111e+00    1.261178e+00   1.688086e-02
  1.484321e+00    1.276591e+00   1.696048e-02
  1.486532e+00    1.270249e+00   1.689595e-02
  1.488742e+00    1.280833e+00   1.694339e-02
  1.490953e+00    1.269293e+00   1.684425e-02
  1.493163e+00    1.249019e+00   1.668702e-02
  1.495374e+00    1.260956e+00   1.674511e-02
  1.497584e+00    1.263479e+00   1.674017e-02
  1.499795e+00    1.238301e+00   1.655110e-02
  1.502005e+00    1.225194e+00   1.644186e-02
  1.504216e+00    1.254674e+00   1.661750e-02
  1.506426e+00    1.273239e+00   1.671906e-02
  1.508636e+00    1.252432e+00   1.656149e-02
  1.510847e+00    1.268919e+00   1.664820e-02
  1.513057e+00    1.262370e+00   1.658004e-02
  1.515268e+00    1.257335e+00   1.652120e-02
  1.517478e+00    1.252047e+00   1.646128e-02
  1.519689e+00    1.263845e+00   1.651360e-02
  1.521899e+00    1.256157e+00   1.644018e-02
  1.524110e+00    1.248233e+00   1.636793e-02
  1.526320e+00    1.244797e+00   1.632586e-02
  1.528531e+00    1.282277e+00   1.654981e-02
  1.530741e+00    1.243410e+00   1.627798e-02
  1.532951e+00    1.238934e+00   1.622915e-02
  1.535162e+00    1.247502e+00   1.637169e-02
  1.537372e+00    1.238393e+00   1.637843e-02
  1.539583e+00    1.239774e+00   1.642167e-02
  1.541793e+00    1.245684e+00   1.646771e-02
  1.544004e+00    1.257109e+00   1.654333e-02
  1.546214e+00    1.228522e+00   1.635265e-02
  1.548425e+00    1.225886e+00   1.633534e-02
  1.550635e+00    1.235091e+00   1.640621e-02
  1.552846e+00    1.229542e+00   1.637889e-02
  1.555056e+00    1.220734e+00   1.627906e-02
  1.557266e+00    1.229464e+00   1.622735e-02
  1.559477e+00    1.243477e+00   1.626050e-02
  1.561687e+00    1.241615e+00   1.621768e-02
  1.563898e+00    1.229799e+00   1.612328e-02
  1.566108e+00    1.237936e+00   1.616060e-02
  1.568319e+00    1.249774e+00   1.622204e-02
  1.570529e+00    1.246844e+00   1.617786e-02
  1.572740e+00    1.230199e+00   1.604206e-02
  1.574950e+00    1.225335e+00   1.598418e-02
  1.577161e+00    1.247047e+00   1.609969e-02
  1.579371e+00    1.262030e+00   1.617227e-02
  1.581582e+00    1.254198e+00   1.610219e-02
  1.583792e+00    1.244897e+00   1.602433e-02
  1.586002e+00    1.245726e+00   1.601204e-02
  1.588213e+00    1.259748e+00   1.608456e-02
  1.590423e+00    1.252112e+00   1.601560e-02
  1.592634e+00    1.238192e+00   1.590476e-02
  1.594844e+00    1.220471e+00   1.576933e-02
  1.597055e+00    1.223423e+00   1.576805e-02
  1.599265e+00    1.235049e+00   1.582212e-02
  1.601476e+00    1.217041e+00   1.568625e-02
  1.603686e+00    1.216146e+00   1.566089e-02
  1.605897e+00    1.218239e+00   1.565439e-02
  1.608107e+00    1.216969e+00   1.562682e-02
  1.610317e+00    1.240727e+00   1.575928e-02
  1.612528e+00    1.241175e+00   1.574292e-02
  1.614738e+00    1.219776e+00   1.558775e-02
  1.616949e+00    1.225341e+00   1.560429e-02
  1.619159e+00    1.257142e+00   1.578650e-02
  1.621370e+00    1.232561e+00   1.561286e-02
  1.623580e+00    1.248060e+00   1.569211e-02
  1.625791e+00    1.232104e+00   1.557306e-02
  1.628001e+00    1.226254e+00   1.551758e-02
  1.630212e+00    1.226638e+00   1.550203e-02
  1.632422e+00    1.183605e+00   1.520981e-02
  1.634632e+00    1.193349e+00   1.525488e-02
  1.636843e+00    1.196070e+00   1.525459e-02
  1.639053e+00    1.179507e+00   1.513127e-02
  1.641264e+00    1.163254e+00   1.500962e-02
  1.643474e+00    1.155297e+00   1.494084e-02
  1.645685e+00    1.161103e+00   1.496166e-02
  1.647895e+00    1.139486e+00   1.480525e-02
  1.650106e+00    1.135386e+00   1.476171e-02
  1.652316e+00    1.121750e+00   1.465650e-02
  1.654527e+00    1.145289e+00   1.479278e-02
  1.656737e+00    1.139261e+00   1.473723e-02
  1.658947e+00    1.130416e+00   1.466364e-02
  1.661158e+00    1.127035e+00   1.462542e-02
  1.663368e+00    1.170183e+00   1.488638e-02
  1.665579e+00    1.184499e+00   1.496059e-02
  1.667789e+00    1.133427e+00   1.461812e-02
  1.670000e+00    1.115759e+00   1.448825e-02
  1.672210e+00    1.106974e+00   1.441523e-02
  1.674421e+00    1.106722e+00   1.439823e-02
  1.676631e+00    1.107255e+00   1.438580e-02
  1.678842e+00    1.120733e+00   1.445716e-02
  1.681052e+00    1.102306e+00   1.432237e-02
  1.683263e+00    1.093148e+00   1.424759e-02
  1.685473e+00    1.099265e+00   1.427215e-02
  1.687683e+00    1.113038e+00   1.434564e-02
  1.689894e+00    1.106539e+00   1.428776e-02
  1.692104e+00    1.069506e+00   1.403177e-02
  1.694315e+00    1.060158e+00   1.395588e-02
  1.696525e+00    1.062949e+00   1.395914e-02
  1.698736e+00    1.050142e+00   1.386007e-02
  1.700946e+00    1.048071e+00   1.383135e-02
  1.703157e+00    1.047750e+00   1.381464e-02
  1.705367e+00    1.041015e+00   1.375577e-02
  1.707578e+00    1.042326e+00   1.374989e-02
  1.709788e+00    1.041789e+00   1.373227e-02
  1.711998e+00    1.048461e+00   1.376111e-02
  1.714209e+00    1.014265e+00   1.352059e-02
  1.716419e+00    1.016453e+00   1.352100e-02
  1.718630e+00    1.019541e+00   1.352736e-02
  1.720840e+00    1.007577e+00   1.343370e-02
  1.723051e+00    1.016299e+00   1.347791e-02
  1.725261e+00    1.016591e+00   1.346522e-02
  1.727472e+00    1.001562e+00   1.335123e-02
  1.729682e+00    1.016848e+00   1.343927e-02
  1.731893e+00    1.005525e+00   1.335038e-02
  1.734103e+00    9.872251e-01   1.321469e-02
  1.736313e+00    9.883261e-01   1.320817e-02
  1.738524e+00    9.777787e-01   1.312384e-02
  1.740734e+00    9.804806e-01   1.312840e-02
  1.742945e+00    9.586903e-01   1.296849e-02
  1.745155e+00    9.777941e-01   1.308370e-02
  1.747366e+00    9.849918e-01   1.311801e-02
  1.749576e+00    9.566048e-01   1.291413e-02
  1.751787e+00    9.572955e-01   1.290561e-02
  1.753997e+00    9.522506e-01   1.285837e-02
  1.756208e+00    9.432836e-01   1.278472e-02
  1.758418e+00    9.365942e-01   1.272641e-02
  1.760628e+00    9.509203e-01   1.281016e-02
  1.762839e+00    9.367831e-01   1.270154e-02
  1.765049e+00    9.407960e-01   1.271576e-02
  1.767260e+00    9.614617e-01   1.284182e-02
  1.769470e+00    9.605352e-01   1.282264e-02
  1.771681e+00    9.399390e-01   1.267135e-02
  1.773891e+00    9.175441e-01   1.250667e-02
  1.776102e+00    9.260550e-01   1.255181e-02
  1.778312e+00    9.262952e-01   1.254081e-02
  1.780523e+00    9.427108e-01   1.263872e-02
  1.782733e+00    9.408031e-01   1.261323e-02
  1.784944e+00    9.256832e-01   1.249865e-02
  1.787154e+00    9.285451e-01   1.250544e-02
  1.789364e+00    9.193582e-01   1.243103e-02
  1.791575e+00    9.093736e-01   1.235092e-02
  1.793785e+00    9.063157e-01   1.231784e-02
  1.795996e+00    9.217104e-01   1.240948e-02
  1.798206e+00    9.802269e-01   1.278438e-02
  1.800417e+00    1.068048e+00   1.333113e-02
  1.802627e+00    1.050533e+00   1.320862e-02
  1.804838e+00    9.936005e-01   1.283306e-02
  1.807048e+00    9.912407e-01   1.280439e-02
  1.809259e+00    1.025973e+00   1.301232e-02
  1.811469e+00    1.002633e+00   1.284774e-02
  1.813679e+00    9.463477e-01   1.246656e-02
  1.815890e+00    9.389341e-01   1.240254e-02
  1.818100e+00    9.457214e-01   1.243176e-02
  1.820311e+00    9.696715e-01   1.257282e-02
  1.822521e+00    9.724252e-01   1.257516e-02
  1.824732e+00    9.362379e-01   1.232375e-02
  1.826942e+00    9.539940e-01   1.242728e-02
  1.829153e+00    9.271314e-01   1.223910e-02
  1.831363e+00    9.153752e-01   1.214901e-02
  1.833574e+00    8.925768e-01   1.198502e-02
  1.835784e+00    8.849719e-01   1.192238e-02
  1.837994e+00    9.090123e-01   1.207130e-02
  1.840205e+00    9.092857e-01   1.206173e-02
  1.842415e+00    9.087435e-01   1.204614e-02
  1.844626e+00    8.996087e-01   1.197368e-02
  1.846836e+00    8.997397e-01   1.196292e-02
  1.849047e+00    8.760075e-01   1.179243e-02
  1.851257e+00    8.727028e-01   1.176052e-02
  1.853468e+00    8.671167e-01   1.171401e-02
  1.855678e+00    8.453229e-01   1.155705e-02
  1.857889e+00    8.736358e-01   1.174042e-02
  1.860099e+00    8.740482e-01   1.173449e-02
  1.862309e+00    8.653390e-01   1.166732e-02
  1.864520e+00    8.562204e-01   1.159713e-02
  1.866730e+00    8.510844e-01   1.155290e-02
  1.868941e+00    8.722304e-01   1.168449e-02
  1.871151e+00    8.615878e-01   1.160153e-02
  1.873362e+00    8.567632e-01   1.155760e-02
  1.875572e+00    8.720563e-01   1.164921e-02
  1.877783e+00    8.691382e-01   1.161816e-02
  1.879993e+00    8.382918e-01   1.139903e-02
  1.882204e+00    8.482556e-01   1.145563e-02
  1.884414e+00    8.535454e-01   1.148016e-02
  1.886624e+00    8.482911e-01   1.143369e-02
  1.888835e+00    8.383121e-01   1.135527e-02
  1.891045e+00    8.344315e-01   1.131811e-02
  1.893256e+00    8.428630e-01   1.136404e-02
  1.895466e+00    8.451647e-01   1.136831e-02
  1.897677e+00    8.437537e-01   1.134785e-02
  1.899887e+00    8.514601e-01   1.138845e-02
  1.902098e+00    8.380083e-01   1.128727e-02
  1.904308e+00    8.363308e-01   1.126534e-02
  1.906519e+00    8.236957e-01   1.116912e-02
  1.908729e+00    8.301542e-01   1.120221e-02
  1.910940e+00    8.229310e-01   1.114227e-02
  1.913150e+00    8.241298e-01   1.113980e-02
  1.915360e+00    8.322735e-01   1.118404e-02
  1.917571e+00    8.187653e-01   1.108206e-02
  1.919781e+00    8.207895e-01   1.108507e-02
  1.921992e+00    8.190230e-01   1.106252e-02
  1.924202e+00    8.137507e-01   1.101612e-02
  1.926413e+00    8.256111e-01   1.108575e-02
  1.928623e+00    8.265781e-01   1.108162e-02
  1.930834e+00    8.127950e-01   1.097841e-02
  1.933044e+00    7.996134e-01   1.087844e-02
  1.935255e+00    7.993149e-01   1.086614e-02
  1.937465e+00    8.082242e-01   1.091614e-02
  1.939675e+00    8.029824e-01   1.086985e-02
  1.941886e+00    8.018582e-01   1.085200e-02
  1.944096e+00    7.955369e-01   1.079899e-02
  1.946307e+00    8.122687e-01   1.090156e-02
  1.948517e+00    8.058226e-01   1.084773e-02
  1.950728e+00    7.915037e-01   1.074073e-02
  1.952938e+00    7.926601e-01   1.073850e-02
  1.955149e+00    7.962063e-01   1.075227e-02
  1.957359e+00    8.076687e-01   1.081928e-02
  1.959570e+00    7.929035e-01   1.070907e-02
  1.961780e+00    7.716509e-01   1.055480e-02
  1.963990e+00    7.921780e-01   1.068413e-02
  1.966201e+00    7.922193e-01   1.067434e-02
  1.968411e+00    7.912964e-01   1.065797e-02
  1.970622e+00    7.563244e-01   1.040989e-02
  1.972832e+00    7.885938e-01   1.061965e-02
  1.975043e+00    8.006481e-01   1.069040e-02
  1.977253e+00    7.778502e-01   1.052719e-02
  1.979464e+00    7.845555e-01   1.056241e-02
  1.981674e+00    7.930327e-01   1.060902e-02
  1.983885e+00    7.709734e-01   1.045045e-02
  1.986095e+00    7.776831e-01   1.048616e-02
  1.988305e+00    7.594856e-01   1.035298e-02
  1.990516e+00    7.824909e-01   1.049864e-02
  1.992726e+00    7.867823e-01   1.051769e-02
  1.994937e+00    7.693524e-01   1.039045e-02
  1.997147e+00    7.827615e-01   1.047083e-02
  1.999358e+00    7.676064e-01   1.035918e-02
  2.001568e+00    7.681761e-01   1.035223e-02
  2.003779e+00    7.740189e-01   1.037961e-02
  2.005989e+00    7.629235e-01   1.029298e-02
  2.008200e+00    7.766876e-01   1.037384e-02
  2.010410e+00    7.909405e-01   1.045668e-02
  2.012621e+00    7.805609e-01   1.037607e-02
  2.014831e+00    7.381033e-01   1.007866e-02
  2.017041e+00    7.397101e-01   1.007942e-02
  2.019252e+00    7.650213e-01   1.024046e-02
  2.021462e+00    7.674993e-01   1.024752e-02
  2.023673e+00    7.819119e-01   1.033378e-02
  2.025883e+00    7.813314e-01   1.032032e-02
  2.028094e+00    7.776049e-01   1.028595e-02
  2.030304e+00    7.780766e-01   1.027943e-02
  2.032515e+00    7.610917e-01   1.015731e-02
  2.034725e+00    7.663861e-01   1.018309e-02
  2.036936e+00    7.762718e-01   1.023910e-02
  2.039146e+00    7.623446e-01   1.013725e-02
  2.041356e+00    7.647645e-01   1.014361e-02
  2.043567e+00    7.622070e-01   1.011731e-02
  2.045777e+00    7.463533e-01   1.000234e-02
  2.047988e+00    7.670294e-01   1.013047e-02
  2.050198e+00    7.863417e-01   1.024861e-02
  2.052409e+00    8.074187e-01   1.037712e-02
  2.054619e+00    8.070001e-01   1.036682e-02
  2.056830e+00    7.636473e-01   1.007727e-02
  2.059040e+00    7.724012e-01   1.012723e-02
  2.061251e+00    7.822659e-01   1.018431e-02
  2.063461e+00    7.631789e-01   1.005162e-02
  2.065671e+00    7.578387e-01   1.000763e-02
  2.067882e+00    7.436448e-01   9.904489e-03
  2.070092e+00    7.330344e-01   9.824470e-03
  2.072303e+00    7.389002e-01   9.854604e-03
  2.074513e+00    7.385947e-01   9.843285e-03
  2.076724e+00    7.333720e-01   9.799035e-03
  2.078934e+00    7.376564e-01   9.818649e-03
  2.081145e+00    7.313638e-01   9.767669e-03
  2.083355e+00    7.329828e-01   9.769347e-03
  2.085566e+00    7.275143e-01   9.724021e-03
  2.087776e+00    7.140266e-01   9.624111e-03
  2.089986e+00    7.223963e-01   9.671665e-03
  2.092197e+00    7.249728e-01   9.680020e-03
  2.094407e+00    7.280671e-01   9.691471e-03
  2.096618e+00    7.153730e-01   9.597846e-03
  2.098828e+00    7.193381e-01   9.615191e-03
  2.101039e+00    7.190735e-01   9.604523e-03
  2.103249e+00    7.116859e-01   9.546517e-03
  2.105460e+00    7.112402e-01   9.534613e-03
  2.107670e+00    7.203487e-01   9.586802e-03
  2.109881e+00    7.060319e-01   9.482013e-03
  2.112091e+00    7.138566e-01   9.525499e-03
  2.114301e+00    7.176754e-01   9.542219e-03
  2.116512e+00    7.129912e-01   9.502281e-03
  2.118722e+00    7.110974e-01   9.480898e-03
  2.120933e+00    7.210758e-01   9.538320e-03
  2.123143e+00    7.184307e-01   9.511914e-03
  2.125354e+00    7.161824e-01   9.488488e-03
  2.127564e+00    7.162228e-01   9.480041e-03
  2.129775e+00    7.012388e-01   9.371696e-03
  2.131985e+00    7.213612e-01   9.496102e-03
  2.134196e+00    7.208966e-01   9.484431e-03
  2.136406e+00    7.129031e-01   9.422940e-03
  2.138617e+00    7.034926e-01   9.352132e-03
  2.140827e+00    7.061694e-01   9.385936e-03
  2.143037e+00    7.013744e-01   9.399304e-03
  2.145248e+00    6.947827e-01   9.376861e-03
  2.147458e+00    6.982021e-01   9.414976e-03
  2.149669e+00    6.920940e-01   9.385468e-03
  2.151879e+00    6.902799e-01   9.382301e-03
  2.154090e+00    6.932881e-01   9.409988e-03
  2.156300e+00    6.924276e-01   9.410731e-03
  2.158511e+00    6.995369e-01   9.464206e-03
  2.160721e+00    6.884860e-01   9.393945e-03
  2.162932e+00    7.004942e-01   9.479251e-03
  2.165142e+00    6.880585e-01   9.397753e-03
  2.167352e+00    6.899853e-01   9.413779e-03
  2.169563e+00    6.952431e-01   9.451544e-03
  2.171773e+00    6.989822e-01   9.479378e-03
  2.173984e+00    6.966320e-01   9.464843e-03
  2.176194e+00    6.985834e-01   9.479304e-03
  2.178405e+00    6.855957e-01   9.391462e-03
  2.180615e+00    6.774061e-01   9.335876e-03
  2.182826e+00    6.819437e-01   9.367763e-03
  2.185036e+00    6.859702e-01   9.395423e-03
  2.187247e+00    6.893619e-01   9.418594e-03
  2.189457e+00    6.951072e-01   9.457321e-03
  2.191667e+00    7.094027e-01   9.553927e-03
  2.193878e+00    6.759904e-01   9.325647e-03
  2.196088e+00    6.868663e-01   9.399680e-03
  2.198299e+00    6.871085e-01   9.400255e-03
  2.200509e+00    6.873744e-01   9.401004e-03
  2.202720e+00    7.078086e-01   9.538531e-03
  2.204930e+00    7.032940e-01   9.506840e-03
  2.207141e+00    6.903129e-01   9.417547e-03
  2.209351e+00    6.943638e-01   9.443237e-03
  2.211562e+00    6.918505e-01   9.424503e-03
  2.213772e+00    6.814108e-01   9.297455e-03
  2.215982e+00    6.799979e-01   9.243468e-03
  2.218193e+00    6.766936e-01   9.191331e-03
  2.220403e+00    6.713923e-01   9.130727e-03
  2.222614e+00    6.843265e-01   9.197143e-03
  2.224824e+00    6.870607e-01   9.195928e-03
  2.227035e+00    6.847197e-01   9.162647e-03
  2.229245e+00    6.793820e-01   9.109803e-03
  2.231456e+00    6.851215e-01   9.132424e-03
  2.233666e+00    6.828807e-01   9.102254e-03
  2.235877e+00    6.894546e-01   9.131476e-03
  2.238087e+00    6.833753e-01   9.077553e-03
  2.240298e+00    6.749625e-01   9.007642e-03
  2.242508e+00    6.699544e-01   8.959034e-03
  2.244718e+00    6.940445e-01   9.102573e-03
  2.246929e+00    6.706601e-01   8.933487e-03
  2.249139e+00    6.549003e-01   8.815622e-03
  2.251350e+00    6.609217e-01   8.844397e-03
  2.253560e+00    6.544413e-01   8.789486e-03
  2.255771e+00    6.581985e-01   8.803310e-03
  2.257981e+00    6.647181e-01   8.835647e-03
  2.260192e+00    6.516602e-01   8.737430e-03
  2.262402e+00    6.507263e-01   8.720413e-03
  2.264613e+00    6.767765e-01   8.882307e-03
  2.266823e+00    6.621679e-01   8.775557e-03
  2.269033e+00    6.499462e-01   8.683891e-03
  2.271244e+00    6.659590e-01   8.779787e-03
  2.273454e+00    6.916797e-01   8.937242e-03
  2.275665e+00    6.881160e-01   8.903706e-03
  2.277875e+00    6.898195e-01   8.904563e-03
  2.280086e+00    6.990445e-01   8.953576e-03
  2.282296e+00    6.859668e-01   8.859854e-03
  2.284507e+00    6.600168e-01   8.680500e-03
  2.286717e+00    6.622603e-01   8.685732e-03
  2.288928e+00    6.685013e-01   8.716621e-03
  2.291138e+00    6.664356e-01   8.693657e-03
  2.293348e+00    6.514957e-01   8.586142e-03
  2.295559e+00    6.579667e-01   8.619343e-03
  2.297769e+00    6.501119e-01   8.558532e-03
  2.299980e+00    6.531232e-01   8.568992e-03
  2.302190e+00    6.454245e-01   8.509268e-03
  2.304401e+00    6.534444e-01   8.552645e-03
  2.306611e+00    6.512423e-01   8.529028e-03
  2.308822e+00    6.625549e-01   8.594317e-03
  2.311032e+00    6.655896e-01   8.607466e-03
  2.313243e+00    6.586329e-01   8.556047e-03
  2.315453e+00    6.522701e-01   8.507037e-03
  2.317663e+00    6.498101e-01   8.481828e-03
  2.319874e+00    6.454383e-01   8.444527e-03
  2.322084e+00    6.459327e-01   8.438795e-03
  2.324295e+00    6.494712e-01   8.453627e-03
  2.326505e+00    6.434442e-01   8.405266e-03
  2.328716e+00    6.510682e-01   8.446314e-03
  2.330926e+00    6.468925e-01   8.410366e-03
  2.333137e+00    6.472230e-01   8.404094e-03
  2.335347e+00    6.454091e-01   8.383434e-03
  2.337558e+00    6.378756e-01   8.326125e-03
  2.339768e+00    6.265525e-01   8.243435e-03
  2.341979e+00    6.157905e-01   8.164091e-03
  2.344189e+00    6.358217e-01   8.287443e-03
  2.346399e+00    6.325458e-01   8.257596e-03
  2.348610e+00    6.247699e-01   8.198306e-03
  2.350820e+00    6.437610e-01   8.313706e-03
  2.353031e+00    6.821474e-01   8.549405e-03
  2.355241e+00    6.609035e-01   8.407031e-03
  2.357452e+00    6.331918e-01   8.220447e-03
  2.359662e+00    6.288255e-01   8.183844e-03
  2.361873e+00    6.255028e-01   8.154003e-03
  2.364083e+00    6.304621e-01   8.178248e-03
  2.366294e+00    6.332243e-01   8.188012e-03
  2.368504e+00    6.369416e-01   8.203869e-03
  2.370714e+00    6.246731e-01   8.116425e-03
  2.372925e+00    6.253269e-01   8.112620e-03
  2.375135e+00    6.228247e-01   8.088315e-03
  2.377346e+00    6.354766e-01   8.162046e-03
  2.379556e+00    6.297881e-01   8.117489e-03
  2.381767e+00    6.158945e-01   8.019630e-03
  2.383977e+00    6.162866e-01   8.014275e-03
  2.386188e+00    6.266054e-01   8.073101e-03
  2.388398e+00    6.310374e-01   8.093601e-03
  2.390609e+00    6.227698e-01   8.032617e-03
  2.392819e+00    6.308239e-01   8.076555e-03
  2.395029e+00    6.158815e-01   7.972655e-03
  2.397240e+00    6.081745e-01   7.914771e-03
  2.399450e+00    6.214803e-01   7.993044e-03
  2.401661e+00    5.901915e-01   7.781694e-03
  2.403871e+00    6.280972e-01   8.019805e-03
  2.406082e+00    6.473919e-01   8.134412e-03
  2.408292e+00    6.478210e-01   8.129090e-03
  2.410503e+00    6.225009e-01   7.961086e-03
  2.412713e+00    5.958498e-01   7.781049e-03
  2.414924e+00    6.033587e-01   7.822471e-03
  2.417134e+00    5.893947e-01   7.723867e-03
  2.419344e+00    6.061046e-01   7.825161e-03
  2.421555e+00    6.021605e-01   7.792176e-03
  2.423765e+00    5.853661e-01   7.675410e-03
  2.425976e+00    5.898749e-01   7.697183e-03
  2.428186e+00    5.878755e-01   7.676970e-03
  2.430397e+00    5.804569e-01   7.621003e-03
  2.432607e+00    5.895633e-01   7.673303e-03
  2.434818e+00    6.013178e-01   7.741853e-03
  2.437028e+00    5.854849e-01   7.632155e-03
  2.439239e+00    5.876111e-01   7.638369e-03
  2.441449e+00    5.851749e-01   7.615388e-03
  2.443659e+00    5.784294e-01   7.564066e-03
  2.445870e+00    5.931304e-01   7.671896e-03
  2.448080e+00    5.702899e-01   7.557148e-03
  2.450291e+00    5.748734e-01   7.604010e-03
  2.452501e+00    5.766767e-01   7.627112e-03
  2.454712e+00    5.647701e-01   7.556336e-03
  2.456922e+00    5.659119e-01   7.570542e-03
  2.459133e+00    5.735753e-01   7.627107e-03
  2.461343e+00    5.581821e-01   7.528379e-03
  2.463554e+00    5.568734e-01   7.522994e-03
  2.465764e+00    5.628185e-01   7.566167e-03
  2.467975e+00    5.619192e-01   7.562435e-03
  2.470185e+00    5.557777e-01   7.523225e-03
  2.472395e+00    5.619344e-01   7.566013e-03
  2.474606e+00    5.598428e-01   7.553491e-03
  2.476816e+00    5.524600e-01   7.504261e-03
  2.479027e+00    5.525641e-01   7.505819e-03
  2.481237e+00    5.490400e-01   7.482112e-03
  2.483448e+00    5.492972e-01   7.484171e-03
  2.485658e+00    5.552900e-01   7.524749e-03
  2.487869e+00    5.306974e-01   7.356273e-03
  2.490079e+00    5.470178e-01   7.467998e-03
  2.492290e+00    5.367219e-01   7.396962e-03
  2.494500e+00    5.337571e-01   7.375766e-03
  2.496710e+00    5.434926e-01   7.442020e-03
  2.498921e+00    5.373511e-01   7.398883e-03
  2.501131e+00    5.246044e-01   7.309650e-03
  2.503342e+00    5.228824e-01   7.296376e-03
  2.505552e+00    5.245418e-01   7.306839e-03
  2.507763e+00    5.212098e-01   7.282179e-03
  2.509973e+00    5.309978e-01   7.348842e-03
  2.512184e+00    5.158470e-01   7.241656e-03
  2.514394e+00    5.226435e-01   7.279867e-03
  2.516605e+00    5.282899e-01   7.271955e-03
  2.518815e+00    5.259728e-01   7.227664e-03
  2.521025e+00    5.200991e-01   7.166342e-03
  2.523236e+00    5.285424e-01   7.206232e-03
  2.525446e+00    5.254642e-01   7.169617e-03
  2.527657e+00    5.311720e-01   7.193768e-03
  2.529867e+00    5.367912e-01   7.217380e-03
  2.532078e+00    5.253776e-01   7.125206e-03
  2.534288e+00    5.175661e-01   7.058234e-03
  2.536499e+00    5.326820e-01   7.148543e-03
  2.538709e+00    5.207983e-01   7.057389e-03
  2.540920e+00    5.246347e-01   7.072682e-03
  2.543130e+00    5.146247e-01   6.994629e-03
  2.545340e+00    5.287842e-01   7.080064e-03
  2.547551e+00    5.176861e-01   6.995503e-03
  2.549761e+00    5.198459e-01   7.000508e-03
  2.551972e+00    5.311084e-01   7.066497e-03
  2.554182e+00    5.228994e-01   7.002495e-03
  2.556393e+00    5.156778e-01   6.944919e-03
  2.558603e+00    5.089302e-01   6.890358e-03
  2.560814e+00    5.126970e-01   6.907173e-03
  2.563024e+00    5.059726e-01   6.853245e-03
  2.565235e+00    5.146260e-01   6.902150e-03
  2.567445e+00    5.086095e-01   6.852219e-03
  2.569656e+00    5.057740e-01   6.823465e-03
  2.571866e+00    5.108010e-01   6.847983e-03
  2.574076e+00    5.247969e-01   6.931835e-03
  2.576287e+00    5.252347e-01   6.926337e-03
  2.578497e+00    5.105958e-01   6.821320e-03
  2.580708e+00    5.118390e-01   6.821575e-03
  2.582918e+00    4.920151e-01   6.680579e-03
  2.585129e+00    4.927009e-01   6.677633e-03
  2.587339e+00    5.094023e-01   6.782230e-03
  2.589550e+00    5.120146e-01   6.792056e-03
  2.591760e+00    4.969938e-01   6.684064e-03
  2.593971e+00    5.084687e-01   6.753278e-03
  2.596181e+00    5.009569e-01   6.697057e-03
  2.598391e+00    5.211520e-01   6.825455e-03
  2.600602e+00    5.179728e-01   6.798667e-03
  2.602812e+00    5.022316e-01   6.687073e-03
  2.605023e+00    5.003051e-01   6.667125e-03
  2.607233e+00    5.119234e-01   6.736913e-03
  2.609444e+00    5.313220e-01   6.855988e-03
  2.611654e+00    5.085693e-01   6.700257e-03
  2.613865e+00    4.946551e-01   6.601003e-03
  2.616075e+00    5.026864e-01   6.647249e-03
  2.618286e+00    5.107652e-01   6.693430e-03
  2.620496e+00    4.957109e-01   6.587421e-03
  2.622706e+00    4.946768e-01   6.574853e-03
  2.624917e+00    5.142865e-01   6.697983e-03
  2.627127e+00    5.027184e-01   6.616542e-03
  2.629338e+00    4.906414e-01   6.530629e-03
  2.631548e+00    5.088319e-01   6.644410e-03
  2.633759e+00    4.985793e-01   6.570013e-03
  2.635969e+00    4.914181e-01   6.516037e-03
  2.638180e+00    4.927030e-01   6.517623e-03
  2.640390e+00    4.963651e-01   6.535225e-03
  2.642601e+00    5.044015e-01   6.581236e-03
  2.644811e+00    5.086852e-01   6.601986e-03
  2.647021e+00    5.053676e-01   6.573828e-03
  2.649232e+00    4.990236e-01   6.525721e-03
  2.651442e+00    4.963703e-01   6.501855e-03
  2.653653e+00    5.028934e-01   6.537628e-03
  2.655863e+00    4.974577e-01   6.495524e-03
  2.658074e+00    4.863772e-01   6.416238e-03
  2.660284e+00    5.003208e-01   6.501181e-03
  2.662495e+00    4.964261e-01   6.469081e-03
  2.664705e+00    4.982957e-01   6.474677e-03
  2.666916e+00    4.972003e-01   6.461093e-03
  2.669126e+00    4.948111e-01   6.439088e-03
  2.671337e+00    5.013306e-01   6.474769e-03
  2.673547e+00    4.952146e-01   6.428745e-03
  2.675757e+00    5.184833e-01   6.571461e-03
  2.677968e+00    4.887292e-01   6.373640e-03
  2.680178e+00    5.000491e-01   6.440576e-03
  2.682389e+00    5.011580e-01   6.441265e-03
  2.684599e+00    5.014700e-01   6.437037e-03
  2.686810e+00    4.904988e-01   6.359637e-03
  2.689020e+00    4.991997e-01   6.409456e-03
  2.691231e+00    4.891130e-01   6.338081e-03
  2.693441e+00    5.001742e-01   6.403160e-03
  2.695652e+00    4.893708e-01   6.327111e-03
  2.697862e+00    4.938225e-01   6.349456e-03
  2.700072e+00    4.918620e-01   6.330753e-03
  2.702283e+00    4.955755e-01   6.348348e-03
  2.704493e+00    4.790969e-01   6.235681e-03
  2.706704e+00    4.901461e-01   6.300766e-03
  2.708914e+00    4.801453e-01   6.230235e-03
  2.711125e+00    4.815053e-01   6.232849e-03
  2.713335e+00    4.846549e-01   6.247120e-03
  2.715546e+00    4.961511e-01   6.314249e-03
  2.717756e+00    4.929971e-01   6.288250e-03
  2.719967e+00    4.779677e-01   6.185481e-03
  2.722177e+00    4.828618e-01   6.210956e-03
  2.724387e+00    4.928709e-01   6.268848e-03
  2.726598e+00    4.786955e-01   6.172033e-03
  2.728808e+00    4.865119e-01   6.216055e-03
  2.731019e+00    4.855166e-01   6.203564e-03
  2.733229e+00    4.896248e-01   6.223915e-03
  2.735440e+00    4.881441e-01   6.208209e-03
  2.737650e+00    4.817400e-01   6.161342e-03
  2.739861e+00    4.749760e-01   6.111928e-03
  2.742071e+00    4.752592e-01   6.108032e-03
  2.744282e+00    4.861068e-01   6.171085e-03
  2.746492e+00    4.876117e-01   6.174574e-03
  2.748702e+00    4.790896e-01   6.114483e-03
  2.750913e+00    4.714257e-01   6.059641e-03
  2.753123e+00    4.850430e-01   6.140406e-03
  2.755334e+00    4.824280e-01   6.117747e-03
  2.757544e+00    4.728739e-01   6.051174e-03
  2.759755e+00    4.756958e-01   6.063337e-03
  2.761965e+00    4.786783e-01   6.076354e-03
  2.764176e+00    4.917070e-01   6.152415e-03
  2.766386e+00    4.988030e-01   6.190764e-03
  2.768597e+00    4.829579e-01   6.085760e-03
  2.770807e+00    4.770103e-01   6.042300e-03
  2.773017e+00    4.808587e-01   6.060641e-03
  2.775228e+00    4.808277e-01   6.054653e-03
  2.777438e+00    4.814017e-01   6.052447e-03
  2.779649e+00    4.784016e-01   6.027658e-03
  2.781859e+00    4.734868e-01   5.990873e-03
  2.784070e+00    4.740037e-01   5.988314e-03
  2.786280e+00    4.787282e-01   6.012295e-03
  2.788491e+00    4.752008e-01   5.984285e-03
  2.790701e+00    4.770641e-01   5.990349e-03
  2.792912e+00    4.814095e-01   6.011575e-03
  2.795122e+00    4.906324e-01   6.063066e-03
  2.797333e+00    4.936115e-01   6.075795e-03
  2.799543e+00    4.739901e-01   5.947948e-03
  2.801753e+00    4.773220e-01   5.962965e-03
  2.803964e+00    4.652011e-01   5.881142e-03
  2.806174e+00    4.759214e-01   5.942378e-03
  2.808385e+00    4.849643e-01   5.991693e-03
  2.810595e+00    4.888927e-01   6.008950e-03
  2.812806e+00    4.902126e-01   6.010341e-03
  2.815016e+00    4.762300e-01   5.919239e-03
  2.817227e+00    4.787885e-01   5.961195e-03
  2.819437e+00    4.674854e-01   5.901398e-03
  2.821648e+00    4.764296e-01   5.959884e-03
  2.823858e+00    4.766939e-01   5.966899e-03
  2.826068e+00    4.609591e-01   5.872508e-03
  2.828279e+00    4.706884e-01   5.938194e-03
  2.830489e+00    4.699288e-01   5.936730e-03
  2.832700e+00    4.720707e-01   5.952793e-03
  2.834910e+00    4.684372e-01   5.931902e-03
  2.837121e+00    4.656196e-01   5.915727e-03
  2.839331e+00    4.707802e-01   5.949668e-03
  2.841542e+00    4.552445e-01   5.851670e-03
  2.843752e+00    4.624556e-01   5.898598e-03
  2.845963e+00    4.620675e-01   5.896525e-03
  2.848173e+00    4.572157e-01   5.865577e-03
  2.850383e+00    4.598391e-01   5.882662e-03
  2.852594e+00    4.465485e-01   5.796953e-03
  2.854804e+00    4.635042e-01   5.905469e-03
  2.857015e+00    4.668514e-01   5.926340e-03
  2.859225e+00    4.642933e-01   5.909821e-03
  2.861436e+00    4.716891e-01   5.956040e-03
  2.863646e+00    4.708108e-01   5.950550e-03
  2.865857e+00    4.664048e-01   5.922974e-03
  2.868067e+00    4.546887e-01   5.848324e-03
  2.870278e+00    4.548470e-01   5.848989e-03
  2.872488e+00    4.729055e-01   5.962786e-03
  2.874698e+00    4.782821e-01   5.995553e-03
  2.876909e+00    4.732053e-01   5.962287e-03
  2.879119e+00    4.691716e-01   5.935200e-03
  2.881330e+00    4.627444e-01   5.892932e-03
  2.883540e+00    4.680328e-01   5.925098e-03
  2.885751e+00    4.629525e-01   5.891232e-03
  2.887961e+00    4.598208e-01   5.869378e-03
  2.890172e+00    4.612977e-01   5.877187e-03
  2.892382e+00    4.711301e-01   5.937675e-03
  2.894593e+00    4.648056e-01   5.895866e-03
  2.896803e+00    4.581088e-01   5.851267e-03
  2.899014e+00    4.618572e-01   5.873226e-03
  2.901224e+00    4.654320e-01   5.893921e-03
  2.903434e+00    4.573024e-01   5.840289e-03
  2.905645e+00    4.557388e-01   5.828059e-03
  2.907855e+00    4.757132e-01   5.952281e-03
  2.910066e+00    4.680499e-01   5.902055e-03
  2.912276e+00    4.564467e-01   5.826319e-03
  2.914487e+00    4.475059e-01   5.766547e-03
  2.916697e+00    4.494233e-01   5.776686e-03
  2.918908e+00    4.459202e-01   5.752143e-03
  2.921118e+00    4.610583e-01   5.846260e-03
  2.923329e+00    4.658559e-01   5.874266e-03
  2.925539e+00    4.672885e-01   5.881003e-03
  2.927749e+00    4.477770e-01   5.754610e-03
  2.929960e+00    4.521412e-01   5.779827e-03
  2.932170e+00    4.543640e-01   5.791702e-03
  2.934381e+00    4.480421e-01   5.748847e-03
  2.936591e+00    4.545624e-01   5.787944e-03
  2.938802e+00    4.576161e-01   5.804650e-03
  2.941012e+00    4.548085e-01   5.784479e-03
  2.943223e+00    4.514360e-01   5.760320e-03
  2.945433e+00    4.523978e-01   5.762715e-03
  2.947644e+00    4.614290e-01   5.815794e-03
  2.949854e+00    4.562041e-01   5.778496e-03
  2.952064e+00    4.546030e-01   5.764141e-03
  2.954275e+00    4.540977e-01   5.756517e-03
  2.956485e+00    4.509135e-01   5.732140e-03
  2.958696e+00    4.417544e-01   5.669310e-03
  2.960906e+00    4.477152e-01   5.703285e-03
  2.963117e+00    4.520354e-01   5.726259e-03
  2.965327e+00    4.485713e-01   5.700395e-03
  2.967538e+00    4.483152e-01   5.695879e-03
  2.969748e+00    4.566725e-01   5.745909e-03
  2.971959e+00    4.544659e-01   5.728870e-03
  2.974169e+00    4.420058e-01   5.647239e-03
  2.976379e+00    4.454402e-01   5.666247e-03
  2.978590e+00    4.509667e-01   5.698157e-03
  2.980800e+00    4.530415e-01   5.708469e-03
  2.983011e+00    4.489496e-01   5.679836e-03
  2.985221e+00    4.565858e-01   5.724778e-03
  2.987432e+00    4.613856e-01   5.751658e-03
  2.989642e+00    4.536173e-01   5.700412e-03
  2.991853e+00    4.557565e-01   5.710540e-03
  2.994063e+00    4.587667e-01   5.726446e-03
  2.996274e+00    4.704702e-01   5.795797e-03
  2.998484e+00    4.559967e-01   5.703243e-03
  3.000694e+00    4.649897e-01   5.755707e-03
  3.002905e+00    4.454103e-01   5.630323e-03
  3.005115e+00    4.521096e-01   5.669519e-03
  3.007326e+00    4.525786e-01   5.669308e-03
  3.009536e+00    4.620036e-01   5.724752e-03
  3.011747e+00    4.568225e-01   5.689643e-03
  3.013957e+00    4.629304e-01   5.724323e-03
  3.016168e+00    4.549500e-01   5.671518e-03
  3.018378e+00    4.478518e-01   5.624070e-03
  3.020589e+00    4.493507e-01   5.630267e-03
  3.022799e+00    4.631530e-01   5.712880e-03
  3.025010e+00    4.663928e-01   5.729553e-03
  3.027220e+00    4.577433e-01   5.673044e-03
  3.029430e+00    4.531929e-01   5.641533e-03
  3.031641e+00    4.441520e-01   5.581854e-03
  3.033851e+00    4.541772e-01   5.640971e-03
  3.036062e+00    4.500338e-01   5.612413e-03
  3.038272e+00    4.369517e-01   5.526724e-03
  3.040483e+00    4.511461e-01   5.612546e-03
  3.042693e+00    4.363099e-01   5.516279e-03
  3.044904e+00    4.438011e-01   5.559438e-03
  3.047114e+00    4.421688e-01   5.544450e-03
  3.049325e+00    4.516357e-01   5.599085e-03
  3.051535e+00    4.679891e-01   5.695081e-03
  3.053745e+00    4.576659e-01   5.627133e-03
  3.055956e+00    4.635953e-01   5.658826e-03
  3.058166e+00    4.530477e-01   5.589824e-03
  3.060377e+00    4.459428e-01   5.541056e-03
  3.062587e+00    4.549908e-01   5.592335e-03
  3.064798e+00    4.529095e-01   5.575269e-03
  3.067008e+00    4.467136e-01   5.532266e-03
  3.069219e+00    4.577064e-01   5.595393e-03
  3.071429e+00    4.461226e-01   5.520635e-03
  3.073640e+00    4.490808e-01   5.535564e-03
  3.075850e+00    4.536507e-01   5.560070e-03
  3.078060e+00    4.321647e-01   5.423762e-03
  3.080271e+00    4.371463e-01   5.451484e-03
  3.082481e+00    4.457829e-01   5.501645e-03
  3.084692e+00    4.441463e-01   5.488181e-03
  3.086902e+00    4.399863e-01   5.459196e-03
  3.089113e+00    4.512881e-01   5.525284e-03
  3.091323e+00    4.562989e-01   5.552473e-03
  3.093534e+00    4.438667e-01   5.472952e-03
  3.095744e+00    4.367374e-01   5.425488e-03
  3.097955e+00    4.437204e-01   5.465149e-03
  3.100165e+00    4.542682e-01   5.526374e-03
  3.102375e+00    4.473328e-01   5.480614e-03
  3.104586e+00    4.390783e-01   5.426336e-03
  3.106796e+00    4.458748e-01   5.464655e-03
  3.109007e+00    4.498563e-01   5.485767e-03
  3.111217e+00    4.453582e-01   5.454598e-03
  3.113428e+00    4.372752e-01   5.401478e-03
  3.115638e+00    4.442817e-01   5.441354e-03
  3.117849e+00    4.415234e-01   5.420723e-03
  3.120059e+00    4.489339e-01   5.462539e-03
  3.122270e+00    4.445401e-01   5.432510e-03
  3.124480e+00    4.482017e-01   5.451107e-03
  3.126691e+00    4.570788e-01   5.501234e-03
  3.128901e+00    4.483391e-01   5.445255e-03
  3.131111e+00    4.514071e-01   5.459968e-03
  3.133322e+00    4.579488e-01   5.495897e-03
  3.135532e+00    4.460039e-01   5.420347e-03
  3.137743e+00    4.423769e-01   5.394784e-03
  3.139953e+00    4.407112e-01   5.380943e-03
  3.142164e+00    4.450883e-01   5.419632e-03
  3.144374e+00    4.537173e-01   5.500703e-03
  3.146585e+00    4.389462e-01   5.424907e-03
  3.148795e+00    4.459272e-01   5.478727e-03
  3.151006e+00    4.357155e-01   5.424095e-03
  3.153216e+00    4.340906e-01   5.421053e-03
  3.155426e+00    4.560600e-01   5.562947e-03
  3.157637e+00    4.312137e-01   5.414768e-03
  3.159847e+00    4.425876e-01   5.490589e-03
  3.162058e+00    4.476075e-01   5.526105e-03
  3.164268e+00    4.421372e-01   5.496325e-03
  3.166479e+00    4.336258e-01   5.446774e-03
  3.168689e+00    4.437700e-01   5.513502e-03
  3.170900e+00    4.250135e-01   5.398862e-03
  3.173110e+00    4.324108e-01   5.448468e-03
  3.175321e+00    4.492637e-01   5.556167e-03
  3.177531e+00    4.338748e-01   5.462905e-03
  3.179741e+00    4.377178e-01   5.489114e-03
  3.181952e+00    4.365158e-01   5.483672e-03
  3.184162e+00    4.386035e-01   5.498981e-03
  3.186373e+00    4.422966e-01   5.523677e-03
  3.188583e+00    4.302968e-01   5.450025e-03
  3.190794e+00    4.431040e-01   5.532276e-03
  3.193004e+00    4.348052e-01   5.481489e-03
  3.195215e+00    4.264615e-01   5.430127e-03
  3.197425e+00    4.220209e-01   5.402955e-03
  3.199636e+00    4.306136e-01   5.456937e-03
  3.201846e+00    4.320530e-01   5.465426e-03
  3.204056e+00    4.316843e-01   5.463987e-03
  3.206267e+00    4.450317e-01   5.548685e-03
  3.208477e+00    4.451264e-01   5.550198e-03
  3.210688e+00    4.387943e-01   5.511440e-03
  3.212898e+00    4.296700e-01   5.454417e-03
  3.215109e+00    4.137785e-01   5.353329e-03
  3.217319e+00    4.200632e-01   5.394446e-03
  3.219530e+00    4.284745e-01   5.448596e-03
  3.221740e+00    4.210351e-01   5.401622e-03
  3.223951e+00    4.259467e-01   5.433531e-03
  3.226161e+00    4.291426e-01   5.454033e-03
  3.228372e+00    4.304870e-01   5.463126e-03
  3.230582e+00    4.226276e-01   5.413155e-03
  3.232792e+00    4.337063e-01   5.483872e-03
  3.235003e+00    4.403721e-01   5.526101e-03
  3.237213e+00    4.253630e-01   5.431220e-03
  3.239424e+00    4.296353e-01   5.458418e-03
  3.241634e+00    4.276379e-01   5.445838e-03
  3.243845e+00    4.255220e-01   5.432442e-03
  3.246055e+00    4.187069e-01   5.388459e-03
  3.248266e+00    4.223617e-01   5.412155e-03
  3.250476e+00    4.150596e-01   5.364853e-03
  3.252687e+00    4.173717e-01   5.379696e-03
  3.254897e+00    4.246946e-01   5.426566e-03
  3.257107e+00    4.154247e-01   5.366721e-03
  3.259318e+00    4.145368e-01   5.360728e-03
  3.261528e+00    4.367403e-01   5.502288e-03
  3.263739e+00    4.224136e-01   5.410745e-03
  3.265949e+00    4.140077e-01   5.356518e-03
  3.268160e+00    4.264837e-01   5.436189e-03
  3.270370e+00    4.243816e-01   5.422293e-03
  3.272581e+00    4.276342e-01   5.442720e-03
  3.274791e+00    4.336359e-01   5.480264e-03
  3.277002e+00    4.254406e-01   5.427698e-03
  3.279212e+00    4.093506e-01   5.323654e-03
  3.281422e+00    4.209848e-01   5.398221e-03
  3.283633e+00    4.359955e-01   5.492914e-03
  3.285843e+00    4.353270e-01   5.488386e-03
  3.288054e+00    4.206070e-01   5.393853e-03
  3.290264e+00    4.225269e-01   5.405833e-03
  3.292475e+00    4.133691e-01   5.346112e-03
  3.294685e+00    4.222533e-01   5.402610e-03
  3.296896e+00    4.311765e-01   5.458633e-03
  3.299106e+00    4.196788e-01   5.384829e-03
  3.301317e+00    4.302050e-01   5.450892e-03
  3.303527e+00    4.169685e-01   5.365911e-03
  3.305737e+00    4.206689e-01   5.388640e-03
  3.307948e+00    4.193571e-01   5.379560e-03
  3.310158e+00    4.159595e-01   5.356884e-03
  3.312369e+00    4.177075e-01   5.367239e-03
  3.314579e+00    4.260341e-01   5.419555e-03
  3.316790e+00    4.120529e-01   5.329206e-03
  3.319000e+00    4.149927e-01   5.346991e-03
  3.321211e+00    4.271960e-01   5.424426e-03
  3.323421e+00    4.293735e-01   5.437029e-03
  3.325632e+00    4.288243e-01   5.432663e-03
  3.327842e+00    4.177591e-01   5.361184e-03
  3.330052e+00    4.252019e-01   5.407681e-03
  3.332263e+00    4.208455e-01   5.378881e-03
  3.334473e+00    4.274451e-01   5.419962e-03
  3.336684e+00    4.228553e-01   5.389549e-03
  3.338894e+00    4.105799e-01   5.309878e-03
  3.341105e+00    4.159880e-01   5.343548e-03
  3.343315e+00    4.269203e-01   5.412163e-03
  3.345526e+00    4.274981e-01   5.414905e-03
  3.347736e+00    4.291409e-01   5.423890e-03
  3.349947e+00    4.206093e-01   5.368771e-03
  3.352157e+00    4.156337e-01   5.335748e-03
  3.354368e+00    4.175830e-01   5.346953e-03
  3.356578e+00    4.191787e-01   5.356135e-03
  3.358788e+00    4.214950e-01   5.369590e-03
  3.360999e+00    4.236665e-01   5.382147e-03
  3.363209e+00    4.142372e-01   5.320908e-03
  3.365420e+00    4.191342e-01   5.350737e-03
  3.367630e+00    4.270863e-01   5.400249e-03
  3.369841e+00    4.133085e-01   5.310978e-03
  3.372051e+00    4.141108e-01   5.314201e-03
  3.374262e+00    4.223738e-01   5.364460e-03
  3.376472e+00    4.257452e-01   5.383390e-03
  3.378683e+00    4.110904e-01   5.287421e-03
  3.380893e+00    4.180098e-01   5.329384e-03
  3.383103e+00    4.141693e-01   5.302154e-03
  3.385314e+00    4.179075e-01   5.323792e-03
  3.387524e+00    4.189118e-01   5.327435e-03
  3.389735e+00    4.080966e-01   5.255612e-03
  3.391945e+00    4.186492e-01   5.319421e-03
  3.394156e+00    4.111775e-01   5.267535e-03
  3.396366e+00    4.115131e-01   5.266268e-03
  3.398577e+00    3.995825e-01   5.186380e-03
  3.400787e+00    3.998958e-01   5.200149e-03
  3.402998e+00    4.154720e-01   5.338769e-03
  3.405208e+00    4.069726e-01   5.304591e-03
  3.407418e+00    3.922099e-01   5.223111e-03
  3.409629e+00    3.900658e-01   5.222558e-03
  3.411839e+00    3.979785e-01   5.287034e-03
  3.414050e+00    3.918654e-01   5.257197e-03
  3.416260e+00    3.924958e-01   5.271024e-03
  3.418471e+00    4.030519e-01   5.350970e-03
  3.420681e+00    3.991433e-01   5.333546e-03
  3.422892e+00    3.731773e-01   5.164959e-03
  3.425102e+00    3.867894e-01   5.266066e-03
  3.427313e+00    3.916564e-01   5.306354e-03
  3.429523e+00    3.815703e-01   5.244568e-03
  3.431733e+00    3.894230e-01   5.304973e-03
  3.433944e+00    3.786020e-01   5.237170e-03
  3.436154e+00    4.001425e-01   5.390482e-03
  3.438365e+00    3.753085e-01   5.226416e-03
  3.440575e+00    3.813246e-01   5.274050e-03
  3.442786e+00    3.698928e-01   5.199953e-03
  3.444996e+00    3.597053e-01   5.133213e-03
  3.447207e+00    3.618310e-01   5.153521e-03
  3.449417e+00    3.738686e-01   5.279528e-03
  3.451628e+00    3.632811e-01   5.233453e-03
  3.453838e+00    3.602194e-01   5.232270e-03
  3.456049e+00    3.771422e-01   5.378018e-03
  3.458259e+00    3.704411e-01   5.352076e-03
  3.460469e+00    3.750776e-01   5.405471e-03
  3.462680e+00    3.711843e-01   5.396551e-03
  3.464890e+00    3.609093e-01   5.338989e-03
  3.467101e+00    3.917658e-01   5.580558e-03
  3.469311e+00    3.723107e-01   5.456861e-03
  3.471522e+00    3.905794e-01   5.605830e-03
  3.473732e+00    4.063047e-01   5.734104e-03
  3.475943e+00    3.924196e-01   5.651176e-03
  3.478153e+00    4.128978e-01   5.812683e-03
  3.480364e+00    3.963147e-01   5.709973e-03
  3.482574e+00    4.026576e-01   5.770792e-03
  3.484784e+00    4.106643e-01   5.842751e-03
  3.486995e+00    4.366543e-01   6.040262e-03
  3.489205e+00    4.280665e-01   5.995385e-03
  3.491416e+00    4.197992e-01   5.951930e-03
  3.493626e+00    4.480050e-01   6.163450e-03
  3.495837e+00    4.606115e-01   6.264655e-03
  3.498047e+00    4.691527e-01   6.337382e-03
  3.500258e+00    4.482048e-01   6.208785e-03
  3.502468e+00    4.730206e-01   6.393071e-03
  3.504679e+00    4.777422e-01   6.439631e-03
  3.506889e+00    4.725972e-01   6.419459e-03
  3.509099e+00    4.721774e-01   6.430933e-03
  3.511310e+00    4.763151e-01   6.473533e-03
  3.513520e+00    5.081317e-01   6.701030e-03
  3.515731e+00    5.053800e-01   6.697550e-03
  3.517941e+00    4.916665e-01   6.620435e-03
  3.520152e+00    4.987169e-01   6.682091e-03
  3.522362e+00    5.129231e-01   6.791276e-03
  3.524573e+00    5.038584e-01   6.745209e-03
  3.526783e+00    5.240932e-01   6.892891e-03
  3.528994e+00    5.143065e-01   6.840419e-03
  3.531204e+00    5.288910e-01   6.949259e-03
  3.533414e+00    5.368606e-01   7.013661e-03
  3.535625e+00    5.394544e-01   7.043091e-03
  3.537835e+00    5.285344e-01   6.983467e-03
  3.540046e+00    5.427467e-01   7.085762e-03
  3.542256e+00    5.456728e-01   7.112454e-03
  3.544467e+00    5.357449e-01   7.055047e-03
  3.546677e+00    5.390099e-01   7.084133e-03
  3.548888e+00    5.378971e-01   7.084309e-03
  3.551098e+00    5.432646e-01   7.126914e-03
  3.553309e+00    5.437549e-01   7.138343e-03
  3.555519e+00    5.540268e-01   7.216930e-03
  3.557729e+00    5.515688e-01   7.212820e-03
  3.559940e+00    5.491132e-01   7.208413e-03
  3.562150e+00    5.549271e-01   7.258408e-03
  3.564361e+00    5.302237e-01   7.108255e-03
  3.566571e+00    5.419607e-01   7.200387e-03
  3.568782e+00    5.454193e-01   7.237561e-03
  3.570992e+00    5.649942e-01   7.380437e-03
  3.573203e+00    5.505195e-01   7.299612e-03
  3.575413e+00    5.370634e-01   7.223658e-03
  3.577624e+00    5.409467e-01   7.263877e-03
  3.579834e+00    5.534595e-01   7.361534e-03
  3.582045e+00    5.391708e-01   7.279960e-03
  3.584255e+00    5.504152e-01   7.369718e-03
  3.586465e+00    5.430015e-01   7.333964e-03
  3.588676e+00    5.299259e-01   7.259211e-03
  3.590886e+00    5.241820e-01   7.233325e-03
  3.593097e+00    5.311886e-01   7.295929e-03
  3.595307e+00    5.406367e-01   7.374529e-03
  3.597518e+00    5.575517e-01   7.503507e-03
  3.599728e+00    5.538250e-01   7.492751e-03
  3.601939e+00    5.291541e-01   7.337929e-03
  3.604149e+00    5.234078e-01   7.312222e-03
  3.606360e+00    5.362602e-01   7.415572e-03
  3.608570e+00    5.291378e-01   7.380278e-03
  3.610780e+00    5.391225e-01   7.460706e-03
  3.612991e+00    5.198693e-01   7.336111e-03
  3.615201e+00    5.441952e-01   7.515663e-03
  3.617412e+00    5.494691e-01   7.559387e-03
  3.619622e+00    5.442910e-01   7.529681e-03
  3.621833e+00    5.398272e-01   7.505525e-03
  3.624043e+00    5.328134e-01   7.466043e-03
  3.626254e+00    5.447074e-01   7.558737e-03
  3.628464e+00    5.443074e-01   7.567046e-03
  3.630675e+00    5.442666e-01   7.581003e-03
  3.632885e+00    5.427526e-01   7.585027e-03
  3.635095e+00    5.390204e-01   7.573383e-03
  3.637306e+00    5.275655e-01   7.506751e-03
  3.639516e+00    5.399054e-01   7.608654e-03
  3.641727e+00    5.228614e-01   7.502048e-03
  3.643937e+00    5.232045e-01   7.518884e-03
  3.646148e+00    5.306636e-01   7.586874e-03
  3.648358e+00    5.332823e-01   7.620434e-03
  3.650569e+00    5.360151e-01   7.654715e-03
  3.652779e+00    5.480047e-01   7.754849e-03
  3.654990e+00    5.283988e-01   7.629670e-03
  3.657200e+00    5.577015e-01   7.853608e-03
  3.659410e+00    5.454941e-01   7.782372e-03
  3.661621e+00    5.317263e-01   7.698627e-03
  3.663831e+00    5.235342e-01   7.654093e-03
  3.666042e+00    5.231014e-01   7.665948e-03
  3.668252e+00    5.560322e-01   7.919148e-03
  3.670463e+00    5.402334e-01   7.821200e-03
  3.672673e+00    5.202014e-01   7.690138e-03
  3.674884e+00    5.406877e-01   7.855581e-03
  3.677094e+00    5.627369e-01   8.030160e-03
  3.679305e+00    5.514894e-01   7.965396e-03
  3.681515e+00    5.264318e-01   7.797866e-03
  3.683726e+00    5.288751e-01   7.831716e-03
  3.685936e+00    5.365821e-01   7.904422e-03
  3.688146e+00    5.116178e-01   7.733888e-03
  3.690357e+00    5.278120e-01   7.871266e-03
  3.692567e+00    5.192366e-01   7.823059e-03
  3.694778e+00    5.214025e-01   7.855338e-03
  3.696988e+00    5.350280e-01   7.973413e-03
  3.699199e+00    5.438039e-01   8.055075e-03
  3.701409e+00    5.148197e-01   7.853713e-03
  3.703620e+00    5.334741e-01   8.011144e-03
  3.705830e+00    5.284078e-01   7.989479e-03
  3.708041e+00    5.209281e-01   7.949307e-03
  3.710251e+00    5.226634e-01   7.979190e-03
  3.712461e+00    5.348590e-01   8.088713e-03
  3.714672e+00    5.197428e-01   7.990275e-03
  3.716882e+00    5.271277e-01   8.063672e-03
  3.719093e+00    5.194091e-01   8.021484e-03
  3.721303e+00    5.373956e-01   8.176493e-03
  3.723514e+00    5.035489e-01   7.931816e-03
  3.725724e+00    5.138757e-01   8.029781e-03
  3.727935e+00    5.357259e-01   8.216507e-03
  3.730145e+00    5.087808e-01   8.024419e-03
  3.732356e+00    5.151177e-01   8.091712e-03
  3.734566e+00    5.009189e-01   7.996731e-03
  3.736776e+00    5.062722e-01   8.056951e-03
  3.738987e+00    5.210587e-01   8.191578e-03
  3.741197e+00    5.098448e-01   8.120970e-03
  3.743408e+00    5.144124e-01   8.175271e-03
  3.745618e+00    5.215712e-01   8.250469e-03
  3.747829e+00    5.100539e-01   8.176916e-03
  3.750039e+00    5.132262e-01   8.220705e-03
  3.752250e+00    5.198171e-01   8.291977e-03
  3.754460e+00    5.247841e-01   8.350288e-03
  3.756671e+00    5.080559e-01   8.234904e-03
  3.758881e+00    5.068003e-01   8.243322e-03
  3.761091e+00    5.310573e-01   8.457851e-03
  3.763302e+00    5.350789e-01   8.509378e-03
  3.765512e+00    5.307152e-01   8.494329e-03
  3.767723e+00    5.120674e-01   8.363181e-03
  3.769933e+00    5.171449e-01   8.424096e-03
  3.772144e+00    5.024191e-01   8.322820e-03
  3.774354e+00    5.087755e-01   8.395154e-03
  3.776565e+00    5.117821e-01   8.439928e-03
  3.778775e+00    5.221168e-01   8.545008e-03
  3.780986e+00    5.173803e-01   8.526755e-03
  3.783196e+00    5.071561e-01   8.462390e-03
  3.785407e+00    5.157423e-01   8.554409e-03
  3.787617e+00    5.103557e-01   8.530549e-03
  3.789827e+00    4.976099e-01   8.443773e-03
  3.792038e+00    4.947731e-01   8.440324e-03
  3.794248e+00    5.011379e-01   8.515627e-03
  3.796459e+00    4.857439e-01   8.404848e-03
  3.798669e+00    4.940903e-01   8.497946e-03
  3.800880e+00    5.135146e-01   8.685147e-03
  3.803090e+00    5.113927e-01   8.689194e-03
  3.805301e+00    5.008805e-01   8.621562e-03
  3.807511e+00    5.183278e-01   8.792817e-03
  3.809722e+00    5.176517e-01   8.809766e-03
  3.811932e+00    5.187145e-01   8.841367e-03
  3.814142e+00    5.117002e-01   8.804608e-03
  3.816353e+00    5.143358e-01   8.850427e-03
  3.818563e+00    4.803113e-01   8.575388e-03
  3.820774e+00    5.070735e-01   8.834347e-03
  3.822984e+00    4.900786e-01   8.708269e-03
  3.825195e+00    5.211526e-01   9.004357e-03
  3.827405e+00    5.087342e-01   8.920577e-03
  3.829616e+00    5.118232e-01   8.972063e-03
  3.831826e+00    5.005355e-01   8.896771e-03
  3.834037e+00    5.020461e-01   8.934837e-03
  3.836247e+00    4.994088e-01   8.936117e-03
  3.838457e+00    4.859573e-01   8.839710e-03
  3.840668e+00    5.079957e-01   9.063336e-03
  3.842878e+00    4.918032e-01   8.943224e-03
  3.845089e+00    4.812981e-01   8.872336e-03
  3.847299e+00    5.102283e-01   9.161244e-03
  3.849510e+00    5.289038e-01   9.354163e-03
  3.851720e+00    5.156453e-01   9.258045e-03
  3.853931e+00    5.137231e-01   9.260092e-03
  3.856141e+00    4.853486e-01   9.019625e-03
  3.858352e+00    4.999505e-01   9.173561e-03
  3.860562e+00    4.949722e-01   9.147192e-03
  3.862772e+00    4.905599e-01   9.125814e-03
  3.864983e+00    4.948916e-01   9.185674e-03
  3.867193e+00    4.990712e-01   9.244300e-03
  3.869404e+00    4.831100e-01   9.114844e-03
  3.871614e+00    4.932369e-01   9.229876e-03
  3.873825e+00    5.098475e-01   9.404645e-03
  3.876035e+00    4.906553e-01   9.246527e-03
  3.878246e+00    5.048818e-01   9.405612e-03
  3.880456e+00    4.956264e-01   9.348222e-03
  3.882667e+00    4.856424e-01   9.282623e-03
  3.884877e+00    5.002226e-01   9.450959e-03
  3.887087e+00    4.927177e-01   9.409787e-03
  3.889298e+00    4.949824e-01   9.461861e-03
  3.891508e+00    4.985504e-01   9.526648e-03
  3.893719e+00    4.976107e-01   9.548913e-03
  3.895929e+00    4.960544e-01   9.565550e-03
  3.898140e+00    4.784612e-01   9.425711e-03
  3.900350e+00    5.047575e-01   9.713799e-03
  3.902561e+00    5.008219e-01   9.708671e-03
  3.904771e+00    4.783713e-01   9.520928e-03
  3.906982e+00    4.816250e-01   9.586163e-03
  3.909192e+00    4.995883e-01   9.797101e-03
  3.911403e+00    5.234120e-01   1.006322e-02
  3.913613e+00    4.741091e-01   9.611281e-03
  3.915823e+00    4.785549e-01   9.690711e-03
  3.918034e+00    4.865719e-01   9.806669e-03
  3.920244e+00    5.007591e-01   9.984832e-03
  3.922455e+00    4.842686e-01   9.855040e-03
  3.924665e+00    4.854818e-01   9.903597e-03
  3.926876e+00    4.932679e-01   1.002009e-02
  3.929086e+00    4.939287e-01   1.006443e-02
  3.931297e+00    4.808745e-01   9.965073e-03
  3.933507e+00    4.781883e-01   9.965811e-03
  3.935718e+00    4.897444e-01   1.011438e-02
  3.937928e+00    4.922612e-01   1.016993e-02
  3.940138e+00    4.882612e-01   1.015786e-02
  3.942349e+00    4.938870e-01   1.024628e-02
  3.944559e+00    4.851020e-01   1.018474e-02
  3.946770e+00    4.757510e-01   1.011587e-02
  3.948980e+00    4.994974e-01   1.039642e-02
  3.951191e+00    4.996044e-01   1.042874e-02
  3.953401e+00    5.247740e-01   1.072082e-02
  3.955612e+00    4.863137e-01   1.035215e-02
  3.957822e+00    4.883120e-01   1.040514e-02
  3.960033e+00    4.655498e-01   1.019170e-02
  3.962243e+00    4.856995e-01   1.044267e-02
  3.964453e+00    4.963233e-01   1.058977e-02
  3.966664e+00    4.938836e-01   1.059743e-02
  3.968874e+00    5.024388e-01   1.071762e-02
  3.971085e+00    4.987463e-01   1.070050e-02
  3.973295e+00    4.880890e-01   1.060701e-02
  3.975506e+00    4.539603e-01   1.025046e-02
  3.977716e+00    4.798917e-01   1.056086e-02
  3.979927e+00    4.639474e-01   1.040565e-02
  3.982137e+00    4.763853e-01   1.056628e-02
  3.984348e+00    5.073403e-01   1.092721e-02
  3.986558e+00    5.041112e-01   1.091521e-02
  3.988768e+00    4.919440e-01   1.080578e-02
  3.990979e+00    5.007740e-01   1.092548e-02
  3.993189e+00    4.674840e-01   1.057872e-02
  3.995400e+00    4.940005e-01   1.089836e-02
  3.997610e+00    4.988252e-01   1.098169e-02
  3.999821e+00    4.926861e-01   1.095171e-02
  4.002031e+00    4.759548e-01   1.080230e-02
  4.004242e+00    4.657450e-01   1.072338e-02
  4.006452e+00    4.672475e-01   1.077941e-02
  4.008663e+00    4.660766e-01   1.080510e-02
  4.010873e+00    4.679122e-01   1.086557e-02
  4.013084e+00    4.836703e-01   1.108798e-02
  4.015294e+00    4.972336e-01   1.128389e-02
  4.017504e+00    4.806798e-01   1.113619e-02
  4.019715e+00    4.894215e-01   1.127974e-02
  4.021925e+00    4.545211e-01   1.091171e-02
  4.024136e+00    4.916043e-01   1.139209e-02
  4.026346e+00    5.000911e-01   1.153498e-02
  4.028557e+00    4.813371e-01   1.136086e-02
  4.030767e+00    4.823245e-01   1.141800e-02
  4.032978e+00    4.705537e-01   1.132350e-02
  4.035188e+00    4.871195e-01   1.156741e-02
  4.037399e+00    5.035397e-01   1.180935e-02
  4.039609e+00    5.020951e-01   1.184107e-02
  4.041819e+00    4.624313e-01   1.141147e-02
  4.044030e+00    4.589393e-01   1.141684e-02
  4.046240e+00    4.745025e-01   1.165826e-02
  4.048451e+00    4.829611e-01   1.181252e-02
  4.050661e+00    5.201541e-01   1.231254e-02
  4.052872e+00    4.832647e-01   1.192058e-02
  4.055082e+00    4.766935e-01   1.189241e-02
  4.057293e+00    5.044113e-01   1.228833e-02
  4.059503e+00    4.630190e-01   1.182685e-02
  4.061714e+00    4.543978e-01   1.177093e-02
  4.063924e+00    4.842572e-01   1.220853e-02
  4.066134e+00    4.845303e-01   1.226939e-02
  4.068345e+00    5.104911e-01   1.265472e-02
  4.070555e+00    4.552159e-01   1.200737e-02
  4.072766e+00    4.987750e-01   1.263067e-02
  4.074976e+00    4.908856e-01   1.259291e-02
  4.077187e+00    4.807090e-01   1.252369e-02
  4.079397e+00    4.725574e-01   1.248041e-02
  4.081608e+00    4.814851e-01   1.266332e-02
  4.083818e+00    4.745953e-01   1.263777e-02
  4.086029e+00    4.646649e-01   1.257070e-02
  4.088239e+00    5.002689e-01   1.311361e-02
  4.090449e+00    5.060076e-01   1.326029e-02
  4.092660e+00    4.959020e-01   1.319929e-02
  4.094870e+00    4.872445e-01   1.315647e-02
  4.097081e+00    4.773521e-01   1.309358e-02
  4.099291e+00    4.631134e-01   1.294998e-02
  4.101502e+00    4.905828e-01   1.337844e-02
  4.103712e+00    5.148039e-01   1.375563e-02
  4.105923e+00    4.832293e-01   1.337887e-02
  4.108133e+00    4.474697e-01   1.292393e-02
  4.110344e+00    4.770863e-01   1.339568e-02
  4.112554e+00    4.933229e-01   1.367548e-02
  4.114764e+00    5.285069e-01   1.421196e-02
  4.116975e+00    4.540519e-01   1.322467e-02
  4.119185e+00    4.590057e-01   1.335063e-02
  4.121396e+00    4.817070e-01   1.373322e-02
  4.123606e+00    4.740051e-01   1.367884e-02
  4.125817e+00    4.655921e-01   1.361375e-02
  4.128027e+00    4.984448e-01   1.414524e-02
  4.130238e+00    4.904586e-01   1.409163e-02
  4.132448e+00    4.968298e-01   1.424430e-02
  4.134659e+00    4.702567e-01   1.391798e-02
  4.136869e+00    4.999668e-01   1.441470e-02
  4.139080e+00    4.670705e-01   1.399539e-02
  4.141290e+00    4.767396e-01   1.420195e-02
  4.143500e+00    4.628559e-01   1.405836e-02
  4.145711e+00    4.751521e-01   1.431016e-02
  4.147921e+00    4.519112e-01   1.402001e-02
  4.150132e+00    4.855608e-01   1.460186e-02
  4.152342e+00    4.746123e-01   1.450635e-02
  4.154553e+00    4.584066e-01   1.432414e-02
  4.156763e+00    5.276405e-01   1.544392e-02
  4.158974e+00    5.369476e-01   1.565799e-02
  4.161184e+00    4.615587e-01   1.458931e-02
  4.163395e+00    5.012355e-01   1.528082e-02
  4.165605e+00    5.019654e-01   1.537160e-02
  4.167815e+00    4.594379e-01   1.478270e-02
  4.170026e+00    5.063930e-01   1.560148e-02
  4.172236e+00    4.976154e-01   1.554950e-02
  4.174447e+00    4.571866e-01   1.498522e-02
  4.176657e+00    5.040901e-01   1.582142e-02
  4.178868e+00    4.879013e-01   1.565328e-02
  4.181078e+00    4.939622e-01   1.583915e-02
  4.183289e+00    4.621722e-01   1.540843e-02
  4.185499e+00    4.638916e-01   1.552830e-02
  4.187710e+00    4.734488e-01   1.577911e-02
  4.189920e+00    4.536369e-01   1.553881e-02
  4.192130e+00    4.647045e-01   1.582302e-02
  4.194341e+00    4.860788e-01   1.628224e-02
  4.196551e+00    4.925002e-01   1.649311e-02
  4.198762e+00    4.944023e-01   1.662986e-02
  4.200972e+00    4.463621e-01   1.590387e-02
  4.203183e+00    4.436579e-01   1.595946e-02
  4.205393e+00    4.849276e-01   1.679686e-02
  4.207604e+00    5.193138e-01   1.750062e-02
  4.209814e+00    5.058145e-01   1.739033e-02
  4.212025e+00    4.552900e-01   1.661551e-02
  4.214235e+00    4.631237e-01   1.687678e-02
  4.216445e+00    4.889896e-01   1.746707e-02
  4.218656e+00    4.350392e-01   1.659898e-02
  4.220866e+00    4.931884e-01   1.780404e-02
  4.223077e+00    4.445866e-01   1.703457e-02
  4.225287e+00    5.004773e-01   1.821527e-02
  4.227498e+00    4.890513e-01   1.814756e-02
  4.229708e+00    4.545301e-01   1.763769e-02
  4.231919e+00    4.801743e-01   1.827810e-02
  4.234129e+00    4.965116e-01   1.874263e-02
  4.236340e+00    4.349792e-01   1.769281e-02
  4.238550e+00    4.274368e-01   1.769364e-02
  4.240761e+00    4.196770e-01   1.768708e-02
  4.242971e+00    4.818462e-01   1.912532e-02
  4.245181e+00    4.796314e-01   1.926095e-02
  4.247392e+00    4.392861e-01   1.860525e-02
  4.249602e+00    4.058608e-01   1.806097e-02
  4.251813e+00    4.542483e-01   1.929551e-02
  4.254023e+00    4.675338e-01   1.977341e-02
  4.256234e+00    4.692399e-01   2.002048e-02
  4.258444e+00    4.423618e-01   1.964236e-02
  4.260655e+00    4.702923e-01   2.047537e-02
  4.262865e+00    4.708960e-01   2.072128e-02
  4.265076e+00    4.276808e-01   1.997188e-02
  4.267286e+00    5.860310e-01   2.365590e-02
  4.269496e+00    4.335501e-01   2.059549e-02
  4.271707e+00    5.170633e-01   2.276956e-02
  4.273917e+00    5.226984e-01   2.318917e-02
  4.276128e+00    4.850494e-01   2.263540e-02
  4.278338e+00    4.330623e-01   2.167315e-02
  4.280549e+00    5.198264e-01   2.408643e-02
  4.282759e+00    4.570852e-01   2.291079e-02
  4.284970e+00    3.805468e-01   2.121395e-02
  4.287180e+00    4.373788e-01   2.301526e-02
  4.289391e+00    4.481645e-01   2.347218e-02
  4.291601e+00    4.293823e-01   2.315866e-02
  4.293811e+00    4.361971e-01   2.352446e-02
  4.296022e+00    4.293797e-01   2.352701e-02
  4.298232e+00    5.196392e-01   2.609865e-02
  4.300443e+00    4.887938e-01   2.552144e-02
  4.302653e+00    4.161682e-01   2.375299e-02
  4.304864e+00    4.403727e-01   2.464559e-02
  4.307074e+00    4.902216e-01   2.623629e-02
  4.309285e+00    5.047228e-01   2.686423e-02
  4.311495e+00    4.469763e-01   2.551710e-02
  4.313706e+00    4.679429e-01   2.635353e-02
  4.315916e+00    4.139334e-01   2.503089e-02
  4.318126e+00    4.288249e-01   2.572813e-02
  4.320337e+00    4.307528e-01   2.604763e-02
  4.322547e+00    5.348644e-01   2.933202e-02
  4.324758e+00    5.253748e-01   2.937398e-02
  4.326968e+00    5.568748e-01   3.058169e-02
  4.329179e+00    5.556340e-01   3.088476e-02
  4.331389e+00    4.793278e-01   2.901620e-02
  4.333600e+00    4.307832e-01   2.783615e-02
  4.335810e+00    4.805467e-01   2.974883e-02
  4.338021e+00    4.652126e-01   2.964683e-02
  4.340231e+00    4.073412e-01   2.808778e-02
  4.342442e+00    5.242508e-01   3.229377e-02
  4.344652e+00    3.866799e-01   2.811141e-02
  4.346862e+00    3.631116e-01   2.762222e-02
  4.349073e+00    4.668987e-01   3.177700e-02
  4.351283e+00    5.102336e-01   3.371613e-02
  4.353494e+00    5.208001e-01   3.458885e-02
  4.355704e+00    5.538804e-01   3.624576e-02
  4.357915e+00    4.639211e-01   3.372429e-02
  4.360125e+00    4.831185e-01   3.500174e-02
  4.362336e+00    4.254233e-01   3.344303e-02
  4.364546e+00    4.524640e-01   3.511959e-02
  4.366757e+00    6.154405e-01   4.177291e-02
  4.368967e+00    5.474808e-01   4.018569e-02
  4.371177e+00    4.377076e-01   3.669607e-02
  4.373388e+00    4.209153e-01   3.678813e-02
  4.375598e+00    2.941837e-01   3.145787e-02
  4.377809e+00    4.262151e-01   3.882281e-02
  4.380019e+00    3.308270e-01   3.506288e-02
  4.382230e+00    2.703365e-01   3.258130e-02
  4.384440e+00    3.069377e-01   3.571238e-02
  4.386651e+00    5.792928e-01   5.057923e-02
  4.388861e+00    6.794647e-01   5.661499e-02
  4.391072e+00    6.671622e-01   5.807411e-02
  4.393282e+00    5.278253e-01   5.364958e-02
  4.395492e+00    4.146022e-01   4.952577e-02
  4.397703e+00    4.658659e-01   5.489558e-02
  4.399913e+00    4.642761e-01   5.757637e-02
  4.402124e+00    3.322179e-01   5.146825e-02
  4.404334e+00    2.618496e-01   4.857125e-02
  4.406545e+00    2.050381e-01   4.617236e-02
  4.408755e+00    3.920721e-01   6.925493e-02
  4.410966e+00    4.398720e-01   8.118275e-02
  4.413176e+00    3.526536e-02   2.605855e-02
  4.415387e+00   -8.817141e-01            nan
  4.417597e+00   -1.914176e+00            nan
  4.419807e+00   -3.766224e-01            nan
