# == pyFAI calibration ==
# Distance Sample to Detector: 0.216 m
# PONI: 1.166e-01, 1.308e-01 m
# Rotations: 0.000000 0.000000 0.000000 rad
# 
# == Fit2d calibration ==
# Distance Sample-beamCenter: 216.000 mm
# Center: x=1744.293, y=1555.000 pix
# Tilt: 0.000 deg  TiltPlanRot: 0.000 deg
# 
# Detector Eiger 9M	 PixelSize= 7.500e-05, 7.500e-05 m
#    Detector has a mask: True 
#    Detector has a dark current: False 
#    detector has a flat field: False 
# 
# Wavelength: 9.8e-11 m
# Mask applied: from detector
# Dark current applied: False
# Flat field applied: False
# Polarization factor: None
# Normalization factor: 1.0
# 
# Headers of the input frame:
# {
# "_array_data.header_convention": "SLS_1.0",
# "_array_data.header_contents": "# Detector: Dectris Eiger 9M, S/N E-18-0102\r\n# Pixel_size 75e-6 m x 75e-6 m\r\n# Silicon sensor, thickness 0.000450 m\r\n# Exposure_time 0.024997 s\r\n# Exposure_period 0.025000 s\r\n# Count_cutoff 62318 counts\r\n# Wavelength 0.980106 A\r\n# Detector_distance 0.215992 m\r\n# Beam_xy (1555, 1744) pixels\r\n# Start_angle 0.000000 deg.\r\n# Angle_increment 0.000000 deg.",
# "Content-Type": "application/octet-stream;",
# "conversions": "x-CBF_BYTE_OFFSET",
# "Content-Transfer-Encoding": "BINARY",
# "X-Binary-Size": "10166662",
# "X-Binary-ID": "1",
# "X-Binary-Element-Type": "signed 32-bit integer",
# "X-Binary-Element-Byte-Order": "LITTLE_ENDIAN",
# "Content-MD5": "kKdF1NkkdNtmr+ypvp/2UQ==",
# "X-Binary-Number-of-Elements": "10166590",
# "X-Binary-Size-Fastest-Dimension": "3110",
# "X-Binary-Size-Second-Dimension": "3269",
# "X-Binary-Size-Padding": "4095"
# }
# --> H:/Proxima2a_2019-04-05/RAW_DATA/C5_gel17_position5/C5_mesh_1_data.cbf/C5_mesh_1_data.cbf000107.dat
#        q_A^-1              I           sigma 
  1.105228e-03    1.647359e+00   6.945142e-01
  3.315685e-03    1.769205e+00   4.375569e-01
  5.526141e-03    1.349073e+00   2.954540e-01
  7.736597e-03    1.254915e+00   2.407285e-01
  9.947054e-03    1.517143e+00   2.333403e-01
  1.215751e-02    1.492991e+00   2.093135e-01
  1.436797e-02    1.529276e+00   1.948583e-01
  1.657842e-02    1.455063e+00   1.769234e-01
  1.878888e-02    1.411401e+00   1.636774e-01
  2.099934e-02    1.459656e+00   1.574807e-01
  2.320979e-02    1.423875e+00   1.479343e-01
  2.542025e-02    1.446228e+00   1.424715e-01
  2.763070e-02    1.513814e+00   1.398063e-01
  2.984116e-02    1.456267e+00   1.319463e-01
  3.205162e-02    1.562975e+00   1.319053e-01
  3.426207e-02    1.395865e+00   1.205582e-01
  3.647253e-02    1.430021e+00   1.182663e-01
  3.868299e-02    1.614614e+00   1.220337e-01
  4.089344e-02    1.610131e+00   1.185254e-01
  4.310390e-02    1.412095e+00   1.081075e-01
  4.531436e-02    1.372716e+00   1.039576e-01
  4.752481e-02    1.421355e+00   1.032928e-01
  4.973527e-02    1.552740e+00   1.055361e-01
  5.194572e-02    1.711901e+00   1.084282e-01
  5.415618e-02    1.633361e+00   1.037241e-01
  5.636664e-02    1.502606e+00   9.751868e-02
  5.857709e-02    1.491546e+00   9.530877e-02
  6.078755e-02    1.396275e+00   9.051963e-02
  6.299801e-02    1.332729e+00   8.686950e-02
  6.520846e-02    1.533692e+00   9.159669e-02
  6.741892e-02    1.510742e+00   8.940156e-02
  6.962938e-02    1.487798e+00   8.730484e-02
  7.183983e-02    1.574233e+00   8.841104e-02
  7.405029e-02    1.547757e+00   8.634410e-02
  7.626074e-02    1.485654e+00   8.335836e-02
  7.847120e-02    1.449178e+00   8.115867e-02
  8.068166e-02    1.392155e+00   7.844804e-02
  8.289211e-02    1.421946e+00   7.821826e-02
  8.510257e-02    1.491530e+00   7.906155e-02
  8.731303e-02    1.429408e+00   7.640871e-02
  8.952348e-02    1.473256e+00   7.661022e-02
  9.173394e-02    1.492578e+00   7.617322e-02
  9.394439e-02    1.493791e+00   7.529986e-02
  9.615485e-02    1.488802e+00   7.430333e-02
  9.836531e-02    1.434019e+00   7.209745e-02
  1.005758e-01    1.421852e+00   7.099807e-02
  1.027862e-01    1.506780e+00   7.229575e-02
  1.049967e-01    1.535189e+00   7.220062e-02
  1.072071e-01    1.514458e+00   7.096749e-02
  1.094176e-01    1.433078e+00   6.833252e-02
  1.116280e-01    1.414333e+00   6.720715e-02
  1.138385e-01    1.531076e+00   6.924231e-02
  1.160490e-01    1.481508e+00   6.745965e-02
  1.182594e-01    1.484463e+00   6.689136e-02
  1.204699e-01    1.557412e+00   6.788320e-02
  1.226803e-01    1.608005e+00   6.834994e-02
  1.248908e-01    1.545160e+00   6.640463e-02
  1.271012e-01    1.463690e+00   6.406456e-02
  1.293117e-01    1.512348e+00   6.456090e-02
  1.315222e-01    1.586181e+00   6.555858e-02
  1.337326e-01    1.603071e+00   6.535849e-02
  1.359431e-01    1.586431e+00   6.505646e-02
  1.381535e-01    1.546058e+00   6.508538e-02
  1.403640e-01    1.601026e+00   6.651825e-02
  1.425744e-01    1.666299e+00   6.796908e-02
  1.447849e-01    1.565658e+00   6.589970e-02
  1.469953e-01    1.536124e+00   6.523432e-02
  1.492058e-01    1.614155e+00   6.679291e-02
  1.514163e-01    1.657389e+00   6.756916e-02
  1.536267e-01    1.580926e+00   6.586324e-02
  1.558372e-01    1.567008e+00   6.542793e-02
  1.580476e-01    1.548724e+00   6.488726e-02
  1.602581e-01    1.560757e+00   6.497340e-02
  1.624685e-01    1.651363e+00   6.664975e-02
  1.646790e-01    1.696259e+00   6.735573e-02
  1.668895e-01    1.630975e+00   6.585610e-02
  1.690999e-01    1.704586e+00   6.712366e-02
  1.713104e-01    1.726222e+00   6.733871e-02
  1.735208e-01    1.768280e+00   6.794216e-02
  1.757313e-01    1.839472e+00   6.907917e-02
  1.779417e-01    1.736868e+00   6.690606e-02
  1.801522e-01    1.759418e+00   6.712447e-02
  1.823626e-01    1.796785e+00   6.760772e-02
  1.845731e-01    1.910370e+00   6.948607e-02
  1.867836e-01    2.049059e+00   7.172133e-02
  1.889940e-01    1.974342e+00   7.017151e-02
  1.912045e-01    1.996187e+00   7.032301e-02
  1.934149e-01    2.048158e+00   7.099416e-02
  1.956254e-01    2.003309e+00   6.998102e-02
  1.978358e-01    1.958691e+00   6.896015e-02
  2.000463e-01    1.962389e+00   6.879650e-02
  2.022568e-01    2.001740e+00   6.925476e-02
  2.044672e-01    2.100775e+00   7.070421e-02
  2.066777e-01    2.118758e+00   7.077052e-02
  2.088881e-01    2.094408e+00   7.013249e-02
  2.110986e-01    1.972687e+00   6.783063e-02
  2.133090e-01    1.959494e+00   6.738364e-02
  2.155195e-01    1.986093e+00   6.761442e-02
  2.177300e-01    2.037094e+00   6.793910e-02
  2.199404e-01    1.939746e+00   6.454901e-02
  2.221509e-01    1.924442e+00   6.323815e-02
  2.243613e-01    1.960551e+00   6.301946e-02
  2.265718e-01    2.080903e+00   6.420936e-02
  2.287822e-01    2.094043e+00   6.377421e-02
  2.309927e-01    2.152901e+00   6.407519e-02
  2.332031e-01    2.131461e+00   6.320968e-02
  2.354136e-01    2.221678e+00   6.401049e-02
  2.376241e-01    2.143064e+00   6.237983e-02
  2.398345e-01    2.191558e+00   6.261479e-02
  2.420450e-01    2.129078e+00   6.127474e-02
  2.442554e-01    2.057231e+00   5.981702e-02
  2.464659e-01    2.129382e+00   6.044835e-02
  2.486763e-01    2.105935e+00   5.971948e-02
  2.508868e-01    2.162125e+00   6.012921e-02
  2.530973e-01    2.074726e+00   5.853621e-02
  2.553077e-01    2.017287e+00   5.737013e-02
  2.575182e-01    2.069170e+00   5.775940e-02
  2.597286e-01    2.185666e+00   5.901802e-02
  2.619391e-01    2.177398e+00   5.856717e-02
  2.641495e-01    2.075465e+00   5.686339e-02
  2.663600e-01    1.981175e+00   5.525118e-02
  2.685704e-01    1.969225e+00   5.478569e-02
  2.707809e-01    1.932049e+00   5.397805e-02
  2.729914e-01    1.993307e+00   5.454136e-02
  2.752018e-01    2.019020e+00   5.460630e-02
  2.774123e-01    2.025754e+00   5.441791e-02
  2.796227e-01    2.050199e+00   5.447444e-02
  2.818332e-01    1.973975e+00   5.318559e-02
  2.840436e-01    1.944110e+00   5.252584e-02
  2.862541e-01    2.030476e+00   5.342184e-02
  2.884646e-01    2.041496e+00   5.331241e-02
  2.906750e-01    1.958864e+00   5.197472e-02
  2.928855e-01    1.895751e+00   5.089362e-02
  2.950959e-01    1.976120e+00   5.172256e-02
  2.973064e-01    1.928862e+00   5.087070e-02
  2.995168e-01    1.923549e+00   5.057049e-02
  3.017273e-01    1.932999e+00   5.047105e-02
  3.039377e-01    1.940646e+00   5.034937e-02
  3.061482e-01    1.922065e+00   4.989097e-02
  3.083587e-01    1.965452e+00   5.023255e-02
  3.105691e-01    1.980440e+00   5.020834e-02
  3.127796e-01    1.929052e+00   4.934435e-02
  3.149900e-01    1.874095e+00   4.843374e-02
  3.172005e-01    1.905525e+00   4.863847e-02
  3.194109e-01    1.856227e+00   4.780702e-02
  3.216214e-01    1.840315e+00   4.740743e-02
  3.238319e-01    1.891536e+00   4.787222e-02
  3.260423e-01    1.894104e+00   4.771390e-02
  3.282528e-01    1.892060e+00   4.749830e-02
  3.304632e-01    1.900757e+00   4.742290e-02
  3.326737e-01    1.849361e+00   4.659486e-02
  3.348841e-01    1.882605e+00   4.682945e-02
  3.370946e-01    1.917235e+00   4.708045e-02
  3.393050e-01    1.831284e+00   4.583869e-02
  3.415155e-01    1.815951e+00   4.547478e-02
  3.437260e-01    1.806009e+00   4.518201e-02
  3.459364e-01    1.808153e+00   4.504161e-02
  3.481469e-01    1.816651e+00   4.498250e-02
  3.503573e-01    1.820539e+00   4.486661e-02
  3.525678e-01    1.796121e+00   4.440587e-02
  3.547782e-01    1.820325e+00   4.454250e-02
  3.569887e-01    1.776082e+00   4.384197e-02
  3.591992e-01    1.777719e+00   4.370697e-02
  3.614096e-01    1.786729e+00   4.366565e-02
  3.636201e-01    1.822473e+00   4.394530e-02
  3.658305e-01    1.820227e+00   4.376840e-02
  3.680410e-01    1.821069e+00   4.362796e-02
  3.702514e-01    1.790851e+00   4.311898e-02
  3.724619e-01    1.799740e+00   4.307865e-02
  3.746724e-01    1.798256e+00   4.291722e-02
  3.768828e-01    1.797484e+00   4.276359e-02
  3.790933e-01    1.860538e+00   4.336544e-02
  3.813037e-01    1.835457e+00   4.293123e-02
  3.835142e-01    1.799603e+00   4.237023e-02
  3.857246e-01    1.823019e+00   4.250697e-02
  3.879351e-01    1.812610e+00   4.224828e-02
  3.901455e-01    1.757987e+00   4.147436e-02
  3.923560e-01    1.791841e+00   4.173872e-02
  3.945665e-01    1.835992e+00   4.211583e-02
  3.967769e-01    1.835076e+00   4.197346e-02
  3.989874e-01    1.839224e+00   4.188965e-02
  4.011978e-01    1.846021e+00   4.183794e-02
  4.034083e-01    1.829614e+00   4.152372e-02
  4.056187e-01    1.798798e+00   4.104574e-02
  4.078292e-01    1.789901e+00   4.082017e-02
  4.100397e-01    1.793150e+00   4.073248e-02
  4.122501e-01    1.744610e+00   4.005717e-02
  4.144606e-01    1.752755e+00   4.003150e-02
  4.166710e-01    1.762336e+00   4.002142e-02
  4.188815e-01    1.802808e+00   4.035877e-02
  4.210919e-01    1.866597e+00   4.094624e-02
  4.233024e-01    1.818183e+00   4.029286e-02
  4.255128e-01    1.807410e+00   4.005720e-02
  4.277233e-01    1.793743e+00   3.979079e-02
  4.299338e-01    1.801876e+00   3.976617e-02
  4.321442e-01    1.771783e+00   3.931985e-02
  4.343547e-01    1.846934e+00   4.003156e-02
  4.365651e-01    1.810965e+00   3.952722e-02
  4.387756e-01    1.821794e+00   3.953421e-02
  4.409860e-01    1.811471e+00   3.931282e-02
  4.431965e-01    1.796181e+00   3.903832e-02
  4.454070e-01    1.755668e+00   3.848817e-02
  4.476174e-01    1.793423e+00   3.879300e-02
  4.498279e-01    1.759354e+00   3.831823e-02
  4.520383e-01    1.763609e+00   3.825924e-02
  4.542488e-01    1.822918e+00   3.879236e-02
  4.564592e-01    1.746517e+00   3.786889e-02
  4.586697e-01    1.740540e+00   3.770368e-02
  4.608801e-01    1.741332e+00   3.761124e-02
  4.630906e-01    1.698651e+00   3.704909e-02
  4.653011e-01    1.684540e+00   3.679786e-02
  4.675115e-01    1.681168e+00   3.666418e-02
  4.697220e-01    1.738004e+00   3.718119e-02
  4.719324e-01    1.747656e+00   3.718784e-02
  4.741429e-01    1.741378e+00   3.702536e-02
  4.763533e-01    1.697210e+00   3.645909e-02
  4.785638e-01    1.691859e+00   3.630752e-02
  4.807743e-01    1.740815e+00   3.673541e-02
  4.829847e-01    1.693115e+00   3.613711e-02
  4.851952e-01    1.678510e+00   3.588986e-02
  4.874056e-01    1.689098e+00   3.591210e-02
  4.896161e-01    1.685377e+00   3.578356e-02
  4.918265e-01    1.720201e+00   3.606158e-02
  4.940370e-01    1.632894e+00   3.504780e-02
  4.962475e-01    1.656484e+00   3.521286e-02
  4.984579e-01    1.695552e+00   3.553789e-02
  5.006684e-01    1.715932e+00   3.566366e-02
  5.028788e-01    1.690968e+00   3.531751e-02
  5.050893e-01    1.668841e+00   3.500034e-02
  5.072997e-01    1.700078e+00   3.524107e-02
  5.095102e-01    1.683146e+00   3.498116e-02
  5.117206e-01    1.706532e+00   3.513956e-02
  5.139311e-01    1.719347e+00   3.518781e-02
  5.161416e-01    1.675961e+00   3.465891e-02
  5.183520e-01    1.636564e+00   3.416772e-02
  5.205625e-01    1.653300e+00   3.426152e-02
  5.227729e-01    1.651650e+00   3.416456e-02
  5.249834e-01    1.667482e+00   3.424821e-02
  5.271938e-01    1.689872e+00   3.439694e-02
  5.294043e-01    1.710041e+00   3.452174e-02
  5.316148e-01    1.738672e+00   3.472982e-02
  5.338252e-01    1.742038e+00   3.468397e-02
  5.360357e-01    1.750211e+00   3.468608e-02
  5.382461e-01    1.742795e+00   3.453428e-02
  5.404566e-01    1.739226e+00   3.442040e-02
  5.426670e-01    1.759769e+00   3.454505e-02
  5.448775e-01    1.778216e+00   3.464808e-02
  5.470879e-01    1.756761e+00   3.436162e-02
  5.492984e-01    1.763988e+00   3.435565e-02
  5.515089e-01    1.768310e+00   3.432144e-02
  5.537193e-01    1.742326e+00   3.399327e-02
  5.559298e-01    1.756718e+00   3.405851e-02
  5.581402e-01    1.789542e+00   3.430010e-02
  5.603507e-01    1.781207e+00   3.414568e-02
  5.625611e-01    1.791774e+00   3.417248e-02
  5.647716e-01    1.762295e+00   3.381665e-02
  5.669821e-01    1.742732e+00   3.355592e-02
  5.691925e-01    1.747114e+00   3.352595e-02
  5.714030e-01    1.746690e+00   3.345041e-02
  5.736134e-01    1.731055e+00   3.322954e-02
  5.758239e-01    1.721944e+00   3.307125e-02
  5.780343e-01    1.686321e+00   3.265813e-02
  5.802448e-01    1.703758e+00   3.275784e-02
  5.824552e-01    1.635368e+00   3.202631e-02
  5.846657e-01    1.647935e+00   3.208210e-02
  5.868762e-01    1.638256e+00   3.192115e-02
  5.890866e-01    1.625419e+00   3.172988e-02
  5.912971e-01    1.622664e+00   3.163734e-02
  5.935075e-01    1.575524e+00   3.110998e-02
  5.957180e-01    1.609241e+00   3.137656e-02
  5.979284e-01    1.640756e+00   3.161766e-02
  6.001389e-01    1.629572e+00   3.144554e-02
  6.023494e-01    1.616884e+00   3.125929e-02
  6.045598e-01    1.645187e+00   3.146749e-02
  6.067703e-01    1.672433e+00   3.166319e-02
  6.089807e-01    1.642876e+00   3.131906e-02
  6.111912e-01    1.677519e+00   3.158434e-02
  6.134016e-01    1.705136e+00   3.177977e-02
  6.156121e-01    1.685554e+00   3.153395e-02
  6.178226e-01    1.700248e+00   3.160841e-02
  6.200330e-01    1.704842e+00   3.158863e-02
  6.222435e-01    1.718438e+00   3.165153e-02
  6.244539e-01    1.665019e+00   3.109469e-02
  6.266644e-01    1.684979e+00   3.121948e-02
  6.288748e-01    1.705213e+00   3.134525e-02
  6.310853e-01    1.686343e+00   3.111082e-02
  6.332957e-01    1.702517e+00   3.119930e-02
  6.355062e-01    1.706634e+00   3.117631e-02
  6.377167e-01    1.717269e+00   3.121329e-02
  6.399271e-01    1.729855e+00   3.126745e-02
  6.421376e-01    1.697292e+00   3.091264e-02
  6.443480e-01    1.694117e+00   3.082495e-02
  6.465585e-01    1.687215e+00   3.070383e-02
  6.487689e-01    1.680641e+00   3.058609e-02
  6.509794e-01    1.642582e+00   3.018076e-02
  6.531899e-01    1.637209e+00   3.007470e-02
  6.554003e-01    1.631716e+00   2.996773e-02
  6.576108e-01    1.649595e+00   3.007539e-02
  6.598212e-01    1.639324e+00   2.992588e-02
  6.620317e-01    1.683088e+00   3.026653e-02
  6.642421e-01    1.621130e+00   2.964926e-02
  6.664526e-01    1.607448e+00   2.946947e-02
  6.686630e-01    1.565867e+00   2.903206e-02
  6.708735e-01    1.628025e+00   2.954833e-02
  6.730840e-01    1.644559e+00   2.964390e-02
  6.752944e-01    1.588068e+00   2.907733e-02
  6.775049e-01    1.611207e+00   2.923520e-02
  6.797153e-01    1.652639e+00   2.955510e-02
  6.819258e-01    1.601133e+00   2.903844e-02
  6.841362e-01    1.625205e+00   2.920328e-02
  6.863467e-01    1.619648e+00   2.910111e-02
  6.885572e-01    1.592862e+00   2.880774e-02
  6.907676e-01    1.634479e+00   2.912937e-02
  6.929781e-01    1.624313e+00   2.898702e-02
  6.951885e-01    1.585810e+00   2.859069e-02
  6.973990e-01    1.616606e+00   2.881591e-02
  6.996094e-01    1.558232e+00   2.824113e-02
  7.018199e-01    1.539957e+00   2.802572e-02
  7.040303e-01    1.577978e+00   2.831976e-02
  7.062408e-01    1.596148e+00   2.843245e-02
  7.084513e-01    1.632138e+00   2.870120e-02
  7.106617e-01    1.611313e+00   2.846797e-02
  7.128722e-01    1.605686e+00   2.836905e-02
  7.150826e-01    1.584260e+00   2.813056e-02
  7.172931e-01    1.609001e+00   2.830050e-02
  7.195035e-01    1.573285e+00   2.793650e-02
  7.217140e-01    1.620877e+00   2.840609e-02
  7.239245e-01    1.590583e+00   2.836727e-02
  7.261349e-01    1.576023e+00   2.834579e-02
  7.283454e-01    1.566328e+00   2.833066e-02
  7.305558e-01    1.582949e+00   2.853475e-02
  7.327663e-01    1.528670e+00   2.808311e-02
  7.349767e-01    1.553221e+00   2.832399e-02
  7.371872e-01    1.550664e+00   2.828957e-02
  7.393976e-01    1.568473e+00   2.843733e-02
  7.416081e-01    1.556946e+00   2.831656e-02
  7.438186e-01    1.532225e+00   2.794848e-02
  7.460290e-01    1.573088e+00   2.802462e-02
  7.482395e-01    1.595397e+00   2.805034e-02
  7.504499e-01    1.595373e+00   2.791297e-02
  7.526604e-01    1.565040e+00   2.753014e-02
  7.548708e-01    1.589836e+00   2.765752e-02
  7.570813e-01    1.579496e+00   2.751639e-02
  7.592918e-01    1.606062e+00   2.771130e-02
  7.615022e-01    1.581973e+00   2.746882e-02
  7.637127e-01    1.570627e+00   2.733740e-02
  7.659231e-01    1.574486e+00   2.733897e-02
  7.681336e-01    1.575950e+00   2.732005e-02
  7.703440e-01    1.534203e+00   2.692497e-02
  7.725545e-01    1.549952e+00   2.703215e-02
  7.747650e-01    1.633397e+00   2.771138e-02
  7.769754e-01    1.619270e+00   2.753786e-02
  7.791859e-01    1.570823e+00   2.706939e-02
  7.813963e-01    1.568754e+00   2.699909e-02
  7.836068e-01    1.595383e+00   2.717512e-02
  7.858172e-01    1.605486e+00   2.721005e-02
  7.880277e-01    1.601741e+00   2.712662e-02
  7.902381e-01    1.636950e+00   2.737329e-02
  7.924486e-01    1.666384e+00   2.756715e-02
  7.946591e-01    1.664162e+00   2.749953e-02
  7.968695e-01    1.610163e+00   2.700130e-02
  7.990800e-01    1.623463e+00   2.706411e-02
  8.012904e-01    1.669629e+00   2.739873e-02
  8.035009e-01    1.682742e+00   2.745721e-02
  8.057113e-01    1.621861e+00   2.690930e-02
  8.079218e-01    1.624477e+00   2.688453e-02
  8.101323e-01    1.601231e+00   2.664615e-02
  8.123427e-01    1.671573e+00   2.717872e-02
  8.145532e-01    1.643269e+00   2.690155e-02
  8.167636e-01    1.628522e+00   2.673552e-02
  8.189741e-01    1.671600e+00   2.704166e-02
  8.211845e-01    1.727519e+00   2.744414e-02
  8.233950e-01    1.805961e+00   2.801470e-02
  8.256054e-01    1.755946e+00   2.757832e-02
  8.278159e-01    1.709939e+00   2.716967e-02
  8.300264e-01    1.673324e+00   2.683368e-02
  8.322368e-01    1.634950e+00   2.648112e-02
  8.344473e-01    1.596838e+00   2.612784e-02
  8.366577e-01    1.605330e+00   2.615507e-02
  8.388682e-01    1.632993e+00   2.633729e-02
  8.410786e-01    1.643572e+00   2.638036e-02
  8.432891e-01    1.654834e+00   2.642853e-02
  8.454996e-01    1.638678e+00   2.625759e-02
  8.477100e-01    1.681585e+00   2.655690e-02
  8.499205e-01    1.669550e+00   2.642017e-02
  8.521309e-01    1.623378e+00   2.601165e-02
  8.543414e-01    1.608017e+00   2.584790e-02
  8.565518e-01    1.622865e+00   2.592652e-02
  8.587623e-01    1.659616e+00   2.617761e-02
  8.609727e-01    1.668997e+00   2.621079e-02
  8.631832e-01    1.644681e+00   2.597906e-02
  8.653937e-01    1.611058e+00   2.567261e-02
  8.676041e-01    1.611808e+00   2.563985e-02
  8.698146e-01    1.672848e+00   2.608088e-02
  8.720250e-01    1.677617e+00   2.607825e-02
  8.742355e-01    1.720244e+00   2.636728e-02
  8.764459e-01    1.648806e+00   2.577464e-02
  8.786564e-01    1.601620e+00   2.536527e-02
  8.808669e-01    1.593768e+00   2.526463e-02
  8.830773e-01    1.622568e+00   2.545351e-02
  8.852878e-01    1.610600e+00   2.532145e-02
  8.874982e-01    1.586296e+00   2.509320e-02
  8.897087e-01    1.588104e+00   2.506997e-02
  8.919191e-01    1.590780e+00   2.505342e-02
  8.941296e-01    1.623451e+00   2.527184e-02
  8.963401e-01    1.636199e+00   2.533404e-02
  8.985505e-01    1.592290e+00   2.495494e-02
  9.007610e-01    1.595554e+00   2.494379e-02
  9.029714e-01    1.588574e+00   2.485347e-02
  9.051819e-01    1.579284e+00   2.474370e-02
  9.073923e-01    1.636864e+00   2.515374e-02
  9.096028e-01    1.617156e+00   2.496676e-02
  9.118132e-01    1.627655e+00   2.501114e-02
  9.140237e-01    1.623499e+00   2.494232e-02
  9.162342e-01    1.572524e+00   2.451335e-02
  9.184446e-01    1.597289e+00   2.466988e-02
  9.206551e-01    1.612008e+00   2.474757e-02
  9.228655e-01    1.624480e+00   2.480760e-02
  9.250760e-01    1.639758e+00   2.488823e-02
  9.272864e-01    1.629982e+00   2.477937e-02
  9.294969e-01    1.655167e+00   2.493368e-02
  9.317074e-01    1.647094e+00   2.483765e-02
  9.339178e-01    1.651194e+00   2.483458e-02
  9.361283e-01    1.666056e+00   2.490932e-02
  9.383387e-01    1.651599e+00   2.476727e-02
  9.405492e-01    1.641227e+00   2.465492e-02
  9.427596e-01    1.624180e+00   2.449122e-02
  9.449701e-01    1.670490e+00   2.480417e-02
  9.471805e-01    1.675470e+00   2.480594e-02
  9.493910e-01    1.699405e+00   2.494821e-02
  9.516015e-01    1.707305e+00   2.497121e-02
  9.538119e-01    1.704759e+00   2.491841e-02
  9.560224e-01    1.680453e+00   2.470529e-02
  9.582328e-01    1.702299e+00   2.483200e-02
  9.604433e-01    1.702099e+00   2.479539e-02
  9.626537e-01    1.730811e+00   2.497000e-02
  9.648642e-01    1.793552e+00   2.538375e-02
  9.670747e-01    1.764451e+00   2.514228e-02
  9.692851e-01    1.777329e+00   2.520029e-02
  9.714956e-01    1.806072e+00   2.536745e-02
  9.737060e-01    1.783443e+00   2.517490e-02
  9.759165e-01    1.820308e+00   2.539789e-02
  9.781269e-01    1.837766e+00   2.548602e-02
  9.803374e-01    1.839892e+00   2.546549e-02
  9.825478e-01    1.824250e+00   2.532357e-02
  9.847583e-01    1.765160e+00   2.487622e-02
  9.869688e-01    1.800980e+00   2.509372e-02
  9.891792e-01    1.806308e+00   2.509741e-02
  9.913897e-01    1.806231e+00   2.506301e-02
  9.936001e-01    1.783457e+00   2.487192e-02
  9.958106e-01    1.763883e+00   2.470143e-02
  9.980210e-01    1.728452e+00   2.442035e-02
  1.000231e+00    1.647949e+00   2.397551e-02
  1.002442e+00    1.619954e+00   2.389728e-02
  1.004652e+00    1.627052e+00   2.401640e-02
  1.006863e+00    1.620510e+00   2.401779e-02
  1.009073e+00    1.623159e+00   2.407421e-02
  1.011284e+00    1.596265e+00   2.390585e-02
  1.013494e+00    1.600507e+00   2.396133e-02
  1.015705e+00    1.625756e+00   2.417241e-02
  1.017915e+00    1.548238e+00   2.360537e-02
  1.020126e+00    1.555430e+00   2.367609e-02
  1.022336e+00    1.562329e+00   2.374024e-02
  1.024547e+00    1.537549e+00   2.356240e-02
  1.026757e+00    1.532690e+00   2.353344e-02
  1.028967e+00    1.567581e+00   2.380754e-02
  1.031178e+00    1.560202e+00   2.375769e-02
  1.033388e+00    1.532781e+00   2.355300e-02
  1.035599e+00    1.726587e+00   2.500132e-02
  1.037809e+00    1.864786e+00   2.598631e-02
  1.040020e+00    1.700365e+00   2.481566e-02
  1.042230e+00    1.557714e+00   2.375383e-02
  1.044441e+00    1.553059e+00   2.371808e-02
  1.046651e+00    1.542199e+00   2.363517e-02
  1.048862e+00    1.546728e+00   2.366905e-02
  1.051072e+00    1.547576e+00   2.367314e-02
  1.053282e+00    1.641049e+00   2.437655e-02
  1.055493e+00    1.835973e+00   2.577889e-02
  1.057703e+00    2.156069e+00   2.793399e-02
  1.059914e+00    2.872376e+00   3.223611e-02
  1.062124e+00    2.651140e+00   3.096475e-02
  1.064335e+00    1.814228e+00   2.561134e-02
  1.066545e+00    1.552828e+00   2.368826e-02
  1.068756e+00    1.471306e+00   2.305435e-02
  1.070966e+00    1.432451e+00   2.274144e-02
  1.073177e+00    1.466559e+00   2.300453e-02
  1.075387e+00    1.472036e+00   2.304224e-02
  1.077597e+00    1.473770e+00   2.304853e-02
  1.079808e+00    1.501584e+00   2.313057e-02
  1.082018e+00    1.493430e+00   2.287667e-02
  1.084229e+00    1.503251e+00   2.284011e-02
  1.086439e+00    1.540701e+00   2.303289e-02
  1.088650e+00    1.547378e+00   2.300471e-02
  1.090860e+00    1.534862e+00   2.284200e-02
  1.093071e+00    1.558728e+00   2.295445e-02
  1.095281e+00    1.519367e+00   2.260410e-02
  1.097492e+00    1.467798e+00   2.216185e-02
  1.099702e+00    1.456423e+00   2.202411e-02
  1.101912e+00    1.455131e+00   2.196524e-02
  1.104123e+00    1.386390e+00   2.139277e-02
  1.106333e+00    1.393761e+00   2.140572e-02
  1.108544e+00    1.429704e+00   2.163573e-02
  1.110754e+00    1.402508e+00   2.138631e-02
  1.112965e+00    1.411045e+00   2.141091e-02
  1.115175e+00    1.420698e+00   2.144285e-02
  1.117386e+00    1.396016e+00   2.121677e-02
  1.119596e+00    1.377190e+00   2.103582e-02
  1.121807e+00    1.383861e+00   2.104824e-02
  1.124017e+00    1.408587e+00   2.119877e-02
  1.126228e+00    1.426437e+00   2.129665e-02
  1.128438e+00    1.407076e+00   2.111480e-02
  1.130648e+00    1.394233e+00   2.098392e-02
  1.132859e+00    1.438310e+00   2.127817e-02
  1.135069e+00    1.418129e+00   2.109335e-02
  1.137280e+00    1.371108e+00   2.070792e-02
  1.139490e+00    1.346759e+00   2.049064e-02
  1.141701e+00    1.382506e+00   2.072770e-02
  1.143911e+00    1.380918e+00   2.068397e-02
  1.146122e+00    1.391888e+00   2.073382e-02
  1.148332e+00    1.382514e+00   2.063198e-02
  1.150543e+00    1.379660e+00   2.057981e-02
  1.152753e+00    1.379427e+00   2.054718e-02
  1.154963e+00    1.371064e+00   2.045381e-02
  1.157174e+00    1.346583e+00   2.024051e-02
  1.159384e+00    1.355562e+00   2.027818e-02
  1.161595e+00    1.437024e+00   2.084804e-02
  1.163805e+00    1.490749e+00   2.120364e-02
  1.166016e+00    1.527457e+00   2.143203e-02
  1.168226e+00    1.473569e+00   2.102053e-02
  1.170437e+00    1.430705e+00   2.068324e-02
  1.172647e+00    1.468990e+00   2.092813e-02
  1.174858e+00    1.638019e+00   2.206860e-02
  1.177068e+00    1.701069e+00   2.245780e-02
  1.179278e+00    1.770870e+00   2.288131e-02
  1.181489e+00    1.926852e+00   2.383561e-02
  1.183699e+00    1.877635e+00   2.349691e-02
  1.185910e+00    1.647781e+00   2.198119e-02
  1.188120e+00    1.497399e+00   2.092608e-02
  1.190331e+00    1.452912e+00   2.058516e-02
  1.192541e+00    1.413912e+00   2.027904e-02
  1.194752e+00    1.381995e+00   2.002150e-02
  1.196962e+00    1.349981e+00   1.976252e-02
  1.199173e+00    1.318393e+00   1.950373e-02
  1.201383e+00    1.356752e+00   1.975820e-02
  1.203593e+00    1.347119e+00   1.966316e-02
  1.205804e+00    1.328818e+00   1.950341e-02
  1.208014e+00    1.336895e+00   1.953589e-02
  1.210225e+00    1.339548e+00   1.953001e-02
  1.212435e+00    1.355289e+00   1.961961e-02
  1.214646e+00    1.340973e+00   1.948969e-02
  1.216856e+00    1.340566e+00   1.946133e-02
  1.219067e+00    1.350177e+00   1.950651e-02
  1.221277e+00    1.346473e+00   1.945474e-02
  1.223488e+00    1.362128e+00   1.954164e-02
  1.225698e+00    1.387072e+00   1.969249e-02
  1.227909e+00    1.378581e+00   1.960166e-02
  1.230119e+00    1.350082e+00   1.936613e-02
  1.232329e+00    1.351923e+00   1.934858e-02
  1.234540e+00    1.359541e+00   1.937262e-02
  1.236750e+00    1.363451e+00   1.937005e-02
  1.238961e+00    1.380617e+00   1.946431e-02
  1.241171e+00    1.417821e+00   1.970006e-02
  1.243382e+00    1.427963e+00   1.974620e-02
  1.245592e+00    1.411680e+00   1.960869e-02
  1.247803e+00    1.337486e+00   1.906288e-02
  1.250013e+00    1.352671e+00   1.914719e-02
  1.252224e+00    1.363555e+00   1.920074e-02
  1.254434e+00    1.350032e+00   1.908154e-02
  1.256644e+00    1.352938e+00   1.907882e-02
  1.258855e+00    1.330536e+00   1.889714e-02
  1.261065e+00    1.310964e+00   1.873457e-02
  1.263276e+00    1.308187e+00   1.869215e-02
  1.265486e+00    1.315962e+00   1.872501e-02
  1.267697e+00    1.356682e+00   1.898944e-02
  1.269907e+00    1.334769e+00   1.881292e-02
  1.272118e+00    1.316833e+00   1.866377e-02
  1.274328e+00    1.328070e+00   1.872069e-02
  1.276539e+00    1.336708e+00   1.875881e-02
  1.278749e+00    1.338289e+00   1.874769e-02
  1.280959e+00    1.342954e+00   1.875788e-02
  1.283170e+00    1.336739e+00   1.869211e-02
  1.285380e+00    1.314275e+00   1.851222e-02
  1.287591e+00    1.319358e+00   1.852620e-02
  1.289801e+00    1.313121e+00   1.846143e-02
  1.292012e+00    1.340299e+00   1.863446e-02
  1.294222e+00    1.340239e+00   1.861786e-02
  1.296433e+00    1.359241e+00   1.873373e-02
  1.298643e+00    1.371298e+00   1.880003e-02
  1.300854e+00    1.374821e+00   1.880763e-02
  1.303064e+00    1.351997e+00   1.863160e-02
  1.305274e+00    1.355480e+00   1.863411e-02
  1.307485e+00    1.323768e+00   1.839351e-02
  1.309695e+00    1.336428e+00   1.845911e-02
  1.311906e+00    1.324888e+00   1.835776e-02
  1.314116e+00    1.343106e+00   1.846277e-02
  1.316327e+00    1.366196e+00   1.859899e-02
  1.318537e+00    1.387592e+00   1.872187e-02
  1.320748e+00    1.374994e+00   1.861495e-02
  1.322958e+00    1.365772e+00   1.853179e-02
  1.325169e+00    1.354524e+00   1.843424e-02
  1.327379e+00    1.352054e+00   1.839561e-02
  1.329589e+00    1.394871e+00   1.866320e-02
  1.331800e+00    1.375655e+00   1.851332e-02
  1.334010e+00    1.372786e+00   1.847318e-02
  1.336221e+00    1.362212e+00   1.838003e-02
  1.338431e+00    1.346164e+00   1.825061e-02
  1.340642e+00    1.352866e+00   1.836023e-02
  1.342852e+00    1.334094e+00   1.833245e-02
  1.345063e+00    1.371632e+00   1.863848e-02
  1.347273e+00    1.365463e+00   1.863197e-02
  1.349484e+00    1.371278e+00   1.869948e-02
  1.351694e+00    1.354022e+00   1.860420e-02
  1.353905e+00    1.355218e+00   1.863046e-02
  1.356115e+00    1.344344e+00   1.857056e-02
  1.358325e+00    1.373526e+00   1.878447e-02
  1.360536e+00    1.365779e+00   1.874313e-02
  1.362746e+00    1.341277e+00   1.858378e-02
  1.364957e+00    1.333040e+00   1.853424e-02
  1.367167e+00    1.335360e+00   1.855748e-02
  1.369378e+00    1.317207e+00   1.843687e-02
  1.371588e+00    1.330082e+00   1.853185e-02
  1.373799e+00    1.335886e+00   1.857593e-02
  1.376009e+00    1.284167e+00   1.821611e-02
  1.378220e+00    1.296815e+00   1.830807e-02
  1.380430e+00    1.285642e+00   1.823172e-02
  1.382640e+00    1.299269e+00   1.832895e-02
  1.384851e+00    1.329884e+00   1.854454e-02
  1.387061e+00    1.305807e+00   1.837620e-02
  1.389272e+00    1.298881e+00   1.832760e-02
  1.391482e+00    1.277184e+00   1.817322e-02
  1.393693e+00    1.296359e+00   1.830824e-02
  1.395903e+00    1.279873e+00   1.818999e-02
  1.398114e+00    1.280964e+00   1.819633e-02
  1.400324e+00    1.283752e+00   1.821401e-02
  1.402535e+00    1.266307e+00   1.808752e-02
  1.404745e+00    1.266594e+00   1.808722e-02
  1.406955e+00    1.261791e+00   1.805019e-02
  1.409166e+00    1.266706e+00   1.808202e-02
  1.411376e+00    1.288848e+00   1.823623e-02
  1.413587e+00    1.284072e+00   1.819858e-02
  1.415797e+00    1.273082e+00   1.811699e-02
  1.418008e+00    1.307282e+00   1.831624e-02
  1.420218e+00    1.313801e+00   1.820957e-02
  1.422429e+00    1.301470e+00   1.803756e-02
  1.424639e+00    1.272916e+00   1.777382e-02
  1.426850e+00    1.286871e+00   1.781592e-02
  1.429060e+00    1.275101e+00   1.768518e-02
  1.431270e+00    1.263485e+00   1.756023e-02
  1.433481e+00    1.260213e+00   1.749669e-02
  1.435691e+00    1.273567e+00   1.755066e-02
  1.437902e+00    1.260759e+00   1.742587e-02
  1.440112e+00    1.258077e+00   1.737211e-02
  1.442323e+00    1.291879e+00   1.757064e-02
  1.444533e+00    1.278838e+00   1.744907e-02
  1.446744e+00    1.259157e+00   1.728329e-02
  1.448954e+00    1.264011e+00   1.728643e-02
  1.451165e+00    1.280705e+00   1.737034e-02
  1.453375e+00    1.253309e+00   1.715569e-02
  1.455586e+00    1.256315e+00   1.714822e-02
  1.457796e+00    1.252284e+00   1.709339e-02
  1.460006e+00    1.249407e+00   1.704669e-02
  1.462217e+00    1.257979e+00   1.707899e-02
  1.464427e+00    1.249892e+00   1.699859e-02
  1.466638e+00    1.287778e+00   1.722877e-02
  1.468848e+00    1.304695e+00   1.731590e-02
  1.471059e+00    1.280329e+00   1.712826e-02
  1.473269e+00    1.252979e+00   1.692008e-02
  1.475480e+00    1.279351e+00   1.707335e-02
  1.477690e+00    1.267724e+00   1.697178e-02
  1.479901e+00    1.267795e+00   1.694841e-02
  1.482111e+00    1.249064e+00   1.679958e-02
  1.484321e+00    1.264180e+00   1.687784e-02
  1.486532e+00    1.240034e+00   1.669377e-02
  1.488742e+00    1.244822e+00   1.670351e-02
  1.490953e+00    1.241949e+00   1.666181e-02
  1.493163e+00    1.270748e+00   1.683154e-02
  1.495374e+00    1.273954e+00   1.683119e-02
  1.497584e+00    1.267571e+00   1.676725e-02
  1.499795e+00    1.277657e+00   1.681205e-02
  1.502005e+00    1.288337e+00   1.686024e-02
  1.504216e+00    1.295595e+00   1.688631e-02
  1.506426e+00    1.319386e+00   1.701933e-02
  1.508636e+00    1.338874e+00   1.712348e-02
  1.510847e+00    1.319766e+00   1.697850e-02
  1.513057e+00    1.269647e+00   1.662776e-02
  1.515268e+00    1.258910e+00   1.653153e-02
  1.517478e+00    1.262150e+00   1.652757e-02
  1.519689e+00    1.271402e+00   1.656289e-02
  1.521899e+00    1.266106e+00   1.650516e-02
  1.524110e+00    1.234911e+00   1.628036e-02
  1.526320e+00    1.260216e+00   1.642667e-02
  1.528531e+00    1.250316e+00   1.634227e-02
  1.530741e+00    1.245300e+00   1.629033e-02
  1.532951e+00    1.239496e+00   1.623284e-02
  1.535162e+00    1.251407e+00   1.639729e-02
  1.537372e+00    1.239526e+00   1.638593e-02
  1.539583e+00    1.242351e+00   1.643872e-02
  1.541793e+00    1.248450e+00   1.648599e-02
  1.544004e+00    1.252693e+00   1.651423e-02
  1.546214e+00    1.250711e+00   1.649966e-02
  1.548425e+00    1.240990e+00   1.643567e-02
  1.550635e+00    1.250722e+00   1.650970e-02
  1.552846e+00    1.237573e+00   1.643232e-02
  1.555056e+00    1.241243e+00   1.641522e-02
  1.557266e+00    1.221805e+00   1.617676e-02
  1.559477e+00    1.224312e+00   1.613470e-02
  1.561687e+00    1.256189e+00   1.631255e-02
  1.563898e+00    1.347008e+00   1.687410e-02
  1.566108e+00    1.356889e+00   1.691926e-02
  1.568319e+00    1.267159e+00   1.633451e-02
  1.570529e+00    1.221123e+00   1.601012e-02
  1.572740e+00    1.256947e+00   1.621549e-02
  1.574950e+00    1.269383e+00   1.626897e-02
  1.577161e+00    1.233598e+00   1.601263e-02
  1.579371e+00    1.239646e+00   1.602823e-02
  1.581582e+00    1.236701e+00   1.598946e-02
  1.583792e+00    1.238384e+00   1.598237e-02
  1.586002e+00    1.235319e+00   1.594502e-02
  1.588213e+00    1.243845e+00   1.598272e-02
  1.590423e+00    1.250987e+00   1.600840e-02
  1.592634e+00    1.254871e+00   1.601151e-02
  1.594844e+00    1.268927e+00   1.607931e-02
  1.597055e+00    1.256484e+00   1.597969e-02
  1.599265e+00    1.217876e+00   1.571175e-02
  1.601476e+00    1.238040e+00   1.582098e-02
  1.603686e+00    1.237442e+00   1.579743e-02
  1.605897e+00    1.204619e+00   1.556663e-02
  1.608107e+00    1.221156e+00   1.565367e-02
  1.610317e+00    1.222512e+00   1.564319e-02
  1.612528e+00    1.221813e+00   1.561962e-02
  1.614738e+00    1.234141e+00   1.567927e-02
  1.616949e+00    1.207736e+00   1.549181e-02
  1.619159e+00    1.192658e+00   1.537630e-02
  1.621370e+00    1.181952e+00   1.528896e-02
  1.623580e+00    1.167498e+00   1.517721e-02
  1.625791e+00    1.174095e+00   1.520202e-02
  1.628001e+00    1.173669e+00   1.518124e-02
  1.630212e+00    1.187292e+00   1.525136e-02
  1.632422e+00    1.174861e+00   1.515352e-02
  1.634632e+00    1.146957e+00   1.495543e-02
  1.636843e+00    1.137782e+00   1.487825e-02
  1.639053e+00    1.136229e+00   1.485107e-02
  1.641264e+00    1.124247e+00   1.475581e-02
  1.643474e+00    1.143952e+00   1.486729e-02
  1.645685e+00    1.151502e+00   1.489967e-02
  1.647895e+00    1.146375e+00   1.484994e-02
  1.650106e+00    1.146381e+00   1.483299e-02
  1.652316e+00    1.142178e+00   1.478937e-02
  1.654527e+00    1.108478e+00   1.455312e-02
  1.656737e+00    1.103377e+00   1.450327e-02
  1.658947e+00    1.101081e+00   1.447211e-02
  1.661158e+00    1.082802e+00   1.433555e-02
  1.663368e+00    1.083050e+00   1.432145e-02
  1.665579e+00    1.082484e+00   1.430183e-02
  1.667789e+00    1.071207e+00   1.421123e-02
  1.670000e+00    1.089954e+00   1.431970e-02
  1.672210e+00    1.094723e+00   1.433524e-02
  1.674421e+00    1.073828e+00   1.418265e-02
  1.676631e+00    1.083303e+00   1.422935e-02
  1.678842e+00    1.068964e+00   1.411932e-02
  1.681052e+00    1.098046e+00   1.429463e-02
  1.683263e+00    1.208250e+00   1.497888e-02
  1.685473e+00    1.234424e+00   1.512414e-02
  1.687683e+00    1.119632e+00   1.438814e-02
  1.689894e+00    1.066863e+00   1.402925e-02
  1.692104e+00    1.078037e+00   1.408761e-02
  1.694315e+00    1.058742e+00   1.394656e-02
  1.696525e+00    1.063541e+00   1.396300e-02
  1.698736e+00    1.059668e+00   1.392282e-02
  1.700946e+00    1.008927e+00   1.357059e-02
  1.703157e+00    1.030147e+00   1.369811e-02
  1.705367e+00    1.019564e+00   1.361330e-02
  1.707578e+00    1.016045e+00   1.357545e-02
  1.709788e+00    1.034279e+00   1.368266e-02
  1.711998e+00    1.034808e+00   1.367122e-02
  1.714209e+00    1.023893e+00   1.358460e-02
  1.716419e+00    1.014117e+00   1.350546e-02
  1.718630e+00    1.032391e+00   1.361233e-02
  1.720840e+00    1.026327e+00   1.355813e-02
  1.723051e+00    1.052304e+00   1.371457e-02
  1.725261e+00    1.215311e+00   1.472255e-02
  1.727472e+00    1.095670e+00   1.396445e-02
  1.729682e+00    9.949177e-01   1.329357e-02
  1.731893e+00    1.013932e+00   1.340605e-02
  1.734103e+00    1.022655e+00   1.344972e-02
  1.736313e+00    1.062150e+00   1.369257e-02
  1.738524e+00    1.039130e+00   1.352933e-02
  1.740734e+00    1.007142e+00   1.330570e-02
  1.742945e+00    9.916118e-01   1.318929e-02
  1.745155e+00    9.772733e-01   1.308023e-02
  1.747366e+00    9.796618e-01   1.308246e-02
  1.749576e+00    9.952807e-01   1.317259e-02
  1.751787e+00    9.953431e-01   1.315959e-02
  1.753997e+00    9.672828e-01   1.295948e-02
  1.756208e+00    9.731986e-01   1.298584e-02
  1.758418e+00    9.604361e-01   1.288738e-02
  1.760628e+00    9.738958e-01   1.296398e-02
  1.762839e+00    9.898952e-01   1.305663e-02
  1.765049e+00    1.020851e+00   1.324572e-02
  1.767260e+00    9.871395e-01   1.301220e-02
  1.769470e+00    9.821367e-01   1.296601e-02
  1.771681e+00    9.616584e-01   1.281692e-02
  1.773891e+00    9.523157e-01   1.274143e-02
  1.776102e+00    9.484569e-01   1.270272e-02
  1.778312e+00    9.872841e-01   1.294708e-02
  1.780523e+00    1.144188e+00   1.392386e-02
  1.782733e+00    1.294699e+00   1.479659e-02
  1.784944e+00    1.124207e+00   1.377392e-02
  1.787154e+00    9.535857e-01   1.267297e-02
  1.789364e+00    8.900152e-01   1.223105e-02
  1.791575e+00    9.029277e-01   1.230705e-02
  1.793785e+00    9.246383e-01   1.244172e-02
  1.795996e+00    9.291629e-01   1.245957e-02
  1.798206e+00    9.031039e-01   1.227119e-02
  1.800417e+00    9.257093e-01   1.241107e-02
  1.802627e+00    9.172524e-01   1.234231e-02
  1.804838e+00    9.090592e-01   1.227497e-02
  1.807048e+00    9.192269e-01   1.233049e-02
  1.809259e+00    9.701445e-01   1.265332e-02
  1.811469e+00    1.016665e+00   1.293732e-02
  1.813679e+00    9.411352e-01   1.243220e-02
  1.815890e+00    8.946997e-01   1.210687e-02
  1.818100e+00    8.798175e-01   1.199081e-02
  1.820311e+00    8.602421e-01   1.184215e-02
  1.822521e+00    8.704368e-01   1.189744e-02
  1.824732e+00    8.724534e-01   1.189655e-02
  1.826942e+00    8.736729e-01   1.189261e-02
  1.829153e+00    8.783230e-01   1.191259e-02
  1.831363e+00    8.655743e-01   1.181390e-02
  1.833574e+00    8.866200e-01   1.194494e-02
  1.835784e+00    8.685056e-01   1.181095e-02
  1.837994e+00    8.684231e-01   1.179872e-02
  1.840205e+00    8.879998e-01   1.191971e-02
  1.842415e+00    8.607178e-01   1.172351e-02
  1.844626e+00    8.727702e-01   1.179370e-02
  1.846836e+00    8.798711e-01   1.183011e-02
  1.849047e+00    8.473735e-01   1.159809e-02
  1.851257e+00    8.529056e-01   1.162637e-02
  1.853468e+00    8.412594e-01   1.153803e-02
  1.855678e+00    8.639163e-01   1.168345e-02
  1.857889e+00    8.630037e-01   1.166878e-02
  1.860099e+00    8.538762e-01   1.159830e-02
  1.862309e+00    8.508356e-01   1.156912e-02
  1.864520e+00    8.527663e-01   1.157371e-02
  1.866730e+00    8.281564e-01   1.139624e-02
  1.868941e+00    8.469098e-01   1.151362e-02
  1.871151e+00    8.734139e-01   1.168087e-02
  1.873362e+00    8.525023e-01   1.152884e-02
  1.875572e+00    8.527184e-01   1.151934e-02
  1.877783e+00    8.714347e-01   1.163347e-02
  1.879993e+00    8.981847e-01   1.179920e-02
  1.882204e+00    8.920028e-01   1.174733e-02
  1.884414e+00    8.785270e-01   1.164696e-02
  1.886624e+00    8.503082e-01   1.144728e-02
  1.888835e+00    8.477898e-01   1.141928e-02
  1.891045e+00    8.566992e-01   1.146814e-02
  1.893256e+00    8.402945e-01   1.134671e-02
  1.895466e+00    8.336075e-01   1.129032e-02
  1.897677e+00    8.563436e-01   1.143218e-02
  1.899887e+00    8.581927e-01   1.143340e-02
  1.902098e+00    8.602455e-01   1.143603e-02
  1.904308e+00    8.715958e-01   1.150039e-02
  1.906519e+00    8.599340e-01   1.141217e-02
  1.908729e+00    8.652724e-01   1.143670e-02
  1.910940e+00    8.623373e-01   1.140592e-02
  1.913150e+00    9.167120e-01   1.174883e-02
  1.915360e+00    9.561467e-01   1.198750e-02
  1.917571e+00    8.877594e-01   1.153957e-02
  1.919781e+00    8.350691e-01   1.118110e-02
  1.921992e+00    8.196343e-01   1.106665e-02
  1.924202e+00    8.023418e-01   1.093863e-02
  1.926413e+00    8.023251e-01   1.092828e-02
  1.928623e+00    8.123572e-01   1.098588e-02
  1.930834e+00    8.029878e-01   1.091198e-02
  1.933044e+00    7.979100e-01   1.086683e-02
  1.935255e+00    7.997562e-01   1.086914e-02
  1.937465e+00    8.122488e-01   1.094328e-02
  1.939675e+00    8.035012e-01   1.087337e-02
  1.941886e+00    8.057620e-01   1.087837e-02
  1.944096e+00    7.985557e-01   1.081947e-02
  1.946307e+00    7.758999e-01   1.065472e-02
  1.948517e+00    7.731616e-01   1.062562e-02
  1.950728e+00    8.004394e-01   1.080118e-02
  1.952938e+00    7.888913e-01   1.071295e-02
  1.955149e+00    7.987553e-01   1.076946e-02
  1.957359e+00    8.006451e-01   1.077214e-02
  1.959570e+00    7.655872e-01   1.052298e-02
  1.961780e+00    7.733217e-01   1.056620e-02
  1.963990e+00    7.795210e-01   1.059845e-02
  1.966201e+00    7.715731e-01   1.053432e-02
  1.968411e+00    7.764791e-01   1.055770e-02
  1.970622e+00    7.967788e-01   1.068466e-02
  1.972832e+00    7.953662e-01   1.066518e-02
  1.975043e+00    7.840629e-01   1.057909e-02
  1.977253e+00    7.902149e-01   1.061052e-02
  1.979464e+00    7.903838e-01   1.060158e-02
  1.981674e+00    7.827474e-01   1.053998e-02
  1.983885e+00    7.860240e-01   1.055197e-02
  1.986095e+00    8.013809e-01   1.064471e-02
  1.988305e+00    7.809821e-01   1.049848e-02
  1.990516e+00    7.701906e-01   1.041581e-02
  1.992726e+00    7.703495e-01   1.040726e-02
  1.994937e+00    7.688220e-01   1.038687e-02
  1.997147e+00    7.711850e-01   1.039312e-02
  1.999358e+00    7.605363e-01   1.031134e-02
  2.001568e+00    7.646945e-01   1.032876e-02
  2.003779e+00    7.567453e-01   1.026313e-02
  2.005989e+00    7.485321e-01   1.019544e-02
  2.008200e+00    7.640656e-01   1.028921e-02
  2.010410e+00    7.557124e-01   1.022117e-02
  2.012621e+00    7.633019e-01   1.026069e-02
  2.014831e+00    7.788730e-01   1.035326e-02
  2.017041e+00    7.631994e-01   1.023822e-02
  2.019252e+00    7.661083e-01   1.024774e-02
  2.021462e+00    7.692329e-01   1.025909e-02
  2.023673e+00    7.546212e-01   1.015186e-02
  2.025883e+00    7.575237e-01   1.016186e-02
  2.028094e+00    7.786986e-01   1.029318e-02
  2.030304e+00    7.608915e-01   1.016528e-02
  2.032515e+00    7.378636e-01   1.000111e-02
  2.034725e+00    7.623676e-01   1.015634e-02
  2.036936e+00    7.739310e-01   1.022367e-02
  2.039146e+00    7.532753e-01   1.007676e-02
  2.041356e+00    7.567034e-01   1.009003e-02
  2.043567e+00    7.596626e-01   1.010039e-02
  2.045777e+00    7.660805e-01   1.013367e-02
  2.047988e+00    7.424223e-01   9.966674e-03
  2.050198e+00    7.428666e-01   9.961275e-03
  2.052409e+00    7.386003e-01   9.925044e-03
  2.054619e+00    7.470605e-01   9.974391e-03
  2.056830e+00    7.238998e-01   9.811494e-03
  2.059040e+00    7.447399e-01   9.944249e-03
  2.061251e+00    7.558584e-01   1.001092e-02
  2.063461e+00    7.572298e-01   1.001238e-02
  2.065671e+00    7.555785e-01   9.992681e-03
  2.067882e+00    7.560527e-01   9.986778e-03
  2.070092e+00    7.536655e-01   9.961765e-03
  2.072303e+00    7.448366e-01   9.894110e-03
  2.074513e+00    7.340130e-01   9.812730e-03
  2.076724e+00    7.299042e-01   9.775820e-03
  2.078934e+00    7.409968e-01   9.840854e-03
  2.081145e+00    7.617539e-01   9.968528e-03
  2.083355e+00    7.545205e-01   9.911841e-03
  2.085566e+00    7.684147e-01   9.993616e-03
  2.087776e+00    7.523710e-01   9.879153e-03
  2.089986e+00    7.398438e-01   9.787770e-03
  2.092197e+00    7.311087e-01   9.720900e-03
  2.094407e+00    7.300487e-01   9.704657e-03
  2.096618e+00    7.240356e-01   9.655776e-03
  2.098828e+00    7.302748e-01   9.688000e-03
  2.101039e+00    7.349257e-01   9.709820e-03
  2.103249e+00    7.277120e-01   9.653402e-03
  2.105460e+00    7.055457e-01   9.496382e-03
  2.107670e+00    6.969435e-01   9.429771e-03
  2.109881e+00    7.058376e-01   9.480694e-03
  2.112091e+00    7.075832e-01   9.483570e-03
  2.114301e+00    7.181268e-01   9.545209e-03
  2.116512e+00    7.122905e-01   9.497602e-03
  2.118722e+00    7.186410e-01   9.531067e-03
  2.120933e+00    7.119241e-01   9.477594e-03
  2.123143e+00    7.176933e-01   9.507026e-03
  2.125354e+00    7.338935e-01   9.605095e-03
  2.127564e+00    7.179896e-01   9.491730e-03
  2.129775e+00    7.081950e-01   9.418070e-03
  2.131985e+00    7.023641e-01   9.370248e-03
  2.134196e+00    6.940304e-01   9.305991e-03
  2.136406e+00    7.137088e-01   9.428278e-03
  2.138617e+00    7.023339e-01   9.344417e-03
  2.140827e+00    7.098176e-01   9.410147e-03
  2.143037e+00    7.079263e-01   9.443105e-03
  2.145248e+00    7.031315e-01   9.433035e-03
  2.147458e+00    6.960384e-01   9.400380e-03
  2.149669e+00    6.925925e-01   9.388843e-03
  2.151879e+00    6.971895e-01   9.429133e-03
  2.154090e+00    7.068929e-01   9.501889e-03
  2.156300e+00    6.979497e-01   9.448165e-03
  2.158511e+00    6.956626e-01   9.437968e-03
  2.160721e+00    6.983793e-01   9.461186e-03
  2.162932e+00    6.947773e-01   9.440510e-03
  2.165142e+00    6.957878e-01   9.450365e-03
  2.167352e+00    6.945701e-01   9.445030e-03
  2.169563e+00    6.782472e-01   9.335290e-03
  2.171773e+00    6.945845e-01   9.449516e-03
  2.173984e+00    6.851261e-01   9.386349e-03
  2.176194e+00    6.916614e-01   9.432225e-03
  2.178405e+00    6.917893e-01   9.433781e-03
  2.180615e+00    6.975256e-01   9.473501e-03
  2.182826e+00    6.895558e-01   9.419914e-03
  2.185036e+00    6.811668e-01   9.362476e-03
  2.187247e+00    6.904393e-01   9.425934e-03
  2.189457e+00    6.940221e-01   9.449953e-03
  2.191667e+00    6.916363e-01   9.433531e-03
  2.193878e+00    6.733848e-01   9.307656e-03
  2.196088e+00    6.909774e-01   9.427768e-03
  2.198299e+00    6.983560e-01   9.476866e-03
  2.200509e+00    6.927951e-01   9.438020e-03
  2.202720e+00    6.640990e-01   9.239332e-03
  2.204930e+00    6.922970e-01   9.432184e-03
  2.207141e+00    7.074446e-01   9.533701e-03
  2.209351e+00    6.883451e-01   9.402228e-03
  2.211562e+00    6.820680e-01   9.357636e-03
  2.213772e+00    6.773872e-01   9.269956e-03
  2.215982e+00    6.945715e-01   9.341992e-03
  2.218193e+00    6.840310e-01   9.241029e-03
  2.220403e+00    6.737087e-01   9.146469e-03
  2.222614e+00    6.794663e-01   9.164424e-03
  2.224824e+00    6.685449e-01   9.071171e-03
  2.227035e+00    6.719396e-01   9.076736e-03
  2.229245e+00    6.635097e-01   9.002755e-03
  2.231456e+00    6.690137e-01   9.024427e-03
  2.233666e+00    6.747265e-01   9.047746e-03
  2.235877e+00    6.728575e-01   9.020902e-03
  2.238087e+00    6.911321e-01   9.128893e-03
  2.240298e+00    6.886756e-01   9.098705e-03
  2.242508e+00    6.828800e-01   9.045045e-03
  2.244718e+00    6.750950e-01   8.977466e-03
  2.246929e+00    6.866416e-01   9.039260e-03
  2.249139e+00    7.044840e-01   9.143264e-03
  2.251350e+00    6.956182e-01   9.073583e-03
  2.253560e+00    7.029670e-01   9.109509e-03
  2.255771e+00    7.028484e-01   9.097014e-03
  2.257981e+00    7.295006e-01   9.256173e-03
  2.260192e+00    7.345876e-01   9.276728e-03
  2.262402e+00    7.254143e-01   9.207283e-03
  2.264613e+00    7.010173e-01   9.040001e-03
  2.266823e+00    6.839850e-01   8.918941e-03
  2.269033e+00    6.888837e-01   8.940227e-03
  2.271244e+00    7.107900e-01   9.070488e-03
  2.273454e+00    7.639039e-01   9.392253e-03
  2.275665e+00    7.647117e-01   9.386181e-03
  2.277875e+00    7.366229e-01   9.201718e-03
  2.280086e+00    6.916025e-01   8.905808e-03
  2.282296e+00    6.757364e-01   8.793514e-03
  2.284507e+00    6.820027e-01   8.823907e-03
  2.286717e+00    6.558529e-01   8.643621e-03
  2.288928e+00    6.558741e-01   8.633902e-03
  2.291138e+00    6.473325e-01   8.568153e-03
  2.293348e+00    6.476588e-01   8.560821e-03
  2.295559e+00    6.498969e-01   8.566319e-03
  2.297769e+00    6.573281e-01   8.605897e-03
  2.299980e+00    6.474763e-01   8.531874e-03
  2.302190e+00    6.435105e-01   8.496640e-03
  2.304401e+00    6.476656e-01   8.514740e-03
  2.306611e+00    6.347899e-01   8.420612e-03
  2.308822e+00    6.519639e-01   8.525345e-03
  2.311032e+00    6.596873e-01   8.569225e-03
  2.313243e+00    6.466382e-01   8.477775e-03
  2.315453e+00    6.485925e-01   8.483012e-03
  2.317663e+00    6.625640e-01   8.564659e-03
  2.319874e+00    6.583283e-01   8.528432e-03
  2.322084e+00    6.565441e-01   8.507830e-03
  2.324295e+00    6.503510e-01   8.459350e-03
  2.326505e+00    6.476297e-01   8.432562e-03
  2.328716e+00    6.367476e-01   8.352901e-03
  2.330926e+00    6.425208e-01   8.381901e-03
  2.333137e+00    6.402498e-01   8.358702e-03
  2.335347e+00    6.466041e-01   8.391178e-03
  2.337558e+00    6.405326e-01   8.343461e-03
  2.339768e+00    6.434066e-01   8.353556e-03
  2.341979e+00    6.428782e-01   8.341729e-03
  2.344189e+00    6.480040e-01   8.366462e-03
  2.346399e+00    6.386386e-01   8.297277e-03
  2.348610e+00    6.433249e-01   8.319139e-03
  2.350820e+00    6.412670e-01   8.297617e-03
  2.353031e+00    6.397370e-01   8.279382e-03
  2.355241e+00    6.282710e-01   8.196840e-03
  2.357452e+00    6.289070e-01   8.192573e-03
  2.359662e+00    6.490148e-01   8.314186e-03
  2.361873e+00    6.366124e-01   8.226092e-03
  2.364083e+00    6.363252e-01   8.216190e-03
  2.366294e+00    6.308251e-01   8.172496e-03
  2.368504e+00    6.213253e-01   8.102678e-03
  2.370714e+00    6.118020e-01   8.032366e-03
  2.372925e+00    6.283836e-01   8.132416e-03
  2.375135e+00    6.350599e-01   8.167378e-03
  2.377346e+00    6.333253e-01   8.148226e-03
  2.379556e+00    6.179163e-01   8.040612e-03
  2.381767e+00    6.221195e-01   8.060046e-03
  2.383977e+00    6.148957e-01   8.005220e-03
  2.386188e+00    6.134701e-01   7.988061e-03
  2.388398e+00    6.116650e-01   7.968378e-03
  2.390609e+00    6.250796e-01   8.047509e-03
  2.392819e+00    6.068108e-01   7.921348e-03
  2.395029e+00    6.033784e-01   7.891291e-03
  2.397240e+00    6.189947e-01   7.984882e-03
  2.399450e+00    6.122672e-01   7.933570e-03
  2.401661e+00    6.150517e-01   7.943884e-03
  2.403871e+00    6.123654e-01   7.918765e-03
  2.406082e+00    6.137003e-01   7.919918e-03
  2.408292e+00    6.169029e-01   7.932734e-03
  2.410503e+00    6.070141e-01   7.861406e-03
  2.412713e+00    6.064027e-01   7.849656e-03
  2.414924e+00    6.018140e-01   7.812451e-03
  2.417134e+00    5.937551e-01   7.752390e-03
  2.419344e+00    5.959605e-01   7.759411e-03
  2.421555e+00    5.912859e-01   7.721480e-03
  2.423765e+00    5.862827e-01   7.681421e-03
  2.425976e+00    6.028138e-01   7.781134e-03
  2.428186e+00    6.124959e-01   7.836075e-03
  2.430397e+00    5.937740e-01   7.707936e-03
  2.432607e+00    5.923250e-01   7.691259e-03
  2.434818e+00    5.912266e-01   7.676617e-03
  2.437028e+00    5.763888e-01   7.572629e-03
  2.439239e+00    5.987943e-01   7.710708e-03
  2.441449e+00    5.915196e-01   7.656564e-03
  2.443659e+00    5.763121e-01   7.550221e-03
  2.445870e+00    5.889487e-01   7.644784e-03
  2.448080e+00    5.887683e-01   7.678609e-03
  2.450291e+00    5.669119e-01   7.551193e-03
  2.452501e+00    5.698979e-01   7.582139e-03
  2.454712e+00    5.729699e-01   7.610977e-03
  2.456922e+00    5.625650e-01   7.548153e-03
  2.459133e+00    5.579316e-01   7.522356e-03
  2.461343e+00    5.605235e-01   7.544158e-03
  2.463554e+00    5.592509e-01   7.539027e-03
  2.465764e+00    5.615020e-01   7.557332e-03
  2.467975e+00    5.543593e-01   7.511384e-03
  2.470185e+00    5.421599e-01   7.430485e-03
  2.472395e+00    5.373346e-01   7.398564e-03
  2.474606e+00    5.244182e-01   7.310606e-03
  2.476816e+00    5.472010e-01   7.468435e-03
  2.479027e+00    5.439587e-01   7.447151e-03
  2.481237e+00    5.537201e-01   7.513934e-03
  2.483448e+00    5.486514e-01   7.479774e-03
  2.485658e+00    5.357420e-01   7.391127e-03
  2.487869e+00    5.231056e-01   7.303445e-03
  2.490079e+00    5.494837e-01   7.484811e-03
  2.492290e+00    5.488709e-01   7.480207e-03
  2.494500e+00    5.505342e-01   7.490782e-03
  2.496710e+00    5.494884e-01   7.482968e-03
  2.498921e+00    5.519890e-01   7.498967e-03
  2.501131e+00    5.493828e-01   7.480278e-03
  2.503342e+00    5.333709e-01   7.369220e-03
  2.505552e+00    5.283944e-01   7.333607e-03
  2.507763e+00    5.346428e-01   7.375427e-03
  2.509973e+00    5.356948e-01   7.381275e-03
  2.512184e+00    5.379834e-01   7.395391e-03
  2.514394e+00    5.311043e-01   7.338571e-03
  2.516605e+00    5.330588e-01   7.304708e-03
  2.518815e+00    5.340868e-01   7.283176e-03
  2.521025e+00    5.407339e-01   7.307139e-03
  2.523236e+00    5.193553e-01   7.143330e-03
  2.525446e+00    5.317895e-01   7.212634e-03
  2.527657e+00    5.374996e-01   7.236487e-03
  2.529867e+00    5.373814e-01   7.221359e-03
  2.532078e+00    5.252966e-01   7.124639e-03
  2.534288e+00    5.317654e-01   7.154396e-03
  2.536499e+00    5.408101e-01   7.202885e-03
  2.538709e+00    5.160309e-01   7.025006e-03
  2.540920e+00    5.434216e-01   7.198201e-03
  2.543130e+00    5.361673e-01   7.139524e-03
  2.545340e+00    5.280524e-01   7.075178e-03
  2.547551e+00    5.276190e-01   7.062289e-03
  2.549761e+00    5.206134e-01   7.005672e-03
  2.551972e+00    5.264457e-01   7.035421e-03
  2.554182e+00    5.099462e-01   6.915218e-03
  2.556393e+00    5.195009e-01   6.970602e-03
  2.558603e+00    5.123821e-01   6.913696e-03
  2.560814e+00    5.257532e-01   6.994549e-03
  2.563024e+00    5.305868e-01   7.017982e-03
  2.565235e+00    5.133142e-01   6.893335e-03
  2.567445e+00    5.290561e-01   6.988594e-03
  2.569656e+00    5.281383e-01   6.972698e-03
  2.571866e+00    5.218349e-01   6.921567e-03
  2.574076e+00    5.093484e-01   6.829050e-03
  2.576287e+00    5.159716e-01   6.864983e-03
  2.578497e+00    5.280210e-01   6.936741e-03
  2.580708e+00    5.042678e-01   6.770935e-03
  2.582918e+00    4.941517e-01   6.695064e-03
  2.585129e+00    5.034492e-01   6.750071e-03
  2.587339e+00    5.182919e-01   6.841156e-03
  2.589550e+00    5.076020e-01   6.762727e-03
  2.591760e+00    5.095382e-01   6.767885e-03
  2.593971e+00    5.118845e-01   6.775941e-03
  2.596181e+00    4.913611e-01   6.632587e-03
  2.598391e+00    5.065740e-01   6.729341e-03
  2.600602e+00    5.026581e-01   6.697390e-03
  2.602812e+00    5.128921e-01   6.757663e-03
  2.605023e+00    5.136349e-01   6.755354e-03
  2.607233e+00    5.117321e-01   6.735667e-03
  2.609444e+00    5.072131e-01   6.698642e-03
  2.611654e+00    5.014306e-01   6.653050e-03
  2.613865e+00    4.990440e-01   6.630225e-03
  2.616075e+00    4.984893e-01   6.619441e-03
  2.618286e+00    5.136840e-01   6.712528e-03
  2.620496e+00    5.024505e-01   6.632042e-03
  2.622706e+00    5.123136e-01   6.691027e-03
  2.624917e+00    5.157149e-01   6.707299e-03
  2.627127e+00    4.990345e-01   6.592228e-03
  2.629338e+00    5.128601e-01   6.676874e-03
  2.631548e+00    5.095198e-01   6.648906e-03
  2.633759e+00    5.003551e-01   6.581696e-03
  2.635969e+00    5.148107e-01   6.669320e-03
  2.638180e+00    5.006995e-01   6.570306e-03
  2.640390e+00    4.979105e-01   6.545403e-03
  2.642601e+00    4.965823e-01   6.530018e-03
  2.644811e+00    5.057045e-01   6.582615e-03
  2.647021e+00    5.115780e-01   6.614091e-03
  2.649232e+00    4.927663e-01   6.484678e-03
  2.651442e+00    5.014218e-01   6.534868e-03
  2.653653e+00    5.040682e-01   6.545250e-03
  2.655863e+00    4.992085e-01   6.506944e-03
  2.658074e+00    5.031869e-01   6.526169e-03
  2.660284e+00    4.999568e-01   6.498817e-03
  2.662495e+00    4.981191e-01   6.480115e-03
  2.664705e+00    5.032120e-01   6.506532e-03
  2.666916e+00    5.010552e-01   6.486092e-03
  2.669126e+00    4.947058e-01   6.438405e-03
  2.671337e+00    4.999499e-01   6.465842e-03
  2.673547e+00    4.971609e-01   6.441374e-03
  2.675757e+00    5.046059e-01   6.482922e-03
  2.677968e+00    4.900990e-01   6.382563e-03
  2.680178e+00    4.891824e-01   6.370199e-03
  2.682389e+00    5.094224e-01   6.494166e-03
  2.684599e+00    4.933868e-01   6.384953e-03
  2.686810e+00    4.884746e-01   6.346498e-03
  2.689020e+00    4.981871e-01   6.402939e-03
  2.691231e+00    5.010156e-01   6.414754e-03
  2.693441e+00    4.858306e-01   6.310676e-03
  2.695652e+00    4.877034e-01   6.316320e-03
  2.697862e+00    4.939478e-01   6.350263e-03
  2.700072e+00    4.875612e-01   6.303015e-03
  2.702283e+00    4.961895e-01   6.352275e-03
  2.704493e+00    4.854388e-01   6.276834e-03
  2.706704e+00    4.782528e-01   6.223832e-03
  2.708914e+00    5.029238e-01   6.376308e-03
  2.711125e+00    4.824070e-01   6.238687e-03
  2.713335e+00    4.786330e-01   6.208199e-03
  2.715546e+00    4.875077e-01   6.259006e-03
  2.717756e+00    4.840130e-01   6.230680e-03
  2.719967e+00    4.950345e-01   6.294942e-03
  2.722177e+00    4.836953e-01   6.216320e-03
  2.724387e+00    4.843520e-01   6.214433e-03
  2.726598e+00    4.817642e-01   6.191781e-03
  2.728808e+00    4.815275e-01   6.184133e-03
  2.731019e+00    4.832777e-01   6.189253e-03
  2.733229e+00    4.780699e-01   6.150026e-03
  2.735440e+00    5.036145e-01   6.305814e-03
  2.737650e+00    4.987972e-01   6.269466e-03
  2.739861e+00    5.067065e-01   6.312772e-03
  2.742071e+00    4.991941e-01   6.259967e-03
  2.744282e+00    4.851706e-01   6.165145e-03
  2.746492e+00    4.811510e-01   6.133524e-03
  2.748702e+00    4.965253e-01   6.224744e-03
  2.750913e+00    4.939544e-01   6.202745e-03
  2.753123e+00    4.839812e-01   6.133700e-03
  2.755334e+00    4.771697e-01   6.084292e-03
  2.757544e+00    4.934461e-01   6.181402e-03
  2.759755e+00    4.799573e-01   6.090446e-03
  2.761965e+00    4.855249e-01   6.119645e-03
  2.764176e+00    4.823258e-01   6.093465e-03
  2.766386e+00    4.857292e-01   6.109071e-03
  2.768597e+00    4.971975e-01   6.174836e-03
  2.770807e+00    4.721839e-01   6.011660e-03
  2.773017e+00    4.706661e-01   5.996060e-03
  2.775228e+00    4.825504e-01   6.065479e-03
  2.777438e+00    4.759524e-01   6.018114e-03
  2.779649e+00    4.681991e-01   5.963022e-03
  2.781859e+00    4.872504e-01   6.077328e-03
  2.784070e+00    4.843234e-01   6.053135e-03
  2.786280e+00    4.883769e-01   6.072592e-03
  2.788491e+00    4.786628e-01   6.006044e-03
  2.790701e+00    4.784080e-01   5.998781e-03
  2.792912e+00    4.866248e-01   6.044047e-03
  2.795122e+00    4.826743e-01   6.013707e-03
  2.797333e+00    4.744756e-01   5.956852e-03
  2.799543e+00    4.685199e-01   5.913537e-03
  2.801753e+00    4.627562e-01   5.871259e-03
  2.803964e+00    4.650377e-01   5.880117e-03
  2.806174e+00    4.765522e-01   5.946308e-03
  2.808385e+00    4.760778e-01   5.936558e-03
  2.810595e+00    4.724330e-01   5.906922e-03
  2.812806e+00    4.822744e-01   5.961474e-03
  2.815016e+00    4.770073e-01   5.924077e-03
  2.817227e+00    4.742631e-01   5.932944e-03
  2.819437e+00    4.640726e-01   5.879823e-03
  2.821648e+00    4.657668e-01   5.892817e-03
  2.823858e+00    4.784020e-01   5.977571e-03
  2.826068e+00    4.677216e-01   5.915435e-03
  2.828279e+00    4.642944e-01   5.897724e-03
  2.830489e+00    4.633344e-01   5.894915e-03
  2.832700e+00    4.585297e-01   5.866807e-03
  2.834910e+00    4.566728e-01   5.856939e-03
  2.837121e+00    4.647373e-01   5.910120e-03
  2.839331e+00    4.724367e-01   5.960125e-03
  2.841542e+00    4.563644e-01   5.858853e-03
  2.843752e+00    4.746063e-01   5.975582e-03
  2.845963e+00    4.717575e-01   5.958035e-03
  2.848173e+00    4.723551e-01   5.961895e-03
  2.850383e+00    4.631130e-01   5.903568e-03
  2.852594e+00    4.631848e-01   5.903949e-03
  2.854804e+00    4.766973e-01   5.988924e-03
  2.857015e+00    4.761128e-01   5.984839e-03
  2.859225e+00    4.755359e-01   5.980942e-03
  2.861436e+00    4.672624e-01   5.928039e-03
  2.863646e+00    4.602007e-01   5.883108e-03
  2.865857e+00    4.597002e-01   5.880247e-03
  2.868067e+00    4.622979e-01   5.897051e-03
  2.870278e+00    4.729747e-01   5.964410e-03
  2.872488e+00    4.686330e-01   5.935800e-03
  2.874698e+00    4.672635e-01   5.926084e-03
  2.876909e+00    4.666274e-01   5.920702e-03
  2.879119e+00    4.615003e-01   5.886476e-03
  2.881330e+00    4.560106e-01   5.849900e-03
  2.883540e+00    4.522982e-01   5.824661e-03
  2.885751e+00    4.537877e-01   5.832614e-03
  2.887961e+00    4.633879e-01   5.892093e-03
  2.890172e+00    4.671187e-01   5.914149e-03
  2.892382e+00    4.782753e-01   5.982540e-03
  2.894593e+00    4.618160e-01   5.876871e-03
  2.896803e+00    4.587398e-01   5.855293e-03
  2.899014e+00    4.582527e-01   5.850278e-03
  2.901224e+00    4.565900e-01   5.837652e-03
  2.903434e+00    4.598390e-01   5.856463e-03
  2.905645e+00    4.682498e-01   5.907521e-03
  2.907855e+00    4.639101e-01   5.877974e-03
  2.910066e+00    4.667132e-01   5.893618e-03
  2.912276e+00    4.601740e-01   5.850060e-03
  2.914487e+00    4.721771e-01   5.923350e-03
  2.916697e+00    4.684505e-01   5.897711e-03
  2.918908e+00    4.597299e-01   5.840545e-03
  2.921118e+00    4.679469e-01   5.889770e-03
  2.923329e+00    4.672522e-01   5.883076e-03
  2.925539e+00    4.605964e-01   5.838726e-03
  2.927749e+00    4.475085e-01   5.752895e-03
  2.929960e+00    4.508300e-01   5.771439e-03
  2.932170e+00    4.456570e-01   5.735935e-03
  2.934381e+00    4.481624e-01   5.749617e-03
  2.936591e+00    4.526349e-01   5.775660e-03
  2.938802e+00    4.526959e-01   5.773363e-03
  2.941012e+00    4.545410e-01   5.782780e-03
  2.943223e+00    4.457539e-01   5.723945e-03
  2.945433e+00    4.474825e-01   5.731320e-03
  2.947644e+00    4.655756e-01   5.841868e-03
  2.949854e+00    4.538375e-01   5.763502e-03
  2.952064e+00    4.554369e-01   5.769414e-03
  2.954275e+00    4.622422e-01   5.807915e-03
  2.956485e+00    4.586583e-01   5.781163e-03
  2.958696e+00    4.481213e-01   5.710013e-03
  2.960906e+00    4.651531e-01   5.813275e-03
  2.963117e+00    4.656525e-01   5.811882e-03
  2.965327e+00    4.575576e-01   5.757215e-03
  2.967538e+00    4.720085e-01   5.844451e-03
  2.969748e+00    4.591150e-01   5.761260e-03
  2.971959e+00    4.581087e-01   5.751774e-03
  2.974169e+00    4.675209e-01   5.807940e-03
  2.976379e+00    4.655339e-01   5.792652e-03
  2.978590e+00    4.624144e-01   5.770026e-03
  2.980800e+00    4.606180e-01   5.755995e-03
  2.983011e+00    4.444317e-01   5.651206e-03
  2.985221e+00    4.496042e-01   5.680827e-03
  2.987432e+00    4.519703e-01   5.692676e-03
  2.989642e+00    4.467588e-01   5.657163e-03
  2.991853e+00    4.361354e-01   5.586256e-03
  2.994063e+00    4.605586e-01   5.737617e-03
  2.996274e+00    4.467931e-01   5.648077e-03
  2.998484e+00    4.614935e-01   5.737500e-03
  3.000694e+00    4.653359e-01   5.757849e-03
  3.002905e+00    4.626339e-01   5.738149e-03
  3.005115e+00    4.553290e-01   5.689676e-03
  3.007326e+00    4.613273e-01   5.723829e-03
  3.009536e+00    4.734690e-01   5.795361e-03
  3.011747e+00    4.573523e-01   5.692943e-03
  3.013957e+00    4.533913e-01   5.665047e-03
  3.016168e+00    4.605982e-01   5.706603e-03
  3.018378e+00    4.687374e-01   5.753716e-03
  3.020589e+00    4.643165e-01   5.723252e-03
  3.022799e+00    4.844823e-01   5.842952e-03
  3.025010e+00    4.745496e-01   5.779441e-03
  3.027220e+00    4.526516e-01   5.641419e-03
  3.029430e+00    4.464167e-01   5.599182e-03
  3.031641e+00    4.714684e-01   5.750937e-03
  3.033851e+00    4.576483e-01   5.662498e-03
  3.036062e+00    4.583352e-01   5.663939e-03
  3.038272e+00    4.642887e-01   5.696981e-03
  3.040483e+00    4.457272e-01   5.578736e-03
  3.042693e+00    4.494711e-01   5.598869e-03
  3.044904e+00    4.504618e-01   5.601002e-03
  3.047114e+00    4.389746e-01   5.524395e-03
  3.049325e+00    4.571247e-01   5.633002e-03
  3.051535e+00    4.562573e-01   5.623262e-03
  3.053745e+00    4.399111e-01   5.516896e-03
  3.055956e+00    4.524162e-01   5.590186e-03
  3.058166e+00    4.646598e-01   5.660988e-03
  3.060377e+00    4.599709e-01   5.627543e-03
  3.062587e+00    4.614708e-01   5.632015e-03
  3.064798e+00    4.525959e-01   5.573338e-03
  3.067008e+00    4.536594e-01   5.575123e-03
  3.069219e+00    4.533693e-01   5.568814e-03
  3.071429e+00    4.459144e-01   5.519340e-03
  3.073640e+00    4.515806e-01   5.550960e-03
  3.075850e+00    4.484042e-01   5.527826e-03
  3.078060e+00    4.527006e-01   5.551115e-03
  3.080271e+00    4.501098e-01   5.531736e-03
  3.082481e+00    4.553108e-01   5.560133e-03
  3.084692e+00    4.460215e-01   5.499752e-03
  3.086902e+00    4.444440e-01   5.486792e-03
  3.089113e+00    4.414046e-01   5.464446e-03
  3.091323e+00    4.596195e-01   5.572631e-03
  3.093534e+00    4.556775e-01   5.545290e-03
  3.095744e+00    4.685590e-01   5.619665e-03
  3.097955e+00    4.634039e-01   5.585053e-03
  3.100165e+00    4.603752e-01   5.563402e-03
  3.102375e+00    4.465381e-01   5.475742e-03
  3.104586e+00    4.407606e-01   5.436720e-03
  3.106796e+00    4.405092e-01   5.431685e-03
  3.109007e+00    4.447918e-01   5.454803e-03
  3.111217e+00    4.421916e-01   5.435162e-03
  3.113428e+00    4.483911e-01   5.469702e-03
  3.115638e+00    4.399110e-01   5.414524e-03
  3.117849e+00    4.399493e-01   5.411054e-03
  3.120059e+00    4.392177e-01   5.403114e-03
  3.122270e+00    4.396744e-01   5.402678e-03
  3.124480e+00    4.539826e-01   5.486160e-03
  3.126691e+00    4.510272e-01   5.464695e-03
  3.128901e+00    4.593756e-01   5.511863e-03
  3.131111e+00    4.485870e-01   5.442891e-03
  3.133322e+00    4.522415e-01   5.461541e-03
  3.135532e+00    4.513138e-01   5.452510e-03
  3.137743e+00    4.456688e-01   5.414826e-03
  3.139953e+00    4.345078e-01   5.342927e-03
  3.142164e+00    4.451484e-01   5.420011e-03
  3.144374e+00    4.520856e-01   5.490786e-03
  3.146585e+00    4.550080e-01   5.523292e-03
  3.148795e+00    4.524203e-01   5.518443e-03
  3.151006e+00    4.425756e-01   5.466638e-03
  3.153216e+00    4.437816e-01   5.481237e-03
  3.155426e+00    4.342052e-01   5.428030e-03
  3.157637e+00    4.336022e-01   5.429727e-03
  3.159847e+00    4.378945e-01   5.461409e-03
  3.162058e+00    4.412008e-01   5.486411e-03
  3.164268e+00    4.406741e-01   5.487217e-03
  3.166479e+00    4.380906e-01   5.474745e-03
  3.168689e+00    4.499899e-01   5.552004e-03
  3.170900e+00    4.397553e-01   5.491687e-03
  3.173110e+00    4.321935e-01   5.447115e-03
  3.175321e+00    4.408097e-01   5.503624e-03
  3.177531e+00    4.500262e-01   5.563659e-03
  3.179741e+00    4.390467e-01   5.497446e-03
  3.181952e+00    4.377311e-01   5.491316e-03
  3.184162e+00    4.316845e-01   5.455430e-03
  3.186373e+00    4.344565e-01   5.474502e-03
  3.188583e+00    4.497202e-01   5.571650e-03
  3.190794e+00    4.352712e-01   5.483192e-03
  3.193004e+00    4.359003e-01   5.488380e-03
  3.195215e+00    4.343609e-01   5.480167e-03
  3.197425e+00    4.318568e-01   5.465575e-03
  3.199636e+00    4.368362e-01   5.496205e-03
  3.201846e+00    4.369065e-01   5.496056e-03
  3.204056e+00    4.293499e-01   5.449198e-03
  3.206267e+00    4.330219e-01   5.473299e-03
  3.208477e+00    4.358007e-01   5.491744e-03
  3.210688e+00    4.436345e-01   5.541749e-03
  3.212898e+00    4.378622e-01   5.506160e-03
  3.215109e+00    4.445558e-01   5.548854e-03
  3.217319e+00    4.469661e-01   5.564509e-03
  3.219530e+00    4.419869e-01   5.533835e-03
  3.221740e+00    4.402846e-01   5.523747e-03
  3.223951e+00    4.310332e-01   5.465863e-03
  3.226161e+00    4.210888e-01   5.402630e-03
  3.228372e+00    4.340301e-01   5.485560e-03
  3.230582e+00    4.255888e-01   5.432073e-03
  3.232792e+00    4.316348e-01   5.470774e-03
  3.235003e+00    4.301403e-01   5.461516e-03
  3.237213e+00    4.378537e-01   5.510382e-03
  3.239424e+00    4.419720e-01   5.536226e-03
  3.241634e+00    4.359860e-01   5.498767e-03
  3.243845e+00    4.250788e-01   5.429579e-03
  3.246055e+00    4.318767e-01   5.472559e-03
  3.248266e+00    4.329080e-01   5.479306e-03
  3.250476e+00    4.315493e-01   5.470380e-03
  3.252687e+00    4.261381e-01   5.435905e-03
  3.254897e+00    4.443465e-01   5.550679e-03
  3.257107e+00    4.554082e-01   5.619056e-03
  3.259318e+00    4.375958e-01   5.507815e-03
  3.261528e+00    4.425838e-01   5.538990e-03
  3.263739e+00    4.215873e-01   5.405448e-03
  3.265949e+00    4.140003e-01   5.356459e-03
  3.268160e+00    4.333732e-01   5.479927e-03
  3.270370e+00    4.279797e-01   5.445234e-03
  3.272581e+00    4.175504e-01   5.378176e-03
  3.274791e+00    4.255051e-01   5.428638e-03
  3.277002e+00    4.326313e-01   5.473355e-03
  3.279212e+00    4.292050e-01   5.451246e-03
  3.281422e+00    4.260182e-01   5.430407e-03
  3.283633e+00    4.208750e-01   5.396830e-03
  3.285843e+00    4.202466e-01   5.392471e-03
  3.288054e+00    4.236608e-01   5.413399e-03
  3.290264e+00    4.273181e-01   5.436382e-03
  3.292475e+00    4.433262e-01   5.536446e-03
  3.294685e+00    4.214515e-01   5.397493e-03
  3.296896e+00    4.280905e-01   5.439069e-03
  3.299106e+00    4.169792e-01   5.367465e-03
  3.301317e+00    4.418483e-01   5.524161e-03
  3.303527e+00    4.275984e-01   5.433898e-03
  3.305737e+00    4.290214e-01   5.441866e-03
  3.307948e+00    4.159475e-01   5.357648e-03
  3.310158e+00    4.158957e-01   5.356467e-03
  3.312369e+00    4.269946e-01   5.426586e-03
  3.314579e+00    4.243976e-01   5.409132e-03
  3.316790e+00    4.324322e-01   5.459398e-03
  3.319000e+00    4.169981e-01   5.359909e-03
  3.321211e+00    4.190217e-01   5.372284e-03
  3.323421e+00    4.221032e-01   5.390795e-03
  3.325632e+00    4.220423e-01   5.389526e-03
  3.327842e+00    4.219521e-01   5.388030e-03
  3.330052e+00    4.282146e-01   5.426795e-03
  3.332263e+00    4.316204e-01   5.447295e-03
  3.334473e+00    4.253609e-01   5.406749e-03
  3.336684e+00    4.328758e-01   5.453007e-03
  3.338894e+00    4.361313e-01   5.472629e-03
  3.341105e+00    4.265278e-01   5.410816e-03
  3.343315e+00    4.241819e-01   5.394786e-03
  3.345526e+00    4.239508e-01   5.392390e-03
  3.347736e+00    4.202309e-01   5.367290e-03
  3.349947e+00    4.293957e-01   5.424550e-03
  3.352157e+00    4.274655e-01   5.411147e-03
  3.354368e+00    4.278388e-01   5.412234e-03
  3.356578e+00    4.250020e-01   5.393224e-03
  3.358788e+00    4.033833e-01   5.252953e-03
  3.360999e+00    4.165777e-01   5.336929e-03
  3.363209e+00    4.219513e-01   5.370210e-03
  3.365420e+00    3.986615e-01   5.218440e-03
  3.367630e+00    4.100859e-01   5.291658e-03
  3.369841e+00    4.209998e-01   5.360185e-03
  3.372051e+00    4.206148e-01   5.355740e-03
  3.374262e+00    4.222204e-01   5.363519e-03
  3.376472e+00    4.181892e-01   5.335390e-03
  3.378683e+00    4.080219e-01   5.267655e-03
  3.380893e+00    4.178864e-01   5.328598e-03
  3.383103e+00    4.063527e-01   5.251882e-03
  3.385314e+00    4.095680e-01   5.270412e-03
  3.387524e+00    4.104213e-01   5.273164e-03
  3.389735e+00    4.019339e-01   5.215787e-03
  3.391945e+00    4.108961e-01   5.269926e-03
  3.394156e+00    4.026791e-01   5.212805e-03
  3.396366e+00    4.086767e-01   5.248098e-03
  3.398577e+00    4.083554e-01   5.242999e-03
  3.400787e+00    4.025584e-01   5.217422e-03
  3.402998e+00    4.171384e-01   5.349478e-03
  3.405208e+00    4.164181e-01   5.365783e-03
  3.407418e+00    4.028816e-01   5.293699e-03
  3.409629e+00    3.978686e-01   5.274534e-03
  3.411839e+00    3.986783e-01   5.291685e-03
  3.414050e+00    3.972818e-01   5.293397e-03
  3.416260e+00    3.978324e-01   5.306747e-03
  3.418471e+00    3.874069e-01   5.246096e-03
  3.420681e+00    3.923174e-01   5.287728e-03
  3.422892e+00    3.868120e-01   5.258471e-03
  3.425102e+00    3.720157e-01   5.164548e-03
  3.427313e+00    3.750271e-01   5.192452e-03
  3.429523e+00    3.842955e-01   5.263268e-03
  3.431733e+00    3.799921e-01   5.240355e-03
  3.433944e+00    3.698769e-01   5.176475e-03
  3.436154e+00    3.742284e-01   5.212988e-03
  3.438365e+00    3.887584e-01   5.319229e-03
  3.440575e+00    3.760838e-01   5.237688e-03
  3.442786e+00    3.755731e-01   5.239725e-03
  3.444996e+00    3.700801e-01   5.206706e-03
  3.447207e+00    3.580233e-01   5.126351e-03
  3.449417e+00    3.856012e-01   5.361705e-03
  3.451628e+00    3.732878e-01   5.305052e-03
  3.453838e+00    3.571272e-01   5.209785e-03
  3.456049e+00    3.577847e-01   5.238182e-03
  3.458259e+00    3.598869e-01   5.275268e-03
  3.460469e+00    3.687027e-01   5.359343e-03
  3.462680e+00    3.533283e-01   5.265154e-03
  3.464890e+00    3.568557e-01   5.308912e-03
  3.467101e+00    3.778515e-01   5.480564e-03
  3.469311e+00    3.803653e-01   5.515547e-03
  3.471522e+00    3.955695e-01   5.641542e-03
  3.473732e+00    3.932975e-01   5.641576e-03
  3.475943e+00    3.951782e-01   5.671025e-03
  3.478153e+00    4.008563e-01   5.727279e-03
  3.480364e+00    4.052051e-01   5.773639e-03
  3.482574e+00    4.093724e-01   5.818742e-03
  3.484784e+00    4.016945e-01   5.778599e-03
  3.486995e+00    4.233343e-01   5.947421e-03
  3.489205e+00    4.360191e-01   6.050766e-03
  3.491416e+00    4.399133e-01   6.092865e-03
  3.493626e+00    4.540572e-01   6.204961e-03
  3.495837e+00    4.568106e-01   6.238768e-03
  3.498047e+00    4.453009e-01   6.174182e-03
  3.500258e+00    4.541380e-01   6.249725e-03
  3.502468e+00    4.680685e-01   6.359531e-03
  3.504679e+00    4.725157e-01   6.404312e-03
  3.506889e+00    4.773001e-01   6.451294e-03
  3.509099e+00    4.745717e-01   6.447243e-03
  3.511310e+00    4.795238e-01   6.495287e-03
  3.513520e+00    5.045226e-01   6.677203e-03
  3.515731e+00    4.897423e-01   6.593124e-03
  3.517941e+00    4.795007e-01   6.538006e-03
  3.520152e+00    4.870189e-01   6.603257e-03
  3.522362e+00    5.146808e-01   6.802881e-03
  3.524573e+00    5.050386e-01   6.753129e-03
  3.526783e+00    5.167373e-01   6.844339e-03
  3.528994e+00    5.189952e-01   6.871515e-03
  3.531204e+00    5.350934e-01   6.989905e-03
  3.533414e+00    5.405522e-01   7.037716e-03
  3.535625e+00    5.473338e-01   7.094341e-03
  3.537835e+00    5.301320e-01   6.994043e-03
  3.540046e+00    5.333799e-01   7.024340e-03
  3.542256e+00    5.403857e-01   7.077901e-03
  3.544467e+00    5.395284e-01   7.079927e-03
  3.546677e+00    5.333201e-01   7.046627e-03
  3.548888e+00    5.428273e-01   7.116694e-03
  3.551098e+00    5.551816e-01   7.204680e-03
  3.553309e+00    5.355855e-01   7.084524e-03
  3.555519e+00    5.320618e-01   7.072420e-03
  3.557729e+00    5.543146e-01   7.230727e-03
  3.559940e+00    5.436023e-01   7.172179e-03
  3.562150e+00    5.316082e-01   7.104251e-03
  3.564361e+00    5.416068e-01   7.184139e-03
  3.566571e+00    5.382881e-01   7.175966e-03
  3.568782e+00    5.281426e-01   7.122026e-03
  3.570992e+00    5.435268e-01   7.238858e-03
  3.573203e+00    5.327457e-01   7.180814e-03
  3.575413e+00    5.282983e-01   7.164444e-03
  3.577624e+00    5.283638e-01   7.178920e-03
  3.579834e+00    5.282514e-01   7.191930e-03
  3.582045e+00    5.392346e-01   7.280381e-03
  3.584255e+00    5.402537e-01   7.301380e-03
  3.586465e+00    5.427999e-01   7.332562e-03
  3.588676e+00    5.369175e-01   7.306961e-03
  3.590886e+00    5.333899e-01   7.296583e-03
  3.593097e+00    5.306429e-01   7.292193e-03
  3.595307e+00    5.531332e-01   7.459260e-03
  3.597518e+00    5.347856e-01   7.348755e-03
  3.599728e+00    5.236339e-01   7.285638e-03
  3.601939e+00    5.235866e-01   7.299206e-03
  3.604149e+00    5.115146e-01   7.228658e-03
  3.606360e+00    5.395044e-01   7.438000e-03
  3.608570e+00    5.444061e-01   7.485986e-03
  3.610780e+00    5.274734e-01   7.379675e-03
  3.612991e+00    5.355102e-01   7.445617e-03
  3.615201e+00    5.426744e-01   7.505186e-03
  3.617412e+00    5.440289e-01   7.521852e-03
  3.619622e+00    5.347775e-01   7.463601e-03
  3.621833e+00    5.429688e-01   7.527276e-03
  3.624043e+00    5.644827e-01   7.684765e-03
  3.626254e+00    5.299339e-01   7.455530e-03
  3.628464e+00    5.324115e-01   7.483902e-03
  3.630675e+00    5.297144e-01   7.478970e-03
  3.632885e+00    5.339072e-01   7.522965e-03
  3.635095e+00    5.347899e-01   7.543586e-03
  3.637306e+00    5.519195e-01   7.678062e-03
  3.639516e+00    5.416288e-01   7.620791e-03
  3.641727e+00    5.583861e-01   7.752705e-03
  3.643937e+00    5.251857e-01   7.533133e-03
  3.646148e+00    5.344479e-01   7.613870e-03
  3.648358e+00    5.373432e-01   7.649414e-03
  3.650569e+00    5.370589e-01   7.662150e-03
  3.652779e+00    5.399606e-01   7.697707e-03
  3.654990e+00    5.272813e-01   7.621635e-03
  3.657200e+00    5.369086e-01   7.705822e-03
  3.659410e+00    5.256154e-01   7.639235e-03
  3.661621e+00    5.202427e-01   7.615018e-03
  3.663831e+00    5.345822e-01   7.734434e-03
  3.666042e+00    5.199988e-01   7.643183e-03
  3.668252e+00    5.248120e-01   7.693636e-03
  3.670463e+00    5.416933e-01   7.831754e-03
  3.672673e+00    5.341466e-01   7.792542e-03
  3.674884e+00    5.176280e-01   7.686225e-03
  3.677094e+00    5.482798e-01   7.926341e-03
  3.679305e+00    5.347453e-01   7.843506e-03
  3.681515e+00    5.362378e-01   7.870178e-03
  3.683726e+00    5.256608e-01   7.807896e-03
  3.685936e+00    5.327252e-01   7.875936e-03
  3.688146e+00    5.256615e-01   7.839335e-03
  3.690357e+00    5.187277e-01   7.803211e-03
  3.692567e+00    5.420535e-01   7.993080e-03
  3.694778e+00    5.311971e-01   7.928790e-03
  3.696988e+00    5.457802e-01   8.053159e-03
  3.699199e+00    5.208218e-01   7.883025e-03
  3.701409e+00    5.258651e-01   7.937478e-03
  3.703620e+00    5.348554e-01   8.021549e-03
  3.705830e+00    5.402493e-01   8.078487e-03
  3.708041e+00    5.275873e-01   7.999957e-03
  3.710251e+00    5.253962e-01   8.000032e-03
  3.712461e+00    5.128472e-01   7.920523e-03
  3.714672e+00    5.174316e-01   7.972476e-03
  3.716882e+00    5.295109e-01   8.081874e-03
  3.719093e+00    5.228968e-01   8.048393e-03
  3.721303e+00    5.178386e-01   8.026345e-03
  3.723514e+00    5.156159e-01   8.026264e-03
  3.725724e+00    5.145828e-01   8.035325e-03
  3.727935e+00    5.134541e-01   8.043877e-03
  3.730145e+00    5.249016e-01   8.150562e-03
  3.732356e+00    4.947222e-01   7.929897e-03
  3.734566e+00    5.168852e-01   8.123165e-03
  3.736776e+00    5.045881e-01   8.043524e-03
  3.738987e+00    5.269475e-01   8.237789e-03
  3.741197e+00    5.091141e-01   8.115122e-03
  3.743408e+00    4.975516e-01   8.040181e-03
  3.745618e+00    5.173019e-01   8.216622e-03
  3.747829e+00    5.269239e-01   8.311035e-03
  3.750039e+00    5.210887e-01   8.283472e-03
  3.752250e+00    5.069161e-01   8.188432e-03
  3.754460e+00    4.840610e-01   8.019757e-03
  3.756671e+00    5.063142e-01   8.220743e-03
  3.758881e+00    5.228705e-01   8.373014e-03
  3.761091e+00    5.000539e-01   8.207264e-03
  3.763302e+00    4.930677e-01   8.168515e-03
  3.765512e+00    5.099208e-01   8.326218e-03
  3.767723e+00    5.189289e-01   8.419019e-03
  3.769933e+00    5.251729e-01   8.489246e-03
  3.772144e+00    5.167007e-01   8.440235e-03
  3.774354e+00    5.223386e-01   8.506360e-03
  3.776565e+00    5.044780e-01   8.379501e-03
  3.778775e+00    5.119818e-01   8.461675e-03
  3.780986e+00    5.122422e-01   8.484309e-03
  3.783196e+00    4.927497e-01   8.341331e-03
  3.785407e+00    5.086170e-01   8.495106e-03
  3.787617e+00    5.063716e-01   8.497186e-03
  3.789827e+00    4.964863e-01   8.434218e-03
  3.792038e+00    4.926986e-01   8.422655e-03
  3.794248e+00    4.852943e-01   8.379929e-03
  3.796459e+00    4.862103e-01   8.408871e-03
  3.798669e+00    4.789197e-01   8.366504e-03
  3.800880e+00    4.888395e-01   8.473855e-03
  3.803090e+00    5.305390e-01   8.850351e-03
  3.805301e+00    5.260296e-01   8.835376e-03
  3.807511e+00    5.308540e-01   8.898443e-03
  3.809722e+00    4.917686e-01   8.586698e-03
  3.811932e+00    4.985310e-01   8.667663e-03
  3.814142e+00    4.955860e-01   8.664857e-03
  3.816353e+00    5.056835e-01   8.775656e-03
  3.818563e+00    4.924226e-01   8.682789e-03
  3.820774e+00    5.007572e-01   8.779175e-03
  3.822984e+00    4.967241e-01   8.767128e-03
  3.825195e+00    5.001621e-01   8.821147e-03
  3.827405e+00    5.025668e-01   8.866378e-03
  3.829616e+00    5.110464e-01   8.965218e-03
  3.831826e+00    5.061511e-01   8.946553e-03
  3.834037e+00    5.279059e-01   9.162029e-03
  3.836247e+00    5.244538e-01   9.157456e-03
  3.838457e+00    4.834465e-01   8.816870e-03
  3.840668e+00    4.968803e-01   8.963656e-03
  3.842878e+00    4.921869e-01   8.946660e-03
  3.845089e+00    4.892569e-01   8.945425e-03
  3.847299e+00    4.991568e-01   9.061329e-03
  3.849510e+00    5.029443e-01   9.121709e-03
  3.851720e+00    4.977601e-01   9.096048e-03
  3.853931e+00    5.180259e-01   9.298801e-03
  3.856141e+00    4.962289e-01   9.120128e-03
  3.858352e+00    5.032903e-01   9.204212e-03
  3.860562e+00    5.291587e-01   9.457713e-03
  3.862772e+00    4.995292e-01   9.208897e-03
  3.864983e+00    5.006379e-01   9.238910e-03
  3.867193e+00    4.708096e-01   8.978716e-03
  3.869404e+00    4.912191e-01   9.191031e-03
  3.871614e+00    5.105550e-01   9.390517e-03
  3.873825e+00    5.065506e-01   9.374195e-03
  3.876035e+00    4.951698e-01   9.288960e-03
  3.878246e+00    5.039849e-01   9.397293e-03
  3.880456e+00    5.016921e-01   9.405192e-03
  3.882667e+00    4.828023e-01   9.255498e-03
  3.884877e+00    4.996082e-01   9.445116e-03
  3.887087e+00    4.805959e-01   9.293316e-03
  3.889298e+00    4.923469e-01   9.436640e-03
  3.891508e+00    5.051637e-01   9.589614e-03
  3.893719e+00    5.144377e-01   9.709003e-03
  3.895929e+00    5.090819e-01   9.690317e-03
  3.898140e+00    5.468169e-01   1.007655e-02
  3.900350e+00    5.310383e-01   9.963534e-03
  3.902561e+00    4.966216e-01   9.667836e-03
  3.904771e+00    4.754142e-01   9.491532e-03
  3.906982e+00    4.981774e-01   9.749396e-03
  3.909192e+00    5.364394e-01   1.015206e-02
  3.911403e+00    5.028050e-01   9.863096e-03
  3.913613e+00    5.139409e-01   1.000692e-02
  3.915823e+00    4.816833e-01   9.722291e-03
  3.918034e+00    4.808710e-01   9.749104e-03
  3.920244e+00    4.902722e-01   9.879719e-03
  3.922455e+00    4.827935e-01   9.839938e-03
  3.924665e+00    4.896927e-01   9.946564e-03
  3.926876e+00    4.666585e-01   9.746080e-03
  3.929086e+00    4.702975e-01   9.820658e-03
  3.931297e+00    4.818661e-01   9.975287e-03
  3.933507e+00    4.904077e-01   1.009239e-02
  3.935718e+00    4.833707e-01   1.004836e-02
  3.937928e+00    4.732755e-01   9.971885e-03
  3.940138e+00    4.636409e-01   9.898449e-03
  3.942349e+00    4.898216e-01   1.020405e-02
  3.944559e+00    4.872566e-01   1.020728e-02
  3.946770e+00    4.767620e-01   1.012668e-02
  3.948980e+00    4.819626e-01   1.021226e-02
  3.951191e+00    5.104440e-01   1.054131e-02
  3.953401e+00    4.603655e-01   1.004139e-02
  3.955612e+00    4.555277e-01   1.001909e-02
  3.957822e+00    4.679341e-01   1.018569e-02
  3.960033e+00    4.695676e-01   1.023560e-02
  3.962243e+00    5.053726e-01   1.065206e-02
  3.964453e+00    5.091313e-01   1.072556e-02
  3.966664e+00    4.953766e-01   1.061339e-02
  3.968874e+00    5.162313e-01   1.086381e-02
  3.971085e+00    4.802286e-01   1.049994e-02
  3.973295e+00    4.908950e-01   1.063738e-02
  3.975506e+00    5.231495e-01   1.100390e-02
  3.977716e+00    5.063057e-01   1.084762e-02
  3.979927e+00    5.138170e-01   1.095059e-02
  3.982137e+00    4.945867e-01   1.076633e-02
  3.984348e+00    4.845089e-01   1.067853e-02
  3.986558e+00    4.702730e-01   1.054244e-02
  3.988768e+00    5.204551e-01   1.111451e-02
  3.990979e+00    4.825662e-01   1.072500e-02
  3.993189e+00    5.225615e-01   1.118450e-02
  3.995400e+00    5.261567e-01   1.124753e-02
  3.997610e+00    4.867767e-01   1.084835e-02
  3.999821e+00    4.666791e-01   1.065873e-02
  4.002031e+00    4.441171e-01   1.043465e-02
  4.004242e+00    4.691027e-01   1.076207e-02
  4.006452e+00    4.706860e-01   1.081892e-02
  4.008663e+00    4.962024e-01   1.114880e-02
  4.010873e+00    4.975987e-01   1.120504e-02
  4.013084e+00    5.010877e-01   1.128583e-02
  4.015294e+00    4.993603e-01   1.130800e-02
  4.017504e+00    4.969166e-01   1.132270e-02
  4.019715e+00    4.718433e-01   1.107527e-02
  4.021925e+00    5.112445e-01   1.157262e-02
  4.024136e+00    4.952264e-01   1.143411e-02
  4.026346e+00    4.741931e-01   1.123233e-02
  4.028557e+00    4.781236e-01   1.132273e-02
  4.030767e+00    5.110905e-01   1.175366e-02
  4.032978e+00    4.565257e-01   1.115344e-02
  4.035188e+00    4.919274e-01   1.162431e-02
  4.037399e+00    4.862962e-01   1.160541e-02
  4.039609e+00    4.779413e-01   1.155281e-02
  4.041819e+00    4.702333e-01   1.150725e-02
  4.044030e+00    4.614260e-01   1.144779e-02
  4.046240e+00    4.447913e-01   1.128735e-02
  4.048451e+00    4.839615e-01   1.182484e-02
  4.050661e+00    4.855981e-01   1.189645e-02
  4.052872e+00    4.462895e-01   1.145549e-02
  4.055082e+00    4.812410e-01   1.194897e-02
  4.057293e+00    4.958354e-01   1.218337e-02
  4.059503e+00    4.781643e-01   1.201869e-02
  4.061714e+00    4.742467e-01   1.202533e-02
  4.063924e+00    4.743458e-01   1.208289e-02
  4.066134e+00    5.053031e-01   1.252974e-02
  4.068345e+00    5.054417e-01   1.259172e-02
  4.070555e+00    5.060542e-01   1.266032e-02
  4.072766e+00    4.708701e-01   1.227232e-02
  4.074976e+00    5.184478e-01   1.294155e-02
  4.077187e+00    4.737410e-01   1.243264e-02
  4.079397e+00    4.691948e-01   1.243589e-02
  4.081608e+00    4.824713e-01   1.267624e-02
  4.083818e+00    4.776728e-01   1.267859e-02
  4.086029e+00    4.841996e-01   1.283228e-02
  4.088239e+00    4.869932e-01   1.293868e-02
  4.090449e+00    4.701960e-01   1.278221e-02
  4.092660e+00    4.941246e-01   1.317569e-02
  4.094870e+00    5.001751e-01   1.332993e-02
  4.097081e+00    4.539784e-01   1.276892e-02
  4.099291e+00    4.839357e-01   1.323787e-02
  4.101502e+00    5.428867e-01   1.407351e-02
  4.103712e+00    5.053306e-01   1.362871e-02
  4.105923e+00    4.856918e-01   1.341260e-02
  4.108133e+00    5.057681e-01   1.374021e-02
  4.110344e+00    4.840015e-01   1.349241e-02
  4.112554e+00    5.082772e-01   1.388133e-02
  4.114764e+00    4.810709e-01   1.355910e-02
  4.116975e+00    4.570998e-01   1.326897e-02
  4.119185e+00    4.786787e-01   1.363377e-02
  4.121396e+00    4.678255e-01   1.353392e-02
  4.123606e+00    4.995016e-01   1.404196e-02
  4.125817e+00    4.988197e-01   1.409114e-02
  4.128027e+00    5.172819e-01   1.441004e-02
  4.130238e+00    4.879795e-01   1.405613e-02
  4.132448e+00    4.593701e-01   1.369677e-02
  4.134659e+00    4.488415e-01   1.359715e-02
  4.136869e+00    4.936748e-01   1.432384e-02
  4.139080e+00    4.831008e-01   1.423337e-02
  4.141290e+00    4.597324e-01   1.394647e-02
  4.143500e+00    4.824508e-01   1.435271e-02
  4.145711e+00    4.530710e-01   1.397387e-02
  4.147921e+00    4.785033e-01   1.442650e-02
  4.150132e+00    4.585419e-01   1.418994e-02
  4.152342e+00    4.656756e-01   1.436890e-02
  4.154553e+00    5.421418e-01   1.557775e-02
  4.156763e+00    5.027490e-01   1.507525e-02
  4.158974e+00    5.086842e-01   1.524021e-02
  4.161184e+00    5.128831e-01   1.537895e-02
  4.163395e+00    4.420967e-01   1.435130e-02
  4.165605e+00    4.893571e-01   1.517721e-02
  4.167815e+00    5.023140e-01   1.545714e-02
  4.170026e+00    4.971862e-01   1.545908e-02
  4.172236e+00    5.266717e-01   1.599694e-02
  4.174447e+00    5.024043e-01   1.570903e-02
  4.176657e+00    5.288618e-01   1.620535e-02
  4.178868e+00    4.963279e-01   1.578809e-02
  4.181078e+00    4.988470e-01   1.591703e-02
  4.183289e+00    4.877996e-01   1.582997e-02
  4.185499e+00    4.640442e-01   1.553093e-02
  4.187710e+00    4.594481e-01   1.554410e-02
  4.189920e+00    4.922875e-01   1.618702e-02
  4.192130e+00    4.772384e-01   1.603516e-02
  4.194341e+00    4.700114e-01   1.601073e-02
  4.196551e+00    4.788535e-01   1.626304e-02
  4.198762e+00    4.728504e-01   1.626344e-02
  4.200972e+00    4.564387e-01   1.608224e-02
  4.203183e+00    4.280730e-01   1.567700e-02
  4.205393e+00    4.805135e-01   1.672002e-02
  4.207604e+00    5.183632e-01   1.748451e-02
  4.209814e+00    5.054239e-01   1.738339e-02
  4.212025e+00    5.274448e-01   1.788381e-02
  4.214235e+00    5.129120e-01   1.776092e-02
  4.216445e+00    4.394427e-01   1.655855e-02
  4.218656e+00    4.378659e-01   1.665258e-02
  4.220866e+00    5.264598e-01   1.839491e-02
  4.223077e+00    5.084521e-01   1.821680e-02
  4.225287e+00    4.724204e-01   1.769766e-02
  4.227498e+00    4.801092e-01   1.798063e-02
  4.229708e+00    4.649199e-01   1.783799e-02
  4.231919e+00    4.890966e-01   1.844750e-02
  4.234129e+00    4.870000e-01   1.856194e-02
  4.236340e+00    5.245350e-01   1.942915e-02
  4.238550e+00    3.954476e-01   1.701868e-02
  4.240761e+00    4.625609e-01   1.856853e-02
  4.242971e+00    5.040351e-01   1.956097e-02
  4.245181e+00    4.770629e-01   1.920932e-02
  4.247392e+00    4.410449e-01   1.864238e-02
  4.249602e+00    4.743398e-01   1.952531e-02
  4.251813e+00    4.418584e-01   1.903059e-02
  4.254023e+00    4.267765e-01   1.889149e-02
  4.256234e+00    4.529115e-01   1.966948e-02
  4.258444e+00    4.920817e-01   2.071652e-02
  4.260655e+00    5.227270e-01   2.158681e-02
  4.262865e+00    4.840541e-01   2.100904e-02
  4.265076e+00    4.407392e-01   2.027439e-02
  4.267286e+00    5.038717e-01   2.193499e-02
  4.269496e+00    4.783808e-01   2.163426e-02
  4.271707e+00    4.652743e-01   2.159921e-02
  4.273917e+00    4.995235e-01   2.266930e-02
  4.276128e+00    4.216169e-01   2.110349e-02
  4.278338e+00    4.720750e-01   2.262830e-02
  4.280549e+00    5.311399e-01   2.434679e-02
  4.282759e+00    4.449609e-01   2.260499e-02
  4.284970e+00    5.376531e-01   2.521518e-02
  4.287180e+00    4.237639e-01   2.265427e-02
  4.289391e+00    4.600976e-01   2.378280e-02
  4.291601e+00    4.657898e-01   2.412067e-02
  4.293811e+00    4.133427e-01   2.289968e-02
  4.296022e+00    5.090492e-01   2.561692e-02
  4.298232e+00    4.114226e-01   2.322291e-02
  4.300443e+00    4.152591e-01   2.352361e-02
  4.302653e+00    4.827025e-01   2.558110e-02
  4.304864e+00    5.510314e-01   2.756868e-02
  4.307074e+00    5.055958e-01   2.664498e-02
  4.309285e+00    4.853270e-01   2.634299e-02
  4.311495e+00    4.411390e-01   2.534952e-02
  4.313706e+00    4.296806e-01   2.525380e-02
  4.315916e+00    5.012306e-01   2.754349e-02
  4.318126e+00    4.368375e-01   2.596786e-02
  4.320337e+00    3.717934e-01   2.419987e-02
  4.322547e+00    3.997692e-01   2.535914e-02
  4.324758e+00    4.012056e-01   2.566872e-02
  4.326968e+00    5.226795e-01   2.962757e-02
  4.329179e+00    5.502107e-01   3.073317e-02
  4.331389e+00    3.973182e-01   2.641818e-02
  4.333600e+00    5.062088e-01   3.017413e-02
  4.335810e+00    4.764488e-01   2.962249e-02
  4.338021e+00    4.765356e-01   3.000403e-02
  4.340231e+00    4.962606e-01   3.100331e-02
  4.342442e+00    4.705011e-01   3.059358e-02
  4.344652e+00    5.476812e-01   3.345437e-02
  4.346862e+00    5.171759e-01   3.296554e-02
  4.349073e+00    5.015353e-01   3.293564e-02
  4.351283e+00    3.564821e-01   2.818268e-02
  4.353494e+00    3.296058e-01   2.751755e-02
  4.355704e+00    4.722697e-01   3.346840e-02
  4.357915e+00    4.356601e-01   3.268062e-02
  4.360125e+00    4.415565e-01   3.346178e-02
  4.362336e+00    4.678343e-01   3.507223e-02
  4.364546e+00    4.421151e-01   3.471483e-02
  4.366757e+00    4.295073e-01   3.489702e-02
  4.368967e+00    2.707217e-01   2.825878e-02
  4.371177e+00    4.205156e-01   3.596649e-02
  4.373388e+00    3.681841e-01   3.440700e-02
  4.375598e+00    3.380808e-01   3.372406e-02
  4.377809e+00    3.200941e-01   3.364342e-02
  4.380019e+00    4.770312e-01   4.210385e-02
  4.382230e+00    3.771991e-01   3.848473e-02
  4.384440e+00    3.368990e-01   3.741867e-02
  4.386651e+00    2.929988e-01   3.597148e-02
  4.388861e+00    2.927708e-01   3.716230e-02
  4.391072e+00    5.002054e-01   5.028206e-02
  4.393282e+00    5.113339e-01   5.280727e-02
  4.395492e+00    3.998307e-01   4.863518e-02
  4.397703e+00    1.686502e-01   3.303125e-02
  4.399913e+00    3.807642e-01   5.213962e-02
  4.402124e+00    3.423226e-01   5.224639e-02
  4.404334e+00    3.820393e-01   5.866629e-02
  4.406545e+00    5.641205e-01   7.658919e-02
  4.408755e+00    6.521055e-01   8.931386e-02
  4.410966e+00    2.348802e-01   5.932641e-02
  4.413176e+00    4.871498e-01   9.670909e-02
  4.415387e+00   -2.744152e-01            nan
  4.417597e+00   -1.681641e+00            nan
  4.419807e+00    3.372853e-01   2.086502e-01
