# == pyFAI calibration ==
# Distance Sample to Detector: 0.216 m
# PONI: 1.166e-01, 1.308e-01 m
# Rotations: 0.000000 0.000000 0.000000 rad
# 
# == Fit2d calibration ==
# Distance Sample-beamCenter: 216.000 mm
# Center: x=1744.293, y=1555.000 pix
# Tilt: 0.000 deg  TiltPlanRot: 0.000 deg
# 
# Detector Eiger 9M	 PixelSize= 7.500e-05, 7.500e-05 m
#    Detector has a mask: True 
#    Detector has a dark current: False 
#    detector has a flat field: False 
# 
# Wavelength: 9.8e-11 m
# Mask applied: from detector
# Dark current applied: False
# Flat field applied: False
# Polarization factor: None
# Normalization factor: 1.0
# 
# Headers of the input frame:
# {
# "_array_data.header_convention": "SLS_1.0",
# "_array_data.header_contents": "# Detector: Dectris Eiger 9M, S/N E-18-0102\r\n# Pixel_size 75e-6 m x 75e-6 m\r\n# Silicon sensor, thickness 0.000450 m\r\n# Exposure_time 0.024997 s\r\n# Exposure_period 0.025000 s\r\n# Count_cutoff 62318 counts\r\n# Wavelength 0.980106 A\r\n# Detector_distance 0.215992 m\r\n# Beam_xy (1555, 1744) pixels\r\n# Start_angle 0.000000 deg.\r\n# Angle_increment 0.000000 deg.",
# "Content-Type": "application/octet-stream;",
# "conversions": "x-CBF_BYTE_OFFSET",
# "Content-Transfer-Encoding": "BINARY",
# "X-Binary-Size": "10166616",
# "X-Binary-ID": "1",
# "X-Binary-Element-Type": "signed 32-bit integer",
# "X-Binary-Element-Byte-Order": "LITTLE_ENDIAN",
# "Content-MD5": "gWN+WTan2DZxCChY40pBsw==",
# "X-Binary-Number-of-Elements": "10166590",
# "X-Binary-Size-Fastest-Dimension": "3110",
# "X-Binary-Size-Second-Dimension": "3269",
# "X-Binary-Size-Padding": "4095"
# }
# --> H:/Proxima2a_2019-04-05/RAW_DATA/C5_gel17_position5/C5_mesh_1_data.cbf/C5_mesh_1_data.cbf000173.dat
#        q_A^-1              I           sigma 
  1.105228e-03    2.000045e+00   7.652561e-01
  3.315685e-03    1.520414e+00   4.056265e-01
  5.526141e-03    1.400181e+00   3.009984e-01
  7.736597e-03    1.463024e+00   2.599238e-01
  9.947054e-03    1.457577e+00   2.287138e-01
  1.215751e-02    1.338031e+00   1.981535e-01
  1.436797e-02    1.282421e+00   1.784396e-01
  1.657842e-02    1.339718e+00   1.697661e-01
  1.878888e-02    1.419503e+00   1.641465e-01
  2.099934e-02    1.322938e+00   1.499242e-01
  2.320979e-02    1.453462e+00   1.494633e-01
  2.542025e-02    1.529219e+00   1.465023e-01
  2.763070e-02    1.482221e+00   1.383397e-01
  2.984116e-02    1.227444e+00   1.211371e-01
  3.205162e-02    1.353310e+00   1.227397e-01
  3.426207e-02    1.408999e+00   1.211240e-01
  3.647253e-02    1.452968e+00   1.192114e-01
  3.868299e-02    1.330153e+00   1.107635e-01
  4.089344e-02    1.325332e+00   1.075333e-01
  4.310390e-02    1.408047e+00   1.079525e-01
  4.531436e-02    1.440125e+00   1.064795e-01
  4.752481e-02    1.468469e+00   1.049908e-01
  4.973527e-02    1.579052e+00   1.064265e-01
  5.194572e-02    1.411049e+00   9.844054e-02
  5.415618e-02    1.501332e+00   9.944365e-02
  5.636664e-02    1.488497e+00   9.705979e-02
  5.857709e-02    1.430612e+00   9.334164e-02
  6.078755e-02    1.588558e+00   9.655147e-02
  6.299801e-02    1.579106e+00   9.455886e-02
  6.520846e-02    1.512545e+00   9.096300e-02
  6.741892e-02    1.506807e+00   8.928503e-02
  6.962938e-02    1.417568e+00   8.521936e-02
  7.183983e-02    1.384162e+00   8.290211e-02
  7.405029e-02    1.377951e+00   8.147007e-02
  7.626074e-02    1.494350e+00   8.360197e-02
  7.847120e-02    1.477064e+00   8.193579e-02
  8.068166e-02    1.448584e+00   8.002213e-02
  8.289211e-02    1.432498e+00   7.850796e-02
  8.510257e-02    1.394227e+00   7.643919e-02
  8.731303e-02    1.547655e+00   7.950635e-02
  8.952348e-02    1.449215e+00   7.598258e-02
  9.173394e-02    1.451728e+00   7.512361e-02
  9.394439e-02    1.583942e+00   7.753877e-02
  9.615485e-02    1.551879e+00   7.586103e-02
  9.836531e-02    1.506003e+00   7.388483e-02
  1.005758e-01    1.482678e+00   7.250081e-02
  1.027862e-01    1.547070e+00   7.325595e-02
  1.049967e-01    1.537877e+00   7.226379e-02
  1.072071e-01    1.561518e+00   7.206167e-02
  1.094176e-01    1.477475e+00   6.938291e-02
  1.116280e-01    1.457599e+00   6.822738e-02
  1.138385e-01    1.423022e+00   6.675428e-02
  1.160490e-01    1.492718e+00   6.771438e-02
  1.182594e-01    1.459989e+00   6.633766e-02
  1.204699e-01    1.536360e+00   6.742284e-02
  1.226803e-01    1.548828e+00   6.708045e-02
  1.248908e-01    1.500576e+00   6.543960e-02
  1.271012e-01    1.507176e+00   6.500927e-02
  1.293117e-01    1.564313e+00   6.566072e-02
  1.315222e-01    1.576382e+00   6.535578e-02
  1.337326e-01    1.533190e+00   6.391808e-02
  1.359431e-01    1.503309e+00   6.332920e-02
  1.381535e-01    1.506511e+00   6.424756e-02
  1.403640e-01    1.554879e+00   6.555262e-02
  1.425744e-01    1.493086e+00   6.433946e-02
  1.447849e-01    1.523914e+00   6.501522e-02
  1.469953e-01    1.592028e+00   6.641071e-02
  1.492058e-01    1.625022e+00   6.701739e-02
  1.514163e-01    1.553431e+00   6.541573e-02
  1.536267e-01    1.511423e+00   6.439918e-02
  1.558372e-01    1.548728e+00   6.504516e-02
  1.580476e-01    1.575108e+00   6.543764e-02
  1.602581e-01    1.604581e+00   6.587928e-02
  1.624685e-01    1.666931e+00   6.696318e-02
  1.646790e-01    1.698576e+00   6.740171e-02
  1.668895e-01    1.641950e+00   6.607731e-02
  1.690999e-01    1.790300e+00   6.879060e-02
  1.713104e-01    1.819210e+00   6.912861e-02
  1.735208e-01    1.811894e+00   6.877494e-02
  1.757313e-01    1.811020e+00   6.854284e-02
  1.779417e-01    1.935614e+00   7.063033e-02
  1.801522e-01    1.985625e+00   7.130913e-02
  1.823626e-01    1.958288e+00   7.058080e-02
  1.845731e-01    1.862308e+00   6.860645e-02
  1.867836e-01    1.887958e+00   6.884418e-02
  1.889940e-01    1.896052e+00   6.876614e-02
  1.912045e-01    2.044308e+00   7.116558e-02
  1.934149e-01    1.949726e+00   6.926723e-02
  1.956254e-01    1.968843e+00   6.937639e-02
  1.978358e-01    1.998615e+00   6.965943e-02
  2.000463e-01    2.057450e+00   7.044308e-02
  2.022568e-01    2.068550e+00   7.040102e-02
  2.044672e-01    2.061818e+00   7.004559e-02
  2.066777e-01    2.004961e+00   6.884377e-02
  2.088881e-01    2.011124e+00   6.872392e-02
  2.110986e-01    1.989277e+00   6.811524e-02
  2.133090e-01    1.986862e+00   6.785259e-02
  2.155195e-01    1.990897e+00   6.769614e-02
  2.177300e-01    1.963248e+00   6.669633e-02
  2.199404e-01    1.921568e+00   6.424585e-02
  2.221509e-01    1.975340e+00   6.406894e-02
  2.243613e-01    2.000855e+00   6.366396e-02
  2.265718e-01    2.021340e+00   6.328373e-02
  2.287822e-01    2.028324e+00   6.276549e-02
  2.309927e-01    2.069568e+00   6.282286e-02
  2.332031e-01    2.131598e+00   6.321171e-02
  2.354136e-01    2.119925e+00   6.252745e-02
  2.376241e-01    2.164998e+00   6.269822e-02
  2.398345e-01    2.186821e+00   6.254710e-02
  2.420450e-01    2.060873e+00   6.028527e-02
  2.442554e-01    2.051215e+00   5.972949e-02
  2.464659e-01    2.177792e+00   6.113161e-02
  2.486763e-01    2.144679e+00   6.026632e-02
  2.508868e-01    2.069794e+00   5.883134e-02
  2.530973e-01    2.080655e+00   5.861979e-02
  2.553077e-01    2.027402e+00   5.751377e-02
  2.575182e-01    2.064170e+00   5.768957e-02
  2.597286e-01    2.117989e+00   5.809713e-02
  2.619391e-01    2.034429e+00   5.661175e-02
  2.641495e-01    1.950394e+00   5.512341e-02
  2.663600e-01    2.044930e+00   5.613312e-02
  2.685704e-01    2.021635e+00   5.550994e-02
  2.707809e-01    2.063864e+00   5.578901e-02
  2.729914e-01    1.990893e+00   5.450832e-02
  2.752018e-01    1.977073e+00   5.403608e-02
  2.774123e-01    1.996088e+00   5.401798e-02
  2.796227e-01    1.999091e+00   5.379119e-02
  2.818332e-01    1.979053e+00   5.325394e-02
  2.840436e-01    2.007349e+00   5.337330e-02
  2.862541e-01    1.988035e+00   5.286059e-02
  2.884646e-01    1.978645e+00   5.248533e-02
  2.906750e-01    1.964073e+00   5.204377e-02
  2.928855e-01    1.965721e+00   5.182435e-02
  2.950959e-01    1.927825e+00   5.108661e-02
  2.973064e-01    1.858384e+00   4.993269e-02
  2.995168e-01    1.849891e+00   4.959279e-02
  3.017273e-01    1.973881e+00   5.100198e-02
  3.039377e-01    1.884551e+00   4.961635e-02
  3.061482e-01    1.913782e+00   4.978337e-02
  3.083587e-01    1.896793e+00   4.934736e-02
  3.105691e-01    1.935104e+00   4.963036e-02
  3.127796e-01    1.846071e+00   4.827137e-02
  3.149900e-01    1.888680e+00   4.862183e-02
  3.172005e-01    1.918745e+00   4.880690e-02
  3.194109e-01    1.870850e+00   4.799495e-02
  3.216214e-01    1.860350e+00   4.766479e-02
  3.238319e-01    1.863837e+00   4.752041e-02
  3.260423e-01    1.843392e+00   4.707083e-02
  3.282528e-01    1.815709e+00   4.653008e-02
  3.304632e-01    1.840932e+00   4.667064e-02
  3.326737e-01    1.849062e+00   4.659108e-02
  3.348841e-01    1.796786e+00   4.574969e-02
  3.370946e-01    1.786485e+00   4.544668e-02
  3.393050e-01    1.873547e+00   4.636461e-02
  3.415155e-01    1.834114e+00   4.570163e-02
  3.437260e-01    1.833326e+00   4.552244e-02
  3.459364e-01    1.821937e+00   4.521295e-02
  3.481469e-01    1.788478e+00   4.463236e-02
  3.503573e-01    1.813733e+00   4.478265e-02
  3.525678e-01    1.767430e+00   4.404979e-02
  3.547782e-01    1.814829e+00   4.447518e-02
  3.569887e-01    1.848801e+00   4.473049e-02
  3.591992e-01    1.857073e+00   4.467181e-02
  3.614096e-01    1.797014e+00   4.379117e-02
  3.636201e-01    1.810971e+00   4.380640e-02
  3.658305e-01    1.822621e+00   4.379717e-02
  3.680410e-01    1.870302e+00   4.421376e-02
  3.702514e-01    1.800827e+00   4.323892e-02
  3.724619e-01    1.759351e+00   4.259252e-02
  3.746724e-01    1.730648e+00   4.210273e-02
  3.768828e-01    1.764962e+00   4.237498e-02
  3.790933e-01    1.791540e+00   4.255373e-02
  3.813037e-01    1.698364e+00   4.129683e-02
  3.835142e-01    1.719388e+00   4.141515e-02
  3.857246e-01    1.772477e+00   4.191360e-02
  3.879351e-01    1.825301e+00   4.239590e-02
  3.901455e-01    1.853362e+00   4.258455e-02
  3.923560e-01    1.802691e+00   4.186490e-02
  3.945665e-01    1.853299e+00   4.231386e-02
  3.967769e-01    1.771321e+00   4.123789e-02
  3.989874e-01    1.762643e+00   4.100829e-02
  4.011978e-01    1.809750e+00   4.142487e-02
  4.034083e-01    1.830444e+00   4.153316e-02
  4.056187e-01    1.750270e+00   4.048828e-02
  4.078292e-01    1.848067e+00   4.147813e-02
  4.100397e-01    1.840706e+00   4.126906e-02
  4.122501e-01    1.821738e+00   4.093306e-02
  4.144606e-01    1.810680e+00   4.068760e-02
  4.166710e-01    1.786209e+00   4.029157e-02
  4.188815e-01    1.796209e+00   4.028485e-02
  4.210919e-01    1.744429e+00   3.958361e-02
  4.233024e-01    1.795252e+00   4.003796e-02
  4.255128e-01    1.842599e+00   4.044526e-02
  4.277233e-01    1.790184e+00   3.975132e-02
  4.299338e-01    1.794060e+00   3.967981e-02
  4.321442e-01    1.778561e+00   3.939499e-02
  4.343547e-01    1.742672e+00   3.888524e-02
  4.365651e-01    1.721776e+00   3.854159e-02
  4.387756e-01    1.712477e+00   3.832973e-02
  4.409860e-01    1.738895e+00   3.851724e-02
  4.431965e-01    1.786428e+00   3.893217e-02
  4.454070e-01    1.821699e+00   3.920526e-02
  4.476174e-01    1.765253e+00   3.848714e-02
  4.498279e-01    1.699965e+00   3.766594e-02
  4.520383e-01    1.661565e+00   3.713591e-02
  4.542488e-01    1.733400e+00   3.782786e-02
  4.564592e-01    1.770095e+00   3.812364e-02
  4.586697e-01    1.750784e+00   3.781447e-02
  4.608801e-01    1.713191e+00   3.730609e-02
  4.630906e-01    1.724602e+00   3.733103e-02
  4.653011e-01    1.655972e+00   3.648450e-02
  4.675115e-01    1.638701e+00   3.619815e-02
  4.697220e-01    1.695625e+00   3.672509e-02
  4.719324e-01    1.692555e+00   3.659693e-02
  4.741429e-01    1.642113e+00   3.595459e-02
  4.763533e-01    1.685246e+00   3.633033e-02
  4.785638e-01    1.673605e+00   3.611113e-02
  4.807743e-01    1.692238e+00   3.621924e-02
  4.829847e-01    1.681759e+00   3.601571e-02
  4.851952e-01    1.691366e+00   3.602704e-02
  4.874056e-01    1.677652e+00   3.579021e-02
  4.896161e-01    1.658599e+00   3.549815e-02
  4.918265e-01    1.672709e+00   3.556029e-02
  4.940370e-01    1.681375e+00   3.556426e-02
  4.962475e-01    1.699746e+00   3.566973e-02
  4.984579e-01    1.715084e+00   3.574198e-02
  5.006684e-01    1.723682e+00   3.574413e-02
  5.028788e-01    1.651806e+00   3.490615e-02
  5.050893e-01    1.644536e+00   3.474455e-02
  5.072997e-01    1.638309e+00   3.459492e-02
  5.095102e-01    1.674616e+00   3.489240e-02
  5.117206e-01    1.708314e+00   3.515792e-02
  5.139311e-01    1.674914e+00   3.473016e-02
  5.161416e-01    1.619753e+00   3.407275e-02
  5.183520e-01    1.632714e+00   3.412750e-02
  5.205625e-01    1.642885e+00   3.415345e-02
  5.227729e-01    1.658310e+00   3.423336e-02
  5.249834e-01    1.668468e+00   3.425835e-02
  5.271938e-01    1.705785e+00   3.455849e-02
  5.294043e-01    1.762410e+00   3.504637e-02
  5.316148e-01    1.726485e+00   3.460789e-02
  5.338252e-01    1.736848e+00   3.463225e-02
  5.360357e-01    1.799928e+00   3.517528e-02
  5.382461e-01    1.753716e+00   3.464233e-02
  5.404566e-01    1.707680e+00   3.410681e-02
  5.426670e-01    1.723506e+00   3.418727e-02
  5.448775e-01    1.739195e+00   3.426581e-02
  5.470879e-01    1.758434e+00   3.437797e-02
  5.492984e-01    1.767116e+00   3.438611e-02
  5.515089e-01    1.768176e+00   3.432013e-02
  5.537193e-01    1.756713e+00   3.413333e-02
  5.559298e-01    1.744083e+00   3.393582e-02
  5.581402e-01    1.792029e+00   3.432394e-02
  5.603507e-01    1.753996e+00   3.388386e-02
  5.625611e-01    1.754139e+00   3.381170e-02
  5.647716e-01    1.796717e+00   3.414530e-02
  5.669821e-01    1.767284e+00   3.379146e-02
  5.691925e-01    1.705230e+00   3.312166e-02
  5.714030e-01    1.718895e+00   3.318319e-02
  5.736134e-01    1.701383e+00   3.294353e-02
  5.758239e-01    1.691441e+00   3.277702e-02
  5.780343e-01    1.681084e+00   3.260739e-02
  5.802448e-01    1.679556e+00   3.252434e-02
  5.824552e-01    1.668453e+00   3.234864e-02
  5.846657e-01    1.626178e+00   3.186963e-02
  5.868762e-01    1.632097e+00   3.186108e-02
  5.890866e-01    1.630542e+00   3.177986e-02
  5.912971e-01    1.595176e+00   3.136821e-02
  5.935075e-01    1.647850e+00   3.181601e-02
  5.957180e-01    1.692180e+00   3.217500e-02
  5.979284e-01    1.653237e+00   3.173769e-02
  6.001389e-01    1.648490e+00   3.162755e-02
  6.023494e-01    1.633698e+00   3.142141e-02
  6.045598e-01    1.625056e+00   3.127438e-02
  6.067703e-01    1.641490e+00   3.136892e-02
  6.089807e-01    1.614423e+00   3.104668e-02
  6.111912e-01    1.638618e+00   3.121598e-02
  6.134016e-01    1.646883e+00   3.123220e-02
  6.156121e-01    1.678029e+00   3.146349e-02
  6.178226e-01    1.656014e+00   3.119453e-02
  6.200330e-01    1.665240e+00   3.121959e-02
  6.222435e-01    1.672772e+00   3.122814e-02
  6.244539e-01    1.684511e+00   3.127616e-02
  6.266644e-01    1.691198e+00   3.127704e-02
  6.288748e-01    1.707679e+00   3.136790e-02
  6.310853e-01    1.711234e+00   3.133958e-02
  6.332957e-01    1.693671e+00   3.111813e-02
  6.355062e-01    1.716873e+00   3.126970e-02
  6.377167e-01    1.722101e+00   3.125719e-02
  6.399271e-01    1.720530e+00   3.118305e-02
  6.421376e-01    1.720461e+00   3.112291e-02
  6.443480e-01    1.729782e+00   3.114773e-02
  6.465585e-01    1.683629e+00   3.067120e-02
  6.487689e-01    1.660357e+00   3.040095e-02
  6.509794e-01    1.678816e+00   3.051182e-02
  6.531899e-01    1.643403e+00   3.013155e-02
  6.554003e-01    1.581692e+00   2.950481e-02
  6.576108e-01    1.607786e+00   2.969180e-02
  6.598212e-01    1.620111e+00   2.975002e-02
  6.620317e-01    1.614805e+00   2.964620e-02
  6.642421e-01    1.617648e+00   2.961740e-02
  6.664526e-01    1.560954e+00   2.904017e-02
  6.686630e-01    1.599442e+00   2.934163e-02
  6.708735e-01    1.631523e+00   2.958009e-02
  6.730840e-01    1.631060e+00   2.952196e-02
  6.752944e-01    1.617835e+00   2.934857e-02
  6.775049e-01    1.597672e+00   2.911216e-02
  6.797153e-01    1.590801e+00   2.899688e-02
  6.819258e-01    1.574684e+00   2.879760e-02
  6.841362e-01    1.582798e+00   2.881975e-02
  6.863467e-01    1.626447e+00   2.916212e-02
  6.885572e-01    1.630017e+00   2.914179e-02
  6.907676e-01    1.630982e+00   2.909820e-02
  6.929781e-01    1.604194e+00   2.880695e-02
  6.951885e-01    1.568427e+00   2.843355e-02
  6.973990e-01    1.580383e+00   2.849125e-02
  6.996094e-01    1.581074e+00   2.844737e-02
  7.018199e-01    1.547687e+00   2.809599e-02
  7.040303e-01    1.554774e+00   2.811076e-02
  7.062408e-01    1.559729e+00   2.810622e-02
  7.084513e-01    1.580312e+00   2.824185e-02
  7.106617e-01    1.600085e+00   2.836859e-02
  7.128722e-01    1.590102e+00   2.823105e-02
  7.150826e-01    1.594061e+00   2.821743e-02
  7.172931e-01    1.630313e+00   2.848731e-02
  7.195035e-01    1.590618e+00   2.809000e-02
  7.217140e-01    1.549053e+00   2.776960e-02
  7.239245e-01    1.549977e+00   2.800282e-02
  7.261349e-01    1.570671e+00   2.829761e-02
  7.283454e-01    1.566476e+00   2.833201e-02
  7.305558e-01    1.525679e+00   2.801380e-02
  7.327663e-01    1.550465e+00   2.828259e-02
  7.349767e-01    1.577905e+00   2.854816e-02
  7.371872e-01    1.586962e+00   2.861875e-02
  7.393976e-01    1.572375e+00   2.847268e-02
  7.416081e-01    1.565588e+00   2.839503e-02
  7.438186e-01    1.567604e+00   2.826931e-02
  7.460290e-01    1.548679e+00   2.780635e-02
  7.482395e-01    1.545009e+00   2.760383e-02
  7.504499e-01    1.542776e+00   2.744898e-02
  7.526604e-01    1.536082e+00   2.727425e-02
  7.548708e-01    1.545595e+00   2.726999e-02
  7.570813e-01    1.572439e+00   2.745485e-02
  7.592918e-01    1.567560e+00   2.737713e-02
  7.615022e-01    1.574093e+00   2.740031e-02
  7.637127e-01    1.575659e+00   2.738116e-02
  7.659231e-01    1.558479e+00   2.719964e-02
  7.681336e-01    1.550892e+00   2.710199e-02
  7.703440e-01    1.559474e+00   2.714581e-02
  7.725545e-01    1.552342e+00   2.705298e-02
  7.747650e-01    1.600980e+00   2.743502e-02
  7.769754e-01    1.601491e+00   2.738626e-02
  7.791859e-01    1.574605e+00   2.710194e-02
  7.813963e-01    1.568508e+00   2.699698e-02
  7.836068e-01    1.567603e+00   2.693749e-02
  7.858172e-01    1.588183e+00   2.706303e-02
  7.880277e-01    1.581406e+00   2.695387e-02
  7.902381e-01    1.578020e+00   2.687606e-02
  7.924486e-01    1.595185e+00   2.697180e-02
  7.946591e-01    1.612625e+00   2.707035e-02
  7.968695e-01    1.617891e+00   2.706600e-02
  7.990800e-01    1.612573e+00   2.697320e-02
  8.012904e-01    1.613960e+00   2.693811e-02
  8.035009e-01    1.648167e+00   2.717363e-02
  8.057113e-01    1.779277e+00   2.818493e-02
  8.079218e-01    1.858022e+00   2.875220e-02
  8.101323e-01    1.726002e+00   2.766488e-02
  8.123427e-01    1.636289e+00   2.689036e-02
  8.145532e-01    1.634546e+00   2.683004e-02
  8.167636e-01    1.648722e+00   2.690083e-02
  8.189741e-01    1.595486e+00   2.641885e-02
  8.211845e-01    1.595129e+00   2.637160e-02
  8.233950e-01    1.616157e+00   2.650170e-02
  8.256054e-01    1.605285e+00   2.636864e-02
  8.278159e-01    1.613122e+00   2.638929e-02
  8.300264e-01    1.620583e+00   2.640739e-02
  8.322368e-01    1.655039e+00   2.664330e-02
  8.344473e-01    1.633185e+00   2.642354e-02
  8.366577e-01    1.618112e+00   2.625899e-02
  8.388682e-01    1.599749e+00   2.606784e-02
  8.410786e-01    1.640822e+00   2.635826e-02
  8.432891e-01    1.650215e+00   2.639163e-02
  8.454996e-01    1.627827e+00   2.617051e-02
  8.477100e-01    1.617592e+00   2.604670e-02
  8.499205e-01    1.616634e+00   2.599809e-02
  8.521309e-01    1.619618e+00   2.598150e-02
  8.543414e-01    1.600949e+00   2.579103e-02
  8.565518e-01    1.603843e+00   2.577414e-02
  8.587623e-01    1.611475e+00   2.579516e-02
  8.609727e-01    1.605112e+00   2.570426e-02
  8.631832e-01    1.590102e+00   2.554436e-02
  8.653937e-01    1.578289e+00   2.541018e-02
  8.676041e-01    1.582475e+00   2.540547e-02
  8.698146e-01    1.602952e+00   2.553022e-02
  8.720250e-01    1.594926e+00   2.542742e-02
  8.742355e-01    1.601097e+00   2.543778e-02
  8.764459e-01    1.559234e+00   2.506474e-02
  8.786564e-01    1.553794e+00   2.498364e-02
  8.808669e-01    1.627772e+00   2.553273e-02
  8.830773e-01    1.597478e+00   2.525595e-02
  8.852878e-01    1.581368e+00   2.509061e-02
  8.874982e-01    1.576746e+00   2.501754e-02
  8.897087e-01    1.573238e+00   2.495235e-02
  8.919191e-01    1.570232e+00   2.489111e-02
  8.941296e-01    1.551983e+00   2.470932e-02
  8.963401e-01    1.590717e+00   2.497944e-02
  8.985505e-01    1.576173e+00   2.482831e-02
  9.007610e-01    1.590711e+00   2.490591e-02
  9.029714e-01    1.593293e+00   2.489035e-02
  9.051819e-01    1.570440e+00   2.467433e-02
  9.073923e-01    1.552770e+00   2.449909e-02
  9.096028e-01    1.577658e+00   2.465997e-02
  9.118132e-01    1.587560e+00   2.470117e-02
  9.140237e-01    1.598131e+00   2.474666e-02
  9.162342e-01    1.607531e+00   2.478470e-02
  9.184446e-01    1.607812e+00   2.475101e-02
  9.206551e-01    1.606671e+00   2.470657e-02
  9.228655e-01    1.589931e+00   2.454238e-02
  9.250760e-01    1.627999e+00   2.479882e-02
  9.272864e-01    1.615515e+00   2.466915e-02
  9.294969e-01    1.620120e+00   2.466829e-02
  9.317074e-01    1.632355e+00   2.472626e-02
  9.339178e-01    1.614513e+00   2.455720e-02
  9.361283e-01    1.607051e+00   2.446424e-02
  9.383387e-01    1.605062e+00   2.441586e-02
  9.405492e-01    1.604074e+00   2.437424e-02
  9.427596e-01    1.607157e+00   2.436254e-02
  9.449701e-01    1.628594e+00   2.449115e-02
  9.471805e-01    1.657326e+00   2.467125e-02
  9.493910e-01    1.696456e+00   2.492655e-02
  9.516015e-01    1.700650e+00   2.492250e-02
  9.538119e-01    1.696524e+00   2.485814e-02
  9.560224e-01    1.734484e+00   2.509932e-02
  9.582328e-01    1.733858e+00   2.506113e-02
  9.604433e-01    1.728077e+00   2.498389e-02
  9.626537e-01    1.712453e+00   2.483724e-02
  9.648642e-01    1.776823e+00   2.526509e-02
  9.670747e-01    1.791532e+00   2.533447e-02
  9.692851e-01    1.794952e+00   2.532494e-02
  9.714956e-01    1.786297e+00   2.522818e-02
  9.737060e-01    1.817874e+00   2.541674e-02
  9.759165e-01    1.843147e+00   2.555675e-02
  9.781269e-01    1.782756e+00   2.510169e-02
  9.803374e-01    1.809063e+00   2.525123e-02
  9.825478e-01    1.800195e+00   2.515605e-02
  9.847583e-01    1.755503e+00   2.480810e-02
  9.869688e-01    1.731558e+00   2.460533e-02
  9.891792e-01    1.740130e+00   2.463338e-02
  9.913897e-01    1.734247e+00   2.455851e-02
  9.936001e-01    1.740009e+00   2.456708e-02
  9.958106e-01    1.668423e+00   2.402374e-02
  9.980210e-01    1.622347e+00   2.365892e-02
  1.000231e+00    1.671717e+00   2.414776e-02
  1.002442e+00    1.639920e+00   2.404411e-02
  1.004652e+00    1.612521e+00   2.390891e-02
  1.006863e+00    1.621682e+00   2.402647e-02
  1.009073e+00    1.588088e+00   2.381272e-02
  1.011284e+00    1.549839e+00   2.355564e-02
  1.013494e+00    1.566650e+00   2.370654e-02
  1.015705e+00    1.542740e+00   2.354717e-02
  1.017915e+00    1.531522e+00   2.347759e-02
  1.020126e+00    1.506468e+00   2.330049e-02
  1.022336e+00    1.533465e+00   2.351991e-02
  1.024547e+00    1.521210e+00   2.343687e-02
  1.026757e+00    1.499636e+00   2.327831e-02
  1.028967e+00    1.499691e+00   2.328631e-02
  1.031178e+00    1.481228e+00   2.314858e-02
  1.033388e+00    1.512993e+00   2.340050e-02
  1.035599e+00    1.471893e+00   2.308384e-02
  1.037809e+00    1.490245e+00   2.323052e-02
  1.040020e+00    1.487255e+00   2.320846e-02
  1.042230e+00    1.477549e+00   2.313453e-02
  1.044441e+00    1.467704e+00   2.305709e-02
  1.046651e+00    1.469537e+00   2.307168e-02
  1.048862e+00    1.448043e+00   2.290153e-02
  1.051072e+00    1.461484e+00   2.300525e-02
  1.053282e+00    1.453379e+00   2.294044e-02
  1.055493e+00    1.487556e+00   2.320429e-02
  1.057703e+00    1.450651e+00   2.291318e-02
  1.059914e+00    1.489338e+00   2.321241e-02
  1.062124e+00    1.451117e+00   2.290866e-02
  1.064335e+00    1.437510e+00   2.279758e-02
  1.066545e+00    1.455667e+00   2.293519e-02
  1.068756e+00    1.419971e+00   2.264855e-02
  1.070966e+00    1.468271e+00   2.302401e-02
  1.073177e+00    1.462636e+00   2.297377e-02
  1.075387e+00    1.459760e+00   2.294595e-02
  1.077597e+00    1.455263e+00   2.290338e-02
  1.079808e+00    1.425781e+00   2.253919e-02
  1.082018e+00    1.406213e+00   2.219862e-02
  1.084229e+00    1.395487e+00   2.200623e-02
  1.086439e+00    1.404602e+00   2.199206e-02
  1.088650e+00    1.419611e+00   2.203449e-02
  1.090860e+00    1.437756e+00   2.210763e-02
  1.093071e+00    1.433683e+00   2.201449e-02
  1.095281e+00    1.405627e+00   2.174156e-02
  1.097492e+00    1.392185e+00   2.158346e-02
  1.099702e+00    1.403947e+00   2.162370e-02
  1.101912e+00    1.375920e+00   2.135903e-02
  1.104123e+00    1.408272e+00   2.156090e-02
  1.106333e+00    1.420456e+00   2.160975e-02
  1.108544e+00    1.398229e+00   2.139626e-02
  1.110754e+00    1.407740e+00   2.142615e-02
  1.112965e+00    1.408280e+00   2.138994e-02
  1.115175e+00    1.367779e+00   2.103969e-02
  1.117386e+00    1.406506e+00   2.129632e-02
  1.119596e+00    1.412807e+00   2.130609e-02
  1.121807e+00    1.410814e+00   2.125223e-02
  1.124017e+00    1.398713e+00   2.112436e-02
  1.126228e+00    1.364399e+00   2.082840e-02
  1.128438e+00    1.364026e+00   2.078926e-02
  1.130648e+00    1.459878e+00   2.147220e-02
  1.132859e+00    1.681294e+00   2.300536e-02
  1.135069e+00    1.635164e+00   2.265005e-02
  1.137280e+00    1.452546e+00   2.131408e-02
  1.139490e+00    1.371020e+00   2.067438e-02
  1.141701e+00    1.381339e+00   2.071895e-02
  1.143911e+00    1.367029e+00   2.057969e-02
  1.146122e+00    1.395924e+00   2.076385e-02
  1.148332e+00    1.414693e+00   2.087070e-02
  1.150543e+00    1.401798e+00   2.074427e-02
  1.152753e+00    1.369170e+00   2.047066e-02
  1.154963e+00    1.356673e+00   2.034618e-02
  1.157174e+00    1.354531e+00   2.030014e-02
  1.159384e+00    1.345277e+00   2.020114e-02
  1.161595e+00    1.342924e+00   2.015390e-02
  1.163805e+00    1.362504e+00   2.027109e-02
  1.166016e+00    1.381433e+00   2.038185e-02
  1.168226e+00    1.396758e+00   2.046531e-02
  1.170437e+00    1.464741e+00   2.092777e-02
  1.172647e+00    1.647627e+00   2.216409e-02
  1.174858e+00    1.722901e+00   2.263325e-02
  1.177068e+00    1.552070e+00   2.145177e-02
  1.179278e+00    1.421754e+00   2.050222e-02
  1.181489e+00    1.376501e+00   2.014612e-02
  1.183699e+00    1.366698e+00   2.004658e-02
  1.185910e+00    1.344566e+00   1.985597e-02
  1.188120e+00    1.351595e+00   1.988116e-02
  1.190331e+00    1.382348e+00   2.007903e-02
  1.192541e+00    1.376274e+00   2.000731e-02
  1.194752e+00    1.342827e+00   1.973573e-02
  1.196962e+00    1.359020e+00   1.982856e-02
  1.199173e+00    1.339539e+00   1.965953e-02
  1.201383e+00    1.368308e+00   1.984217e-02
  1.203593e+00    1.348656e+00   1.967438e-02
  1.205804e+00    1.322582e+00   1.945760e-02
  1.208014e+00    1.335616e+00   1.952652e-02
  1.210225e+00    1.338488e+00   1.952230e-02
  1.212435e+00    1.309793e+00   1.928748e-02
  1.214646e+00    1.326473e+00   1.938402e-02
  1.216856e+00    1.338071e+00   1.944322e-02
  1.219067e+00    1.332296e+00   1.937691e-02
  1.221277e+00    1.327808e+00   1.931944e-02
  1.223488e+00    1.299272e+00   1.908544e-02
  1.225698e+00    1.314496e+00   1.917039e-02
  1.227909e+00    1.318943e+00   1.917297e-02
  1.230119e+00    1.312040e+00   1.909134e-02
  1.232329e+00    1.316099e+00   1.909051e-02
  1.234540e+00    1.299431e+00   1.893951e-02
  1.236750e+00    1.316601e+00   1.903435e-02
  1.238961e+00    1.311954e+00   1.897414e-02
  1.241171e+00    1.318937e+00   1.900066e-02
  1.243382e+00    1.305574e+00   1.888105e-02
  1.245592e+00    1.326612e+00   1.900867e-02
  1.247803e+00    1.328870e+00   1.900136e-02
  1.250013e+00    1.342576e+00   1.907564e-02
  1.252224e+00    1.319401e+00   1.888730e-02
  1.254434e+00    1.344660e+00   1.904352e-02
  1.256644e+00    1.332678e+00   1.893545e-02
  1.258855e+00    1.330305e+00   1.889548e-02
  1.261065e+00    1.331892e+00   1.888353e-02
  1.263276e+00    1.324834e+00   1.881070e-02
  1.265486e+00    1.354923e+00   1.900018e-02
  1.267697e+00    1.375789e+00   1.912271e-02
  1.269907e+00    1.360244e+00   1.899158e-02
  1.272118e+00    1.333830e+00   1.878385e-02
  1.274328e+00    1.328796e+00   1.872581e-02
  1.276539e+00    1.320291e+00   1.864325e-02
  1.278749e+00    1.319116e+00   1.861292e-02
  1.280959e+00    1.338728e+00   1.872833e-02
  1.283170e+00    1.345176e+00   1.875100e-02
  1.285380e+00    1.327209e+00   1.860310e-02
  1.287591e+00    1.350357e+00   1.874257e-02
  1.289801e+00    1.349654e+00   1.871648e-02
  1.292012e+00    1.340074e+00   1.863291e-02
  1.294222e+00    1.327387e+00   1.852841e-02
  1.296433e+00    1.311922e+00   1.840475e-02
  1.298643e+00    1.353175e+00   1.867539e-02
  1.300854e+00    1.343655e+00   1.859322e-02
  1.303064e+00    1.330804e+00   1.848499e-02
  1.305274e+00    1.361484e+00   1.867532e-02
  1.307485e+00    1.364523e+00   1.867450e-02
  1.309695e+00    1.350041e+00   1.855289e-02
  1.311906e+00    1.354403e+00   1.856111e-02
  1.314116e+00    1.343879e+00   1.846811e-02
  1.316327e+00    1.343224e+00   1.844196e-02
  1.318537e+00    1.365867e+00   1.857475e-02
  1.320748e+00    1.340426e+00   1.837946e-02
  1.322958e+00    1.336692e+00   1.833343e-02
  1.325169e+00    1.359600e+00   1.846876e-02
  1.327379e+00    1.332346e+00   1.826106e-02
  1.329589e+00    1.357010e+00   1.840817e-02
  1.331800e+00    1.360277e+00   1.840954e-02
  1.334010e+00    1.368607e+00   1.844504e-02
  1.336221e+00    1.357223e+00   1.834634e-02
  1.338431e+00    1.368514e+00   1.840150e-02
  1.340642e+00    1.372290e+00   1.849156e-02
  1.342852e+00    1.356189e+00   1.848366e-02
  1.345063e+00    1.362388e+00   1.857556e-02
  1.347273e+00    1.354602e+00   1.855772e-02
  1.349484e+00    1.328714e+00   1.840700e-02
  1.351694e+00    1.329745e+00   1.843666e-02
  1.353905e+00    1.328305e+00   1.844453e-02
  1.356115e+00    1.340788e+00   1.854599e-02
  1.358325e+00    1.307690e+00   1.832877e-02
  1.360536e+00    1.312836e+00   1.837626e-02
  1.362746e+00    1.287565e+00   1.820787e-02
  1.364957e+00    1.296777e+00   1.828040e-02
  1.367167e+00    1.306386e+00   1.835505e-02
  1.369378e+00    1.316683e+00   1.843319e-02
  1.371588e+00    1.305091e+00   1.835694e-02
  1.373799e+00    1.316273e+00   1.843903e-02
  1.376009e+00    1.310651e+00   1.840300e-02
  1.378220e+00    1.286025e+00   1.823175e-02
  1.380430e+00    1.277379e+00   1.817303e-02
  1.382640e+00    1.276103e+00   1.816481e-02
  1.384851e+00    1.292105e+00   1.827925e-02
  1.387061e+00    1.261902e+00   1.806462e-02
  1.389272e+00    1.273265e+00   1.814597e-02
  1.391482e+00    1.282166e+00   1.820863e-02
  1.393693e+00    1.267815e+00   1.810557e-02
  1.395903e+00    1.272791e+00   1.813956e-02
  1.398114e+00    1.293538e+00   1.828544e-02
  1.400324e+00    1.277195e+00   1.816743e-02
  1.402535e+00    1.260021e+00   1.804257e-02
  1.404745e+00    1.230416e+00   1.782703e-02
  1.406955e+00    1.247447e+00   1.794730e-02
  1.409166e+00    1.283090e+00   1.819859e-02
  1.411376e+00    1.262169e+00   1.804649e-02
  1.413587e+00    1.269900e+00   1.809788e-02
  1.415797e+00    1.252086e+00   1.796698e-02
  1.418008e+00    1.247349e+00   1.789146e-02
  1.420218e+00    1.267770e+00   1.788771e-02
  1.422429e+00    1.271855e+00   1.783115e-02
  1.424639e+00    1.266902e+00   1.773178e-02
  1.426850e+00    1.273491e+00   1.772306e-02
  1.429060e+00    1.257293e+00   1.756125e-02
  1.431270e+00    1.260079e+00   1.753654e-02
  1.433481e+00    1.270426e+00   1.756744e-02
  1.435691e+00    1.277516e+00   1.757785e-02
  1.437902e+00    1.244923e+00   1.731608e-02
  1.440112e+00    1.242433e+00   1.726379e-02
  1.442323e+00    1.232104e+00   1.715932e-02
  1.444533e+00    1.262728e+00   1.733881e-02
  1.446744e+00    1.273527e+00   1.738161e-02
  1.448954e+00    1.285981e+00   1.743602e-02
  1.451165e+00    1.265197e+00   1.726485e-02
  1.453375e+00    1.269880e+00   1.726872e-02
  1.455586e+00    1.270850e+00   1.724715e-02
  1.457796e+00    1.264888e+00   1.717919e-02
  1.460006e+00    1.250888e+00   1.705682e-02
  1.462217e+00    1.236116e+00   1.692992e-02
  1.464427e+00    1.254263e+00   1.702828e-02
  1.466638e+00    1.249421e+00   1.697027e-02
  1.468848e+00    1.264618e+00   1.704787e-02
  1.471059e+00    1.246397e+00   1.689975e-02
  1.473269e+00    1.254002e+00   1.692698e-02
  1.475480e+00    1.257325e+00   1.692575e-02
  1.477690e+00    1.255338e+00   1.688866e-02
  1.479901e+00    1.239708e+00   1.675962e-02
  1.482111e+00    1.222119e+00   1.661739e-02
  1.484321e+00    1.252384e+00   1.679890e-02
  1.486532e+00    1.251191e+00   1.676871e-02
  1.488742e+00    1.265466e+00   1.684144e-02
  1.490953e+00    1.277090e+00   1.689589e-02
  1.493163e+00    1.251533e+00   1.670382e-02
  1.495374e+00    1.232514e+00   1.655517e-02
  1.497584e+00    1.244808e+00   1.661601e-02
  1.499795e+00    1.258975e+00   1.668868e-02
  1.502005e+00    1.253671e+00   1.663186e-02
  1.504216e+00    1.242610e+00   1.653743e-02
  1.506426e+00    1.244326e+00   1.652814e-02
  1.508636e+00    1.218816e+00   1.633771e-02
  1.510847e+00    1.240503e+00   1.646074e-02
  1.513057e+00    1.234344e+00   1.639496e-02
  1.515268e+00    1.239989e+00   1.640683e-02
  1.517478e+00    1.260986e+00   1.651994e-02
  1.519689e+00    1.246786e+00   1.640179e-02
  1.521899e+00    1.228305e+00   1.625689e-02
  1.524110e+00    1.229547e+00   1.624497e-02
  1.526320e+00    1.224332e+00   1.619111e-02
  1.528531e+00    1.222916e+00   1.616220e-02
  1.530741e+00    1.239724e+00   1.625383e-02
  1.532951e+00    1.230472e+00   1.617363e-02
  1.535162e+00    1.229102e+00   1.625051e-02
  1.537372e+00    1.214855e+00   1.622204e-02
  1.539583e+00    1.217458e+00   1.627321e-02
  1.541793e+00    1.230518e+00   1.636715e-02
  1.544004e+00    1.223038e+00   1.631760e-02
  1.546214e+00    1.236743e+00   1.640727e-02
  1.548425e+00    1.213571e+00   1.625309e-02
  1.550635e+00    1.229038e+00   1.636594e-02
  1.552846e+00    1.227605e+00   1.636600e-02
  1.555056e+00    1.230496e+00   1.634400e-02
  1.557266e+00    1.228295e+00   1.621966e-02
  1.559477e+00    1.228121e+00   1.615977e-02
  1.561687e+00    1.256527e+00   1.631478e-02
  1.563898e+00    1.245048e+00   1.622293e-02
  1.566108e+00    1.234755e+00   1.613984e-02
  1.568319e+00    1.242634e+00   1.617563e-02
  1.570529e+00    1.263468e+00   1.628535e-02
  1.572740e+00    1.245178e+00   1.613941e-02
  1.574950e+00    1.236586e+00   1.605741e-02
  1.577161e+00    1.241582e+00   1.606436e-02
  1.579371e+00    1.259615e+00   1.615680e-02
  1.581582e+00    1.240021e+00   1.601093e-02
  1.583792e+00    1.240016e+00   1.599286e-02
  1.586002e+00    1.261358e+00   1.611220e-02
  1.588213e+00    1.225345e+00   1.586341e-02
  1.590423e+00    1.227089e+00   1.585476e-02
  1.592634e+00    1.216310e+00   1.576359e-02
  1.594844e+00    1.212841e+00   1.571995e-02
  1.597055e+00    1.225479e+00   1.578130e-02
  1.599265e+00    1.225702e+00   1.576214e-02
  1.601476e+00    1.199974e+00   1.557587e-02
  1.603686e+00    1.199064e+00   1.555052e-02
  1.605897e+00    1.228426e+00   1.571969e-02
  1.608107e+00    1.219797e+00   1.564497e-02
  1.610317e+00    1.240138e+00   1.575554e-02
  1.612528e+00    1.230183e+00   1.567306e-02
  1.614738e+00    1.200229e+00   1.546235e-02
  1.616949e+00    1.187780e+00   1.536328e-02
  1.619159e+00    1.165526e+00   1.520039e-02
  1.621370e+00    1.189004e+00   1.533449e-02
  1.623580e+00    1.174765e+00   1.522438e-02
  1.625791e+00    1.183084e+00   1.526010e-02
  1.628001e+00    1.154123e+00   1.505430e-02
  1.630212e+00    1.136812e+00   1.492363e-02
  1.632422e+00    1.152665e+00   1.500967e-02
  1.634632e+00    1.168940e+00   1.509807e-02
  1.636843e+00    1.148174e+00   1.494604e-02
  1.639053e+00    1.128123e+00   1.479800e-02
  1.641264e+00    1.141243e+00   1.486693e-02
  1.643474e+00    1.127931e+00   1.476283e-02
  1.645685e+00    1.128959e+00   1.475311e-02
  1.647895e+00    1.131076e+00   1.475051e-02
  1.650106e+00    1.109286e+00   1.459106e-02
  1.652316e+00    1.116644e+00   1.462309e-02
  1.654527e+00    1.105269e+00   1.453204e-02
  1.656737e+00    1.099438e+00   1.447737e-02
  1.658947e+00    1.095855e+00   1.443774e-02
  1.661158e+00    1.103863e+00   1.447429e-02
  1.663368e+00    1.087924e+00   1.435365e-02
  1.665579e+00    1.069474e+00   1.421563e-02
  1.667789e+00    1.070739e+00   1.420812e-02
  1.670000e+00    1.075845e+00   1.422673e-02
  1.672210e+00    1.094108e+00   1.433121e-02
  1.674421e+00    1.071616e+00   1.416805e-02
  1.676631e+00    1.065989e+00   1.411519e-02
  1.678842e+00    1.075620e+00   1.416320e-02
  1.681052e+00    1.065511e+00   1.408129e-02
  1.683263e+00    1.060196e+00   1.403122e-02
  1.685473e+00    1.043834e+00   1.390766e-02
  1.687683e+00    1.054389e+00   1.396256e-02
  1.689894e+00    1.068113e+00   1.403748e-02
  1.692104e+00    1.040494e+00   1.384015e-02
  1.694315e+00    1.020465e+00   1.369213e-02
  1.696525e+00    1.040137e+00   1.380852e-02
  1.698736e+00    1.054096e+00   1.388614e-02
  1.700946e+00    1.030122e+00   1.371239e-02
  1.703157e+00    1.034099e+00   1.372437e-02
  1.705367e+00    1.008710e+00   1.354065e-02
  1.707578e+00    9.994294e-01   1.346399e-02
  1.709788e+00    1.019854e+00   1.358691e-02
  1.711998e+00    1.012703e+00   1.352443e-02
  1.714209e+00    1.002030e+00   1.343877e-02
  1.716419e+00    1.018272e+00   1.353309e-02
  1.718630e+00    1.020614e+00   1.353447e-02
  1.720840e+00    1.029531e+00   1.357927e-02
  1.723051e+00    1.020365e+00   1.350485e-02
  1.725261e+00    1.023459e+00   1.351062e-02
  1.727472e+00    1.037526e+00   1.358883e-02
  1.729682e+00    1.039675e+00   1.358929e-02
  1.731893e+00    1.008036e+00   1.336704e-02
  1.734103e+00    9.866545e-01   1.321087e-02
  1.736313e+00    9.647816e-01   1.304991e-02
  1.738524e+00    9.654433e-01   1.304078e-02
  1.740734e+00    9.925195e-01   1.320875e-02
  1.742945e+00    1.009832e+00   1.330989e-02
  1.745155e+00    1.007968e+00   1.328406e-02
  1.747366e+00    1.007310e+00   1.326577e-02
  1.749576e+00    1.036224e+00   1.344080e-02
  1.751787e+00    1.030434e+00   1.338956e-02
  1.753997e+00    9.766666e-01   1.302220e-02
  1.756208e+00    9.415326e-01   1.277283e-02
  1.758418e+00    9.285995e-01   1.267198e-02
  1.760628e+00    9.317772e-01   1.268056e-02
  1.762839e+00    9.335740e-01   1.267977e-02
  1.765049e+00    9.254888e-01   1.261189e-02
  1.767260e+00    9.388250e-01   1.268975e-02
  1.769470e+00    9.456226e-01   1.272270e-02
  1.771681e+00    9.174752e-01   1.251903e-02
  1.773891e+00    9.239852e-01   1.255047e-02
  1.776102e+00    9.457142e-01   1.268433e-02
  1.778312e+00    9.329347e-01   1.258570e-02
  1.780523e+00    9.007406e-01   1.235419e-02
  1.782733e+00    8.946745e-01   1.230012e-02
  1.784944e+00    9.013609e-01   1.233335e-02
  1.787154e+00    9.126666e-01   1.239805e-02
  1.789364e+00    9.088395e-01   1.235972e-02
  1.791575e+00    8.822140e-01   1.216508e-02
  1.793785e+00    8.736728e-01   1.209399e-02
  1.795996e+00    8.821885e-01   1.214052e-02
  1.798206e+00    9.031084e-01   1.227122e-02
  1.800417e+00    9.130800e-01   1.232612e-02
  1.802627e+00    8.988589e-01   1.221794e-02
  1.804838e+00    9.052151e-01   1.224898e-02
  1.807048e+00    8.837378e-01   1.209015e-02
  1.809259e+00    8.898183e-01   1.211819e-02
  1.811469e+00    8.932656e-01   1.212678e-02
  1.813679e+00    8.814834e-01   1.203172e-02
  1.815890e+00    8.795357e-01   1.200385e-02
  1.818100e+00    8.646457e-01   1.188695e-02
  1.820311e+00    8.815777e-01   1.198811e-02
  1.822521e+00    8.739702e-01   1.192158e-02
  1.824732e+00    8.540701e-01   1.177055e-02
  1.826942e+00    8.679877e-01   1.185385e-02
  1.829153e+00    8.809130e-01   1.193014e-02
  1.831363e+00    8.780417e-01   1.189868e-02
  1.833574e+00    8.582165e-01   1.175207e-02
  1.835784e+00    8.605768e-01   1.175691e-02
  1.837994e+00    8.508572e-01   1.167878e-02
  1.840205e+00    8.670992e-01   1.177862e-02
  1.842415e+00    8.531364e-01   1.167175e-02
  1.844626e+00    8.418059e-01   1.158264e-02
  1.846836e+00    8.217045e-01   1.143236e-02
  1.849047e+00    8.593678e-01   1.167986e-02
  1.851257e+00    8.601136e-01   1.167540e-02
  1.853468e+00    8.613852e-01   1.167523e-02
  1.855678e+00    8.565826e-01   1.163377e-02
  1.857889e+00    8.692603e-01   1.171098e-02
  1.860099e+00    8.672304e-01   1.168864e-02
  1.862309e+00    8.409299e-01   1.150160e-02
  1.864520e+00    8.328961e-01   1.143806e-02
  1.866730e+00    8.348595e-01   1.144226e-02
  1.868941e+00    8.382780e-01   1.145482e-02
  1.871151e+00    8.282500e-01   1.137486e-02
  1.873362e+00    8.256030e-01   1.134549e-02
  1.875572e+00    8.167718e-01   1.127393e-02
  1.877783e+00    8.162462e-01   1.125909e-02
  1.879993e+00    8.143018e-01   1.123472e-02
  1.882204e+00    8.363672e-01   1.137507e-02
  1.884414e+00    8.312337e-01   1.132913e-02
  1.886624e+00    8.186060e-01   1.123184e-02
  1.888835e+00    8.184624e-01   1.122003e-02
  1.891045e+00    8.101361e-01   1.115213e-02
  1.893256e+00    7.973948e-01   1.105328e-02
  1.895466e+00    8.103743e-01   1.113187e-02
  1.897677e+00    8.115135e-01   1.112893e-02
  1.899887e+00    8.329498e-01   1.126399e-02
  1.902098e+00    8.275949e-01   1.121689e-02
  1.904308e+00    9.013959e-01   1.169532e-02
  1.906519e+00    8.711550e-01   1.148641e-02
  1.908729e+00    8.249575e-01   1.116710e-02
  1.910940e+00    8.059823e-01   1.102693e-02
  1.913150e+00    7.945985e-01   1.093839e-02
  1.915360e+00    8.062516e-01   1.100781e-02
  1.917571e+00    8.094988e-01   1.101916e-02
  1.919781e+00    8.228194e-01   1.109876e-02
  1.921992e+00    7.997906e-01   1.093187e-02
  1.924202e+00    7.988005e-01   1.091445e-02
  1.926413e+00    8.041661e-01   1.094083e-02
  1.928623e+00    7.907842e-01   1.083903e-02
  1.930834e+00    7.856594e-01   1.079359e-02
  1.933044e+00    7.894145e-01   1.080883e-02
  1.935255e+00    7.947012e-01   1.083472e-02
  1.937465e+00    8.351169e-01   1.109625e-02
  1.939675e+00    8.278893e-01   1.103718e-02
  1.941886e+00    7.856219e-01   1.074155e-02
  1.944096e+00    7.930287e-01   1.078195e-02
  1.946307e+00    7.864352e-01   1.072680e-02
  1.948517e+00    7.876983e-01   1.072505e-02
  1.950728e+00    7.887035e-01   1.072170e-02
  1.952938e+00    8.062099e-01   1.082991e-02
  1.955149e+00    7.882560e-01   1.069847e-02
  1.957359e+00    7.756873e-01   1.060289e-02
  1.959570e+00    7.869946e-01   1.066910e-02
  1.961780e+00    7.657557e-01   1.051439e-02
  1.963990e+00    7.817717e-01   1.061373e-02
  1.966201e+00    7.842886e-01   1.062078e-02
  1.968411e+00    7.622420e-01   1.046048e-02
  1.970622e+00    7.646891e-01   1.046729e-02
  1.972832e+00    7.872989e-01   1.061094e-02
  1.975043e+00    7.700840e-01   1.048436e-02
  1.977253e+00    7.744710e-01   1.050429e-02
  1.979464e+00    7.928531e-01   1.061813e-02
  1.981674e+00    7.862036e-01   1.056323e-02
  1.983885e+00    7.827711e-01   1.053012e-02
  1.986095e+00    7.688805e-01   1.042664e-02
  1.988305e+00    7.677144e-01   1.040890e-02
  1.990516e+00    7.622676e-01   1.036210e-02
  1.992726e+00    7.767531e-01   1.045042e-02
  1.994937e+00    7.593871e-01   1.032295e-02
  1.997147e+00    7.537976e-01   1.027528e-02
  1.999358e+00    7.707989e-01   1.038068e-02
  2.001568e+00    7.669240e-01   1.034381e-02
  2.003779e+00    7.539693e-01   1.024428e-02
  2.005989e+00    7.634369e-01   1.029645e-02
  2.008200e+00    7.661591e-01   1.030329e-02
  2.010410e+00    7.646140e-01   1.028119e-02
  2.012621e+00    7.781345e-01   1.035991e-02
  2.014831e+00    7.498631e-01   1.015864e-02
  2.017041e+00    7.542982e-01   1.017833e-02
  2.019252e+00    7.344709e-01   1.003392e-02
  2.021462e+00    7.389952e-01   1.005541e-02
  2.023673e+00    7.708817e-01   1.026064e-02
  2.025883e+00    7.641559e-01   1.020627e-02
  2.028094e+00    7.595586e-01   1.016589e-02
  2.030304e+00    7.568130e-01   1.013800e-02
  2.032515e+00    7.385273e-01   1.000561e-02
  2.034725e+00    7.562936e-01   1.011580e-02
  2.036936e+00    7.572734e-01   1.011304e-02
  2.039146e+00    7.370153e-01   9.967422e-03
  2.041356e+00    7.330197e-01   9.930854e-03
  2.043567e+00    7.477579e-01   1.002093e-02
  2.045777e+00    7.489038e-01   1.001942e-02
  2.047988e+00    7.505754e-01   1.002124e-02
  2.050198e+00    7.329657e-01   9.894682e-03
  2.052409e+00    7.448997e-01   9.967281e-03
  2.054619e+00    7.344346e-01   9.889736e-03
  2.056830e+00    7.384400e-01   9.909546e-03
  2.059040e+00    7.301064e-01   9.846068e-03
  2.061251e+00    7.380621e-01   9.892374e-03
  2.063461e+00    7.418476e-01   9.910136e-03
  2.065671e+00    7.498663e-01   9.954846e-03
  2.067882e+00    7.431614e-01   9.901280e-03
  2.070092e+00    7.224575e-01   9.753328e-03
  2.072303e+00    7.382109e-01   9.850006e-03
  2.074513e+00    7.263894e-01   9.761628e-03
  2.076724e+00    7.354631e-01   9.812987e-03
  2.078934e+00    7.292381e-01   9.762459e-03
  2.081145e+00    7.286841e-01   9.749763e-03
  2.083355e+00    7.284432e-01   9.739037e-03
  2.085566e+00    7.444931e-01   9.836842e-03
  2.087776e+00    7.267119e-01   9.709226e-03
  2.089986e+00    7.156553e-01   9.626441e-03
  2.092197e+00    7.200035e-01   9.646774e-03
  2.094407e+00    7.081988e-01   9.558337e-03
  2.096618e+00    7.081820e-01   9.549486e-03
  2.098828e+00    6.982730e-01   9.473350e-03
  2.101039e+00    7.214800e-01   9.620575e-03
  2.103249e+00    7.267087e-01   9.646742e-03
  2.105460e+00    7.335902e-01   9.683271e-03
  2.107670e+00    7.070193e-01   9.497698e-03
  2.109881e+00    7.106938e-01   9.513260e-03
  2.112091e+00    7.302217e-01   9.634071e-03
  2.114301e+00    7.222850e-01   9.572810e-03
  2.116512e+00    7.113276e-01   9.491199e-03
  2.118722e+00    7.141112e-01   9.500958e-03
  2.120933e+00    7.124663e-01   9.481220e-03
  2.123143e+00    7.106043e-01   9.459960e-03
  2.125354e+00    6.822573e-01   9.261037e-03
  2.127564e+00    6.962231e-01   9.346732e-03
  2.129775e+00    6.909010e-01   9.302366e-03
  2.131985e+00    6.919876e-01   9.300765e-03
  2.134196e+00    6.872315e-01   9.260319e-03
  2.136406e+00    6.980558e-01   9.324289e-03
  2.138617e+00    7.015443e-01   9.339171e-03
  2.140827e+00    7.093835e-01   9.407270e-03
  2.143037e+00    6.973583e-01   9.372356e-03
  2.145248e+00    6.988032e-01   9.403958e-03
  2.147458e+00    6.841170e-01   9.319525e-03
  2.149669e+00    6.880507e-01   9.358015e-03
  2.151879e+00    6.903821e-01   9.382994e-03
  2.154090e+00    6.807949e-01   9.324833e-03
  2.156300e+00    6.786674e-01   9.316737e-03
  2.158511e+00    6.839341e-01   9.358074e-03
  2.160721e+00    6.803852e-01   9.338507e-03
  2.162932e+00    6.836628e-01   9.364685e-03
  2.165142e+00    6.827906e-01   9.361688e-03
  2.167352e+00    6.852560e-01   9.381471e-03
  2.169563e+00    6.890956e-01   9.409667e-03
  2.171773e+00    6.687035e-01   9.271797e-03
  2.173984e+00    6.818045e-01   9.363573e-03
  2.176194e+00    6.713020e-01   9.292359e-03
  2.178405e+00    6.850165e-01   9.387482e-03
  2.180615e+00    6.904795e-01   9.425535e-03
  2.182826e+00    6.877244e-01   9.407395e-03
  2.185036e+00    6.763532e-01   9.329338e-03
  2.187247e+00    6.799563e-01   9.354112e-03
  2.189457e+00    6.819019e-01   9.367060e-03
  2.191667e+00    6.846609e-01   9.385842e-03
  2.193878e+00    6.656782e-01   9.254244e-03
  2.196088e+00    6.633641e-01   9.237470e-03
  2.198299e+00    6.754121e-01   9.319896e-03
  2.200509e+00    6.734367e-01   9.305206e-03
  2.202720e+00    6.637933e-01   9.237217e-03
  2.204930e+00    6.705205e-01   9.282660e-03
  2.207141e+00    6.743609e-01   9.308105e-03
  2.209351e+00    6.760078e-01   9.317589e-03
  2.211562e+00    6.630661e-01   9.226365e-03
  2.213772e+00    6.642742e-01   9.179803e-03
  2.215982e+00    6.669891e-01   9.154617e-03
  2.218193e+00    6.539772e-01   9.035750e-03
  2.220403e+00    6.572066e-01   9.033743e-03
  2.222614e+00    6.592853e-01   9.027317e-03
  2.224824e+00    6.383057e-01   8.863633e-03
  2.227035e+00    6.649415e-01   9.029340e-03
  2.229245e+00    6.684278e-01   9.036064e-03
  2.231456e+00    6.702869e-01   9.033005e-03
  2.233666e+00    6.711582e-01   9.023792e-03
  2.235877e+00    6.612098e-01   8.942490e-03
  2.238087e+00    6.696331e-01   8.985791e-03
  2.240298e+00    6.665926e-01   8.951630e-03
  2.242508e+00    6.608643e-01   8.898049e-03
  2.244718e+00    6.702566e-01   8.945227e-03
  2.246929e+00    6.542033e-01   8.823187e-03
  2.249139e+00    6.590676e-01   8.843632e-03
  2.251350e+00    6.517080e-01   8.782527e-03
  2.253560e+00    6.682449e-01   8.881678e-03
  2.255771e+00    6.645595e-01   8.845774e-03
  2.257981e+00    6.610480e-01   8.811207e-03
  2.260192e+00    6.608739e-01   8.798979e-03
  2.262402e+00    6.678389e-01   8.834331e-03
  2.264613e+00    6.756279e-01   8.874780e-03
  2.266823e+00    6.664986e-01   8.804191e-03
  2.269033e+00    6.638429e-01   8.776238e-03
  2.271244e+00    6.836346e-01   8.895539e-03
  2.273454e+00    6.808828e-01   8.867241e-03
  2.275665e+00    6.688995e-01   8.778495e-03
  2.277875e+00    6.598840e-01   8.709221e-03
  2.280086e+00    6.531491e-01   8.654665e-03
  2.282296e+00    6.587374e-01   8.682213e-03
  2.284507e+00    6.550343e-01   8.647665e-03
  2.286717e+00    6.538304e-01   8.630289e-03
  2.288928e+00    6.468099e-01   8.574033e-03
  2.291138e+00    6.639571e-01   8.677462e-03
  2.293348e+00    6.747553e-01   8.738070e-03
  2.295559e+00    6.441265e-01   8.528229e-03
  2.297769e+00    6.406701e-01   8.496148e-03
  2.299980e+00    6.476076e-01   8.532728e-03
  2.302190e+00    6.598044e-01   8.603540e-03
  2.304401e+00    6.422721e-01   8.479224e-03
  2.306611e+00    6.398444e-01   8.454058e-03
  2.308822e+00    6.433612e-01   8.468918e-03
  2.311032e+00    6.460841e-01   8.480415e-03
  2.313243e+00    6.413077e-01   8.442754e-03
  2.315453e+00    6.400374e-01   8.426895e-03
  2.317663e+00    6.263309e-01   8.327181e-03
  2.319874e+00    6.497985e-01   8.472984e-03
  2.322084e+00    6.502363e-01   8.466866e-03
  2.324295e+00    6.452496e-01   8.426122e-03
  2.326505e+00    6.190342e-01   8.244291e-03
  2.328716e+00    6.298198e-01   8.307342e-03
  2.330926e+00    6.301973e-01   8.301124e-03
  2.333137e+00    6.450343e-01   8.389872e-03
  2.335347e+00    6.352913e-01   8.317462e-03
  2.337558e+00    6.183443e-01   8.197673e-03
  2.339768e+00    6.187160e-01   8.191699e-03
  2.341979e+00    6.400384e-01   8.323288e-03
  2.344189e+00    6.166945e-01   8.161851e-03
  2.346399e+00    6.254727e-01   8.211282e-03
  2.348610e+00    6.317964e-01   8.244279e-03
  2.350820e+00    6.324255e-01   8.240203e-03
  2.353031e+00    6.329856e-01   8.235591e-03
  2.355241e+00    6.186196e-01   8.133622e-03
  2.357452e+00    6.335374e-01   8.222681e-03
  2.359662e+00    6.225403e-01   8.142854e-03
  2.361873e+00    6.289597e-01   8.176485e-03
  2.364083e+00    6.252165e-01   8.144176e-03
  2.366294e+00    6.175248e-01   8.085876e-03
  2.368504e+00    6.192585e-01   8.089177e-03
  2.370714e+00    6.214987e-01   8.095783e-03
  2.372925e+00    6.142617e-01   8.040513e-03
  2.375135e+00    6.278619e-01   8.120966e-03
  2.377346e+00    6.210929e-01   8.069140e-03
  2.379556e+00    6.278145e-01   8.104754e-03
  2.381767e+00    6.247453e-01   8.077043e-03
  2.383977e+00    6.161693e-01   8.013513e-03
  2.386188e+00    6.105551e-01   7.969048e-03
  2.388398e+00    6.111994e-01   7.965350e-03
  2.390609e+00    6.033821e-01   7.906617e-03
  2.392819e+00    6.015766e-01   7.887086e-03
  2.395029e+00    6.045040e-01   7.898665e-03
  2.397240e+00    5.995182e-01   7.858262e-03
  2.399450e+00    6.058345e-01   7.891767e-03
  2.401661e+00    6.038099e-01   7.870967e-03
  2.403871e+00    5.951744e-01   7.806812e-03
  2.406082e+00    5.952656e-01   7.800067e-03
  2.408292e+00    5.878285e-01   7.743536e-03
  2.410503e+00    5.930220e-01   7.770272e-03
  2.412713e+00    5.987880e-01   7.800211e-03
  2.414924e+00    5.991073e-01   7.794860e-03
  2.417134e+00    5.894520e-01   7.724249e-03
  2.419344e+00    5.911404e-01   7.727969e-03
  2.421555e+00    5.866469e-01   7.691133e-03
  2.423765e+00    5.924658e-01   7.721811e-03
  2.425976e+00    6.007912e-01   7.768076e-03
  2.428186e+00    5.935512e-01   7.713946e-03
  2.430397e+00    5.865039e-01   7.660601e-03
  2.432607e+00    5.792301e-01   7.605771e-03
  2.434818e+00    5.803182e-01   7.605458e-03
  2.437028e+00    5.997922e-01   7.724826e-03
  2.439239e+00    6.053613e-01   7.752894e-03
  2.441449e+00    5.944940e-01   7.675776e-03
  2.443659e+00    5.780210e-01   7.561415e-03
  2.445870e+00    5.610033e-01   7.461227e-03
  2.448080e+00    5.592253e-01   7.483465e-03
  2.450291e+00    5.689876e-01   7.564997e-03
  2.452501e+00    5.654944e-01   7.552804e-03
  2.454712e+00    5.479097e-01   7.442679e-03
  2.456922e+00    5.532696e-01   7.485513e-03
  2.459133e+00    5.539941e-01   7.495777e-03
  2.461343e+00    5.483414e-01   7.461723e-03
  2.463554e+00    5.431932e-01   7.430011e-03
  2.465764e+00    5.581641e-01   7.534827e-03
  2.467975e+00    5.463530e-01   7.456954e-03
  2.470185e+00    5.465141e-01   7.460259e-03
  2.472395e+00    5.419328e-01   7.430147e-03
  2.474606e+00    5.428334e-01   7.437856e-03
  2.476816e+00    5.436244e-01   7.444010e-03
  2.479027e+00    5.300427e-01   7.351272e-03
  2.481237e+00    5.401471e-01   7.421260e-03
  2.483448e+00    5.274299e-01   7.333704e-03
  2.485658e+00    5.247334e-01   7.314769e-03
  2.487869e+00    5.460426e-01   7.461862e-03
  2.490079e+00    5.309106e-01   7.357242e-03
  2.492290e+00    5.429577e-01   7.439788e-03
  2.494500e+00    5.541088e-01   7.515068e-03
  2.496710e+00    5.670369e-01   7.601508e-03
  2.498921e+00    5.448249e-01   7.450162e-03
  2.501131e+00    5.372064e-01   7.396915e-03
  2.503342e+00    5.238143e-01   7.302900e-03
  2.505552e+00    5.134936e-01   7.229464e-03
  2.507763e+00    5.135716e-01   7.228645e-03
  2.509973e+00    5.087589e-01   7.193289e-03
  2.512184e+00    5.287249e-01   7.331485e-03
  2.514394e+00    5.118726e-01   7.204473e-03
  2.516605e+00    5.216144e-01   7.225853e-03
  2.518815e+00    5.188622e-01   7.178651e-03
  2.521025e+00    5.136977e-01   7.122097e-03
  2.523236e+00    5.105531e-01   7.082544e-03
  2.525446e+00    5.142871e-01   7.092946e-03
  2.527657e+00    5.142733e-01   7.078425e-03
  2.529867e+00    5.159488e-01   7.075870e-03
  2.532078e+00    5.171478e-01   7.069165e-03
  2.534288e+00    5.166532e-01   7.052013e-03
  2.536499e+00    5.144797e-01   7.025337e-03
  2.538709e+00    5.181220e-01   7.039236e-03
  2.540920e+00    5.127103e-01   6.991846e-03
  2.543130e+00    5.072804e-01   6.944530e-03
  2.545340e+00    5.091022e-01   6.947063e-03
  2.547551e+00    5.082598e-01   6.931514e-03
  2.549761e+00    5.117863e-01   6.946026e-03
  2.551972e+00    5.187160e-01   6.983574e-03
  2.554182e+00    5.177303e-01   6.967788e-03
  2.556393e+00    5.173389e-01   6.956098e-03
  2.558603e+00    5.187294e-01   6.956370e-03
  2.560814e+00    5.291474e-01   7.017105e-03
  2.563024e+00    5.054004e-01   6.849390e-03
  2.565235e+00    5.061122e-01   6.844808e-03
  2.567445e+00    5.110561e-01   6.868679e-03
  2.569656e+00    4.990764e-01   6.778132e-03
  2.571866e+00    5.195886e-01   6.906640e-03
  2.574076e+00    5.149389e-01   6.866436e-03
  2.576287e+00    5.055008e-01   6.794970e-03
  2.578497e+00    5.172616e-01   6.865696e-03
  2.580708e+00    5.394434e-01   7.003074e-03
  2.582918e+00    5.853195e-01   7.286516e-03
  2.585129e+00    5.788023e-01   7.237651e-03
  2.587339e+00    5.511577e-01   7.054742e-03
  2.589550e+00    5.166579e-01   6.822804e-03
  2.591760e+00    5.038689e-01   6.730122e-03
  2.593971e+00    5.046277e-01   6.727734e-03
  2.596181e+00    5.100394e-01   6.757483e-03
  2.598391e+00    5.094214e-01   6.748222e-03
  2.600602e+00    5.110907e-01   6.753332e-03
  2.602812e+00    5.054544e-01   6.708505e-03
  2.605023e+00    4.986005e-01   6.655747e-03
  2.607233e+00    5.111119e-01   6.731584e-03
  2.609444e+00    4.973537e-01   6.633209e-03
  2.611654e+00    5.068874e-01   6.689164e-03
  2.613865e+00    5.159752e-01   6.741731e-03
  2.616075e+00    5.154334e-01   6.731027e-03
  2.618286e+00    4.979848e-01   6.609152e-03
  2.620496e+00    5.039489e-01   6.641928e-03
  2.622706e+00    5.007256e-01   6.614925e-03
  2.624917e+00    4.996914e-01   6.602287e-03
  2.627127e+00    4.896501e-01   6.529943e-03
  2.629338e+00    4.922109e-01   6.541081e-03
  2.631548e+00    4.920706e-01   6.534063e-03
  2.633759e+00    4.853725e-01   6.482408e-03
  2.635969e+00    4.903264e-01   6.508785e-03
  2.638180e+00    5.026745e-01   6.583251e-03
  2.640390e+00    5.026547e-01   6.576505e-03
  2.642601e+00    4.839493e-01   6.446435e-03
  2.644811e+00    4.873826e-01   6.462268e-03
  2.647021e+00    4.907520e-01   6.478061e-03
  2.649232e+00    5.032027e-01   6.552986e-03
  2.651442e+00    4.897937e-01   6.458651e-03
  2.653653e+00    4.998441e-01   6.517761e-03
  2.655863e+00    4.984032e-01   6.501703e-03
  2.658074e+00    4.814990e-01   6.383983e-03
  2.660284e+00    4.862421e-01   6.409057e-03
  2.662495e+00    4.777988e-01   6.346557e-03
  2.664705e+00    4.916059e-01   6.431063e-03
  2.666916e+00    4.915870e-01   6.424509e-03
  2.669126e+00    4.871926e-01   6.389339e-03
  2.671337e+00    4.874355e-01   6.384392e-03
  2.673547e+00    4.823926e-01   6.344993e-03
  2.675757e+00    4.805523e-01   6.326515e-03
  2.677968e+00    4.935737e-01   6.405140e-03
  2.680178e+00    4.943618e-01   6.403847e-03
  2.682389e+00    4.855808e-01   6.340378e-03
  2.684599e+00    4.866284e-01   6.341056e-03
  2.686810e+00    4.883006e-01   6.345371e-03
  2.689020e+00    4.841123e-01   6.311857e-03
  2.691231e+00    4.815876e-01   6.289141e-03
  2.693441e+00    4.821928e-01   6.286999e-03
  2.695652e+00    4.849604e-01   6.298543e-03
  2.697862e+00    4.840971e-01   6.286626e-03
  2.700072e+00    4.747450e-01   6.219618e-03
  2.702283e+00    4.766462e-01   6.225919e-03
  2.704493e+00    4.749704e-01   6.208772e-03
  2.706704e+00    4.777098e-01   6.220300e-03
  2.708914e+00    5.006942e-01   6.362162e-03
  2.711125e+00    4.758273e-01   6.195995e-03
  2.713335e+00    4.853140e-01   6.251369e-03
  2.715546e+00    4.740232e-01   6.171859e-03
  2.717756e+00    4.781204e-01   6.192611e-03
  2.719967e+00    4.898373e-01   6.261828e-03
  2.722177e+00    4.779154e-01   6.179064e-03
  2.724387e+00    4.813279e-01   6.195009e-03
  2.726598e+00    4.667131e-01   6.094296e-03
  2.728808e+00    4.660814e-01   6.084135e-03
  2.731019e+00    4.857454e-01   6.205017e-03
  2.733229e+00    4.809123e-01   6.168301e-03
  2.735440e+00    4.678614e-01   6.077874e-03
  2.737650e+00    4.693707e-01   6.081721e-03
  2.739861e+00    4.631877e-01   6.035591e-03
  2.742071e+00    4.854699e-01   6.173301e-03
  2.744282e+00    4.854731e-01   6.167071e-03
  2.746492e+00    4.772323e-01   6.108494e-03
  2.748702e+00    4.712249e-01   6.064092e-03
  2.750913e+00    4.706637e-01   6.054753e-03
  2.753123e+00    4.748593e-01   6.075596e-03
  2.755334e+00    4.689190e-01   6.031482e-03
  2.757544e+00    4.755124e-01   6.068019e-03
  2.759755e+00    4.803873e-01   6.093172e-03
  2.761965e+00    4.837130e-01   6.108220e-03
  2.764176e+00    4.762751e-01   6.055123e-03
  2.766386e+00    4.649017e-01   5.976676e-03
  2.768597e+00    4.682895e-01   5.992630e-03
  2.770807e+00    4.687408e-01   5.989688e-03
  2.773017e+00    4.772741e-01   6.038011e-03
  2.775228e+00    4.776002e-01   6.034295e-03
  2.777438e+00    4.839380e-01   6.068371e-03
  2.779649e+00    4.730027e-01   5.993556e-03
  2.781859e+00    4.767790e-01   6.011663e-03
  2.784070e+00    4.696220e-01   5.960568e-03
  2.786280e+00    4.775636e-01   6.004974e-03
  2.788491e+00    4.787193e-01   6.006399e-03
  2.790701e+00    4.770153e-01   5.990048e-03
  2.792912e+00    4.788027e-01   5.995282e-03
  2.795122e+00    4.678609e-01   5.920705e-03
  2.797333e+00    4.665955e-01   5.907167e-03
  2.799543e+00    4.673297e-01   5.906022e-03
  2.801753e+00    4.582084e-01   5.842349e-03
  2.803964e+00    4.623827e-01   5.863295e-03
  2.806174e+00    4.752150e-01   5.937969e-03
  2.808385e+00    4.759487e-01   5.935745e-03
  2.810595e+00    4.739434e-01   5.916367e-03
  2.812806e+00    4.675753e-01   5.869931e-03
  2.815016e+00    4.615325e-01   5.827180e-03
  2.817227e+00    4.704767e-01   5.909212e-03
  2.819437e+00    4.832370e-01   5.999999e-03
  2.821648e+00    4.845214e-01   6.010283e-03
  2.823858e+00    4.700605e-01   5.925240e-03
  2.826068e+00    4.775504e-01   5.977262e-03
  2.828279e+00    4.669728e-01   5.914710e-03
  2.830489e+00    4.596926e-01   5.871711e-03
  2.832700e+00    4.684531e-01   5.929945e-03
  2.834910e+00    4.597016e-01   5.876340e-03
  2.837121e+00    4.697524e-01   5.941912e-03
  2.839331e+00    4.790605e-01   6.001760e-03
  2.841542e+00    4.660145e-01   5.920484e-03
  2.843752e+00    4.617328e-01   5.893992e-03
  2.845963e+00    4.614777e-01   5.892757e-03
  2.848173e+00    4.621644e-01   5.897224e-03
  2.850383e+00    4.724180e-01   5.962583e-03
  2.852594e+00    4.642452e-01   5.910698e-03
  2.854804e+00    4.699004e-01   5.946081e-03
  2.857015e+00    4.772188e-01   5.991780e-03
  2.859225e+00    4.667734e-01   5.925590e-03
  2.861436e+00    4.494226e-01   5.813778e-03
  2.863646e+00    4.642933e-01   5.909200e-03
  2.865857e+00    4.571314e-01   5.863802e-03
  2.868067e+00    4.560955e-01   5.857361e-03
  2.870278e+00    4.489453e-01   5.810930e-03
  2.872488e+00    4.613240e-01   5.889321e-03
  2.874698e+00    4.533279e-01   5.837053e-03
  2.876909e+00    4.620754e-01   5.891747e-03
  2.879119e+00    4.655166e-01   5.912032e-03
  2.881330e+00    4.601180e-01   5.876182e-03
  2.883540e+00    4.456842e-01   5.781927e-03
  2.885751e+00    4.518875e-01   5.820386e-03
  2.887961e+00    4.506827e-01   5.810765e-03
  2.890172e+00    4.636400e-01   5.892091e-03
  2.892382e+00    4.535462e-01   5.825820e-03
  2.894593e+00    4.514135e-01   5.810307e-03
  2.896803e+00    4.533502e-01   5.820787e-03
  2.899014e+00    4.585911e-01   5.852436e-03
  2.901224e+00    4.501699e-01   5.796475e-03
  2.903434e+00    4.553018e-01   5.827488e-03
  2.905645e+00    4.526424e-01   5.808246e-03
  2.907855e+00    4.506890e-01   5.793609e-03
  2.910066e+00    4.575487e-01   5.835450e-03
  2.912276e+00    4.595000e-01   5.845784e-03
  2.914487e+00    4.505263e-01   5.785968e-03
  2.916697e+00    4.547025e-01   5.810512e-03
  2.918908e+00    4.583641e-01   5.831852e-03
  2.921118e+00    4.511369e-01   5.783035e-03
  2.923329e+00    4.505096e-01   5.776701e-03
  2.925539e+00    4.515029e-01   5.780798e-03
  2.927749e+00    4.563722e-01   5.809581e-03
  2.929960e+00    4.408976e-01   5.707522e-03
  2.932170e+00    4.299698e-01   5.634075e-03
  2.934381e+00    4.512326e-01   5.769273e-03
  2.936591e+00    4.428996e-01   5.713228e-03
  2.938802e+00    4.439531e-01   5.717324e-03
  2.941012e+00    4.495750e-01   5.751104e-03
  2.943223e+00    4.498403e-01   5.750124e-03
  2.945433e+00    4.452276e-01   5.716865e-03
  2.947644e+00    4.674343e-01   5.853511e-03
  2.949854e+00    4.438964e-01   5.700042e-03
  2.952064e+00    4.437709e-01   5.695038e-03
  2.954275e+00    4.381874e-01   5.654782e-03
  2.956485e+00    4.526403e-01   5.743084e-03
  2.958696e+00    4.585849e-01   5.776304e-03
  2.960906e+00    4.608180e-01   5.786133e-03
  2.963117e+00    4.616427e-01   5.786792e-03
  2.965327e+00    4.521279e-01   5.722968e-03
  2.967538e+00    4.557061e-01   5.742635e-03
  2.969748e+00    4.510767e-01   5.710593e-03
  2.971959e+00    4.613608e-01   5.772153e-03
  2.974169e+00    4.576508e-01   5.746327e-03
  2.976379e+00    4.467099e-01   5.674318e-03
  2.978590e+00    4.472538e-01   5.674654e-03
  2.980800e+00    4.424116e-01   5.641097e-03
  2.983011e+00    4.426271e-01   5.639700e-03
  2.985221e+00    4.541638e-01   5.709571e-03
  2.987432e+00    4.478516e-01   5.666687e-03
  2.989642e+00    4.512245e-01   5.685351e-03
  2.991853e+00    4.507430e-01   5.679045e-03
  2.994063e+00    4.420343e-01   5.621055e-03
  2.996274e+00    4.533865e-01   5.689595e-03
  2.998484e+00    4.421627e-01   5.616066e-03
  3.000694e+00    4.401562e-01   5.599904e-03
  3.002905e+00    4.391654e-01   5.590700e-03
  3.005115e+00    4.366765e-01   5.571927e-03
  3.007326e+00    4.499378e-01   5.652738e-03
  3.009536e+00    4.462653e-01   5.626396e-03
  3.011747e+00    4.433275e-01   5.604977e-03
  3.013957e+00    4.504727e-01   5.646773e-03
  3.016168e+00    4.479794e-01   5.627900e-03
  3.018378e+00    4.516752e-01   5.648019e-03
  3.020589e+00    4.545399e-01   5.662690e-03
  3.022799e+00    4.483293e-01   5.620730e-03
  3.025010e+00    4.392162e-01   5.560111e-03
  3.027220e+00    4.459502e-01   5.599482e-03
  3.029430e+00    4.497172e-01   5.619842e-03
  3.031641e+00    4.599795e-01   5.680449e-03
  3.033851e+00    4.498507e-01   5.614046e-03
  3.036062e+00    4.531561e-01   5.631840e-03
  3.038272e+00    4.448853e-01   5.576676e-03
  3.040483e+00    4.511102e-01   5.612312e-03
  3.042693e+00    4.406959e-01   5.543959e-03
  3.044904e+00    4.430107e-01   5.554472e-03
  3.047114e+00    4.380630e-01   5.518659e-03
  3.049325e+00    4.500293e-01   5.589112e-03
  3.051535e+00    4.500742e-01   5.585015e-03
  3.053745e+00    4.464938e-01   5.558039e-03
  3.055956e+00    4.502379e-01   5.576699e-03
  3.058166e+00    4.590666e-01   5.626829e-03
  3.060377e+00    4.333420e-01   5.462222e-03
  3.062587e+00    4.463365e-01   5.538886e-03
  3.064798e+00    4.419801e-01   5.507578e-03
  3.067008e+00    4.307284e-01   5.432408e-03
  3.069219e+00    4.411345e-01   5.493146e-03
  3.071429e+00    4.482032e-01   5.533491e-03
  3.073640e+00    4.352238e-01   5.449503e-03
  3.075850e+00    4.448453e-01   5.505832e-03
  3.078060e+00    4.599937e-01   5.595650e-03
  3.080271e+00    4.609284e-01   5.597828e-03
  3.082481e+00    4.583167e-01   5.578451e-03
  3.084692e+00    4.482956e-01   5.513759e-03
  3.086902e+00    4.401230e-01   5.460064e-03
  3.089113e+00    4.392071e-01   5.450820e-03
  3.091323e+00    4.507496e-01   5.518599e-03
  3.093534e+00    4.480602e-01   5.498747e-03
  3.095744e+00    4.504106e-01   5.509759e-03
  3.097955e+00    4.449843e-01   5.472929e-03
  3.100165e+00    4.532867e-01   5.520403e-03
  3.102375e+00    4.403895e-01   5.437908e-03
  3.104586e+00    4.327942e-01   5.387373e-03
  3.106796e+00    4.452036e-01   5.460539e-03
  3.109007e+00    4.323901e-01   5.378224e-03
  3.111217e+00    4.306009e-01   5.363447e-03
  3.113428e+00    4.447044e-01   5.447169e-03
  3.115638e+00    4.549393e-01   5.506238e-03
  3.117849e+00    4.447727e-01   5.440639e-03
  3.120059e+00    4.349005e-01   5.376496e-03
  3.122270e+00    4.445035e-01   5.432258e-03
  3.124480e+00    4.530708e-01   5.480656e-03
  3.126691e+00    4.382532e-01   5.386761e-03
  3.128901e+00    4.273002e-01   5.315946e-03
  3.131111e+00    4.408933e-01   5.396008e-03
  3.133322e+00    4.433405e-01   5.407530e-03
  3.135532e+00    4.510448e-01   5.450881e-03
  3.137743e+00    4.485574e-01   5.432339e-03
  3.139953e+00    4.451715e-01   5.408114e-03
  3.142164e+00    4.241694e-01   5.290752e-03
  3.144374e+00    4.313382e-01   5.363313e-03
  3.146585e+00    4.464542e-01   5.471123e-03
  3.148795e+00    4.313436e-01   5.388381e-03
  3.151006e+00    4.401688e-01   5.451740e-03
  3.153216e+00    4.508379e-01   5.524626e-03
  3.155426e+00    4.405404e-01   5.467498e-03
  3.157637e+00    4.325312e-01   5.423015e-03
  3.159847e+00    4.471397e-01   5.518760e-03
  3.162058e+00    4.452344e-01   5.511452e-03
  3.164268e+00    4.328245e-01   5.438122e-03
  3.166479e+00    4.336606e-01   5.446989e-03
  3.168689e+00    4.270217e-01   5.408464e-03
  3.170900e+00    4.369334e-01   5.474025e-03
  3.173110e+00    4.282855e-01   5.422441e-03
  3.175321e+00    4.200051e-01   5.372197e-03
  3.177531e+00    4.174616e-01   5.358574e-03
  3.179741e+00    4.196773e-01   5.374817e-03
  3.181952e+00    4.278690e-01   5.429069e-03
  3.184162e+00    4.361352e-01   5.483495e-03
  3.186373e+00    4.309651e-01   5.452465e-03
  3.188583e+00    4.257568e-01   5.421191e-03
  3.190794e+00    4.285403e-01   5.440609e-03
  3.193004e+00    4.218599e-01   5.399270e-03
  3.195215e+00    4.177493e-01   5.374364e-03
  3.197425e+00    4.256932e-01   5.426426e-03
  3.199636e+00    4.185956e-01   5.380244e-03
  3.201846e+00    4.156190e-01   5.360484e-03
  3.204056e+00    4.186411e-01   5.380801e-03
  3.206267e+00    4.383696e-01   5.506998e-03
  3.208477e+00    4.131461e-01   5.347115e-03
  3.210688e+00    4.230671e-01   5.411758e-03
  3.212898e+00    4.218694e-01   5.404663e-03
  3.215109e+00    4.300169e-01   5.457376e-03
  3.217319e+00    4.094997e-01   5.326189e-03
  3.219530e+00    4.235090e-01   5.416911e-03
  3.221740e+00    4.359598e-01   5.496530e-03
  3.223951e+00    4.427549e-01   5.539690e-03
  3.226161e+00    4.405365e-01   5.525978e-03
  3.228372e+00    4.149685e-01   5.363770e-03
  3.230582e+00    4.140827e-01   5.358145e-03
  3.232792e+00    4.253868e-01   5.431014e-03
  3.235003e+00    4.358936e-01   5.497930e-03
  3.237213e+00    4.375337e-01   5.508364e-03
  3.239424e+00    4.340420e-01   5.486337e-03
  3.241634e+00    4.244517e-01   5.425524e-03
  3.243845e+00    4.340991e-01   5.486899e-03
  3.246055e+00    4.347845e-01   5.490955e-03
  3.248266e+00    4.366228e-01   5.502761e-03
  3.250476e+00    4.257995e-01   5.433817e-03
  3.252687e+00    4.213538e-01   5.405310e-03
  3.254897e+00    4.178160e-01   5.382430e-03
  3.257107e+00    4.233600e-01   5.417738e-03
  3.259318e+00    4.153709e-01   5.366125e-03
  3.261528e+00    4.172777e-01   5.378295e-03
  3.263739e+00    4.105930e-01   5.334498e-03
  3.265949e+00    4.175532e-01   5.379390e-03
  3.268160e+00    4.189900e-01   5.388239e-03
  3.270370e+00    4.119645e-01   5.342362e-03
  3.272581e+00    4.293587e-01   5.453687e-03
  3.274791e+00    4.293093e-01   5.452875e-03
  3.277002e+00    4.180553e-01   5.380359e-03
  3.279212e+00    4.118989e-01   5.340224e-03
  3.281422e+00    4.102337e-01   5.328832e-03
  3.283633e+00    4.182488e-01   5.379976e-03
  3.285843e+00    4.122913e-01   5.341194e-03
  3.288054e+00    4.178002e-01   5.375811e-03
  3.290264e+00    4.262659e-01   5.429714e-03
  3.292475e+00    4.151698e-01   5.357730e-03
  3.294685e+00    4.122627e-01   5.338328e-03
  3.296896e+00    4.255784e-01   5.423085e-03
  3.299106e+00    4.236722e-01   5.410375e-03
  3.301317e+00    4.329472e-01   5.468227e-03
  3.303527e+00    4.267397e-01   5.428444e-03
  3.305737e+00    4.161100e-01   5.359343e-03
  3.307948e+00    4.136507e-01   5.342842e-03
  3.310158e+00    4.141858e-01   5.345439e-03
  3.312369e+00    4.297964e-01   5.444359e-03
  3.314579e+00    4.212024e-01   5.388744e-03
  3.316790e+00    4.200084e-01   5.380395e-03
  3.319000e+00    4.230500e-01   5.398652e-03
  3.321211e+00    4.201516e-01   5.379530e-03
  3.323421e+00    4.197163e-01   5.375535e-03
  3.325632e+00    4.010754e-01   5.253958e-03
  3.327842e+00    4.171925e-01   5.357540e-03
  3.330052e+00    4.219568e-01   5.387004e-03
  3.332263e+00    4.266647e-01   5.415927e-03
  3.334473e+00    4.227988e-01   5.390451e-03
  3.336684e+00    4.177464e-01   5.356870e-03
  3.338894e+00    4.285681e-01   5.424968e-03
  3.341105e+00    4.176431e-01   5.354158e-03
  3.343315e+00    4.342014e-01   5.458116e-03
  3.345526e+00    4.159322e-01   5.341171e-03
  3.347736e+00    4.189874e-01   5.359332e-03
  3.349947e+00    4.153030e-01   5.334794e-03
  3.352157e+00    4.228421e-01   5.381819e-03
  3.354368e+00    4.067576e-01   5.277207e-03
  3.356578e+00    4.090500e-01   5.291004e-03
  3.358788e+00    4.023781e-01   5.246436e-03
  3.360999e+00    4.069351e-01   5.274781e-03
  3.363209e+00    4.199089e-01   5.357213e-03
  3.365420e+00    4.020397e-01   5.240506e-03
  3.367630e+00    3.889353e-01   5.153397e-03
  3.369841e+00    4.107524e-01   5.294527e-03
  3.372051e+00    4.036713e-01   5.246789e-03
  3.374262e+00    4.047056e-01   5.251070e-03
  3.376472e+00    4.065996e-01   5.260944e-03
  3.378683e+00    3.934267e-01   5.172580e-03
  3.380893e+00    4.212852e-01   5.350220e-03
  3.383103e+00    4.115758e-01   5.285517e-03
  3.385314e+00    4.166303e-01   5.315660e-03
  3.387524e+00    4.070804e-01   5.251660e-03
  3.389735e+00    4.204386e-01   5.334486e-03
  3.391945e+00    4.139574e-01   5.289543e-03
  3.394156e+00    4.150072e-01   5.291994e-03
  3.396366e+00    4.117650e-01   5.267886e-03
  3.398577e+00    4.120325e-01   5.266546e-03
  3.400787e+00    4.062581e-01   5.241368e-03
  3.402998e+00    3.934169e-01   5.195139e-03
  3.405208e+00    4.007248e-01   5.263698e-03
  3.407418e+00    4.068837e-01   5.319921e-03
  3.409629e+00    3.809372e-01   5.161106e-03
  3.411839e+00    3.933614e-01   5.256257e-03
  3.414050e+00    4.009712e-01   5.317921e-03
  3.416260e+00    3.878032e-01   5.239435e-03
  3.418471e+00    3.714889e-01   5.137203e-03
  3.420681e+00    3.812748e-01   5.212786e-03
  3.422892e+00    3.790272e-01   5.205263e-03
  3.425102e+00    3.816491e-01   5.230978e-03
  3.427313e+00    3.751105e-01   5.193051e-03
  3.429523e+00    3.748295e-01   5.198053e-03
  3.431733e+00    3.749884e-01   5.205708e-03
  3.433944e+00    3.776667e-01   5.230709e-03
  3.436154e+00    3.728260e-01   5.203230e-03
  3.438365e+00    3.766791e-01   5.235923e-03
  3.440575e+00    3.794779e-01   5.261302e-03
  3.442786e+00    3.621313e-01   5.145078e-03
  3.444996e+00    3.745722e-01   5.238216e-03
  3.447207e+00    3.616122e-01   5.151998e-03
  3.449417e+00    3.604954e-01   5.184228e-03
  3.451628e+00    3.521598e-01   5.152716e-03
  3.453838e+00    3.529768e-01   5.179415e-03
  3.456049e+00    3.483343e-01   5.168553e-03
  3.458259e+00    3.449562e-01   5.164679e-03
  3.460469e+00    3.767223e-01   5.417299e-03
  3.462680e+00    3.713380e-01   5.397661e-03
  3.464890e+00    3.623023e-01   5.349285e-03
  3.467101e+00    3.550754e-01   5.312854e-03
  3.469311e+00    3.755762e-01   5.480696e-03
  3.471522e+00    3.735315e-01   5.482142e-03
  3.473732e+00    3.909616e-01   5.624792e-03
  3.475943e+00    3.984921e-01   5.694728e-03
  3.478153e+00    4.016838e-01   5.733220e-03
  3.480364e+00    3.958921e-01   5.706904e-03
  3.482574e+00    4.128057e-01   5.843059e-03
  3.484784e+00    4.195327e-01   5.905505e-03
  3.486995e+00    4.256883e-01   5.963968e-03
  3.489205e+00    4.278074e-01   5.993504e-03
  3.491416e+00    4.378706e-01   6.078706e-03
  3.493626e+00    4.540802e-01   6.205101e-03
  3.495837e+00    4.497842e-01   6.190630e-03
  3.498047e+00    4.437816e-01   6.163620e-03
  3.500258e+00    4.482269e-01   6.208935e-03
  3.502468e+00    4.524944e-01   6.252828e-03
  3.504679e+00    4.453418e-01   6.217452e-03
  3.506889e+00    4.632689e-01   6.355772e-03
  3.509099e+00    4.574696e-01   6.329981e-03
  3.511310e+00    4.652496e-01   6.397894e-03
  3.513520e+00    4.716797e-01   6.456207e-03
  3.515731e+00    4.964330e-01   6.637965e-03
  3.517941e+00    5.072405e-01   6.724494e-03
  3.520152e+00    4.907169e-01   6.628280e-03
  3.522362e+00    5.000926e-01   6.705798e-03
  3.524573e+00    4.946890e-01   6.683577e-03
  3.526783e+00    4.896505e-01   6.662531e-03
  3.528994e+00    5.117446e-01   6.823338e-03
  3.531204e+00    5.327412e-01   6.974517e-03
  3.533414e+00    5.392205e-01   7.029068e-03
  3.535625e+00    5.153586e-01   6.883984e-03
  3.537835e+00    5.265368e-01   6.970271e-03
  3.540046e+00    5.288818e-01   6.994679e-03
  3.542256e+00    5.232425e-01   6.964711e-03
  3.544467e+00    5.423188e-01   7.098209e-03
  3.546677e+00    5.384315e-01   7.080326e-03
  3.548888e+00    5.372850e-01   7.080270e-03
  3.551098e+00    5.427123e-01   7.123304e-03
  3.553309e+00    5.257761e-01   7.019349e-03
  3.555519e+00    5.328771e-01   7.077834e-03
  3.557729e+00    5.350233e-01   7.103819e-03
  3.559940e+00    5.253226e-01   7.050532e-03
  3.562150e+00    5.220981e-01   7.040424e-03
  3.564361e+00    5.319450e-01   7.119772e-03
  3.566571e+00    5.438879e-01   7.213179e-03
  3.568782e+00    5.471099e-01   7.248789e-03
  3.570992e+00    5.343010e-01   7.177171e-03
  3.573203e+00    5.208204e-01   7.099993e-03
  3.575413e+00    5.222208e-01   7.123122e-03
  3.577624e+00    5.283582e-01   7.178863e-03
  3.579834e+00    5.388991e-01   7.264047e-03
  3.582045e+00    5.167720e-01   7.127151e-03
  3.584255e+00    5.287665e-01   7.223321e-03
  3.586465e+00    5.493947e-01   7.376963e-03
  3.588676e+00    5.534475e-01   7.418609e-03
  3.590886e+00    5.261485e-01   7.246889e-03
  3.593097e+00    5.295323e-01   7.284538e-03
  3.595307e+00    5.392114e-01   7.364821e-03
  3.597518e+00    5.201903e-01   7.247739e-03
  3.599728e+00    5.350258e-01   7.364468e-03
  3.601939e+00    5.301915e-01   7.345127e-03
  3.604149e+00    5.230976e-01   7.310022e-03
  3.606360e+00    5.342002e-01   7.401367e-03
  3.608570e+00    5.374644e-01   7.438093e-03
  3.610780e+00    5.410548e-01   7.474052e-03
  3.612991e+00    5.369579e-01   7.455685e-03
  3.615201e+00    5.372685e-01   7.467724e-03
  3.617412e+00    5.341235e-01   7.453062e-03
  3.619622e+00    5.407332e-01   7.505047e-03
  3.621833e+00    5.398449e-01   7.505609e-03
  3.624043e+00    5.255466e-01   7.414988e-03
  3.626254e+00    5.466216e-01   7.572002e-03
  3.628464e+00    5.332986e-01   7.490129e-03
  3.630675e+00    5.342894e-01   7.511216e-03
  3.632885e+00    5.203474e-01   7.426797e-03
  3.635095e+00    5.313339e-01   7.519203e-03
  3.637306e+00    5.237679e-01   7.479681e-03
  3.639516e+00    5.122828e-01   7.411479e-03
  3.641727e+00    5.146407e-01   7.442809e-03
  3.643937e+00    5.231062e-01   7.518194e-03
  3.646148e+00    5.475765e-01   7.706797e-03
  3.648358e+00    5.503830e-01   7.741684e-03
  3.650569e+00    5.280224e-01   7.597435e-03
  3.652779e+00    5.459818e-01   7.740506e-03
  3.654990e+00    5.283067e-01   7.629029e-03
  3.657200e+00    5.269855e-01   7.634282e-03
  3.659410e+00    5.310400e-01   7.678554e-03
  3.661621e+00    5.424097e-01   7.775559e-03
  3.663831e+00    5.358286e-01   7.743459e-03
  3.666042e+00    5.369973e-01   7.767074e-03
  3.668252e+00    5.422309e-01   7.820287e-03
  3.670463e+00    5.333773e-01   7.771428e-03
  3.672673e+00    5.261546e-01   7.733981e-03
  3.674884e+00    5.256907e-01   7.745888e-03
  3.677094e+00    5.347544e-01   7.827954e-03
  3.679305e+00    5.558365e-01   7.996671e-03
  3.681515e+00    5.530636e-01   7.992717e-03
  3.683726e+00    5.371599e-01   7.892819e-03
  3.685936e+00    5.424585e-01   7.947587e-03
  3.688146e+00    5.378395e-01   7.929580e-03
  3.690357e+00    5.465177e-01   8.009559e-03
  3.692567e+00    5.196741e-01   7.826366e-03
  3.694778e+00    5.205787e-01   7.849124e-03
  3.696988e+00    5.333579e-01   7.960969e-03
  3.699199e+00    5.188824e-01   7.868337e-03
  3.701409e+00    5.319268e-01   7.983114e-03
  3.703620e+00    5.252030e-01   7.948821e-03
  3.705830e+00    5.195538e-01   7.922256e-03
  3.708041e+00    5.262966e-01   7.990139e-03
  3.710251e+00    5.160326e-01   7.928456e-03
  3.712461e+00    5.049515e-01   7.859282e-03
  3.714672e+00    5.221033e-01   8.008415e-03
  3.716882e+00    5.076299e-01   7.913106e-03
  3.719093e+00    5.120716e-01   7.964694e-03
  3.721303e+00    4.962181e-01   7.856962e-03
  3.723514e+00    4.970421e-01   7.880379e-03
  3.725724e+00    5.341046e-01   8.186294e-03
  3.727935e+00    5.153487e-01   8.058760e-03
  3.730145e+00    5.151421e-01   8.074387e-03
  3.732356e+00    5.206037e-01   8.134681e-03
  3.734566e+00    5.297809e-01   8.223893e-03
  3.736776e+00    5.021927e-01   8.024433e-03
  3.738987e+00    5.103188e-01   8.106736e-03
  3.741197e+00    5.233412e-01   8.227705e-03
  3.743408e+00    5.034328e-01   8.087612e-03
  3.745618e+00    4.946921e-01   8.035064e-03
  3.747829e+00    4.855701e-01   7.978243e-03
  3.750039e+00    5.071644e-01   8.171977e-03
  3.752250e+00    5.219224e-01   8.308765e-03
  3.754460e+00    4.918250e-01   8.083818e-03
  3.756671e+00    5.122478e-01   8.268819e-03
  3.758881e+00    4.951628e-01   8.148135e-03
  3.761091e+00    5.002868e-01   8.209129e-03
  3.763302e+00    5.219477e-01   8.404341e-03
  3.765512e+00    5.047589e-01   8.283983e-03
  3.767723e+00    5.089191e-01   8.337450e-03
  3.769933e+00    5.201723e-01   8.448716e-03
  3.772144e+00    5.021678e-01   8.320717e-03
  3.774354e+00    4.917405e-01   8.253438e-03
  3.776565e+00    4.849380e-01   8.215589e-03
  3.778775e+00    5.084297e-01   8.432237e-03
  3.780986e+00    5.133350e-01   8.493400e-03
  3.783196e+00    4.829559e-01   8.258026e-03
  3.785407e+00    4.924540e-01   8.359025e-03
  3.787617e+00    4.983804e-01   8.429872e-03
  3.789827e+00    4.757569e-01   8.256281e-03
  3.792038e+00    4.967771e-01   8.457428e-03
  3.794248e+00    4.987824e-01   8.495577e-03
  3.796459e+00    4.881863e-01   8.425934e-03
  3.798669e+00    5.118501e-01   8.649332e-03
  3.800880e+00    5.013188e-01   8.581394e-03
  3.803090e+00    4.947728e-01   8.546860e-03
  3.805301e+00    4.830694e-01   8.466876e-03
  3.807511e+00    4.785556e-01   8.448798e-03
  3.809722e+00    4.775966e-01   8.461984e-03
  3.811932e+00    5.010105e-01   8.689219e-03
  3.814142e+00    4.958085e-01   8.666792e-03
  3.816353e+00    5.039118e-01   8.760272e-03
  3.818563e+00    5.074759e-01   8.814491e-03
  3.820774e+00    5.181073e-01   8.929967e-03
  3.822984e+00    4.900773e-01   8.708259e-03
  3.825195e+00    5.112881e-01   8.918778e-03
  3.827405e+00    4.643071e-01   8.522169e-03
  3.829616e+00    4.848102e-01   8.732051e-03
  3.831826e+00    4.779598e-01   8.693854e-03
  3.834037e+00    4.905505e-01   8.831975e-03
  3.836247e+00    4.812535e-01   8.772106e-03
  3.838457e+00    4.708363e-01   8.701097e-03
  3.840668e+00    4.855689e-01   8.861073e-03
  3.842878e+00    5.199736e-01   9.195687e-03
  3.845089e+00    4.908144e-01   8.959705e-03
  3.847299e+00    5.022053e-01   9.088949e-03
  3.849510e+00    5.042014e-01   9.133098e-03
  3.851720e+00    5.050589e-01   9.162512e-03
  3.853931e+00    4.926617e-01   9.068309e-03
  3.856141e+00    5.018948e-01   9.172031e-03
  3.858352e+00    4.893382e-01   9.075730e-03
  3.860562e+00    4.814771e-01   9.021615e-03
  3.862772e+00    4.818030e-01   9.043970e-03
  3.864983e+00    4.924001e-01   9.162525e-03
  3.867193e+00    4.940286e-01   9.197502e-03
  3.869404e+00    4.701334e-01   8.991665e-03
  3.871614e+00    4.584470e-01   8.898349e-03
  3.873825e+00    5.017831e-01   9.330009e-03
  3.876035e+00    4.608315e-01   8.961087e-03
  3.878246e+00    5.041821e-01   9.399097e-03
  3.880456e+00    4.878748e-01   9.274767e-03
  3.882667e+00    4.702891e-01   9.134779e-03
  3.884877e+00    4.862155e-01   9.317704e-03
  3.887087e+00    4.827496e-01   9.314098e-03
  3.889298e+00    4.741578e-01   9.260654e-03
  3.891508e+00    5.071146e-01   9.608169e-03
  3.893719e+00    4.691753e-01   9.272061e-03
  3.895929e+00    4.684805e-01   9.295905e-03
  3.898140e+00    4.771764e-01   9.413032e-03
  3.900350e+00    4.701453e-01   9.374847e-03
  3.902561e+00    4.875807e-01   9.579435e-03
  3.904771e+00    4.979504e-01   9.713807e-03
  3.906982e+00    5.186543e-01   9.947835e-03
  3.909192e+00    4.857551e-01   9.660585e-03
  3.911403e+00    4.917755e-01   9.754301e-03
  3.913613e+00    4.874189e-01   9.745255e-03
  3.915823e+00    5.006777e-01   9.912103e-03
  3.918034e+00    4.939525e-01   9.880847e-03
  3.920244e+00    4.591042e-01   9.560550e-03
  3.922455e+00    4.996831e-01   1.001053e-02
  3.924665e+00    5.312756e-01   1.036025e-02
  3.926876e+00    5.004795e-01   1.009301e-02
  3.929086e+00    5.057935e-01   1.018456e-02
  3.931297e+00    4.999113e-01   1.016045e-02
  3.933507e+00    4.634034e-01   9.810614e-03
  3.935718e+00    4.557626e-01   9.757170e-03
  3.937928e+00    4.755026e-01   9.995240e-03
  3.940138e+00    4.755068e-01   1.002432e-02
  3.942349e+00    4.966606e-01   1.027508e-02
  3.944559e+00    4.639011e-01   9.959647e-03
  3.946770e+00    4.869564e-01   1.023434e-02
  3.948980e+00    4.973398e-01   1.037387e-02
  3.951191e+00    4.778326e-01   1.019909e-02
  3.953401e+00    4.834243e-01   1.028974e-02
  3.955612e+00    4.713323e-01   1.019146e-02
  3.957822e+00    4.549192e-01   1.004304e-02
  3.960033e+00    4.724031e-01   1.026643e-02
  3.962243e+00    4.872402e-01   1.045924e-02
  3.964453e+00    4.646534e-01   1.024637e-02
  3.966664e+00    4.886217e-01   1.054072e-02
  3.968874e+00    4.840877e-01   1.052016e-02
  3.971085e+00    4.914073e-01   1.062135e-02
  3.973295e+00    4.670468e-01   1.037594e-02
  3.975506e+00    4.783752e-01   1.052238e-02
  3.977716e+00    4.727470e-01   1.048204e-02
  3.979927e+00    4.837056e-01   1.062487e-02
  3.982137e+00    4.899685e-01   1.071588e-02
  3.984348e+00    4.980124e-01   1.082631e-02
  3.986558e+00    4.820343e-01   1.067356e-02
  3.988768e+00    4.710136e-01   1.057338e-02
  3.990979e+00    4.849744e-01   1.075174e-02
  3.993189e+00    4.826615e-01   1.074908e-02
  3.995400e+00    4.843703e-01   1.079159e-02
  3.997610e+00    4.621281e-01   1.057007e-02
  3.999821e+00    4.775544e-01   1.078221e-02
  4.002031e+00    4.897307e-01   1.095745e-02
  4.004242e+00    4.391763e-01   1.041312e-02
  4.006452e+00    4.684907e-01   1.079366e-02
  4.008663e+00    4.966546e-01   1.115393e-02
  4.010873e+00    4.498154e-01   1.065339e-02
  4.013084e+00    4.970033e-01   1.123982e-02
  4.015294e+00    4.596958e-01   1.084963e-02
  4.017504e+00    4.815019e-01   1.114562e-02
  4.019715e+00    5.111106e-01   1.152695e-02
  4.021925e+00    5.030273e-01   1.147924e-02
  4.024136e+00    4.589076e-01   1.100686e-02
  4.026346e+00    4.730104e-01   1.121817e-02
  4.028557e+00    5.144537e-01   1.174517e-02
  4.030767e+00    4.488433e-01   1.101467e-02
  4.032978e+00    4.582848e-01   1.117491e-02
  4.035188e+00    4.648483e-01   1.129995e-02
  4.037399e+00    4.513676e-01   1.118080e-02
  4.039609e+00    4.722849e-01   1.148413e-02
  4.041819e+00    4.601495e-01   1.138325e-02
  4.044030e+00    5.073054e-01   1.200336e-02
  4.046240e+00    4.465765e-01   1.131000e-02
  4.048451e+00    4.655941e-01   1.159834e-02
  4.050661e+00    4.837326e-01   1.187350e-02
  4.052872e+00    4.894449e-01   1.199657e-02
  4.055082e+00    4.803861e-01   1.193853e-02
  4.057293e+00    4.540580e-01   1.165871e-02
  4.059503e+00    4.589223e-01   1.177445e-02
  4.061714e+00    4.705257e-01   1.197801e-02
  4.063924e+00    4.774303e-01   1.212214e-02
  4.066134e+00    4.848094e-01   1.227301e-02
  4.068345e+00    4.329967e-01   1.165459e-02
  4.070555e+00    4.663851e-01   1.215381e-02
  4.072766e+00    4.840478e-01   1.244283e-02
  4.074976e+00    4.877713e-01   1.255285e-02
  4.077187e+00    5.143246e-01   1.295411e-02
  4.079397e+00    4.781428e-01   1.255419e-02
  4.081608e+00    4.712782e-01   1.252817e-02
  4.083818e+00    4.694316e-01   1.256878e-02
  4.086029e+00    4.936853e-01   1.295731e-02
  4.088239e+00    4.930111e-01   1.301828e-02
  4.090449e+00    4.782352e-01   1.289131e-02
  4.092660e+00    4.501247e-01   1.257523e-02
  4.094870e+00    4.599585e-01   1.278282e-02
  4.097081e+00    4.422002e-01   1.260214e-02
  4.099291e+00    4.796717e-01   1.317950e-02
  4.101502e+00    4.775835e-01   1.320005e-02
  4.103712e+00    4.545684e-01   1.292591e-02
  4.105923e+00    4.626325e-01   1.309046e-02
  4.108133e+00    5.000356e-01   1.366189e-02
  4.110344e+00    5.080909e-01   1.382417e-02
  4.112554e+00    4.971368e-01   1.372847e-02
  4.114764e+00    4.847958e-01   1.361137e-02
  4.116975e+00    5.050150e-01   1.394708e-02
  4.119185e+00    4.850882e-01   1.372469e-02
  4.121396e+00    4.634185e-01   1.346999e-02
  4.123606e+00    5.278141e-01   1.443438e-02
  4.125817e+00    5.204535e-01   1.439362e-02
  4.128027e+00    4.582348e-01   1.356267e-02
  4.130238e+00    4.349920e-01   1.327102e-02
  4.132448e+00    4.617288e-01   1.373188e-02
  4.134659e+00    5.279627e-01   1.474710e-02
  4.136869e+00    4.564140e-01   1.377263e-02
  4.139080e+00    4.788619e-01   1.417088e-02
  4.141290e+00    4.659933e-01   1.404105e-02
  4.143500e+00    4.718678e-01   1.419450e-02
  4.145711e+00    4.619930e-01   1.411071e-02
  4.147921e+00    4.594142e-01   1.413589e-02
  4.150132e+00    4.770164e-01   1.447271e-02
  4.152342e+00    5.008532e-01   1.490195e-02
  4.154553e+00    4.482038e-01   1.416394e-02
  4.156763e+00    4.811512e-01   1.474796e-02
  4.158974e+00    4.695506e-01   1.464231e-02
  4.161184e+00    4.908867e-01   1.504560e-02
  4.163395e+00    4.713386e-01   1.481815e-02
  4.165605e+00    4.576060e-01   1.467666e-02
  4.167815e+00    4.454003e-01   1.455529e-02
  4.170026e+00    4.511755e-01   1.472630e-02
  4.172236e+00    4.865172e-01   1.537482e-02
  4.174447e+00    4.738410e-01   1.525600e-02
  4.176657e+00    4.960957e-01   1.569547e-02
  4.178868e+00    4.523862e-01   1.507295e-02
  4.181078e+00    4.372987e-01   1.490262e-02
  4.183289e+00    4.923279e-01   1.590338e-02
  4.185499e+00    4.872074e-01   1.591379e-02
  4.187710e+00    4.812006e-01   1.590797e-02
  4.189920e+00    4.502430e-01   1.548027e-02
  4.192130e+00    4.681942e-01   1.588249e-02
  4.194341e+00    4.800331e-01   1.618045e-02
  4.196551e+00    5.173453e-01   1.690407e-02
  4.198762e+00    5.116942e-01   1.691831e-02
  4.200972e+00    4.557747e-01   1.607033e-02
  4.203183e+00    4.597071e-01   1.624600e-02
  4.205393e+00    4.356122e-01   1.591964e-02
  4.207604e+00    4.859005e-01   1.692827e-02
  4.209814e+00    5.027027e-01   1.733643e-02
  4.212025e+00    4.729439e-01   1.693482e-02
  4.214235e+00    5.106289e-01   1.772108e-02
  4.216445e+00    4.862814e-01   1.741870e-02
  4.218656e+00    4.333860e-01   1.656729e-02
  4.220866e+00    4.572612e-01   1.714359e-02
  4.223077e+00    4.387335e-01   1.692181e-02
  4.225287e+00    4.383553e-01   1.704729e-02
  4.227498e+00    5.611905e-01   1.943977e-02
  4.229708e+00    4.335370e-01   1.722585e-02
  4.231919e+00    4.722972e-01   1.812726e-02
  4.234129e+00    4.813493e-01   1.845451e-02
  4.236340e+00    5.011252e-01   1.899024e-02
  4.238550e+00    4.947799e-01   1.903659e-02
  4.240761e+00    4.289091e-01   1.788067e-02
  4.242971e+00    5.449478e-01   2.033904e-02
  4.245181e+00    5.477778e-01   2.058375e-02
  4.247392e+00    5.340628e-01   2.051442e-02
  4.249602e+00    4.518060e-01   1.905601e-02
  4.251813e+00    4.274764e-01   1.871858e-02
  4.254023e+00    4.283133e-01   1.892516e-02
  4.256234e+00    5.209070e-01   2.109451e-02
  4.258444e+00    3.676397e-01   1.790681e-02
  4.260655e+00    4.220343e-01   1.939647e-02
  4.262865e+00    4.026051e-01   1.915955e-02
  4.265076e+00    4.197178e-01   1.978525e-02
  4.267286e+00    4.433183e-01   2.057493e-02
  4.269496e+00    4.632111e-01   2.128854e-02
  4.271707e+00    4.834870e-01   2.201756e-02
  4.273917e+00    4.095391e-01   2.052635e-02
  4.276128e+00    4.085683e-01   2.077409e-02
  4.278338e+00    4.184996e-01   2.130604e-02
  4.280549e+00    4.168391e-01   2.156870e-02
  4.282759e+00    3.777868e-01   2.082844e-02
  4.284970e+00    4.056884e-01   2.190324e-02
  4.287180e+00    4.598707e-01   2.359960e-02
  4.289391e+00    4.741259e-01   2.414216e-02
  4.291601e+00    4.360918e-01   2.333958e-02
  4.293811e+00    4.171310e-01   2.300388e-02
  4.296022e+00    4.367238e-01   2.372766e-02
  4.298232e+00    4.038087e-01   2.300723e-02
  4.300443e+00    4.204075e-01   2.366890e-02
  4.302653e+00    4.765795e-01   2.541802e-02
  4.304864e+00    5.234016e-01   2.686910e-02
  4.307074e+00    4.606920e-01   2.543433e-02
  4.309285e+00    4.655366e-01   2.579980e-02
  4.311495e+00    4.958064e-01   2.687463e-02
  4.313706e+00    4.151393e-01   2.482268e-02
  4.315916e+00    3.232166e-01   2.211846e-02
  4.318126e+00    3.457787e-01   2.310355e-02
  4.320337e+00    3.845581e-01   2.461032e-02
  4.322547e+00    4.527670e-01   2.698788e-02
  4.324758e+00    4.320408e-01   2.663727e-02
  4.326968e+00    5.141727e-01   2.938583e-02
  4.329179e+00    4.089459e-01   2.649575e-02
  4.331389e+00    5.624297e-01   3.142985e-02
  4.333600e+00    4.950954e-01   2.984271e-02
  4.335810e+00    4.006871e-01   2.716542e-02
  4.338021e+00    4.319146e-01   2.856465e-02
  4.340231e+00    5.488249e-01   3.260366e-02
  4.342442e+00    4.899751e-01   3.122062e-02
  4.344652e+00    4.320898e-01   2.971576e-02
  4.346862e+00    4.792872e-01   3.173464e-02
  4.349073e+00    4.026936e-01   2.951189e-02
  4.351283e+00    4.755346e-01   3.254954e-02
  4.353494e+00    3.696926e-01   2.914329e-02
  4.355704e+00    3.759942e-01   2.986237e-02
  4.357915e+00    4.709674e-01   3.397937e-02
  4.360125e+00    4.430909e-01   3.352119e-02
  4.362336e+00    4.180198e-01   3.315131e-02
  4.364546e+00    3.625640e-01   3.143796e-02
  4.366757e+00    4.840224e-01   3.704527e-02
  4.368967e+00    3.492600e-01   3.209651e-02
  4.371177e+00    3.914959e-01   3.470293e-02
  4.373388e+00    4.521974e-01   3.813144e-02
  4.375598e+00    4.052000e-01   3.691843e-02
  4.377809e+00    4.703563e-01   4.078236e-02
  4.380019e+00    4.404118e-01   4.045723e-02
  4.382230e+00    3.023649e-01   3.445723e-02
  4.384440e+00    2.998239e-01   3.529859e-02
  4.386651e+00    4.495439e-01   4.455514e-02
  4.388861e+00    3.228768e-01   3.902546e-02
  4.391072e+00    4.836644e-01   4.944611e-02
  4.393282e+00    3.836337e-01   4.573913e-02
  4.395492e+00    4.375416e-01   5.087787e-02
  4.397703e+00    2.898246e-01   4.329706e-02
  4.399913e+00    4.398513e-01   5.604228e-02
  4.402124e+00    6.414559e-01   7.151531e-02
  4.404334e+00    4.447082e-01   6.329758e-02
  4.406545e+00    4.465910e-01   6.814782e-02
  4.408755e+00    4.733869e-01   7.609634e-02
  4.410966e+00    4.627490e-01   8.326938e-02
  4.413176e+00    4.094113e-01   8.865819e-02
  4.415387e+00   -5.989457e-01            nan
  4.417597e+00   -1.914176e+00            nan
  4.419807e+00   -3.766224e-01            nan
