# == pyFAI calibration ==
# Distance Sample to Detector: 0.216 m
# PONI: 1.166e-01, 1.308e-01 m
# Rotations: 0.000000 0.000000 0.000000 rad
# 
# == Fit2d calibration ==
# Distance Sample-beamCenter: 216.000 mm
# Center: x=1744.293, y=1555.000 pix
# Tilt: 0.000 deg  TiltPlanRot: 0.000 deg
# 
# Detector Eiger 9M	 PixelSize= 7.500e-05, 7.500e-05 m
#    Detector has a mask: True 
#    Detector has a dark current: False 
#    detector has a flat field: False 
# 
# Wavelength: 9.8e-11 m
# Mask applied: from detector
# Dark current applied: False
# Flat field applied: False
# Polarization factor: None
# Normalization factor: 1.0
# 
# Headers of the input frame:
# {
# "_array_data.header_convention": "SLS_1.0",
# "_array_data.header_contents": "# Detector: Dectris Eiger 9M, S/N E-18-0102\r\n# Pixel_size 75e-6 m x 75e-6 m\r\n# Silicon sensor, thickness 0.000450 m\r\n# Exposure_time 0.024997 s\r\n# Exposure_period 0.025000 s\r\n# Count_cutoff 62318 counts\r\n# Wavelength 0.980106 A\r\n# Detector_distance 0.215992 m\r\n# Beam_xy (1555, 1744) pixels\r\n# Start_angle 0.000000 deg.\r\n# Angle_increment 0.000000 deg.",
# "Content-Type": "application/octet-stream;",
# "conversions": "x-CBF_BYTE_OFFSET",
# "Content-Transfer-Encoding": "BINARY",
# "X-Binary-Size": "10166632",
# "X-Binary-ID": "1",
# "X-Binary-Element-Type": "signed 32-bit integer",
# "X-Binary-Element-Byte-Order": "LITTLE_ENDIAN",
# "Content-MD5": "aKRKDmYnp3hdUj2e85Sbxw==",
# "X-Binary-Number-of-Elements": "10166590",
# "X-Binary-Size-Fastest-Dimension": "3110",
# "X-Binary-Size-Second-Dimension": "3269",
# "X-Binary-Size-Padding": "4095"
# }
# --> H:/Proxima2a_2019-04-05/RAW_DATA/C5_gel17_position5/C5_mesh_1_data.cbf/C5_mesh_1_data.cbf000191.dat
#        q_A^-1              I           sigma 
  1.105228e-03    7.389644e-01   4.651561e-01
  3.315685e-03    1.303187e+00   3.755336e-01
  5.526141e-03    1.300768e+00   2.901163e-01
  7.736597e-03    1.449751e+00   2.587420e-01
  9.947054e-03    1.416117e+00   2.254375e-01
  1.215751e-02    1.561013e+00   2.140287e-01
  1.436797e-02    1.564589e+00   1.970952e-01
  1.657842e-02    1.350031e+00   1.704184e-01
  1.878888e-02    1.295343e+00   1.568036e-01
  2.099934e-02    1.340158e+00   1.508968e-01
  2.320979e-02    1.326692e+00   1.427966e-01
  2.542025e-02    1.374234e+00   1.388800e-01
  2.763070e-02    1.458873e+00   1.372458e-01
  2.984116e-02    1.371841e+00   1.280644e-01
  3.205162e-02    1.432846e+00   1.262950e-01
  3.426207e-02    1.388086e+00   1.202217e-01
  3.647253e-02    1.443369e+00   1.188170e-01
  3.868299e-02    1.482989e+00   1.169539e-01
  4.089344e-02    1.513727e+00   1.149223e-01
  4.310390e-02    1.507646e+00   1.117052e-01
  4.531436e-02    1.551930e+00   1.105355e-01
  4.752481e-02    1.510954e+00   1.064988e-01
  4.973527e-02    1.403969e+00   1.003530e-01
  5.194572e-02    1.462261e+00   1.002110e-01
  5.415618e-02    1.439233e+00   9.736535e-02
  5.636664e-02    1.361252e+00   9.281848e-02
  5.857709e-02    1.408101e+00   9.260435e-02
  6.078755e-02    1.468107e+00   9.281886e-02
  6.299801e-02    1.488737e+00   9.181327e-02
  6.520846e-02    1.542301e+00   9.185339e-02
  6.741892e-02    1.504085e+00   8.920437e-02
  6.962938e-02    1.396303e+00   8.457777e-02
  7.183983e-02    1.556627e+00   8.791526e-02
  7.405029e-02    1.642641e+00   8.895136e-02
  7.626074e-02    1.485505e+00   8.335420e-02
  7.847120e-02    1.385375e+00   7.935196e-02
  8.068166e-02    1.464143e+00   8.045076e-02
  8.289211e-02    1.505455e+00   8.048234e-02
  8.510257e-02    1.545658e+00   8.048336e-02
  8.731303e-02    1.482900e+00   7.782527e-02
  8.952348e-02    1.516984e+00   7.773884e-02
  9.173394e-02    1.470900e+00   7.561806e-02
  9.394439e-02    1.492535e+00   7.526819e-02
  9.615485e-02    1.554919e+00   7.593528e-02
  9.836531e-02    1.508556e+00   7.394742e-02
  1.005758e-01    1.608917e+00   7.552421e-02
  1.027862e-01    1.586783e+00   7.419022e-02
  1.049967e-01    1.512578e+00   7.166695e-02
  1.072071e-01    1.478509e+00   7.012013e-02
  1.094176e-01    1.498395e+00   6.987238e-02
  1.116280e-01    1.483685e+00   6.883520e-02
  1.138385e-01    1.445039e+00   6.726870e-02
  1.160490e-01    1.565066e+00   6.933592e-02
  1.182594e-01    1.572344e+00   6.884290e-02
  1.204699e-01    1.580832e+00   6.839171e-02
  1.226803e-01    1.657392e+00   6.939162e-02
  1.248908e-01    1.565099e+00   6.683170e-02
  1.271012e-01    1.459596e+00   6.397489e-02
  1.293117e-01    1.543273e+00   6.521765e-02
  1.315222e-01    1.638498e+00   6.663097e-02
  1.337326e-01    1.554307e+00   6.435674e-02
  1.359431e-01    1.591073e+00   6.515156e-02
  1.381535e-01    1.588931e+00   6.598163e-02
  1.403640e-01    1.673042e+00   6.799784e-02
  1.425744e-01    1.555721e+00   6.567512e-02
  1.447849e-01    1.532013e+00   6.518775e-02
  1.469953e-01    1.551480e+00   6.555954e-02
  1.492058e-01    1.546111e+00   6.536998e-02
  1.514163e-01    1.542661e+00   6.518856e-02
  1.536267e-01    1.604391e+00   6.635023e-02
  1.558372e-01    1.639951e+00   6.693342e-02
  1.580476e-01    1.633125e+00   6.663189e-02
  1.602581e-01    1.581095e+00   6.539536e-02
  1.624685e-01    1.715735e+00   6.793638e-02
  1.646790e-01    1.568893e+00   6.477766e-02
  1.668895e-01    1.701298e+00   6.726085e-02
  1.690999e-01    1.752918e+00   6.806866e-02
  1.713104e-01    1.717780e+00   6.717382e-02
  1.735208e-01    1.883446e+00   7.011975e-02
  1.757313e-01    1.811972e+00   6.856085e-02
  1.779417e-01    1.819881e+00   6.848625e-02
  1.801522e-01    1.813022e+00   6.813936e-02
  1.823626e-01    1.900506e+00   6.953169e-02
  1.845731e-01    1.956894e+00   7.032714e-02
  1.867836e-01    1.910995e+00   6.926291e-02
  1.889940e-01    2.009363e+00   7.079110e-02
  1.912045e-01    1.993088e+00   7.026843e-02
  1.934149e-01    1.891816e+00   6.823079e-02
  1.956254e-01    1.950686e+00   6.905573e-02
  1.978358e-01    1.995489e+00   6.960492e-02
  2.000463e-01    1.983613e+00   6.916754e-02
  2.022568e-01    1.931846e+00   6.803497e-02
  2.044672e-01    1.958616e+00   6.827004e-02
  2.066777e-01    1.996340e+00   6.869560e-02
  2.088881e-01    1.993113e+00   6.841549e-02
  2.110986e-01    1.998363e+00   6.827064e-02
  2.133090e-01    2.001238e+00   6.809761e-02
  2.155195e-01    1.990540e+00   6.769007e-02
  2.177300e-01    2.021239e+00   6.767419e-02
  2.199404e-01    2.014241e+00   6.577684e-02
  2.221509e-01    1.981875e+00   6.417485e-02
  2.243613e-01    2.028451e+00   6.410147e-02
  2.265718e-01    2.076780e+00   6.414572e-02
  2.287822e-01    2.103226e+00   6.391391e-02
  2.309927e-01    2.070250e+00   6.283322e-02
  2.332031e-01    2.128739e+00   6.316931e-02
  2.354136e-01    2.114293e+00   6.244434e-02
  2.376241e-01    2.216242e+00   6.343590e-02
  2.398345e-01    2.155102e+00   6.209183e-02
  2.420450e-01    2.134111e+00   6.134709e-02
  2.442554e-01    2.231074e+00   6.229314e-02
  2.464659e-01    2.234099e+00   6.191685e-02
  2.486763e-01    2.157844e+00   6.045102e-02
  2.508868e-01    2.126884e+00   5.963716e-02
  2.530973e-01    2.109650e+00   5.902683e-02
  2.553077e-01    2.123231e+00   5.885732e-02
  2.575182e-01    2.112607e+00   5.836252e-02
  2.597286e-01    2.137705e+00   5.836692e-02
  2.619391e-01    2.075691e+00   5.718296e-02
  2.641495e-01    2.039634e+00   5.637038e-02
  2.663600e-01    2.061945e+00   5.636618e-02
  2.685704e-01    2.062647e+00   5.607016e-02
  2.707809e-01    2.128354e+00   5.665392e-02
  2.729914e-01    2.071718e+00   5.560377e-02
  2.752018e-01    2.061849e+00   5.518246e-02
  2.774123e-01    2.004205e+00   5.412770e-02
  2.796227e-01    2.035932e+00   5.428459e-02
  2.818332e-01    1.995996e+00   5.348140e-02
  2.840436e-01    1.998503e+00   5.325560e-02
  2.862541e-01    1.982779e+00   5.279065e-02
  2.884646e-01    1.990524e+00   5.264265e-02
  2.906750e-01    1.982976e+00   5.229359e-02
  2.928855e-01    1.997978e+00   5.224783e-02
  2.950959e-01    2.021119e+00   5.230812e-02
  2.973064e-01    2.050702e+00   5.245277e-02
  2.995168e-01    1.961094e+00   5.106163e-02
  3.017273e-01    2.015744e+00   5.153998e-02
  3.039377e-01    2.037041e+00   5.158467e-02
  3.061482e-01    1.960190e+00   5.038337e-02
  3.083587e-01    1.911284e+00   4.953551e-02
  3.105691e-01    1.967959e+00   5.004989e-02
  3.127796e-01    1.877252e+00   4.867733e-02
  3.149900e-01    1.871381e+00   4.839864e-02
  3.172005e-01    1.906620e+00   4.865244e-02
  3.194109e-01    1.854508e+00   4.778488e-02
  3.216214e-01    1.896613e+00   4.812710e-02
  3.238319e-01    1.873607e+00   4.764480e-02
  3.260423e-01    1.914774e+00   4.797353e-02
  3.282528e-01    1.940734e+00   4.810539e-02
  3.304632e-01    1.840222e+00   4.666165e-02
  3.326737e-01    1.819806e+00   4.622103e-02
  3.348841e-01    1.876713e+00   4.675614e-02
  3.370946e-01    1.897996e+00   4.684360e-02
  3.393050e-01    1.912033e+00   4.683841e-02
  3.415155e-01    1.888635e+00   4.637590e-02
  3.437260e-01    1.910444e+00   4.647002e-02
  3.459364e-01    1.870743e+00   4.581454e-02
  3.481469e-01    1.841521e+00   4.528939e-02
  3.503573e-01    1.831499e+00   4.500144e-02
  3.525678e-01    1.914408e+00   4.584476e-02
  3.547782e-01    1.828869e+00   4.464693e-02
  3.569887e-01    1.797686e+00   4.410780e-02
  3.591992e-01    1.804408e+00   4.403384e-02
  3.614096e-01    1.756295e+00   4.329218e-02
  3.636201e-01    1.777638e+00   4.340138e-02
  3.658305e-01    1.802779e+00   4.355812e-02
  3.680410e-01    1.842666e+00   4.388589e-02
  3.702514e-01    1.803537e+00   4.327143e-02
  3.724619e-01    1.785785e+00   4.291131e-02
  3.746724e-01    1.805561e+00   4.300429e-02
  3.768828e-01    1.755005e+00   4.225529e-02
  3.790933e-01    1.820366e+00   4.289472e-02
  3.813037e-01    1.793867e+00   4.244205e-02
  3.835142e-01    1.806906e+00   4.245612e-02
  3.857246e-01    1.747032e+00   4.161167e-02
  3.879351e-01    1.814468e+00   4.226989e-02
  3.901455e-01    1.873035e+00   4.280996e-02
  3.923560e-01    1.842842e+00   4.232855e-02
  3.945665e-01    1.849862e+00   4.227461e-02
  3.967769e-01    1.830988e+00   4.192667e-02
  3.989874e-01    1.841468e+00   4.191522e-02
  4.011978e-01    1.755654e+00   4.080106e-02
  4.034083e-01    1.833347e+00   4.156606e-02
  4.056187e-01    1.858287e+00   4.171894e-02
  4.078292e-01    1.798269e+00   4.091550e-02
  4.100397e-01    1.799525e+00   4.080480e-02
  4.122501e-01    1.809578e+00   4.079620e-02
  4.144606e-01    1.809435e+00   4.067362e-02
  4.166710e-01    1.811486e+00   4.057566e-02
  4.188815e-01    1.807789e+00   4.041450e-02
  4.210919e-01    1.787717e+00   4.007173e-02
  4.233024e-01    1.777099e+00   3.983501e-02
  4.255128e-01    1.811727e+00   4.010500e-02
  4.277233e-01    1.817570e+00   4.005421e-02
  4.299338e-01    1.825187e+00   4.002255e-02
  4.321442e-01    1.792985e+00   3.955442e-02
  4.343547e-01    1.751573e+00   3.898441e-02
  4.365651e-01    1.732862e+00   3.866546e-02
  4.387756e-01    1.767530e+00   3.894096e-02
  4.409860e-01    1.793155e+00   3.911358e-02
  4.431965e-01    1.778753e+00   3.884846e-02
  4.454070e-01    1.772705e+00   3.867447e-02
  4.476174e-01    1.760657e+00   3.843699e-02
  4.498279e-01    1.706904e+00   3.774273e-02
  4.520383e-01    1.728380e+00   3.787519e-02
  4.542488e-01    1.711174e+00   3.758457e-02
  4.564592e-01    1.754972e+00   3.796043e-02
  4.586697e-01    1.686144e+00   3.710986e-02
  4.608801e-01    1.679326e+00   3.693552e-02
  4.630906e-01    1.738633e+00   3.748256e-02
  4.653011e-01    1.755017e+00   3.755974e-02
  4.675115e-01    1.746186e+00   3.736642e-02
  4.697220e-01    1.787451e+00   3.770640e-02
  4.719324e-01    1.742870e+00   3.713691e-02
  4.741429e-01    1.709271e+00   3.668243e-02
  4.763533e-01    1.737625e+00   3.689061e-02
  4.785638e-01    1.762756e+00   3.706044e-02
  4.807743e-01    1.734615e+00   3.666995e-02
  4.829847e-01    1.709030e+00   3.630655e-02
  4.851952e-01    1.726116e+00   3.639526e-02
  4.874056e-01    1.679985e+00   3.581510e-02
  4.896161e-01    1.745639e+00   3.641766e-02
  4.918265e-01    1.714725e+00   3.600415e-02
  4.940370e-01    1.690378e+00   3.565936e-02
  4.962475e-01    1.652979e+00   3.517561e-02
  4.984579e-01    1.671569e+00   3.528564e-02
  5.006684e-01    1.712455e+00   3.562752e-02
  5.028788e-01    1.707365e+00   3.548832e-02
  5.050893e-01    1.704608e+00   3.537342e-02
  5.072997e-01    1.651066e+00   3.472938e-02
  5.095102e-01    1.652009e+00   3.465608e-02
  5.117206e-01    1.672591e+00   3.478837e-02
  5.139311e-01    1.676985e+00   3.475161e-02
  5.161416e-01    1.656325e+00   3.445526e-02
  5.183520e-01    1.673198e+00   3.454801e-02
  5.205625e-01    1.636876e+00   3.409093e-02
  5.227729e-01    1.659021e+00   3.424070e-02
  5.249834e-01    1.683387e+00   3.441116e-02
  5.271938e-01    1.707399e+00   3.457486e-02
  5.294043e-01    1.725877e+00   3.468121e-02
  5.316148e-01    1.795315e+00   3.529099e-02
  5.338252e-01    1.837950e+00   3.562596e-02
  5.360357e-01    1.820252e+00   3.537334e-02
  5.382461e-01    1.749620e+00   3.460185e-02
  5.404566e-01    1.761100e+00   3.463616e-02
  5.426670e-01    1.778010e+00   3.472364e-02
  5.448775e-01    1.806206e+00   3.491969e-02
  5.470879e-01    1.805129e+00   3.483144e-02
  5.492984e-01    1.781177e+00   3.452263e-02
  5.515089e-01    1.796053e+00   3.458961e-02
  5.537193e-01    1.784189e+00   3.439923e-02
  5.559298e-01    1.747421e+00   3.396827e-02
  5.581402e-01    1.751170e+00   3.393038e-02
  5.603507e-01    1.782280e+00   3.415596e-02
  5.625611e-01    1.748678e+00   3.375904e-02
  5.647716e-01    1.768205e+00   3.387327e-02
  5.669821e-01    1.775356e+00   3.386855e-02
  5.691925e-01    1.773973e+00   3.378267e-02
  5.714030e-01    1.785724e+00   3.382211e-02
  5.736134e-01    1.759238e+00   3.349897e-02
  5.758239e-01    1.731523e+00   3.316310e-02
  5.780343e-01    1.704094e+00   3.282979e-02
  5.802448e-01    1.687305e+00   3.259927e-02
  5.824552e-01    1.695151e+00   3.260645e-02
  5.846657e-01    1.652812e+00   3.212953e-02
  5.868762e-01    1.642174e+00   3.195931e-02
  5.890866e-01    1.615470e+00   3.163262e-02
  5.912971e-01    1.645158e+00   3.185585e-02
  5.935075e-01    1.676157e+00   3.208813e-02
  5.957180e-01    1.653127e+00   3.180155e-02
  5.979284e-01    1.669716e+00   3.189547e-02
  6.001389e-01    1.619329e+00   3.134657e-02
  6.023494e-01    1.691451e+00   3.197196e-02
  6.045598e-01    1.698880e+00   3.197688e-02
  6.067703e-01    1.689353e+00   3.182295e-02
  6.089807e-01    1.668486e+00   3.156224e-02
  6.111912e-01    1.666864e+00   3.148388e-02
  6.134016e-01    1.709491e+00   3.182033e-02
  6.156121e-01    1.676653e+00   3.145058e-02
  6.178226e-01    1.695323e+00   3.156259e-02
  6.200330e-01    1.696729e+00   3.151339e-02
  6.222435e-01    1.716499e+00   3.163365e-02
  6.244539e-01    1.738477e+00   3.177321e-02
  6.266644e-01    1.694361e+00   3.130629e-02
  6.288748e-01    1.727274e+00   3.154736e-02
  6.310853e-01    1.728664e+00   3.149877e-02
  6.332957e-01    1.764783e+00   3.176469e-02
  6.355062e-01    1.769143e+00   3.174213e-02
  6.377167e-01    1.734062e+00   3.136555e-02
  6.399271e-01    1.715153e+00   3.113429e-02
  6.421376e-01    1.717281e+00   3.109414e-02
  6.443480e-01    1.687184e+00   3.076183e-02
  6.465585e-01    1.658806e+00   3.044424e-02
  6.487689e-01    1.677498e+00   3.055747e-02
  6.509794e-01    1.672589e+00   3.045518e-02
  6.531899e-01    1.676979e+00   3.043778e-02
  6.554003e-01    1.644206e+00   3.008222e-02
  6.576108e-01    1.636525e+00   2.995600e-02
  6.598212e-01    1.634320e+00   2.988019e-02
  6.620317e-01    1.593938e+00   2.945403e-02
  6.642421e-01    1.628322e+00   2.971495e-02
  6.664526e-01    1.616483e+00   2.955218e-02
  6.686630e-01    1.646932e+00   2.977405e-02
  6.708735e-01    1.651433e+00   2.976003e-02
  6.730840e-01    1.626915e+00   2.948445e-02
  6.752944e-01    1.612952e+00   2.930423e-02
  6.775049e-01    1.673031e+00   2.979083e-02
  6.797153e-01    1.625637e+00   2.931267e-02
  6.819258e-01    1.593294e+00   2.896725e-02
  6.841362e-01    1.616316e+00   2.912331e-02
  6.863467e-01    1.648212e+00   2.935660e-02
  6.885572e-01    1.610824e+00   2.896973e-02
  6.907676e-01    1.599890e+00   2.881949e-02
  6.929781e-01    1.624335e+00   2.898722e-02
  6.951885e-01    1.626562e+00   2.895571e-02
  6.973990e-01    1.595900e+00   2.863079e-02
  6.996094e-01    1.561637e+00   2.827195e-02
  7.018199e-01    1.608488e+00   2.864254e-02
  7.040303e-01    1.614500e+00   2.864562e-02
  7.062408e-01    1.617580e+00   2.862271e-02
  7.084513e-01    1.621494e+00   2.860745e-02
  7.106617e-01    1.616764e+00   2.851607e-02
  7.128722e-01    1.640802e+00   2.867758e-02
  7.150826e-01    1.586692e+00   2.815216e-02
  7.172931e-01    1.569898e+00   2.795448e-02
  7.195035e-01    1.599663e+00   2.816973e-02
  7.217140e-01    1.614783e+00   2.835264e-02
  7.239245e-01    1.570570e+00   2.818823e-02
  7.261349e-01    1.575068e+00   2.833720e-02
  7.283454e-01    1.627524e+00   2.887879e-02
  7.305558e-01    1.609968e+00   2.877723e-02
  7.327663e-01    1.599624e+00   2.872746e-02
  7.349767e-01    1.597015e+00   2.872052e-02
  7.371872e-01    1.595754e+00   2.869792e-02
  7.393976e-01    1.616346e+00   2.886803e-02
  7.416081e-01    1.609472e+00   2.879025e-02
  7.438186e-01    1.614299e+00   2.868724e-02
  7.460290e-01    1.585647e+00   2.813628e-02
  7.482395e-01    1.565682e+00   2.778788e-02
  7.504499e-01    1.565212e+00   2.764786e-02
  7.526604e-01    1.550278e+00   2.739999e-02
  7.548708e-01    1.552927e+00   2.733459e-02
  7.570813e-01    1.565594e+00   2.739502e-02
  7.592918e-01    1.598172e+00   2.764314e-02
  7.615022e-01    1.614222e+00   2.774739e-02
  7.637127e-01    1.602133e+00   2.761023e-02
  7.659231e-01    1.588616e+00   2.746136e-02
  7.681336e-01    1.580033e+00   2.735542e-02
  7.703440e-01    1.590121e+00   2.741124e-02
  7.725545e-01    1.596735e+00   2.743708e-02
  7.747650e-01    1.647088e+00   2.782727e-02
  7.769754e-01    1.603216e+00   2.740102e-02
  7.791859e-01    1.566798e+00   2.703466e-02
  7.813963e-01    1.584180e+00   2.713153e-02
  7.836068e-01    1.603951e+00   2.724799e-02
  7.858172e-01    1.601414e+00   2.717554e-02
  7.880277e-01    1.584115e+00   2.697694e-02
  7.902381e-01    1.595260e+00   2.702248e-02
  7.924486e-01    1.606056e+00   2.706354e-02
  7.946591e-01    1.622424e+00   2.715245e-02
  7.968695e-01    1.648356e+00   2.731966e-02
  7.990800e-01    1.626526e+00   2.708962e-02
  8.012904e-01    1.654324e+00   2.727289e-02
  8.035009e-01    1.637340e+00   2.708425e-02
  8.057113e-01    1.636536e+00   2.703077e-02
  8.079218e-01    1.638277e+00   2.699848e-02
  8.101323e-01    1.632724e+00   2.690692e-02
  8.123427e-01    1.627875e+00   2.682112e-02
  8.145532e-01    1.645133e+00   2.691679e-02
  8.167636e-01    1.652649e+00   2.693285e-02
  8.189741e-01    1.639102e+00   2.677752e-02
  8.211845e-01    1.638016e+00   2.672376e-02
  8.233950e-01    1.649954e+00   2.677737e-02
  8.256054e-01    1.685204e+00   2.701704e-02
  8.278159e-01    1.688375e+00   2.699783e-02
  8.300264e-01    1.659256e+00   2.672062e-02
  8.322368e-01    1.665730e+00   2.672922e-02
  8.344473e-01    1.665569e+00   2.668421e-02
  8.366577e-01    1.645703e+00   2.648193e-02
  8.388682e-01    1.646524e+00   2.644618e-02
  8.410786e-01    1.658739e+00   2.650181e-02
  8.432891e-01    1.617664e+00   2.613004e-02
  8.454996e-01    1.633029e+00   2.621228e-02
  8.477100e-01    1.643240e+00   2.625239e-02
  8.499205e-01    1.644675e+00   2.622260e-02
  8.521309e-01    1.619481e+00   2.598040e-02
  8.543414e-01    1.674015e+00   2.637298e-02
  8.565518e-01    1.662237e+00   2.623916e-02
  8.587623e-01    1.643973e+00   2.605395e-02
  8.609727e-01    1.644720e+00   2.601948e-02
  8.631832e-01    1.622132e+00   2.580034e-02
  8.653937e-01    1.650577e+00   2.598558e-02
  8.676041e-01    1.610592e+00   2.563018e-02
  8.698146e-01    1.597726e+00   2.548857e-02
  8.720250e-01    1.596879e+00   2.544299e-02
  8.742355e-01    1.596733e+00   2.540308e-02
  8.764459e-01    1.627458e+00   2.560721e-02
  8.786564e-01    1.618602e+00   2.549938e-02
  8.808669e-01    1.608593e+00   2.538187e-02
  8.830773e-01    1.604597e+00   2.531215e-02
  8.852878e-01    1.615354e+00   2.535879e-02
  8.874982e-01    1.603536e+00   2.522918e-02
  8.897087e-01    1.632702e+00   2.541952e-02
  8.919191e-01    1.650423e+00   2.551879e-02
  8.941296e-01    1.605870e+00   2.513462e-02
  8.963401e-01    1.602054e+00   2.506831e-02
  8.985505e-01    1.598187e+00   2.500108e-02
  9.007610e-01    1.630147e+00   2.521274e-02
  9.029714e-01    1.604495e+00   2.497770e-02
  9.051819e-01    1.582329e+00   2.476756e-02
  9.073923e-01    1.549153e+00   2.447055e-02
  9.096028e-01    1.590876e+00   2.476305e-02
  9.118132e-01    1.585558e+00   2.468558e-02
  9.140237e-01    1.579025e+00   2.459830e-02
  9.162342e-01    1.622508e+00   2.489986e-02
  9.184446e-01    1.634646e+00   2.495671e-02
  9.206551e-01    1.600121e+00   2.465617e-02
  9.228655e-01    1.576823e+00   2.444101e-02
  9.250760e-01    1.613719e+00   2.468981e-02
  9.272864e-01    1.621292e+00   2.471323e-02
  9.294969e-01    1.613855e+00   2.462055e-02
  9.317074e-01    1.609030e+00   2.454897e-02
  9.339178e-01    1.616965e+00   2.457582e-02
  9.361283e-01    1.610520e+00   2.449065e-02
  9.383387e-01    1.641831e+00   2.469392e-02
  9.405492e-01    1.666780e+00   2.484610e-02
  9.427596e-01    1.667751e+00   2.481755e-02
  9.449701e-01    1.652325e+00   2.466895e-02
  9.471805e-01    1.660221e+00   2.469278e-02
  9.493910e-01    1.684793e+00   2.484072e-02
  9.516015e-01    1.690598e+00   2.484873e-02
  9.538119e-01    1.728864e+00   2.509395e-02
  9.560224e-01    1.732382e+00   2.508410e-02
  9.582328e-01    1.749061e+00   2.517077e-02
  9.604433e-01    1.752945e+00   2.516299e-02
  9.626537e-01    1.780949e+00   2.532911e-02
  9.648642e-01    1.755726e+00   2.511466e-02
  9.670747e-01    1.776776e+00   2.522990e-02
  9.692851e-01    1.802042e+00   2.537491e-02
  9.714956e-01    1.817065e+00   2.544452e-02
  9.737060e-01    1.865956e+00   2.575068e-02
  9.759165e-01    1.894415e+00   2.590973e-02
  9.781269e-01    1.930956e+00   2.612421e-02
  9.803374e-01    1.895953e+00   2.585055e-02
  9.825478e-01    1.899421e+00   2.584004e-02
  9.847583e-01    1.885431e+00   2.570975e-02
  9.869688e-01    1.819247e+00   2.522068e-02
  9.891792e-01    1.766059e+00   2.481623e-02
  9.913897e-01    1.731532e+00   2.453930e-02
  9.936001e-01    1.714463e+00   2.438606e-02
  9.958106e-01    1.744437e+00   2.456488e-02
  9.980210e-01    1.734701e+00   2.446444e-02
  1.000231e+00    1.689356e+00   2.427486e-02
  1.002442e+00    1.660501e+00   2.419450e-02
  1.004652e+00    1.655219e+00   2.422339e-02
  1.006863e+00    1.626151e+00   2.405957e-02
  1.009073e+00    1.579980e+00   2.375185e-02
  1.011284e+00    1.581933e+00   2.379830e-02
  1.013494e+00    1.556381e+00   2.362872e-02
  1.015705e+00    1.574729e+00   2.379004e-02
  1.017915e+00    1.546691e+00   2.359356e-02
  1.020126e+00    1.557479e+00   2.369168e-02
  1.022336e+00    1.668772e+00   2.453559e-02
  1.024547e+00    1.802899e+00   2.551469e-02
  1.026757e+00    1.810478e+00   2.557734e-02
  1.028967e+00    1.766936e+00   2.527611e-02
  1.031178e+00    1.787661e+00   2.543056e-02
  1.033388e+00    1.680918e+00   2.466498e-02
  1.035599e+00    1.615947e+00   2.418707e-02
  1.037809e+00    1.630311e+00   2.429772e-02
  1.040020e+00    1.617761e+00   2.420531e-02
  1.042230e+00    1.613870e+00   2.417819e-02
  1.044441e+00    1.662427e+00   2.453896e-02
  1.046651e+00    1.966524e+00   2.668923e-02
  1.048862e+00    2.379727e+00   2.935872e-02
  1.051072e+00    2.040810e+00   2.718526e-02
  1.053282e+00    1.620610e+00   2.422438e-02
  1.055493e+00    1.531413e+00   2.354389e-02
  1.057703e+00    1.570016e+00   2.383719e-02
  1.059914e+00    1.723930e+00   2.497368e-02
  1.062124e+00    1.932794e+00   2.643871e-02
  1.064335e+00    1.945658e+00   2.652268e-02
  1.066545e+00    1.811805e+00   2.558747e-02
  1.068756e+00    1.638209e+00   2.432689e-02
  1.070966e+00    1.543766e+00   2.360852e-02
  1.073177e+00    1.518544e+00   2.340875e-02
  1.075387e+00    1.457360e+00   2.292708e-02
  1.077597e+00    1.458474e+00   2.292862e-02
  1.079808e+00    1.443541e+00   2.267913e-02
  1.082018e+00    1.465267e+00   2.265994e-02
  1.084229e+00    1.448466e+00   2.242005e-02
  1.086439e+00    1.456218e+00   2.239250e-02
  1.088650e+00    1.464861e+00   2.238293e-02
  1.090860e+00    1.421327e+00   2.198097e-02
  1.093071e+00    1.394546e+00   2.171190e-02
  1.095281e+00    1.452539e+00   2.210138e-02
  1.097492e+00    1.438094e+00   2.193645e-02
  1.099702e+00    1.420155e+00   2.174816e-02
  1.101912e+00    1.443728e+00   2.187900e-02
  1.104123e+00    1.429923e+00   2.172603e-02
  1.106333e+00    1.431525e+00   2.169379e-02
  1.108544e+00    1.436591e+00   2.168778e-02
  1.110754e+00    1.428129e+00   2.158077e-02
  1.112965e+00    1.419753e+00   2.147689e-02
  1.115175e+00    1.410084e+00   2.136261e-02
  1.117386e+00    1.371008e+00   2.102586e-02
  1.119596e+00    1.395665e+00   2.117644e-02
  1.121807e+00    1.416876e+00   2.129783e-02
  1.124017e+00    1.404784e+00   2.117015e-02
  1.126228e+00    1.401139e+00   2.110697e-02
  1.128438e+00    1.388272e+00   2.097321e-02
  1.130648e+00    1.412068e+00   2.111772e-02
  1.132859e+00    1.378915e+00   2.083421e-02
  1.135069e+00    1.386876e+00   2.085960e-02
  1.137280e+00    1.401135e+00   2.093345e-02
  1.139490e+00    1.375914e+00   2.071125e-02
  1.141701e+00    1.375448e+00   2.067473e-02
  1.143911e+00    1.379380e+00   2.067245e-02
  1.146122e+00    1.349424e+00   2.041510e-02
  1.148332e+00    1.368830e+00   2.052959e-02
  1.150543e+00    1.385469e+00   2.062309e-02
  1.152753e+00    1.389657e+00   2.062324e-02
  1.154963e+00    1.359564e+00   2.036784e-02
  1.157174e+00    1.346675e+00   2.024120e-02
  1.159384e+00    1.340183e+00   2.016283e-02
  1.161595e+00    1.357193e+00   2.026070e-02
  1.163805e+00    1.360327e+00   2.025490e-02
  1.166016e+00    1.394471e+00   2.047780e-02
  1.168226e+00    1.404250e+00   2.052014e-02
  1.170437e+00    1.399560e+00   2.045686e-02
  1.172647e+00    1.382940e+00   2.030597e-02
  1.174858e+00    1.365912e+00   2.015245e-02
  1.177068e+00    1.355106e+00   2.004440e-02
  1.179278e+00    1.341480e+00   1.991501e-02
  1.181489e+00    1.355983e+00   1.999538e-02
  1.183699e+00    1.339065e+00   1.984291e-02
  1.185910e+00    1.314912e+00   1.963578e-02
  1.188120e+00    1.340876e+00   1.980217e-02
  1.190331e+00    1.372380e+00   2.000651e-02
  1.192541e+00    1.352278e+00   1.983211e-02
  1.194752e+00    1.357337e+00   1.984206e-02
  1.196962e+00    1.355816e+00   1.980517e-02
  1.199173e+00    1.370836e+00   1.988785e-02
  1.201383e+00    1.371712e+00   1.986686e-02
  1.203593e+00    1.336848e+00   1.958806e-02
  1.205804e+00    1.345514e+00   1.962554e-02
  1.208014e+00    1.403229e+00   2.001467e-02
  1.210225e+00    1.340240e+00   1.953509e-02
  1.212435e+00    1.334859e+00   1.947116e-02
  1.214646e+00    1.341621e+00   1.949440e-02
  1.216856e+00    1.335523e+00   1.942470e-02
  1.219067e+00    1.346179e+00   1.947760e-02
  1.221277e+00    1.345376e+00   1.944682e-02
  1.223488e+00    1.354254e+00   1.948508e-02
  1.225698e+00    1.355825e+00   1.946943e-02
  1.227909e+00    1.352528e+00   1.941555e-02
  1.230119e+00    1.341455e+00   1.930415e-02
  1.232329e+00    1.317625e+00   1.910159e-02
  1.234540e+00    1.326425e+00   1.913521e-02
  1.236750e+00    1.361267e+00   1.935453e-02
  1.238961e+00    1.360555e+00   1.932238e-02
  1.241171e+00    1.373387e+00   1.938890e-02
  1.243382e+00    1.354667e+00   1.923277e-02
  1.245592e+00    1.333968e+00   1.906130e-02
  1.247803e+00    1.343788e+00   1.910773e-02
  1.250013e+00    1.346043e+00   1.910024e-02
  1.252224e+00    1.356508e+00   1.915105e-02
  1.254434e+00    1.355469e+00   1.911993e-02
  1.256644e+00    1.336189e+00   1.896036e-02
  1.258855e+00    1.341213e+00   1.897279e-02
  1.261065e+00    1.344633e+00   1.897362e-02
  1.263276e+00    1.361872e+00   1.907184e-02
  1.265486e+00    1.358756e+00   1.902704e-02
  1.267697e+00    1.377643e+00   1.913559e-02
  1.269907e+00    1.347170e+00   1.890010e-02
  1.272118e+00    1.310421e+00   1.861829e-02
  1.274328e+00    1.312455e+00   1.861030e-02
  1.276539e+00    1.336491e+00   1.875728e-02
  1.278749e+00    1.338688e+00   1.875049e-02
  1.280959e+00    1.340735e+00   1.874237e-02
  1.283170e+00    1.352652e+00   1.880303e-02
  1.285380e+00    1.346495e+00   1.873776e-02
  1.287591e+00    1.320219e+00   1.853226e-02
  1.289801e+00    1.316137e+00   1.848262e-02
  1.292012e+00    1.328553e+00   1.855262e-02
  1.294222e+00    1.366086e+00   1.879654e-02
  1.296433e+00    1.342703e+00   1.861943e-02
  1.298643e+00    1.339469e+00   1.858057e-02
  1.300854e+00    1.337651e+00   1.855163e-02
  1.303064e+00    1.340983e+00   1.855554e-02
  1.305274e+00    1.345230e+00   1.856352e-02
  1.307485e+00    1.359419e+00   1.863952e-02
  1.309695e+00    1.379940e+00   1.875722e-02
  1.311906e+00    1.367902e+00   1.865337e-02
  1.314116e+00    1.366364e+00   1.862196e-02
  1.316327e+00    1.352505e+00   1.850557e-02
  1.318537e+00    1.340751e+00   1.840318e-02
  1.320748e+00    1.328115e+00   1.829485e-02
  1.322958e+00    1.385775e+00   1.866698e-02
  1.325169e+00    1.387026e+00   1.865412e-02
  1.327379e+00    1.376595e+00   1.856181e-02
  1.329589e+00    1.400452e+00   1.870049e-02
  1.331800e+00    1.405389e+00   1.871234e-02
  1.334010e+00    1.376396e+00   1.849744e-02
  1.336221e+00    1.359755e+00   1.836347e-02
  1.338431e+00    1.342574e+00   1.822625e-02
  1.340642e+00    1.350397e+00   1.834347e-02
  1.342852e+00    1.335230e+00   1.834027e-02
  1.345063e+00    1.351740e+00   1.850283e-02
  1.347273e+00    1.326967e+00   1.836746e-02
  1.349484e+00    1.334385e+00   1.844622e-02
  1.351694e+00    1.334565e+00   1.847005e-02
  1.353905e+00    1.330525e+00   1.845995e-02
  1.356115e+00    1.314229e+00   1.836139e-02
  1.358325e+00    1.327707e+00   1.846850e-02
  1.360536e+00    1.347954e+00   1.862041e-02
  1.362746e+00    1.347133e+00   1.862429e-02
  1.364957e+00    1.322549e+00   1.846117e-02
  1.367167e+00    1.305880e+00   1.835149e-02
  1.369378e+00    1.323010e+00   1.847743e-02
  1.371588e+00    1.315190e+00   1.842781e-02
  1.373799e+00    1.335694e+00   1.857459e-02
  1.376009e+00    1.327368e+00   1.851996e-02
  1.378220e+00    1.320604e+00   1.847526e-02
  1.380430e+00    1.285141e+00   1.822815e-02
  1.382640e+00    1.291582e+00   1.827468e-02
  1.384851e+00    1.259947e+00   1.805034e-02
  1.387061e+00    1.263261e+00   1.807433e-02
  1.389272e+00    1.286667e+00   1.824122e-02
  1.391482e+00    1.271476e+00   1.813257e-02
  1.393693e+00    1.276068e+00   1.816438e-02
  1.395903e+00    1.313584e+00   1.842797e-02
  1.398114e+00    1.288944e+00   1.825295e-02
  1.400324e+00    1.257245e+00   1.802498e-02
  1.402535e+00    1.264981e+00   1.807804e-02
  1.404745e+00    1.255501e+00   1.800783e-02
  1.406955e+00    1.259980e+00   1.803724e-02
  1.409166e+00    1.280758e+00   1.818203e-02
  1.411376e+00    1.275037e+00   1.813828e-02
  1.413587e+00    1.230421e+00   1.781434e-02
  1.415797e+00    1.260406e+00   1.802657e-02
  1.418008e+00    1.244794e+00   1.787314e-02
  1.420218e+00    1.242342e+00   1.770743e-02
  1.422429e+00    1.261345e+00   1.775731e-02
  1.424639e+00    1.268606e+00   1.774370e-02
  1.426850e+00    1.265839e+00   1.766973e-02
  1.429060e+00    1.287249e+00   1.776921e-02
  1.431270e+00    1.288226e+00   1.773134e-02
  1.433481e+00    1.289203e+00   1.769678e-02
  1.435691e+00    1.282429e+00   1.761164e-02
  1.437902e+00    1.266985e+00   1.746882e-02
  1.440112e+00    1.274615e+00   1.748594e-02
  1.442323e+00    1.268885e+00   1.741357e-02
  1.444533e+00    1.273382e+00   1.741181e-02
  1.446744e+00    1.281940e+00   1.743893e-02
  1.448954e+00    1.281165e+00   1.740335e-02
  1.451165e+00    1.258244e+00   1.721735e-02
  1.453375e+00    1.280280e+00   1.733928e-02
  1.455586e+00    1.287802e+00   1.736181e-02
  1.457796e+00    1.265498e+00   1.718334e-02
  1.460006e+00    1.243214e+00   1.700441e-02
  1.462217e+00    1.258659e+00   1.708359e-02
  1.464427e+00    1.265286e+00   1.710294e-02
  1.466638e+00    1.271967e+00   1.712270e-02
  1.468848e+00    1.265643e+00   1.705478e-02
  1.471059e+00    1.267174e+00   1.704003e-02
  1.473269e+00    1.245063e+00   1.686655e-02
  1.475480e+00    1.263290e+00   1.696585e-02
  1.477690e+00    1.264938e+00   1.695311e-02
  1.479901e+00    1.259750e+00   1.689455e-02
  1.482111e+00    1.242986e+00   1.675865e-02
  1.484321e+00    1.257765e+00   1.683497e-02
  1.486532e+00    1.244844e+00   1.672612e-02
  1.488742e+00    1.263683e+00   1.682957e-02
  1.490953e+00    1.260856e+00   1.678818e-02
  1.493163e+00    1.246557e+00   1.667056e-02
  1.495374e+00    1.278206e+00   1.685925e-02
  1.497584e+00    1.269531e+00   1.678022e-02
  1.499795e+00    1.253431e+00   1.665191e-02
  1.502005e+00    1.260996e+00   1.668035e-02
  1.504216e+00    1.298424e+00   1.690477e-02
  1.506426e+00    1.240588e+00   1.650330e-02
  1.508636e+00    1.268077e+00   1.666460e-02
  1.510847e+00    1.269931e+00   1.665485e-02
  1.513057e+00    1.225410e+00   1.633553e-02
  1.515268e+00    1.238479e+00   1.639684e-02
  1.517478e+00    1.224004e+00   1.627590e-02
  1.519689e+00    1.240767e+00   1.636213e-02
  1.521899e+00    1.248445e+00   1.638964e-02
  1.524110e+00    1.242917e+00   1.633304e-02
  1.526320e+00    1.274230e+00   1.651775e-02
  1.528531e+00    1.267211e+00   1.645231e-02
  1.530741e+00    1.246583e+00   1.629874e-02
  1.532951e+00    1.233875e+00   1.619598e-02
  1.535162e+00    1.238649e+00   1.631349e-02
  1.537372e+00    1.238993e+00   1.638241e-02
  1.539583e+00    1.220842e+00   1.629581e-02
  1.541793e+00    1.241091e+00   1.643732e-02
  1.544004e+00    1.260391e+00   1.656489e-02
  1.546214e+00    1.261462e+00   1.657043e-02
  1.548425e+00    1.227459e+00   1.634583e-02
  1.550635e+00    1.261065e+00   1.657780e-02
  1.552846e+00    1.258811e+00   1.657272e-02
  1.555056e+00    1.237993e+00   1.639373e-02
  1.557266e+00    1.231151e+00   1.623849e-02
  1.559477e+00    1.254466e+00   1.633218e-02
  1.561687e+00    1.244709e+00   1.623788e-02
  1.563898e+00    1.261132e+00   1.632738e-02
  1.566108e+00    1.246186e+00   1.621437e-02
  1.568319e+00    1.257454e+00   1.627179e-02
  1.570529e+00    1.266410e+00   1.630431e-02
  1.572740e+00    1.231070e+00   1.604773e-02
  1.574950e+00    1.246582e+00   1.612217e-02
  1.577161e+00    1.245118e+00   1.608723e-02
  1.579371e+00    1.270739e+00   1.622797e-02
  1.581582e+00    1.268309e+00   1.619252e-02
  1.583792e+00    1.255983e+00   1.609552e-02
  1.586002e+00    1.255298e+00   1.607344e-02
  1.588213e+00    1.243157e+00   1.597829e-02
  1.590423e+00    1.238186e+00   1.592629e-02
  1.592634e+00    1.233881e+00   1.587703e-02
  1.594844e+00    1.224135e+00   1.579298e-02
  1.597055e+00    1.222069e+00   1.575932e-02
  1.599265e+00    1.214770e+00   1.569169e-02
  1.601476e+00    1.220880e+00   1.571095e-02
  1.603686e+00    1.243012e+00   1.583294e-02
  1.605897e+00    1.241974e+00   1.580614e-02
  1.608107e+00    1.240000e+00   1.577400e-02
  1.610317e+00    1.211247e+00   1.557094e-02
  1.612528e+00    1.229553e+00   1.566903e-02
  1.614738e+00    1.243201e+00   1.573671e-02
  1.616949e+00    1.209637e+00   1.550399e-02
  1.619159e+00    1.216756e+00   1.553086e-02
  1.621370e+00    1.210026e+00   1.546946e-02
  1.623580e+00    1.207495e+00   1.543500e-02
  1.625791e+00    1.195263e+00   1.533846e-02
  1.628001e+00    1.184122e+00   1.524869e-02
  1.630212e+00    1.181718e+00   1.521553e-02
  1.632422e+00    1.183424e+00   1.520863e-02
  1.634632e+00    1.182055e+00   1.518253e-02
  1.636843e+00    1.150164e+00   1.495900e-02
  1.639053e+00    1.154268e+00   1.496849e-02
  1.641264e+00    1.159258e+00   1.498381e-02
  1.643474e+00    1.141741e+00   1.485293e-02
  1.645685e+00    1.148859e+00   1.488255e-02
  1.647895e+00    1.180404e+00   1.506871e-02
  1.650106e+00    1.191129e+00   1.511976e-02
  1.652316e+00    1.148115e+00   1.482774e-02
  1.654527e+00    1.124547e+00   1.465823e-02
  1.656737e+00    1.109296e+00   1.454212e-02
  1.658947e+00    1.119388e+00   1.459193e-02
  1.661158e+00    1.142350e+00   1.472444e-02
  1.663368e+00    1.178968e+00   1.494217e-02
  1.665579e+00    1.146861e+00   1.472098e-02
  1.667789e+00    1.114689e+00   1.449680e-02
  1.670000e+00    1.101714e+00   1.439677e-02
  1.672210e+00    1.083453e+00   1.426126e-02
  1.674421e+00    1.076777e+00   1.420212e-02
  1.676631e+00    1.085415e+00   1.424322e-02
  1.678842e+00    1.085960e+00   1.423111e-02
  1.681052e+00    1.099729e+00   1.430562e-02
  1.683263e+00    1.081567e+00   1.417193e-02
  1.685473e+00    1.059832e+00   1.401383e-02
  1.687683e+00    1.067944e+00   1.405205e-02
  1.689894e+00    1.054325e+00   1.394657e-02
  1.692104e+00    1.069064e+00   1.402886e-02
  1.694315e+00    1.061567e+00   1.396517e-02
  1.696525e+00    1.031862e+00   1.375349e-02
  1.698736e+00    1.044345e+00   1.382175e-02
  1.700946e+00    1.054876e+00   1.387617e-02
  1.703157e+00    1.049506e+00   1.382624e-02
  1.705367e+00    1.051150e+00   1.382255e-02
  1.707578e+00    1.033811e+00   1.369363e-02
  1.709788e+00    1.036439e+00   1.369694e-02
  1.711998e+00    1.037844e+00   1.369128e-02
  1.714209e+00    1.008574e+00   1.348260e-02
  1.716419e+00    1.001813e+00   1.342328e-02
  1.718630e+00    1.011775e+00   1.347573e-02
  1.720840e+00    1.019098e+00   1.351028e-02
  1.723051e+00    1.028641e+00   1.355950e-02
  1.725261e+00    1.016682e+00   1.346581e-02
  1.727472e+00    1.013948e+00   1.343355e-02
  1.729682e+00    1.013448e+00   1.341679e-02
  1.731893e+00    1.022918e+00   1.346534e-02
  1.734103e+00    1.003255e+00   1.332155e-02
  1.736313e+00    9.946871e-01   1.325060e-02
  1.738524e+00    1.004979e+00   1.330514e-02
  1.740734e+00    9.939287e-01   1.321812e-02
  1.742945e+00    9.956297e-01   1.321599e-02
  1.745155e+00    9.563101e-01   1.293919e-02
  1.747366e+00    9.617338e-01   1.296219e-02
  1.749576e+00    9.857185e-01   1.310917e-02
  1.751787e+00    9.634941e-01   1.294733e-02
  1.753997e+00    9.617191e-01   1.292214e-02
  1.756208e+00    9.698550e-01   1.296353e-02
  1.758418e+00    9.491339e-01   1.281133e-02
  1.760628e+00    9.432398e-01   1.275831e-02
  1.762839e+00    9.785542e-01   1.298163e-02
  1.765049e+00    9.583909e-01   1.283413e-02
  1.767260e+00    9.396317e-01   1.269521e-02
  1.769470e+00    9.366745e-01   1.266235e-02
  1.771681e+00    9.642361e-01   1.283406e-02
  1.773891e+00    9.789165e-01   1.291816e-02
  1.776102e+00    9.683692e-01   1.283538e-02
  1.778312e+00    9.442672e-01   1.266190e-02
  1.780523e+00    9.329056e-01   1.257283e-02
  1.782733e+00    9.198269e-01   1.247182e-02
  1.784944e+00    9.291859e-01   1.252226e-02
  1.787154e+00    9.275886e-01   1.249901e-02
  1.789364e+00    9.038485e-01   1.232573e-02
  1.791575e+00    8.890595e-01   1.221219e-02
  1.793785e+00    9.077032e-01   1.232725e-02
  1.795996e+00    9.539780e-01   1.262484e-02
  1.798206e+00    9.172086e-01   1.236667e-02
  1.800417e+00    8.953656e-01   1.220596e-02
  1.802627e+00    9.350846e-01   1.246168e-02
  1.804838e+00    9.601542e-01   1.261520e-02
  1.807048e+00    9.841642e-01   1.275861e-02
  1.809259e+00    9.424505e-01   1.247146e-02
  1.811469e+00    9.359692e-01   1.241324e-02
  1.813679e+00    9.552118e-01   1.252480e-02
  1.815890e+00    9.340200e-01   1.237004e-02
  1.818100e+00    9.257601e-01   1.229988e-02
  1.820311e+00    8.987216e-01   1.210412e-02
  1.822521e+00    8.784452e-01   1.195206e-02
  1.824732e+00    8.676781e-01   1.186393e-02
  1.826942e+00    8.854930e-01   1.197281e-02
  1.829153e+00    8.599945e-01   1.178763e-02
  1.831363e+00    8.722512e-01   1.185938e-02
  1.833574e+00    8.803470e-01   1.190262e-02
  1.835784e+00    8.898478e-01   1.195517e-02
  1.837994e+00    8.879746e-01   1.193080e-02
  1.840205e+00    9.211121e-01   1.213990e-02
  1.842415e+00    9.304819e-01   1.218936e-02
  1.844626e+00    9.183130e-01   1.209753e-02
  1.846836e+00    8.883427e-01   1.188691e-02
  1.849047e+00    8.749930e-01   1.178559e-02
  1.851257e+00    8.513692e-01   1.161590e-02
  1.853468e+00    8.551815e-01   1.163311e-02
  1.855678e+00    8.572678e-01   1.163842e-02
  1.857889e+00    8.588396e-01   1.164059e-02
  1.860099e+00    8.354012e-01   1.147213e-02
  1.862309e+00    8.445674e-01   1.152644e-02
  1.864520e+00    8.466526e-01   1.153213e-02
  1.866730e+00    8.765009e-01   1.172414e-02
  1.868941e+00    8.883480e-01   1.179194e-02
  1.871151e+00    8.996899e-01   1.185528e-02
  1.873362e+00    8.797416e-01   1.171158e-02
  1.875572e+00    8.630295e-01   1.158878e-02
  1.877783e+00    8.649750e-01   1.159028e-02
  1.879993e+00    8.644287e-01   1.157535e-02
  1.882204e+00    8.617948e-01   1.154671e-02
  1.884414e+00    8.280814e-01   1.130763e-02
  1.886624e+00    8.361186e-01   1.135134e-02
  1.888835e+00    8.507097e-01   1.143891e-02
  1.891045e+00    8.821044e-01   1.163693e-02
  1.893256e+00    9.115835e-01   1.181822e-02
  1.895466e+00    8.883754e-01   1.165533e-02
  1.897677e+00    8.411793e-01   1.133053e-02
  1.899887e+00    8.457218e-01   1.135001e-02
  1.902098e+00    8.483039e-01   1.135638e-02
  1.904308e+00    8.277448e-01   1.120738e-02
  1.906519e+00    8.217184e-01   1.115570e-02
  1.908729e+00    8.210325e-01   1.114050e-02
  1.910940e+00    8.131498e-01   1.107585e-02
  1.913150e+00    8.132350e-01   1.106592e-02
  1.915360e+00    8.267578e-01   1.114691e-02
  1.917571e+00    8.339142e-01   1.118412e-02
  1.919781e+00    8.100952e-01   1.101261e-02
  1.921992e+00    8.008959e-01   1.093942e-02
  1.924202e+00    8.078573e-01   1.097614e-02
  1.926413e+00    8.103713e-01   1.098296e-02
  1.928623e+00    7.934222e-01   1.085710e-02
  1.930834e+00    7.928187e-01   1.084265e-02
  1.933044e+00    7.892045e-01   1.080740e-02
  1.935255e+00    8.104942e-01   1.094186e-02
  1.937465e+00    7.875262e-01   1.077546e-02
  1.939675e+00    8.038837e-01   1.087595e-02
  1.941886e+00    8.001230e-01   1.084024e-02
  1.944096e+00    7.936193e-01   1.078597e-02
  1.946307e+00    7.958583e-01   1.079088e-02
  1.948517e+00    8.004653e-01   1.081161e-02
  1.950728e+00    7.997835e-01   1.079676e-02
  1.952938e+00    7.938430e-01   1.074651e-02
  1.955149e+00    7.863993e-01   1.068585e-02
  1.957359e+00    7.898707e-01   1.069940e-02
  1.959570e+00    7.924348e-01   1.070590e-02
  1.961780e+00    7.902923e-01   1.068153e-02
  1.963990e+00    7.904309e-01   1.067234e-02
  1.966201e+00    7.817767e-01   1.060377e-02
  1.968411e+00    7.757755e-01   1.055291e-02
  1.970622e+00    7.752213e-01   1.053914e-02
  1.972832e+00    7.693468e-01   1.048927e-02
  1.975043e+00    7.856053e-01   1.058949e-02
  1.977253e+00    7.630058e-01   1.042625e-02
  1.979464e+00    7.748031e-01   1.049657e-02
  1.981674e+00    7.785215e-01   1.051148e-02
  1.983885e+00    7.733046e-01   1.046625e-02
  1.986095e+00    7.761228e-01   1.047562e-02
  1.988305e+00    7.820792e-01   1.050584e-02
  1.990516e+00    7.881944e-01   1.053684e-02
  1.992726e+00    7.860911e-01   1.051306e-02
  1.994937e+00    7.748187e-01   1.042730e-02
  1.997147e+00    7.951439e-01   1.055332e-02
  1.999358e+00    7.767826e-01   1.042092e-02
  2.001568e+00    7.693724e-01   1.036028e-02
  2.003779e+00    7.732802e-01   1.037466e-02
  2.005989e+00    7.757305e-01   1.037901e-02
  2.008200e+00    7.661504e-01   1.030324e-02
  2.010410e+00    7.794032e-01   1.038015e-02
  2.012621e+00    7.583174e-01   1.022714e-02
  2.014831e+00    7.707745e-01   1.029931e-02
  2.017041e+00    7.560974e-01   1.019046e-02
  2.019252e+00    7.442525e-01   1.010051e-02
  2.021462e+00    7.590385e-01   1.019087e-02
  2.023673e+00    7.688240e-01   1.024694e-02
  2.025883e+00    7.556798e-01   1.014950e-02
  2.028094e+00    7.519178e-01   1.011463e-02
  2.030304e+00    7.615832e-01   1.016990e-02
  2.032515e+00    7.594323e-01   1.014622e-02
  2.034725e+00    7.609081e-01   1.014664e-02
  2.036936e+00    7.536383e-01   1.008873e-02
  2.039146e+00    7.602606e-01   1.012338e-02
  2.041356e+00    7.477668e-01   1.003026e-02
  2.043567e+00    7.447153e-01   1.000053e-02
  2.045777e+00    7.529816e-01   1.004664e-02
  2.047988e+00    7.549062e-01   1.005012e-02
  2.050198e+00    7.448729e-01   9.974720e-03
  2.052409e+00    7.541630e-01   1.002906e-02
  2.054619e+00    7.613419e-01   1.006926e-02
  2.056830e+00    7.784229e-01   1.017429e-02
  2.059040e+00    7.750737e-01   1.014474e-02
  2.061251e+00    7.766044e-01   1.014738e-02
  2.063461e+00    7.628120e-01   1.004921e-02
  2.065671e+00    7.543519e-01   9.984575e-03
  2.067882e+00    7.520112e-01   9.960040e-03
  2.070092e+00    7.646293e-01   1.003396e-02
  2.072303e+00    7.806368e-01   1.012909e-02
  2.074513e+00    7.732777e-01   1.007176e-02
  2.076724e+00    7.506242e-01   9.913617e-03
  2.078934e+00    7.570896e-01   9.947146e-03
  2.081145e+00    7.396061e-01   9.822560e-03
  2.083355e+00    7.319264e-01   9.762309e-03
  2.085566e+00    7.366030e-01   9.784562e-03
  2.087776e+00    7.499616e-01   9.863310e-03
  2.089986e+00    7.459771e-01   9.828261e-03
  2.092197e+00    7.547682e-01   9.876920e-03
  2.094407e+00    7.635972e-01   9.925140e-03
  2.096618e+00    7.382387e-01   9.750036e-03
  2.098828e+00    7.343339e-01   9.714897e-03
  2.101039e+00    7.222441e-01   9.625676e-03
  2.103249e+00    7.394527e-01   9.730953e-03
  2.105460e+00    7.338935e-01   9.685272e-03
  2.107670e+00    7.413323e-01   9.725417e-03
  2.109881e+00    7.406593e-01   9.711759e-03
  2.112091e+00    7.247234e-01   9.597745e-03
  2.114301e+00    7.311426e-01   9.631317e-03
  2.116512e+00    7.218432e-01   9.561095e-03
  2.118722e+00    7.074716e-01   9.456702e-03
  2.120933e+00    7.288413e-01   9.589532e-03
  2.123143e+00    7.334971e-01   9.611133e-03
  2.125354e+00    7.085236e-01   9.437637e-03
  2.127564e+00    7.022070e-01   9.386806e-03
  2.129775e+00    7.051126e-01   9.397559e-03
  2.131985e+00    7.133083e-01   9.442952e-03
  2.134196e+00    6.980023e-01   9.332610e-03
  2.136406e+00    7.007945e-01   9.342570e-03
  2.138617e+00    7.134321e-01   9.417958e-03
  2.140827e+00    7.145330e-01   9.441359e-03
  2.143037e+00    6.897390e-01   9.321027e-03
  2.145248e+00    6.683689e-01   9.196888e-03
  2.147458e+00    7.017500e-01   9.438854e-03
  2.149669e+00    7.054124e-01   9.475343e-03
  2.151879e+00    7.000973e-01   9.448791e-03
  2.154090e+00    6.965311e-01   9.431971e-03
  2.156300e+00    6.998717e-01   9.461179e-03
  2.158511e+00    6.867198e-01   9.377108e-03
  2.160721e+00    6.907440e-01   9.409332e-03
  2.162932e+00    6.952457e-01   9.443678e-03
  2.165142e+00    6.882656e-01   9.399150e-03
  2.167352e+00    6.933329e-01   9.436611e-03
  2.169563e+00    6.736144e-01   9.303364e-03
  2.171773e+00    6.876414e-01   9.402152e-03
  2.173984e+00    6.977463e-01   9.472415e-03
  2.176194e+00    6.795017e-01   9.348949e-03
  2.178405e+00    6.661441e-01   9.257282e-03
  2.180615e+00    6.582497e-01   9.202916e-03
  2.182826e+00    6.859843e-01   9.395462e-03
  2.185036e+00    6.926332e-01   9.440953e-03
  2.187247e+00    6.855999e-01   9.392859e-03
  2.189457e+00    6.770631e-01   9.333764e-03
  2.191667e+00    6.957456e-01   9.461518e-03
  2.193878e+00    6.693042e-01   9.279415e-03
  2.196088e+00    6.735940e-01   9.308420e-03
  2.198299e+00    6.943064e-01   9.449350e-03
  2.200509e+00    6.861162e-01   9.392414e-03
  2.202720e+00    6.597616e-01   9.209114e-03
  2.204930e+00    6.831991e-01   9.370005e-03
  2.207141e+00    6.913207e-01   9.424425e-03
  2.209351e+00    6.713023e-01   9.285117e-03
  2.211562e+00    6.691464e-01   9.268560e-03
  2.213772e+00    6.747776e-01   9.252088e-03
  2.215982e+00    6.681887e-01   9.162857e-03
  2.218193e+00    6.640751e-01   9.105223e-03
  2.220403e+00    6.757935e-01   9.160603e-03
  2.222614e+00    6.738064e-01   9.126184e-03
  2.224824e+00    6.765049e-01   9.125008e-03
  2.227035e+00    6.743802e-01   9.093208e-03
  2.229245e+00    6.673143e-01   9.028540e-03
  2.231456e+00    6.490260e-01   8.888596e-03
  2.233666e+00    6.737054e-01   9.040877e-03
  2.235877e+00    6.888434e-01   9.127436e-03
  2.238087e+00    6.806334e-01   9.059316e-03
  2.240298e+00    6.673257e-01   8.956543e-03
  2.242508e+00    6.678261e-01   8.944809e-03
  2.244718e+00    6.462897e-01   8.783839e-03
  2.246929e+00    6.629847e-01   8.882198e-03
  2.249139e+00    6.562020e-01   8.824378e-03
  2.251350e+00    6.651675e-01   8.872765e-03
  2.253560e+00    6.550380e-01   8.793489e-03
  2.255771e+00    6.475707e-01   8.731945e-03
  2.257981e+00    6.673551e-01   8.853157e-03
  2.260192e+00    6.570399e-01   8.773419e-03
  2.262402e+00    6.558962e-01   8.754989e-03
  2.264613e+00    6.711986e-01   8.845627e-03
  2.266823e+00    6.598129e-01   8.759929e-03
  2.269033e+00    6.623635e-01   8.766450e-03
  2.271244e+00    6.559823e-01   8.713789e-03
  2.273454e+00    6.498625e-01   8.662888e-03
  2.275665e+00    6.670279e-01   8.766191e-03
  2.277875e+00    6.770644e-01   8.821854e-03
  2.280086e+00    6.776928e-01   8.815786e-03
  2.282296e+00    6.549863e-01   8.657467e-03
  2.284507e+00    6.525704e-01   8.631386e-03
  2.286717e+00    6.525451e-01   8.621800e-03
  2.288928e+00    6.354358e-01   8.498316e-03
  2.291138e+00    6.550721e-01   8.619205e-03
  2.293348e+00    6.484583e-01   8.566101e-03
  2.295559e+00    6.554456e-01   8.602823e-03
  2.297769e+00    6.508331e-01   8.563267e-03
  2.299980e+00    6.526399e-01   8.565824e-03
  2.302190e+00    6.574659e-01   8.588284e-03
  2.304401e+00    6.535606e-01   8.553397e-03
  2.306611e+00    6.492628e-01   8.516061e-03
  2.308822e+00    6.401765e-01   8.447944e-03
  2.311032e+00    6.507776e-01   8.511146e-03
  2.313243e+00    6.407002e-01   8.438773e-03
  2.315453e+00    6.373652e-01   8.409267e-03
  2.317663e+00    6.441430e-01   8.444759e-03
  2.319874e+00    6.456264e-01   8.445754e-03
  2.322084e+00    6.477863e-01   8.450898e-03
  2.324295e+00    6.615586e-01   8.531926e-03
  2.326505e+00    6.397496e-01   8.381114e-03
  2.328716e+00    6.338254e-01   8.333706e-03
  2.330926e+00    6.400837e-01   8.365989e-03
  2.333137e+00    6.313578e-01   8.300469e-03
  2.335347e+00    6.330823e-01   8.302961e-03
  2.337558e+00    6.351138e-01   8.308109e-03
  2.339768e+00    6.366023e-01   8.309255e-03
  2.341979e+00    6.343492e-01   8.286225e-03
  2.344189e+00    6.378766e-01   8.300817e-03
  2.346399e+00    6.389177e-01   8.299087e-03
  2.348610e+00    6.259948e-01   8.206339e-03
  2.350820e+00    6.251024e-01   8.192356e-03
  2.353031e+00    6.237261e-01   8.175128e-03
  2.355241e+00    6.331789e-01   8.228776e-03
  2.357452e+00    6.275426e-01   8.183695e-03
  2.359662e+00    6.331668e-01   8.212045e-03
  2.361873e+00    6.255402e-01   8.154240e-03
  2.364083e+00    6.307209e-01   8.179933e-03
  2.366294e+00    6.386744e-01   8.223167e-03
  2.368504e+00    6.421057e-01   8.237069e-03
  2.370714e+00    6.087784e-01   8.012506e-03
  2.372925e+00    6.134511e-01   8.035202e-03
  2.375135e+00    6.374549e-01   8.182768e-03
  2.377346e+00    6.333667e-01   8.148480e-03
  2.379556e+00    6.362851e-01   8.159253e-03
  2.381767e+00    6.206234e-01   8.050356e-03
  2.383977e+00    6.142513e-01   8.001019e-03
  2.386188e+00    6.160499e-01   8.004844e-03
  2.388398e+00    6.041026e-01   7.918968e-03
  2.390609e+00    6.204495e-01   8.017651e-03
  2.392819e+00    6.172574e-01   7.989223e-03
  2.395029e+00    6.134705e-01   7.957030e-03
  2.397240e+00    6.124910e-01   7.942815e-03
  2.399450e+00    6.219940e-01   7.996338e-03
  2.401661e+00    6.108003e-01   7.916394e-03
  2.403871e+00    6.142660e-01   7.931029e-03
  2.406082e+00    6.086763e-01   7.887455e-03
  2.408292e+00    6.097994e-01   7.886918e-03
  2.410503e+00    6.108319e-01   7.886079e-03
  2.412713e+00    6.223138e-01   7.951980e-03
  2.414924e+00    6.056896e-01   7.837556e-03
  2.417134e+00    5.932053e-01   7.748812e-03
  2.419344e+00    5.839311e-01   7.680699e-03
  2.421555e+00    5.975505e-01   7.762264e-03
  2.423765e+00    6.061358e-01   7.810398e-03
  2.425976e+00    5.974349e-01   7.746358e-03
  2.428186e+00    5.922428e-01   7.705431e-03
  2.430397e+00    6.013809e-01   7.757137e-03
  2.432607e+00    6.083298e-01   7.794477e-03
  2.434818e+00    6.015651e-01   7.743448e-03
  2.437028e+00    5.946623e-01   7.691731e-03
  2.439239e+00    6.071511e-01   7.764331e-03
  2.441449e+00    5.960819e-01   7.686032e-03
  2.443659e+00    5.779141e-01   7.560712e-03
  2.445870e+00    5.822162e-01   7.600966e-03
  2.448080e+00    5.802867e-01   7.623096e-03
  2.450291e+00    5.736356e-01   7.595833e-03
  2.452501e+00    5.737439e-01   7.607685e-03
  2.454712e+00    5.686356e-01   7.582156e-03
  2.456922e+00    5.506836e-01   7.467993e-03
  2.459133e+00    5.450148e-01   7.434788e-03
  2.461343e+00    5.584083e-01   7.529894e-03
  2.463554e+00    5.644863e-01   7.574241e-03
  2.465764e+00    5.565907e-01   7.524203e-03
  2.467975e+00    5.671074e-01   7.597250e-03
  2.470185e+00    5.616430e-01   7.562832e-03
  2.472395e+00    5.417471e-01   7.428872e-03
  2.474606e+00    5.396114e-01   7.415746e-03
  2.476816e+00    5.562477e-01   7.529936e-03
  2.479027e+00    5.511301e-01   7.496069e-03
  2.481237e+00    5.564002e-01   7.532096e-03
  2.483448e+00    5.491762e-01   7.483369e-03
  2.485658e+00    5.330274e-01   7.372352e-03
  2.487869e+00    5.414380e-01   7.430341e-03
  2.490079e+00    5.422550e-01   7.435421e-03
  2.492290e+00    5.322972e-01   7.366400e-03
  2.494500e+00    5.365322e-01   7.394918e-03
  2.496710e+00    5.262629e-01   7.323127e-03
  2.498921e+00    5.286470e-01   7.338693e-03
  2.501131e+00    5.318237e-01   7.359771e-03
  2.503342e+00    5.111116e-01   7.213811e-03
  2.505552e+00    5.250869e-01   7.310607e-03
  2.507763e+00    5.232765e-01   7.296608e-03
  2.509973e+00    5.220834e-01   7.286909e-03
  2.512184e+00    5.168564e-01   7.248717e-03
  2.514394e+00    5.263287e-01   7.305505e-03
  2.516605e+00    5.139651e-01   7.172680e-03
  2.518815e+00    5.174924e-01   7.169154e-03
  2.521025e+00    5.180948e-01   7.152527e-03
  2.523236e+00    5.176947e-01   7.131894e-03
  2.525446e+00    5.306426e-01   7.204866e-03
  2.527657e+00    5.156088e-01   7.087590e-03
  2.529867e+00    5.219388e-01   7.116842e-03
  2.532078e+00    5.286953e-01   7.147647e-03
  2.534288e+00    5.272762e-01   7.124147e-03
  2.536499e+00    5.143058e-01   7.024154e-03
  2.538709e+00    5.125113e-01   7.001017e-03
  2.540920e+00    5.230813e-01   7.062202e-03
  2.543130e+00    5.286934e-01   7.089573e-03
  2.545340e+00    5.370030e-01   7.134891e-03
  2.547551e+00    5.370609e-01   7.125204e-03
  2.549761e+00    5.217720e-01   7.013471e-03
  2.551972e+00    5.156572e-01   6.962953e-03
  2.554182e+00    5.177765e-01   6.968109e-03
  2.556393e+00    5.199528e-01   6.973625e-03
  2.558603e+00    5.294498e-01   7.027905e-03
  2.560814e+00    5.196360e-01   6.953747e-03
  2.563024e+00    5.257525e-01   6.985933e-03
  2.565235e+00    5.209862e-01   6.944661e-03
  2.567445e+00    5.303088e-01   6.996857e-03
  2.569656e+00    5.114264e-01   6.861500e-03
  2.571866e+00    5.103487e-01   6.844962e-03
  2.574076e+00    5.007711e-01   6.771305e-03
  2.576287e+00    5.057188e-01   6.796434e-03
  2.578497e+00    4.946747e-01   6.714141e-03
  2.580708e+00    4.932128e-01   6.696294e-03
  2.582918e+00    5.042183e-01   6.762904e-03
  2.585129e+00    5.033325e-01   6.749310e-03
  2.587339e+00    4.974932e-01   6.702482e-03
  2.589550e+00    4.963417e-01   6.687284e-03
  2.591760e+00    5.190234e-01   6.830585e-03
  2.593971e+00    5.226927e-01   6.847097e-03
  2.596181e+00    5.021558e-01   6.705071e-03
  2.598391e+00    5.042406e-01   6.713804e-03
  2.600602e+00    5.078182e-01   6.731682e-03
  2.602812e+00    5.117164e-01   6.749918e-03
  2.605023e+00    5.109963e-01   6.737984e-03
  2.607233e+00    5.031030e-01   6.678630e-03
  2.609444e+00    5.081421e-01   6.704766e-03
  2.611654e+00    5.067073e-01   6.687970e-03
  2.613865e+00    5.003750e-01   6.639060e-03
  2.616075e+00    4.988427e-01   6.621791e-03
  2.618286e+00    5.026942e-01   6.640334e-03
  2.620496e+00    5.000024e-01   6.615857e-03
  2.622706e+00    5.108127e-01   6.681227e-03
  2.624917e+00    5.041319e-01   6.631550e-03
  2.627127e+00    4.963097e-01   6.574209e-03
  2.629338e+00    4.884175e-01   6.515826e-03
  2.631548e+00    5.093235e-01   6.647612e-03
  2.633759e+00    5.067654e-01   6.623734e-03
  2.635969e+00    5.092837e-01   6.633415e-03
  2.638180e+00    5.062621e-01   6.606699e-03
  2.640390e+00    5.026680e-01   6.576599e-03
  2.642601e+00    4.990411e-01   6.546178e-03
  2.644811e+00    4.885255e-01   6.469833e-03
  2.647021e+00    5.030946e-01   6.559029e-03
  2.649232e+00    4.931214e-01   6.487001e-03
  2.651442e+00    5.060881e-01   6.565205e-03
  2.653653e+00    5.068406e-01   6.563231e-03
  2.655863e+00    4.979678e-01   6.498852e-03
  2.658074e+00    4.958250e-01   6.478261e-03
  2.660284e+00    4.915144e-01   6.443700e-03
  2.662495e+00    4.937457e-01   6.451614e-03
  2.664705e+00    4.828939e-01   6.373823e-03
  2.666916e+00    5.078436e-01   6.529865e-03
  2.669126e+00    5.053549e-01   6.507339e-03
  2.671337e+00    4.963650e-01   6.442619e-03
  2.673547e+00    4.929270e-01   6.413886e-03
  2.675757e+00    5.021527e-01   6.467150e-03
  2.677968e+00    4.948052e-01   6.413122e-03
  2.680178e+00    4.887666e-01   6.367508e-03
  2.682389e+00    5.026892e-01   6.451087e-03
  2.684599e+00    5.030164e-01   6.446961e-03
  2.686810e+00    4.989060e-01   6.413894e-03
  2.689020e+00    4.858379e-01   6.323112e-03
  2.691231e+00    4.799015e-01   6.278121e-03
  2.693441e+00    4.778304e-01   6.258501e-03
  2.695652e+00    4.805588e-01   6.269889e-03
  2.697862e+00    4.835663e-01   6.283173e-03
  2.700072e+00    4.840270e-01   6.280120e-03
  2.702283e+00    4.879866e-01   6.299553e-03
  2.704493e+00    4.756191e-01   6.213015e-03
  2.706704e+00    4.796031e-01   6.232626e-03
  2.708914e+00    4.766111e-01   6.207261e-03
  2.711125e+00    4.886984e-01   6.279224e-03
  2.713335e+00    4.780968e-01   6.204729e-03
  2.715546e+00    4.757521e-01   6.183086e-03
  2.717756e+00    4.819078e-01   6.217101e-03
  2.719967e+00    4.844914e-01   6.227562e-03
  2.722177e+00    4.751534e-01   6.161180e-03
  2.724387e+00    4.759395e-01   6.160232e-03
  2.726598e+00    4.869493e-01   6.225009e-03
  2.728808e+00    4.853876e-01   6.208870e-03
  2.731019e+00    4.928436e-01   6.250191e-03
  2.733229e+00    4.829438e-01   6.181328e-03
  2.735440e+00    4.769014e-01   6.136290e-03
  2.737650e+00    4.838026e-01   6.174526e-03
  2.739861e+00    4.700502e-01   6.080128e-03
  2.742071e+00    4.960130e-01   6.239987e-03
  2.744282e+00    4.830564e-01   6.151694e-03
  2.746492e+00    4.867139e-01   6.168880e-03
  2.748702e+00    4.790048e-01   6.113943e-03
  2.750913e+00    4.862998e-01   6.154497e-03
  2.753123e+00    4.816194e-01   6.118699e-03
  2.755334e+00    4.837860e-01   6.126354e-03
  2.757544e+00    4.701216e-01   6.033533e-03
  2.759755e+00    4.725910e-01   6.043525e-03
  2.761965e+00    4.802217e-01   6.086124e-03
  2.764176e+00    4.940185e-01   6.166873e-03
  2.766386e+00    4.906700e-01   6.140091e-03
  2.768597e+00    4.726819e-01   6.020667e-03
  2.770807e+00    4.790141e-01   6.054972e-03
  2.773017e+00    4.828400e-01   6.073110e-03
  2.775228e+00    4.823745e-01   6.064390e-03
  2.777438e+00    4.775549e-01   6.028210e-03
  2.779649e+00    4.782176e-01   6.026498e-03
  2.781859e+00    4.758725e-01   6.005951e-03
  2.784070e+00    4.855323e-01   6.060685e-03
  2.786280e+00    4.777133e-01   6.005927e-03
  2.788491e+00    4.768717e-01   5.994796e-03
  2.790701e+00    4.819612e-01   6.021026e-03
  2.792912e+00    4.765776e-01   5.981330e-03
  2.795122e+00    4.723934e-01   5.949303e-03
  2.797333e+00    4.722470e-01   5.942852e-03
  2.799543e+00    4.838496e-01   6.009483e-03
  2.801753e+00    4.765354e-01   5.958042e-03
  2.803964e+00    4.731784e-01   5.931364e-03
  2.806174e+00    4.794038e-01   5.964078e-03
  2.808385e+00    4.744908e-01   5.926648e-03
  2.810595e+00    4.586565e-01   5.820177e-03
  2.812806e+00    4.617276e-01   5.833092e-03
  2.815016e+00    4.706368e-01   5.884382e-03
  2.817227e+00    4.834005e-01   5.989815e-03
  2.819437e+00    4.886357e-01   6.033434e-03
  2.821648e+00    4.744746e-01   5.947642e-03
  2.823858e+00    4.771401e-01   5.969690e-03
  2.826068e+00    4.703188e-01   5.931842e-03
  2.828279e+00    4.713348e-01   5.942257e-03
  2.830489e+00    4.701076e-01   5.937866e-03
  2.832700e+00    4.616945e-01   5.887008e-03
  2.834910e+00    4.674663e-01   5.925742e-03
  2.837121e+00    4.739563e-01   5.968476e-03
  2.839331e+00    4.600956e-01   5.881750e-03
  2.841542e+00    4.574464e-01   5.865803e-03
  2.843752e+00    4.681703e-01   5.934934e-03
  2.845963e+00    4.608228e-01   5.888577e-03
  2.848173e+00    4.631968e-01   5.903803e-03
  2.850383e+00    4.794072e-01   6.006514e-03
  2.852594e+00    4.801229e-01   6.010938e-03
  2.854804e+00    4.707677e-01   5.951572e-03
  2.857015e+00    4.698866e-01   5.945576e-03
  2.859225e+00    4.674217e-01   5.929695e-03
  2.861436e+00    4.649746e-01   5.913503e-03
  2.863646e+00    4.648924e-01   5.913016e-03
  2.865857e+00    4.712111e-01   5.953415e-03
  2.868067e+00    4.662620e-01   5.922275e-03
  2.870278e+00    4.631254e-01   5.901998e-03
  2.872488e+00    4.451188e-01   5.784965e-03
  2.874698e+00    4.644373e-01   5.908121e-03
  2.876909e+00    4.627500e-01   5.896062e-03
  2.879119e+00    4.655927e-01   5.912518e-03
  2.881330e+00    4.491055e-01   5.805437e-03
  2.883540e+00    4.609445e-01   5.880065e-03
  2.885751e+00    4.743384e-01   5.963217e-03
  2.887961e+00    4.554900e-01   5.841687e-03
  2.890172e+00    4.628491e-01   5.887056e-03
  2.892382e+00    4.650456e-01   5.899213e-03
  2.894593e+00    4.551049e-01   5.834018e-03
  2.896803e+00    4.690140e-01   5.920487e-03
  2.899014e+00    4.661110e-01   5.900227e-03
  2.901224e+00    4.594652e-01   5.856008e-03
  2.903434e+00    4.770198e-01   5.964856e-03
  2.905645e+00    4.600093e-01   5.855320e-03
  2.907855e+00    4.564110e-01   5.830269e-03
  2.910066e+00    4.601634e-01   5.852120e-03
  2.912276e+00    4.569917e-01   5.829790e-03
  2.914487e+00    4.539010e-01   5.807613e-03
  2.916697e+00    4.456036e-01   5.752079e-03
  2.918908e+00    4.509437e-01   5.784458e-03
  2.921118e+00    4.582277e-01   5.828281e-03
  2.923329e+00    4.683751e-01   5.890132e-03
  2.925539e+00    4.512413e-01   5.779149e-03
  2.927749e+00    4.517252e-01   5.779911e-03
  2.929960e+00    4.625916e-01   5.846241e-03
  2.932170e+00    4.573790e-01   5.810887e-03
  2.934381e+00    4.610823e-01   5.831906e-03
  2.936591e+00    4.559291e-01   5.796642e-03
  2.938802e+00    4.540601e-01   5.782057e-03
  2.941012e+00    4.434556e-01   5.711835e-03
  2.943223e+00    4.586331e-01   5.806030e-03
  2.945433e+00    4.648066e-01   5.841225e-03
  2.947644e+00    4.480772e-01   5.731044e-03
  2.949854e+00    4.482172e-01   5.727694e-03
  2.952064e+00    4.527953e-01   5.752658e-03
  2.954275e+00    4.542438e-01   5.757439e-03
  2.956485e+00    4.616074e-01   5.799702e-03
  2.958696e+00    4.673273e-01   5.831101e-03
  2.960906e+00    4.640599e-01   5.806461e-03
  2.963117e+00    4.512814e-01   5.721487e-03
  2.965327e+00    4.544634e-01   5.737713e-03
  2.967538e+00    4.554229e-01   5.740861e-03
  2.969748e+00    4.448636e-01   5.671127e-03
  2.971959e+00    4.516550e-01   5.711124e-03
  2.974169e+00    4.521990e-01   5.711982e-03
  2.976379e+00    4.520177e-01   5.707934e-03
  2.978590e+00    4.521564e-01   5.705665e-03
  2.980800e+00    4.700574e-01   5.814675e-03
  2.983011e+00    4.530826e-01   5.705928e-03
  2.985221e+00    4.612722e-01   5.754081e-03
  2.987432e+00    4.649680e-01   5.773947e-03
  2.989642e+00    4.672304e-01   5.785305e-03
  2.991853e+00    4.736941e-01   5.821840e-03
  2.994063e+00    4.600355e-01   5.734371e-03
  2.996274e+00    4.602055e-01   5.732211e-03
  2.998484e+00    4.519005e-01   5.677581e-03
  3.000694e+00    4.492819e-01   5.657644e-03
  3.002905e+00    4.548573e-01   5.689722e-03
  3.005115e+00    4.411263e-01   5.600231e-03
  3.007326e+00    4.464387e-01   5.630725e-03
  3.009536e+00    4.499135e-01   5.649352e-03
  3.011747e+00    4.526035e-01   5.663294e-03
  3.013957e+00    4.521630e-01   5.657376e-03
  3.016168e+00    4.392092e-01   5.572543e-03
  3.018378e+00    4.441211e-01   5.600580e-03
  3.020589e+00    4.625328e-01   5.712268e-03
  3.022799e+00    4.419673e-01   5.580693e-03
  3.025010e+00    4.546772e-01   5.657128e-03
  3.027220e+00    4.538576e-01   5.648913e-03
  3.029430e+00    4.429538e-01   5.577446e-03
  3.031641e+00    4.427648e-01   5.573119e-03
  3.033851e+00    4.552574e-01   5.647672e-03
  3.036062e+00    4.556873e-01   5.647565e-03
  3.038272e+00    4.407462e-01   5.550663e-03
  3.040483e+00    4.578012e-01   5.653786e-03
  3.042693e+00    4.421270e-01   5.552934e-03
  3.044904e+00    4.432589e-01   5.556047e-03
  3.047114e+00    4.460078e-01   5.568457e-03
  3.049325e+00    4.563122e-01   5.628021e-03
  3.051535e+00    4.455948e-01   5.557141e-03
  3.053745e+00    4.563693e-01   5.619163e-03
  3.055956e+00    4.426446e-01   5.529493e-03
  3.058166e+00    4.446437e-01   5.537719e-03
  3.060377e+00    4.364770e-01   5.481945e-03
  3.062587e+00    4.361953e-01   5.475608e-03
  3.064798e+00    4.346895e-01   5.461968e-03
  3.067008e+00    4.428530e-01   5.508315e-03
  3.069219e+00    4.426369e-01   5.502506e-03
  3.071429e+00    4.547730e-01   5.573894e-03
  3.073640e+00    4.512702e-01   5.549050e-03
  3.075850e+00    4.392115e-01   5.470863e-03
  3.078060e+00    4.438910e-01   5.496844e-03
  3.080271e+00    4.498957e-01   5.530415e-03
  3.082481e+00    4.512438e-01   5.535242e-03
  3.084692e+00    4.352485e-01   5.432946e-03
  3.086902e+00    4.277571e-01   5.382789e-03
  3.089113e+00    4.400295e-01   5.455920e-03
  3.091323e+00    4.532551e-01   5.533917e-03
  3.093534e+00    4.448055e-01   5.478750e-03
  3.095744e+00    4.428166e-01   5.463112e-03
  3.097955e+00    4.478556e-01   5.490568e-03
  3.100165e+00    4.371088e-01   5.420974e-03
  3.102375e+00    4.599524e-01   5.557382e-03
  3.104586e+00    4.428440e-01   5.449555e-03
  3.106796e+00    4.430460e-01   5.447294e-03
  3.109007e+00    4.539097e-01   5.510434e-03
  3.111217e+00    4.455502e-01   5.455764e-03
  3.113428e+00    4.361559e-01   5.394562e-03
  3.115638e+00    4.414476e-01   5.423972e-03
  3.117849e+00    4.457524e-01   5.446619e-03
  3.120059e+00    4.305483e-01   5.349529e-03
  3.122270e+00    4.422886e-01   5.418716e-03
  3.124480e+00    4.456948e-01   5.435863e-03
  3.126691e+00    4.349493e-01   5.366408e-03
  3.128901e+00    4.347904e-01   5.362337e-03
  3.131111e+00    4.410998e-01   5.397280e-03
  3.133322e+00    4.396954e-01   5.385253e-03
  3.135532e+00    4.493106e-01   5.440375e-03
  3.137743e+00    4.614074e-01   5.509609e-03
  3.139953e+00    4.425299e-01   5.392046e-03
  3.142164e+00    4.331696e-01   5.346582e-03
  3.144374e+00    4.430387e-01   5.435575e-03
  3.146585e+00    4.372883e-01   5.414672e-03
  3.148795e+00    4.358572e-01   5.416478e-03
  3.151006e+00    4.521208e-01   5.525279e-03
  3.153216e+00    4.324625e-01   5.410873e-03
  3.155426e+00    4.374853e-01   5.448492e-03
  3.157637e+00    4.426124e-01   5.485854e-03
  3.159847e+00    4.333539e-01   5.433015e-03
  3.162058e+00    4.395679e-01   5.476259e-03
  3.164268e+00    4.505217e-01   5.548182e-03
  3.166479e+00    4.347633e-01   5.453923e-03
  3.168689e+00    4.417576e-01   5.500986e-03
  3.170900e+00    4.398032e-01   5.491974e-03
  3.173110e+00    4.364888e-01   5.474127e-03
  3.175321e+00    4.206816e-01   5.376518e-03
  3.177531e+00    4.207676e-01   5.379757e-03
  3.179741e+00    4.232460e-01   5.397615e-03
  3.181952e+00    4.252328e-01   5.412332e-03
  3.184162e+00    4.306630e-01   5.448979e-03
  3.186373e+00    4.308714e-01   5.451865e-03
  3.188583e+00    4.412732e-01   5.519080e-03
  3.190794e+00    4.481901e-01   5.563950e-03
  3.193004e+00    4.356351e-01   5.486715e-03
  3.195215e+00    4.313436e-01   5.461122e-03
  3.197425e+00    4.379347e-01   5.503881e-03
  3.199636e+00    4.276223e-01   5.437952e-03
  3.201846e+00    4.302667e-01   5.454121e-03
  3.204056e+00    4.391434e-01   5.510994e-03
  3.206267e+00    4.338740e-01   5.478676e-03
  3.208477e+00    4.472938e-01   5.563698e-03
  3.210688e+00    4.389333e-01   5.512326e-03
  3.212898e+00    4.288858e-01   5.449418e-03
  3.215109e+00    4.284434e-01   5.447375e-03
  3.217319e+00    4.190569e-01   5.387982e-03
  3.219530e+00    4.282798e-01   5.447361e-03
  3.221740e+00    4.276211e-01   5.443701e-03
  3.223951e+00    4.311429e-01   5.466575e-03
  3.226161e+00    4.308540e-01   5.464885e-03
  3.228372e+00    4.355175e-01   5.494968e-03
  3.230582e+00    4.273116e-01   5.443069e-03
  3.232792e+00    4.280915e-01   5.448256e-03
  3.235003e+00    4.210272e-01   5.403370e-03
  3.237213e+00    4.284960e-01   5.451179e-03
  3.239424e+00    4.187408e-01   5.388767e-03
  3.241634e+00    4.203623e-01   5.399327e-03
  3.243845e+00    4.192758e-01   5.392397e-03
  3.246055e+00    4.289491e-01   5.453994e-03
  3.248266e+00    4.050216e-01   5.299878e-03
  3.250476e+00    4.362283e-01   5.499939e-03
  3.252687e+00    4.312721e-01   5.468566e-03
  3.254897e+00    4.210432e-01   5.403193e-03
  3.257107e+00    4.240301e-01   5.422008e-03
  3.259318e+00    4.229552e-01   5.414888e-03
  3.261528e+00    4.291732e-01   5.454428e-03
  3.263739e+00    4.235829e-01   5.418220e-03
  3.265949e+00    4.102535e-01   5.332178e-03
  3.268160e+00    4.106407e-01   5.334258e-03
  3.270370e+00    4.290059e-01   5.451741e-03
  3.272581e+00    4.150225e-01   5.361888e-03
  3.274791e+00    4.192229e-01   5.388416e-03
  3.277002e+00    4.318174e-01   5.468195e-03
  3.279212e+00    4.109888e-01   5.334322e-03
  3.281422e+00    4.245071e-01   5.420748e-03
  3.283633e+00    4.153604e-01   5.361371e-03
  3.285843e+00    4.216332e-01   5.401357e-03
  3.288054e+00    4.324016e-01   5.468951e-03
  3.290264e+00    4.208883e-01   5.395348e-03
  3.292475e+00    4.205752e-01   5.392489e-03
  3.294685e+00    4.336552e-01   5.475084e-03
  3.296896e+00    4.121616e-01   5.336923e-03
  3.299106e+00    4.355904e-01   5.485946e-03
  3.301317e+00    4.093836e-01   5.317358e-03
  3.303527e+00    4.195016e-01   5.382193e-03
  3.305737e+00    4.125839e-01   5.336592e-03
  3.307948e+00    4.214508e-01   5.392973e-03
  3.310158e+00    4.267190e-01   5.425719e-03
  3.312369e+00    4.197303e-01   5.380235e-03
  3.314579e+00    4.137630e-01   5.340943e-03
  3.316790e+00    4.138103e-01   5.340547e-03
  3.319000e+00    4.276706e-01   5.428048e-03
  3.321211e+00    4.289419e-01   5.435514e-03
  3.323421e+00    4.162468e-01   5.353273e-03
  3.325632e+00    4.085772e-01   5.302844e-03
  3.327842e+00    4.203126e-01   5.377558e-03
  3.330052e+00    4.252274e-01   5.407820e-03
  3.332263e+00    4.320102e-01   5.449776e-03
  3.334473e+00    4.126809e-01   5.325554e-03
  3.336684e+00    4.220566e-01   5.384419e-03
  3.338894e+00    4.168555e-01   5.350332e-03
  3.341105e+00    4.104602e-01   5.307927e-03
  3.343315e+00    4.121900e-01   5.317966e-03
  3.345526e+00    4.259173e-01   5.404889e-03
  3.347736e+00    4.195316e-01   5.362825e-03
  3.349947e+00    4.263068e-01   5.404985e-03
  3.352157e+00    4.288472e-01   5.419908e-03
  3.354368e+00    4.180740e-01   5.350114e-03
  3.356578e+00    4.199026e-01   5.360754e-03
  3.358788e+00    4.093418e-01   5.291612e-03
  3.360999e+00    4.153031e-01   5.328759e-03
  3.363209e+00    4.158475e-01   5.331229e-03
  3.365420e+00    4.369234e-01   5.463109e-03
  3.367630e+00    4.197078e-01   5.353400e-03
  3.369841e+00    4.166910e-01   5.332677e-03
  3.372051e+00    4.217215e-01   5.362796e-03
  3.374262e+00    4.168366e-01   5.329198e-03
  3.376472e+00    4.152162e-01   5.316404e-03
  3.378683e+00    4.012934e-01   5.224028e-03
  3.380893e+00    4.159423e-01   5.316187e-03
  3.383103e+00    4.282921e-01   5.391795e-03
  3.385314e+00    4.141136e-01   5.299578e-03
  3.387524e+00    4.195923e-01   5.331751e-03
  3.389735e+00    4.304286e-01   5.397493e-03
  3.391945e+00    4.150929e-01   5.296789e-03
  3.394156e+00    4.126279e-01   5.276817e-03
  3.396366e+00    4.168153e-01   5.300081e-03
  3.398577e+00    4.160471e-01   5.292144e-03
  3.400787e+00    4.140542e-01   5.291427e-03
  3.402998e+00    3.945185e-01   5.202407e-03
  3.405208e+00    3.928011e-01   5.211428e-03
  3.407418e+00    3.767482e-01   5.119093e-03
  3.409629e+00    4.007117e-01   5.293351e-03
  3.411839e+00    3.918517e-01   5.246183e-03
  3.414050e+00    3.957299e-01   5.283050e-03
  3.416260e+00    3.921572e-01   5.268764e-03
  3.418471e+00    3.934743e-01   5.287011e-03
  3.420681e+00    3.860505e-01   5.245327e-03
  3.422892e+00    3.882713e-01   5.268386e-03
  3.425102e+00    3.751707e-01   5.186385e-03
  3.427313e+00    3.827118e-01   5.245395e-03
  3.429523e+00    3.889263e-01   5.294886e-03
  3.431733e+00    3.865659e-01   5.285464e-03
  3.433944e+00    3.996089e-01   5.380510e-03
  3.436154e+00    3.918023e-01   5.333998e-03
  3.438365e+00    3.909387e-01   5.334114e-03
  3.440575e+00    3.900266e-01   5.333923e-03
  3.442786e+00    3.698615e-01   5.199717e-03
  3.444996e+00    3.733934e-01   5.229969e-03
  3.447207e+00    3.495288e-01   5.065197e-03
  3.449417e+00    3.535053e-01   5.133722e-03
  3.451628e+00    3.660717e-01   5.253475e-03
  3.453838e+00    3.705857e-01   5.307046e-03
  3.456049e+00    3.662245e-01   5.299610e-03
  3.458259e+00    3.661673e-01   5.321098e-03
  3.460469e+00    3.730523e-01   5.390874e-03
  3.462680e+00    3.611597e-01   5.323177e-03
  3.464890e+00    3.654457e-01   5.372433e-03
  3.467101e+00    3.710644e-01   5.431124e-03
  3.469311e+00    3.894704e-01   5.581153e-03
  3.471522e+00    4.057046e-01   5.713363e-03
  3.473732e+00    4.112191e-01   5.768670e-03
  3.475943e+00    4.011908e-01   5.714008e-03
  3.478153e+00    4.139512e-01   5.820062e-03
  3.480364e+00    4.122251e-01   5.823464e-03
  3.482574e+00    4.120500e-01   5.837710e-03
  3.484784e+00    4.308421e-01   5.984579e-03
  3.486995e+00    4.344599e-01   6.025076e-03
  3.489205e+00    4.268676e-01   5.986971e-03
  3.491416e+00    4.318966e-01   6.037077e-03
  3.493626e+00    4.303237e-01   6.040609e-03
  3.495837e+00    4.308975e-01   6.059248e-03
  3.498047e+00    4.427136e-01   6.156193e-03
  3.500258e+00    4.501570e-01   6.222307e-03
  3.502468e+00    4.482324e-01   6.223292e-03
  3.504679e+00    4.774573e-01   6.437724e-03
  3.506889e+00    4.633472e-01   6.356291e-03
  3.509099e+00    4.884949e-01   6.541115e-03
  3.511310e+00    4.790633e-01   6.492193e-03
  3.513520e+00    4.888411e-01   6.572602e-03
  3.515731e+00    4.960253e-01   6.635261e-03
  3.517941e+00    5.074080e-01   6.725570e-03
  3.520152e+00    5.037062e-01   6.715443e-03
  3.522362e+00    5.030491e-01   6.725600e-03
  3.524573e+00    5.215756e-01   6.862768e-03
  3.526783e+00    5.192795e-01   6.861164e-03
  3.528994e+00    5.160220e-01   6.851818e-03
  3.531204e+00    5.193432e-01   6.886268e-03
  3.533414e+00    5.360485e-01   7.008334e-03
  3.535625e+00    5.336869e-01   7.005342e-03
  3.537835e+00    5.347055e-01   7.024121e-03
  3.540046e+00    5.480660e-01   7.120398e-03
  3.542256e+00    5.379905e-01   7.062200e-03
  3.544467e+00    5.454847e-01   7.118888e-03
  3.546677e+00    5.517215e-01   7.167180e-03
  3.548888e+00    5.314931e-01   7.042027e-03
  3.551098e+00    5.217843e-01   6.984586e-03
  3.553309e+00    5.360259e-01   7.087429e-03
  3.555519e+00    5.460081e-01   7.164524e-03
  3.557729e+00    5.388454e-01   7.129114e-03
  3.559940e+00    5.420949e-01   7.162231e-03
  3.562150e+00    5.440088e-01   7.186625e-03
  3.564361e+00    5.219264e-01   7.052415e-03
  3.566571e+00    5.453730e-01   7.223018e-03
  3.568782e+00    5.451689e-01   7.235920e-03
  3.570992e+00    5.355141e-01   7.185307e-03
  3.573203e+00    5.344666e-01   7.192397e-03
  3.575413e+00    5.482143e-01   7.298222e-03
  3.577624e+00    5.445506e-01   7.288094e-03
  3.579834e+00    5.176418e-01   7.119331e-03
  3.582045e+00    5.167453e-01   7.126939e-03
  3.584255e+00    5.427990e-01   7.318556e-03
  3.586465e+00    5.305107e-01   7.249125e-03
  3.588676e+00    5.220010e-01   7.204708e-03
  3.590886e+00    5.198002e-01   7.203048e-03
  3.593097e+00    5.272284e-01   7.268679e-03
  3.595307e+00    5.266998e-01   7.278891e-03
  3.597518e+00    5.353950e-01   7.352856e-03
  3.599728e+00    5.444621e-01   7.429143e-03
  3.601939e+00    5.364129e-01   7.388088e-03
  3.604149e+00    5.292382e-01   7.352823e-03
  3.606360e+00    5.453701e-01   7.478301e-03
  3.608570e+00    5.465764e-01   7.500916e-03
  3.610780e+00    5.374837e-01   7.449322e-03
  3.612991e+00    5.344456e-01   7.438284e-03
  3.615201e+00    5.282910e-01   7.405030e-03
  3.617412e+00    5.509136e-01   7.569283e-03
  3.619622e+00    5.634087e-01   7.660805e-03
  3.621833e+00    5.285324e-01   7.426559e-03
  3.624043e+00    5.469325e-01   7.564342e-03
  3.626254e+00    5.385031e-01   7.515550e-03
  3.628464e+00    5.459113e-01   7.578187e-03
  3.630675e+00    5.447267e-01   7.584232e-03
  3.632885e+00    5.417412e-01   7.577946e-03
  3.635095e+00    5.431653e-01   7.602441e-03
  3.637306e+00    5.362068e-01   7.567995e-03
  3.639516e+00    5.167840e-01   7.443961e-03
  3.641727e+00    5.344483e-01   7.584665e-03
  3.643937e+00    5.303264e-01   7.569915e-03
  3.646148e+00    5.456564e-01   7.693294e-03
  3.648358e+00    5.417437e-01   7.680672e-03
  3.650569e+00    5.382674e-01   7.670778e-03
  3.652779e+00    5.278094e-01   7.610616e-03
  3.654990e+00    5.404748e-01   7.716360e-03
  3.657200e+00    5.205068e-01   7.587230e-03
  3.659410e+00    5.394660e-01   7.739222e-03
  3.661621e+00    5.428103e-01   7.778444e-03
  3.663831e+00    5.299154e-01   7.700590e-03
  3.666042e+00    5.318210e-01   7.729598e-03
  3.668252e+00    5.209885e-01   7.665561e-03
  3.670463e+00    5.190739e-01   7.666510e-03
  3.672673e+00    5.194500e-01   7.684536e-03
  3.674884e+00    5.199724e-01   7.703650e-03
  3.677094e+00    5.253915e-01   7.759131e-03
  3.679305e+00    5.239445e-01   7.763907e-03
  3.681515e+00    5.284525e-01   7.812814e-03
  3.683726e+00    5.261913e-01   7.811826e-03
  3.685936e+00    5.301895e-01   7.857190e-03
  3.688146e+00    5.179220e-01   7.781377e-03
  3.690357e+00    5.122772e-01   7.754575e-03
  3.692567e+00    5.195914e-01   7.825714e-03
  3.694778e+00    5.609553e-01   8.147823e-03
  3.696988e+00    5.562015e-01   8.129665e-03
  3.699199e+00    5.392033e-01   8.020966e-03
  3.701409e+00    5.048454e-01   7.777260e-03
  3.703620e+00    5.170754e-01   7.887010e-03
  3.705830e+00    5.284747e-01   7.989998e-03
  3.708041e+00    5.385274e-01   8.082472e-03
  3.710251e+00    5.188403e-01   7.949980e-03
  3.712461e+00    5.189406e-01   7.967423e-03
  3.714672e+00    5.197529e-01   7.990343e-03
  3.716882e+00    5.241191e-01   8.040635e-03
  3.719093e+00    5.133496e-01   7.974603e-03
  3.721303e+00    5.021045e-01   7.903434e-03
  3.723514e+00    5.063897e-01   7.954147e-03
  3.725724e+00    5.116649e-01   8.012519e-03
  3.727935e+00    5.151853e-01   8.057436e-03
  3.730145e+00    5.301245e-01   8.190950e-03
  3.732356e+00    5.405883e-01   8.289366e-03
  3.734566e+00    5.383955e-01   8.290458e-03
  3.736776e+00    5.380984e-01   8.306350e-03
  3.738987e+00    5.061228e-01   8.073359e-03
  3.741197e+00    5.171492e-01   8.178907e-03
  3.743408e+00    4.839271e-01   7.929375e-03
  3.745618e+00    5.094839e-01   8.154251e-03
  3.747829e+00    5.249290e-01   8.295313e-03
  3.750039e+00    5.304440e-01   8.357444e-03
  3.752250e+00    5.258693e-01   8.340149e-03
  3.754460e+00    4.994695e-01   8.146380e-03
  3.756671e+00    5.155625e-01   8.295499e-03
  3.758881e+00    5.073729e-01   8.248017e-03
  3.761091e+00    5.141460e-01   8.322075e-03
  3.763302e+00    5.016779e-01   8.239512e-03
  3.765512e+00    5.025286e-01   8.265696e-03
  3.767723e+00    5.179513e-01   8.411077e-03
  3.769933e+00    5.264937e-01   8.499894e-03
  3.772144e+00    5.262547e-01   8.517923e-03
  3.774354e+00    5.095550e-01   8.401641e-03
  3.776565e+00    5.023835e-01   8.362040e-03
  3.778775e+00    5.143579e-01   8.481318e-03
  3.780986e+00    5.047226e-01   8.421784e-03
  3.783196e+00    5.206030e-01   8.573825e-03
  3.785407e+00    5.131138e-01   8.532627e-03
  3.787617e+00    4.928780e-01   8.383171e-03
  3.789827e+00    4.937886e-01   8.411331e-03
  3.792038e+00    4.929411e-01   8.424665e-03
  3.794248e+00    4.986128e-01   8.494117e-03
  3.796459e+00    5.239848e-01   8.729420e-03
  3.798669e+00    5.239483e-01   8.750956e-03
  3.800880e+00    5.254267e-01   8.785297e-03
  3.803090e+00    5.099112e-01   8.676632e-03
  3.805301e+00    5.086406e-01   8.688084e-03
  3.807511e+00    5.033088e-01   8.664533e-03
  3.809722e+00    5.071888e-01   8.720256e-03
  3.811932e+00    4.941431e-01   8.629413e-03
  3.814142e+00    5.373148e-01   9.022263e-03
  3.816353e+00    5.198215e-01   8.897508e-03
  3.818563e+00    5.217772e-01   8.937838e-03
  3.820774e+00    5.175120e-01   8.924858e-03
  3.822984e+00    5.098340e-01   8.882046e-03
  3.825195e+00    4.967852e-01   8.791349e-03
  3.827405e+00    4.864497e-01   8.723028e-03
  3.829616e+00    5.084006e-01   8.941967e-03
  3.831826e+00    5.079365e-01   8.962316e-03
  3.834037e+00    5.040985e-01   8.953112e-03
  3.836247e+00    5.128645e-01   9.055661e-03
  3.838457e+00    4.972031e-01   8.941382e-03
  3.840668e+00    4.962835e-01   8.958314e-03
  3.842878e+00    5.060420e-01   9.071707e-03
  3.845089e+00    4.687349e-01   8.755824e-03
  3.847299e+00    5.078897e-01   9.140242e-03
  3.849510e+00    4.916743e-01   9.018949e-03
  3.851720e+00    4.879561e-01   9.005993e-03
  3.853931e+00    5.159409e-01   9.280036e-03
  3.856141e+00    5.279445e-01   9.407087e-03
  3.858352e+00    4.862545e-01   9.047111e-03
  3.860562e+00    4.692122e-01   8.905938e-03
  3.862772e+00    4.888553e-01   9.109901e-03
  3.864983e+00    5.086346e-01   9.312330e-03
  3.867193e+00    5.077039e-01   9.323942e-03
  3.869404e+00    4.858081e-01   9.140267e-03
  3.871614e+00    4.953917e-01   9.250051e-03
  3.873825e+00    4.850275e-01   9.172862e-03
  3.876035e+00    5.131482e-01   9.456087e-03
  3.878246e+00    5.310405e-01   9.646188e-03
  3.880456e+00    5.327789e-01   9.692220e-03
  3.882667e+00    5.180700e-01   9.587565e-03
  3.884877e+00    5.141269e-01   9.581475e-03
  3.887087e+00    4.832045e-01   9.318470e-03
  3.889298e+00    4.816766e-01   9.333838e-03
  3.891508e+00    4.830426e-01   9.377301e-03
  3.893719e+00    4.755368e-01   9.334738e-03
  3.895929e+00    5.020637e-01   9.623219e-03
  3.898140e+00    5.076636e-01   9.709186e-03
  3.900350e+00    5.112888e-01   9.776421e-03
  3.902561e+00    5.186435e-01   9.879919e-03
  3.904771e+00    4.837788e-01   9.574605e-03
  3.906982e+00    4.898017e-01   9.667162e-03
  3.909192e+00    4.934539e-01   9.736768e-03
  3.911403e+00    4.978929e-01   9.814853e-03
  3.913613e+00    4.748653e-01   9.618867e-03
  3.915823e+00    5.343904e-01   1.024039e-02
  3.918034e+00    5.242909e-01   1.017976e-02
  3.920244e+00    5.061270e-01   1.003821e-02
  3.922455e+00    4.871545e-01   9.884378e-03
  3.924665e+00    4.794432e-01   9.841828e-03
  3.926876e+00    4.842896e-01   9.928528e-03
  3.929086e+00    4.560505e-01   9.670784e-03
  3.931297e+00    4.817225e-01   9.973803e-03
  3.933507e+00    4.883372e-01   1.007103e-02
  3.935718e+00    4.911418e-01   1.012880e-02
  3.937928e+00    4.840555e-01   1.008479e-02
  3.940138e+00    4.827392e-01   1.010022e-02
  3.942349e+00    5.018582e-01   1.032871e-02
  3.944559e+00    4.778084e-01   1.010781e-02
  3.946770e+00    5.034102e-01   1.040577e-02
  3.948980e+00    4.784160e-01   1.017472e-02
  3.951191e+00    5.288783e-01   1.072985e-02
  3.953401e+00    5.223005e-01   1.069558e-02
  3.955612e+00    5.050049e-01   1.054922e-02
  3.957822e+00    4.844607e-01   1.036399e-02
  3.960033e+00    4.887410e-01   1.044246e-02
  3.962243e+00    4.791553e-01   1.037211e-02
  3.964453e+00    4.859988e-01   1.047907e-02
  3.966664e+00    4.554601e-01   1.017681e-02
  3.968874e+00    5.087160e-01   1.078435e-02
  3.971085e+00    4.972295e-01   1.068420e-02
  3.973295e+00    5.224774e-01   1.097428e-02
  3.975506e+00    4.857275e-01   1.060303e-02
  3.977716e+00    4.862964e-01   1.063112e-02
  3.979927e+00    5.025660e-01   1.083007e-02
  3.982137e+00    5.014094e-01   1.084024e-02
  3.984348e+00    4.853936e-01   1.068834e-02
  3.986558e+00    4.862398e-01   1.071989e-02
  3.988768e+00    5.040415e-01   1.093783e-02
  3.990979e+00    5.080878e-01   1.100500e-02
  3.993189e+00    4.783073e-01   1.070047e-02
  3.995400e+00    4.839935e-01   1.078740e-02
  3.997610e+00    5.020049e-01   1.101663e-02
  3.999821e+00    4.904485e-01   1.092683e-02
  4.002031e+00    5.015436e-01   1.108876e-02
  4.004242e+00    4.901270e-01   1.100063e-02
  4.006452e+00    4.693314e-01   1.080342e-02
  4.008663e+00    4.863348e-01   1.103732e-02
  4.010873e+00    5.086980e-01   1.132931e-02
  4.013084e+00    4.981350e-01   1.125247e-02
  4.015294e+00    4.915963e-01   1.121983e-02
  4.017504e+00    4.702858e-01   1.101515e-02
  4.019715e+00    4.932660e-01   1.132390e-02
  4.021925e+00    4.928775e-01   1.136282e-02
  4.024136e+00    4.787674e-01   1.124246e-02
  4.026346e+00    5.311863e-01   1.188806e-02
  4.028557e+00    4.723885e-01   1.125479e-02
  4.030767e+00    4.918554e-01   1.153030e-02
  4.032978e+00    4.622699e-01   1.122336e-02
  4.035188e+00    4.844221e-01   1.153534e-02
  4.037399e+00    5.029230e-01   1.180209e-02
  4.039609e+00    4.872297e-01   1.166451e-02
  4.041819e+00    4.640852e-01   1.143178e-02
  4.044030e+00    4.777274e-01   1.164822e-02
  4.046240e+00    5.176902e-01   1.217717e-02
  4.048451e+00    4.902297e-01   1.190126e-02
  4.050661e+00    4.730697e-01   1.174206e-02
  4.052872e+00    4.655408e-01   1.169988e-02
  4.055082e+00    4.948044e-01   1.211631e-02
  4.057293e+00    4.895918e-01   1.210628e-02
  4.059503e+00    5.409327e-01   1.278324e-02
  4.061714e+00    4.979948e-01   1.232286e-02
  4.063924e+00    4.695306e-01   1.202140e-02
  4.066134e+00    4.831100e-01   1.225143e-02
  4.068345e+00    4.938525e-01   1.244670e-02
  4.070555e+00    4.695238e-01   1.219460e-02
  4.072766e+00    4.966933e-01   1.260447e-02
  4.074976e+00    4.877748e-01   1.255288e-02
  4.077187e+00    4.912609e-01   1.266037e-02
  4.079397e+00    4.635458e-01   1.236088e-02
  4.081608e+00    4.743136e-01   1.256862e-02
  4.083818e+00    4.614143e-01   1.246102e-02
  4.086029e+00    4.680268e-01   1.261615e-02
  4.088239e+00    4.798944e-01   1.284391e-02
  4.090449e+00    5.019146e-01   1.320643e-02
  4.092660e+00    5.237349e-01   1.356475e-02
  4.094870e+00    4.800137e-01   1.305847e-02
  4.097081e+00    4.977416e-01   1.337004e-02
  4.099291e+00    5.067643e-01   1.354685e-02
  4.101502e+00    4.575975e-01   1.292078e-02
  4.103712e+00    5.210648e-01   1.383889e-02
  4.105923e+00    5.321663e-01   1.403993e-02
  4.108133e+00    4.999449e-01   1.366072e-02
  4.110344e+00    5.185454e-01   1.396574e-02
  4.112554e+00    4.646147e-01   1.327175e-02
  4.114764e+00    4.692374e-01   1.339125e-02
  4.116975e+00    4.719743e-01   1.348306e-02
  4.119185e+00    5.086159e-01   1.405361e-02
  4.121396e+00    4.767591e-01   1.366245e-02
  4.123606e+00    4.826176e-01   1.380264e-02
  4.125817e+00    4.539219e-01   1.344209e-02
  4.128027e+00    4.766513e-01   1.383242e-02
  4.130238e+00    5.264073e-01   1.459888e-02
  4.132448e+00    5.060534e-01   1.437604e-02
  4.134659e+00    5.033087e-01   1.439867e-02
  4.136869e+00    5.078985e-01   1.452867e-02
  4.139080e+00    5.067186e-01   1.457721e-02
  4.141290e+00    4.925856e-01   1.443611e-02
  4.143500e+00    4.960436e-01   1.455365e-02
  4.145711e+00    4.628154e-01   1.412338e-02
  4.147921e+00    4.343491e-01   1.374470e-02
  4.150132e+00    4.894566e-01   1.466031e-02
  4.152342e+00    4.787489e-01   1.456941e-02
  4.154553e+00    5.058378e-01   1.504713e-02
  4.156763e+00    4.991291e-01   1.502089e-02
  4.158974e+00    5.102664e-01   1.526390e-02
  4.161184e+00    5.103103e-01   1.534040e-02
  4.163395e+00    5.123102e-01   1.544879e-02
  4.165605e+00    4.657767e-01   1.480716e-02
  4.167815e+00    4.509822e-01   1.464611e-02
  4.170026e+00    5.311693e-01   1.597847e-02
  4.172236e+00    5.142258e-01   1.580685e-02
  4.174447e+00    4.866951e-01   1.546148e-02
  4.176657e+00    4.732577e-01   1.532970e-02
  4.178868e+00    4.893263e-01   1.567632e-02
  4.181078e+00    5.399585e-01   1.655986e-02
  4.183289e+00    5.111413e-01   1.620448e-02
  4.185499e+00    4.390230e-01   1.510638e-02
  4.187710e+00    5.398428e-01   1.684910e-02
  4.189920e+00    4.871165e-01   1.610206e-02
  4.192130e+00    4.661807e-01   1.584817e-02
  4.194341e+00    5.184850e-01   1.681602e-02
  4.196551e+00    4.856612e-01   1.637846e-02
  4.198762e+00    4.945827e-01   1.663282e-02
  4.200972e+00    4.939904e-01   1.673065e-02
  4.203183e+00    4.759277e-01   1.652994e-02
  4.205393e+00    4.929680e-01   1.693538e-02
  4.207604e+00    5.353225e-01   1.776830e-02
  4.209814e+00    5.192103e-01   1.761896e-02
  4.212025e+00    4.703878e-01   1.688902e-02
  4.214235e+00    4.755386e-01   1.710131e-02
  4.216445e+00    4.910087e-01   1.750313e-02
  4.218656e+00    4.942329e-01   1.769189e-02
  4.220866e+00    5.229293e-01   1.833345e-02
  4.223077e+00    4.857728e-01   1.780591e-02
  4.225287e+00    4.947942e-01   1.811168e-02
  4.227498e+00    5.009253e-01   1.836650e-02
  4.229708e+00    4.496526e-01   1.754265e-02
  4.231919e+00    5.048333e-01   1.874161e-02
  4.234129e+00    5.277388e-01   1.932300e-02
  4.236340e+00    4.562640e-01   1.812056e-02
  4.238550e+00    4.659820e-01   1.847414e-02
  4.240761e+00    4.696986e-01   1.871148e-02
  4.242971e+00    5.183380e-01   1.983631e-02
  4.245181e+00    5.241086e-01   2.013432e-02
  4.247392e+00    5.449474e-01   2.072208e-02
  4.249602e+00    5.133910e-01   2.031341e-02
  4.251813e+00    4.246697e-01   1.865679e-02
  4.254023e+00    4.545457e-01   1.949644e-02
  4.256234e+00    5.208905e-01   2.109361e-02
  4.258444e+00    4.625973e-01   2.008677e-02
  4.260655e+00    4.460778e-01   1.994136e-02
  4.262865e+00    5.058940e-01   2.147739e-02
  4.265076e+00    5.383571e-01   2.240760e-02
  4.267286e+00    5.457274e-01   2.282817e-02
  4.269496e+00    5.175527e-01   2.250265e-02
  4.271707e+00    4.526194e-01   2.130338e-02
  4.273917e+00    5.239081e-01   2.321569e-02
  4.276128e+00    5.081196e-01   2.316734e-02
  4.278338e+00    5.140617e-01   2.361336e-02
  4.280549e+00    3.836133e-01   2.069169e-02
  4.282759e+00    4.929623e-01   2.379189e-02
  4.284970e+00    5.388787e-01   2.524429e-02
  4.287180e+00    4.607752e-01   2.362304e-02
  4.289391e+00    5.290099e-01   2.550161e-02
  4.291601e+00    5.787312e-01   2.688597e-02
  4.293811e+00    6.239707e-01   2.813561e-02
  4.296022e+00    4.817279e-01   2.492042e-02
  4.298232e+00    4.911098e-01   2.537227e-02
  4.300443e+00    4.039476e-01   2.320111e-02
  4.302653e+00    4.546045e-01   2.482565e-02
  4.304864e+00    5.121446e-01   2.657774e-02
  4.307074e+00    5.851458e-01   2.866495e-02
  4.309285e+00    3.965142e-01   2.381104e-02
  4.311495e+00    4.889484e-01   2.668806e-02
  4.313706e+00    3.759266e-01   2.362108e-02
  4.315916e+00    3.856967e-01   2.416130e-02
  4.318126e+00    4.097258e-01   2.514920e-02
  4.320337e+00    4.185285e-01   2.567516e-02
  4.322547e+00    4.285115e-01   2.625489e-02
  4.324758e+00    5.080290e-01   2.888447e-02
  4.326968e+00    4.942992e-01   2.881311e-02
  4.329179e+00    4.195571e-01   2.683643e-02
  4.331389e+00    4.218710e-01   2.722177e-02
  4.333600e+00    4.414745e-01   2.817963e-02
  4.335810e+00    4.384822e-01   2.841750e-02
  4.338021e+00    5.219128e-01   3.139990e-02
  4.340231e+00    4.037560e-01   2.796556e-02
  4.342442e+00    4.515071e-01   2.996862e-02
  4.344652e+00    4.979992e-01   3.190172e-02
  4.346862e+00    4.123051e-01   2.943405e-02
  4.349073e+00    5.708108e-01   3.513641e-02
  4.351283e+00    4.591490e-01   3.198408e-02
  4.353494e+00    4.339115e-01   3.157308e-02
  4.355704e+00    4.793868e-01   3.371961e-02
  4.357915e+00    4.002670e-01   3.132499e-02
  4.360125e+00    4.184431e-01   3.257566e-02
  4.362336e+00    4.425639e-01   3.411131e-02
  4.364546e+00    3.991569e-01   3.298446e-02
  4.366757e+00    4.823355e-01   3.698074e-02
  4.368967e+00    4.904349e-01   3.803479e-02
  4.371177e+00    5.093434e-01   3.958387e-02
  4.373388e+00    6.434331e-01   4.548395e-02
  4.375598e+00    5.283751e-01   4.216089e-02
  4.377809e+00    4.033698e-01   3.776702e-02
  4.380019e+00    4.546535e-01   4.110443e-02
  4.382230e+00    4.357728e-01   4.136553e-02
  4.384440e+00    3.644513e-01   3.891812e-02
  4.386651e+00    5.332862e-01   4.852779e-02
  4.388861e+00    4.192223e-01   4.446970e-02
  4.391072e+00    4.998890e-01   5.026859e-02
  4.393282e+00    3.816643e-01   4.562011e-02
  4.395492e+00    3.997006e-01   4.862768e-02
  4.397703e+00    4.035998e-01   5.109506e-02
  4.399913e+00    4.296977e-01   5.539515e-02
  4.402124e+00    2.256683e-01   4.241395e-02
  4.404334e+00    3.625387e-01   5.715278e-02
  4.406545e+00    3.225864e-01   5.792151e-02
  4.408755e+00    3.193518e-01   6.249790e-02
  4.410966e+00    4.012177e-01   7.753401e-02
  4.413176e+00    1.045598e-01   4.481547e-02
  4.415387e+00   -7.137716e-01            nan
  4.417597e+00   -1.870178e+00            nan
  4.419807e+00   -1.824666e-01            nan
