# == pyFAI calibration ==
# Distance Sample to Detector: 0.216 m
# PONI: 1.166e-01, 1.308e-01 m
# Rotations: 0.000000 0.000000 0.000000 rad
# 
# == Fit2d calibration ==
# Distance Sample-beamCenter: 216.000 mm
# Center: x=1744.293, y=1555.000 pix
# Tilt: 0.000 deg  TiltPlanRot: 0.000 deg
# 
# Detector Eiger 9M	 PixelSize= 7.500e-05, 7.500e-05 m
#    Detector has a mask: True 
#    Detector has a dark current: False 
#    detector has a flat field: False 
# 
# Wavelength: 9.8e-11 m
# Mask applied: from detector
# Dark current applied: False
# Flat field applied: False
# Polarization factor: None
# Normalization factor: 1.0
# 
# Headers of the input frame:
# {
# "_array_data.header_convention": "SLS_1.0",
# "_array_data.header_contents": "# Detector: Dectris Eiger 9M, S/N E-18-0102\r\n# Pixel_size 75e-6 m x 75e-6 m\r\n# Silicon sensor, thickness 0.000450 m\r\n# Exposure_time 0.024997 s\r\n# Exposure_period 0.025000 s\r\n# Count_cutoff 62318 counts\r\n# Wavelength 0.980106 A\r\n# Detector_distance 0.215992 m\r\n# Beam_xy (1555, 1744) pixels\r\n# Start_angle 0.000000 deg.\r\n# Angle_increment 0.000000 deg.",
# "Content-Type": "application/octet-stream;",
# "conversions": "x-CBF_BYTE_OFFSET",
# "Content-Transfer-Encoding": "BINARY",
# "X-Binary-Size": "10166594",
# "X-Binary-ID": "1",
# "X-Binary-Element-Type": "signed 32-bit integer",
# "X-Binary-Element-Byte-Order": "LITTLE_ENDIAN",
# "Content-MD5": "sTz+A3FRtoRWumbQaV2tJQ==",
# "X-Binary-Number-of-Elements": "10166590",
# "X-Binary-Size-Fastest-Dimension": "3110",
# "X-Binary-Size-Second-Dimension": "3269",
# "X-Binary-Size-Padding": "4095"
# }
# --> H:/Proxima2a_2019-04-05/RAW_DATA/C5_gel17_position5/C5_mesh_1_data.cbf/C5_mesh_1_data.cbf000036.dat
#        q_A^-1              I           sigma 
  1.105228e-03    1.821387e+00   7.302778e-01
  3.315685e-03    1.522499e+00   4.059045e-01
  5.526141e-03    1.414705e+00   3.025555e-01
  7.736597e-03    1.263876e+00   2.415864e-01
  9.947054e-03    1.185650e+00   2.062789e-01
  1.215751e-02    1.460475e+00   2.070216e-01
  1.436797e-02    1.486295e+00   1.921004e-01
  1.657842e-02    1.300277e+00   1.672485e-01
  1.878888e-02    1.262004e+00   1.547725e-01
  2.099934e-02    1.262408e+00   1.464542e-01
  2.320979e-02    1.358582e+00   1.445026e-01
  2.542025e-02    1.464791e+00   1.433829e-01
  2.763070e-02    1.472904e+00   1.379042e-01
  2.984116e-02    1.620820e+00   1.392015e-01
  3.205162e-02    1.480515e+00   1.283786e-01
  3.426207e-02    1.352284e+00   1.186612e-01
  3.647253e-02    1.408008e+00   1.173525e-01
  3.868299e-02    1.554815e+00   1.197526e-01
  4.089344e-02    1.403270e+00   1.106500e-01
  4.310390e-02    1.347084e+00   1.055896e-01
  4.531436e-02    1.411456e+00   1.054143e-01
  4.752481e-02    1.541624e+00   1.075742e-01
  4.973527e-02    1.357590e+00   9.868160e-02
  5.194572e-02    1.507441e+00   1.017473e-01
  5.415618e-02    1.505696e+00   9.958812e-02
  5.636664e-02    1.495222e+00   9.727875e-02
  5.857709e-02    1.415946e+00   9.286199e-02
  6.078755e-02    1.466239e+00   9.275979e-02
  6.299801e-02    1.475496e+00   9.140407e-02
  6.520846e-02    1.508059e+00   9.082804e-02
  6.741892e-02    1.566061e+00   9.102365e-02
  6.962938e-02    1.499746e+00   8.765472e-02
  7.183983e-02    1.498427e+00   8.625612e-02
  7.405029e-02    1.403325e+00   8.221676e-02
  7.626074e-02    1.459811e+00   8.263016e-02
  7.847120e-02    1.445097e+00   8.104432e-02
  8.068166e-02    1.480984e+00   8.091211e-02
  8.289211e-02    1.508650e+00   8.056771e-02
  8.510257e-02    1.465039e+00   7.835632e-02
  8.731303e-02    1.422784e+00   7.623145e-02
  8.952348e-02    1.392255e+00   7.447439e-02
  9.173394e-02    1.461479e+00   7.537547e-02
  9.394439e-02    1.525612e+00   7.609767e-02
  9.615485e-02    1.462358e+00   7.364046e-02
  9.836531e-02    1.477551e+00   7.318357e-02
  1.005758e-01    1.497307e+00   7.285760e-02
  1.027862e-01    1.434830e+00   7.054856e-02
  1.049967e-01    1.457406e+00   7.034773e-02
  1.072071e-01    1.571517e+00   7.229201e-02
  1.094176e-01    1.538622e+00   7.080410e-02
  1.116280e-01    1.454481e+00   6.815437e-02
  1.138385e-01    1.566272e+00   7.003366e-02
  1.160490e-01    1.594068e+00   6.997541e-02
  1.182594e-01    1.589483e+00   6.921707e-02
  1.204699e-01    1.596450e+00   6.872874e-02
  1.226803e-01    1.565784e+00   6.744664e-02
  1.248908e-01    1.642842e+00   6.847145e-02
  1.271012e-01    1.656285e+00   6.814922e-02
  1.293117e-01    1.532798e+00   6.499594e-02
  1.315222e-01    1.647046e+00   6.680455e-02
  1.337326e-01    1.550057e+00   6.426871e-02
  1.359431e-01    1.570917e+00   6.473757e-02
  1.381535e-01    1.685827e+00   6.796372e-02
  1.403640e-01    1.552063e+00   6.549324e-02
  1.425744e-01    1.554699e+00   6.565353e-02
  1.447849e-01    1.565416e+00   6.589460e-02
  1.469953e-01    1.537775e+00   6.526935e-02
  1.492058e-01    1.613874e+00   6.678712e-02
  1.514163e-01    1.610497e+00   6.660643e-02
  1.536267e-01    1.609115e+00   6.644783e-02
  1.558372e-01    1.625705e+00   6.664206e-02
  1.580476e-01    1.606563e+00   6.608779e-02
  1.602581e-01    1.591448e+00   6.560913e-02
  1.624685e-01    1.674362e+00   6.711227e-02
  1.646790e-01    1.616503e+00   6.575319e-02
  1.668895e-01    1.735222e+00   6.792815e-02
  1.690999e-01    1.769511e+00   6.839006e-02
  1.713104e-01    1.703494e+00   6.689394e-02
  1.735208e-01    1.755386e+00   6.769399e-02
  1.757313e-01    1.797865e+00   6.829345e-02
  1.779417e-01    1.863806e+00   6.930782e-02
  1.801522e-01    1.866329e+00   6.913382e-02
  1.823626e-01    1.931169e+00   7.009037e-02
  1.845731e-01    1.890400e+00   6.912196e-02
  1.867836e-01    1.938072e+00   6.975188e-02
  1.889940e-01    1.963540e+00   6.997927e-02
  1.912045e-01    2.018185e+00   7.070944e-02
  1.934149e-01    2.049412e+00   7.101589e-02
  1.956254e-01    2.081201e+00   7.132851e-02
  1.978358e-01    1.991128e+00   6.952884e-02
  2.000463e-01    2.099210e+00   7.115437e-02
  2.022568e-01    2.044819e+00   6.999604e-02
  2.044672e-01    2.064353e+00   7.008863e-02
  2.066777e-01    1.984063e+00   6.848406e-02
  2.088881e-01    2.013725e+00   6.876835e-02
  2.110986e-01    1.962633e+00   6.765755e-02
  2.133090e-01    1.958888e+00   6.737322e-02
  2.155195e-01    1.907749e+00   6.626744e-02
  2.177300e-01    1.860248e+00   6.492316e-02
  2.199404e-01    1.930918e+00   6.440195e-02
  2.221509e-01    1.918421e+00   6.313913e-02
  2.243613e-01    2.029364e+00   6.411590e-02
  2.265718e-01    2.072706e+00   6.408274e-02
  2.287822e-01    2.082180e+00   6.359331e-02
  2.309927e-01    2.114706e+00   6.350427e-02
  2.332031e-01    2.218465e+00   6.448684e-02
  2.354136e-01    2.105858e+00   6.231970e-02
  2.376241e-01    2.174239e+00   6.283187e-02
  2.398345e-01    2.224613e+00   6.308527e-02
  2.420450e-01    2.087006e+00   6.066629e-02
  2.442554e-01    2.191848e+00   6.174309e-02
  2.464659e-01    2.171682e+00   6.104581e-02
  2.486763e-01    2.158752e+00   6.046371e-02
  2.508868e-01    2.157838e+00   6.006959e-02
  2.530973e-01    2.095891e+00   5.883402e-02
  2.553077e-01    2.129616e+00   5.894576e-02
  2.575182e-01    2.124561e+00   5.852741e-02
  2.597286e-01    2.085152e+00   5.764501e-02
  2.619391e-01    2.051105e+00   5.684329e-02
  2.641495e-01    2.103338e+00   5.724392e-02
  2.663600e-01    2.147420e+00   5.752261e-02
  2.685704e-01    2.058221e+00   5.600998e-02
  2.707809e-01    2.023964e+00   5.524711e-02
  2.729914e-01    1.954896e+00   5.401330e-02
  2.752018e-01    1.980303e+00   5.408020e-02
  2.774123e-01    2.058218e+00   5.485221e-02
  2.796227e-01    2.002379e+00   5.383544e-02
  2.818332e-01    1.988921e+00   5.338652e-02
  2.840436e-01    1.983887e+00   5.306048e-02
  2.862541e-01    2.012563e+00   5.318566e-02
  2.884646e-01    2.045378e+00   5.336306e-02
  2.906750e-01    2.062574e+00   5.333283e-02
  2.928855e-01    2.101483e+00   5.358409e-02
  2.950959e-01    2.063478e+00   5.285344e-02
  2.973064e-01    1.968051e+00   5.138489e-02
  2.995168e-01    1.887716e+00   5.009725e-02
  3.017273e-01    1.928539e+00   5.041280e-02
  3.039377e-01    1.922247e+00   5.011011e-02
  3.061482e-01    1.972434e+00   5.054046e-02
  3.083587e-01    1.968844e+00   5.027590e-02
  3.105691e-01    1.926379e+00   4.951832e-02
  3.127796e-01    1.918753e+00   4.921245e-02
  3.149900e-01    1.930412e+00   4.915606e-02
  3.172005e-01    1.912360e+00   4.872562e-02
  3.194109e-01    1.932307e+00   4.877689e-02
  3.216214e-01    1.917821e+00   4.839545e-02
  3.238319e-01    1.880934e+00   4.773786e-02
  3.260423e-01    1.962005e+00   4.856159e-02
  3.282528e-01    1.945280e+00   4.816171e-02
  3.304632e-01    1.847956e+00   4.675960e-02
  3.326737e-01    1.855784e+00   4.667569e-02
  3.348841e-01    1.853165e+00   4.646188e-02
  3.370946e-01    1.850280e+00   4.625102e-02
  3.393050e-01    1.844106e+00   4.599889e-02
  3.415155e-01    1.784189e+00   4.507533e-02
  3.437260e-01    1.780802e+00   4.486559e-02
  3.459364e-01    1.812700e+00   4.509820e-02
  3.481469e-01    1.866591e+00   4.559660e-02
  3.503573e-01    1.903818e+00   4.588132e-02
  3.525678e-01    1.818529e+00   4.468201e-02
  3.547782e-01    1.849093e+00   4.489309e-02
  3.569887e-01    1.812333e+00   4.428715e-02
  3.591992e-01    1.821126e+00   4.423734e-02
  3.614096e-01    1.827796e+00   4.416463e-02
  3.636201e-01    1.856510e+00   4.435377e-02
  3.658305e-01    1.804121e+00   4.357435e-02
  3.680410e-01    1.809557e+00   4.348982e-02
  3.702514e-01    1.865646e+00   4.401019e-02
  3.724619e-01    1.898540e+00   4.424531e-02
  3.746724e-01    1.845734e+00   4.348008e-02
  3.768828e-01    1.788661e+00   4.265855e-02
  3.790933e-01    1.768309e+00   4.227693e-02
  3.813037e-01    1.830141e+00   4.286899e-02
  3.835142e-01    1.838657e+00   4.282752e-02
  3.857246e-01    1.799015e+00   4.222620e-02
  3.879351e-01    1.868156e+00   4.289070e-02
  3.901455e-01    1.842352e+00   4.245789e-02
  3.923560e-01    1.817520e+00   4.203674e-02
  3.945665e-01    1.859234e+00   4.238155e-02
  3.967769e-01    1.857501e+00   4.222915e-02
  3.989874e-01    1.836761e+00   4.186160e-02
  4.011978e-01    1.799399e+00   4.130623e-02
  4.034083e-01    1.806890e+00   4.126507e-02
  4.056187e-01    1.794711e+00   4.099906e-02
  4.078292e-01    1.808772e+00   4.103480e-02
  4.100397e-01    1.794459e+00   4.074733e-02
  4.122501e-01    1.789575e+00   4.057011e-02
  4.144606e-01    1.798140e+00   4.054647e-02
  4.166710e-01    1.831253e+00   4.079644e-02
  4.188815e-01    1.813424e+00   4.047744e-02
  4.210919e-01    1.825028e+00   4.048771e-02
  4.233024e-01    1.836431e+00   4.049458e-02
  4.255128e-01    1.754041e+00   3.946136e-02
  4.277233e-01    1.813799e+00   4.001262e-02
  4.299338e-01    1.823483e+00   4.000388e-02
  4.321442e-01    1.804701e+00   3.968344e-02
  4.343547e-01    1.798416e+00   3.950226e-02
  4.365651e-01    1.785294e+00   3.924607e-02
  4.387756e-01    1.785550e+00   3.913897e-02
  4.409860e-01    1.735989e+00   3.848506e-02
  4.431965e-01    1.743782e+00   3.846467e-02
  4.454070e-01    1.761682e+00   3.855403e-02
  4.476174e-01    1.768572e+00   3.852328e-02
  4.498279e-01    1.754591e+00   3.826632e-02
  4.520383e-01    1.755215e+00   3.816810e-02
  4.542488e-01    1.749628e+00   3.800454e-02
  4.564592e-01    1.746739e+00   3.787128e-02
  4.586697e-01    1.734331e+00   3.763637e-02
  4.608801e-01    1.728589e+00   3.747335e-02
  4.630906e-01    1.709996e+00   3.717261e-02
  4.653011e-01    1.706465e+00   3.703655e-02
  4.675115e-01    1.688917e+00   3.674860e-02
  4.697220e-01    1.719804e+00   3.698598e-02
  4.719324e-01    1.766022e+00   3.738276e-02
  4.741429e-01    1.718030e+00   3.677630e-02
  4.763533e-01    1.738594e+00   3.690089e-02
  4.785638e-01    1.733823e+00   3.675504e-02
  4.807743e-01    1.679276e+00   3.608028e-02
  4.829847e-01    1.691166e+00   3.611629e-02
  4.851952e-01    1.732818e+00   3.646584e-02
  4.874056e-01    1.761747e+00   3.667627e-02
  4.896161e-01    1.743893e+00   3.639948e-02
  4.918265e-01    1.686380e+00   3.570531e-02
  4.940370e-01    1.677202e+00   3.552012e-02
  4.962475e-01    1.665575e+00   3.530936e-02
  4.984579e-01    1.692947e+00   3.551058e-02
  5.006684e-01    1.690804e+00   3.540158e-02
  5.028788e-01    1.657330e+00   3.496446e-02
  5.050893e-01    1.719307e+00   3.552559e-02
  5.072997e-01    1.743876e+00   3.569212e-02
  5.095102e-01    1.778563e+00   3.595902e-02
  5.117206e-01    1.767685e+00   3.576365e-02
  5.139311e-01    1.681303e+00   3.479632e-02
  5.161416e-01    1.683103e+00   3.473267e-02
  5.183520e-01    1.670912e+00   3.452440e-02
  5.205625e-01    1.667546e+00   3.440881e-02
  5.227729e-01    1.705452e+00   3.471653e-02
  5.249834e-01    1.677190e+00   3.434778e-02
  5.271938e-01    1.676830e+00   3.426394e-02
  5.294043e-01    1.752932e+00   3.495198e-02
  5.316148e-01    1.785372e+00   3.519314e-02
  5.338252e-01    1.790730e+00   3.516535e-02
  5.360357e-01    1.814660e+00   3.531894e-02
  5.382461e-01    1.746895e+00   3.457489e-02
  5.404566e-01    1.710705e+00   3.413701e-02
  5.426670e-01    1.753510e+00   3.448356e-02
  5.448775e-01    1.765520e+00   3.452417e-02
  5.470879e-01    1.792727e+00   3.471157e-02
  5.492984e-01    1.804706e+00   3.474991e-02
  5.515089e-01    1.789144e+00   3.452302e-02
  5.537193e-01    1.816462e+00   3.470894e-02
  5.559298e-01    1.798957e+00   3.446556e-02
  5.581402e-01    1.796468e+00   3.436643e-02
  5.603507e-01    1.794353e+00   3.427145e-02
  5.625611e-01    1.798844e+00   3.423983e-02
  5.647716e-01    1.787540e+00   3.405798e-02
  5.669821e-01    1.792673e+00   3.403332e-02
  5.691925e-01    1.787638e+00   3.391254e-02
  5.714030e-01    1.754768e+00   3.352769e-02
  5.736134e-01    1.726932e+00   3.318994e-02
  5.758239e-01    1.765634e+00   3.348815e-02
  5.780343e-01    1.762222e+00   3.338503e-02
  5.802448e-01    1.699491e+00   3.271680e-02
  5.824552e-01    1.633745e+00   3.201042e-02
  5.846657e-01    1.639999e+00   3.200475e-02
  5.868762e-01    1.649662e+00   3.203209e-02
  5.890866e-01    1.633807e+00   3.181162e-02
  5.912971e-01    1.682574e+00   3.221608e-02
  5.935075e-01    1.656074e+00   3.189532e-02
  5.957180e-01    1.686936e+00   3.212509e-02
  5.979284e-01    1.707915e+00   3.225826e-02
  6.001389e-01    1.678120e+00   3.191052e-02
  6.023494e-01    1.664933e+00   3.172036e-02
  6.045598e-01    1.703125e+00   3.201678e-02
  6.067703e-01    1.700979e+00   3.193229e-02
  6.089807e-01    1.675655e+00   3.162996e-02
  6.111912e-01    1.641858e+00   3.124685e-02
  6.134016e-01    1.632506e+00   3.109557e-02
  6.156121e-01    1.702175e+00   3.168905e-02
  6.178226e-01    1.691187e+00   3.152406e-02
  6.200330e-01    1.705235e+00   3.159228e-02
  6.222435e-01    1.709462e+00   3.156874e-02
  6.244539e-01    1.741219e+00   3.179825e-02
  6.266644e-01    1.753551e+00   3.184841e-02
  6.288748e-01    1.725966e+00   3.153542e-02
  6.310853e-01    1.697147e+00   3.121031e-02
  6.332957e-01    1.733246e+00   3.147959e-02
  6.355062e-01    1.716796e+00   3.126900e-02
  6.377167e-01    1.750070e+00   3.150998e-02
  6.399271e-01    1.707338e+00   3.106328e-02
  6.421376e-01    1.720666e+00   3.112477e-02
  6.443480e-01    1.718657e+00   3.104741e-02
  6.465585e-01    1.755861e+00   3.132220e-02
  6.487689e-01    1.726149e+00   3.099743e-02
  6.509794e-01    1.696013e+00   3.066769e-02
  6.531899e-01    1.700220e+00   3.064799e-02
  6.554003e-01    1.622273e+00   2.988092e-02
  6.576108e-01    1.615881e+00   2.976645e-02
  6.598212e-01    1.611917e+00   2.967469e-02
  6.620317e-01    1.604451e+00   2.955100e-02
  6.642421e-01    1.627475e+00   2.970722e-02
  6.664526e-01    1.624607e+00   2.962634e-02
  6.686630e-01    1.606703e+00   2.940818e-02
  6.708735e-01    1.635471e+00   2.961585e-02
  6.730840e-01    1.643797e+00   2.963702e-02
  6.752944e-01    1.629674e+00   2.945576e-02
  6.775049e-01    1.631681e+00   2.942038e-02
  6.797153e-01    1.596710e+00   2.905068e-02
  6.819258e-01    1.655272e+00   2.952528e-02
  6.841362e-01    1.659392e+00   2.950885e-02
  6.863467e-01    1.648857e+00   2.936235e-02
  6.885572e-01    1.635731e+00   2.919284e-02
  6.907676e-01    1.607759e+00   2.889029e-02
  6.929781e-01    1.615984e+00   2.891262e-02
  6.951885e-01    1.575191e+00   2.849480e-02
  6.973990e-01    1.573096e+00   2.842549e-02
  6.996094e-01    1.598824e+00   2.860657e-02
  7.018199e-01    1.615248e+00   2.870268e-02
  7.040303e-01    1.583173e+00   2.836634e-02
  7.062408e-01    1.618728e+00   2.863285e-02
  7.084513e-01    1.603687e+00   2.844997e-02
  7.106617e-01    1.597952e+00   2.834967e-02
  7.128722e-01    1.609440e+00   2.840219e-02
  7.150826e-01    1.597677e+00   2.824943e-02
  7.172931e-01    1.594136e+00   2.816945e-02
  7.195035e-01    1.573929e+00   2.794225e-02
  7.217140e-01    1.582694e+00   2.806950e-02
  7.239245e-01    1.593941e+00   2.839718e-02
  7.261349e-01    1.576396e+00   2.834914e-02
  7.283454e-01    1.617755e+00   2.879200e-02
  7.305558e-01    1.596721e+00   2.865859e-02
  7.327663e-01    1.602975e+00   2.875754e-02
  7.349767e-01    1.576978e+00   2.853979e-02
  7.371872e-01    1.562626e+00   2.839847e-02
  7.393976e-01    1.536498e+00   2.814597e-02
  7.416081e-01    1.561611e+00   2.835892e-02
  7.438186e-01    1.563461e+00   2.823193e-02
  7.460290e-01    1.601912e+00   2.828018e-02
  7.482395e-01    1.595560e+00   2.805179e-02
  7.504499e-01    1.556519e+00   2.757098e-02
  7.526604e-01    1.583581e+00   2.769271e-02
  7.548708e-01    1.632828e+00   2.802899e-02
  7.570813e-01    1.593438e+00   2.763756e-02
  7.592918e-01    1.610060e+00   2.774578e-02
  7.615022e-01    1.590119e+00   2.753944e-02
  7.637127e-01    1.609276e+00   2.767171e-02
  7.659231e-01    1.584455e+00   2.742538e-02
  7.681336e-01    1.573590e+00   2.729958e-02
  7.703440e-01    1.596910e+00   2.746968e-02
  7.725545e-01    1.597566e+00   2.744423e-02
  7.747650e-01    1.611237e+00   2.752276e-02
  7.769754e-01    1.608530e+00   2.744638e-02
  7.791859e-01    1.592502e+00   2.725553e-02
  7.813963e-01    1.575951e+00   2.706097e-02
  7.836068e-01    1.570863e+00   2.696547e-02
  7.858172e-01    1.618528e+00   2.732035e-02
  7.880277e-01    1.617731e+00   2.726168e-02
  7.902381e-01    1.614013e+00   2.718083e-02
  7.924486e-01    1.639940e+00   2.734756e-02
  7.946591e-01    1.594972e+00   2.692177e-02
  7.968695e-01    1.640441e+00   2.725397e-02
  7.990800e-01    1.659626e+00   2.736389e-02
  8.012904e-01    1.637828e+00   2.713658e-02
  8.035009e-01    1.603805e+00   2.680546e-02
  8.057113e-01    1.583141e+00   2.658615e-02
  8.079218e-01    1.640517e+00   2.701692e-02
  8.101323e-01    1.654598e+00   2.708656e-02
  8.123427e-01    1.647035e+00   2.697850e-02
  8.145532e-01    1.675230e+00   2.716189e-02
  8.167636e-01    1.631312e+00   2.675842e-02
  8.189741e-01    1.653656e+00   2.689613e-02
  8.211845e-01    1.638727e+00   2.672957e-02
  8.233950e-01    1.673936e+00   2.697126e-02
  8.256054e-01    1.676085e+00   2.694386e-02
  8.278159e-01    1.674161e+00   2.688393e-02
  8.300264e-01    1.653509e+00   2.667432e-02
  8.322368e-01    1.656506e+00   2.665512e-02
  8.344473e-01    1.655459e+00   2.660310e-02
  8.366577e-01    1.636163e+00   2.640507e-02
  8.388682e-01    1.655568e+00   2.651871e-02
  8.410786e-01    1.644175e+00   2.638520e-02
  8.432891e-01    1.657825e+00   2.645241e-02
  8.454996e-01    1.663086e+00   2.645241e-02
  8.477100e-01    1.664074e+00   2.641828e-02
  8.499205e-01    1.640436e+00   2.618878e-02
  8.521309e-01    1.651897e+00   2.623913e-02
  8.543414e-01    1.659603e+00   2.625923e-02
  8.565518e-01    1.609801e+00   2.582198e-02
  8.587623e-01    1.609695e+00   2.578091e-02
  8.609727e-01    1.629525e+00   2.589899e-02
  8.631832e-01    1.620187e+00   2.578489e-02
  8.653937e-01    1.580834e+00   2.543064e-02
  8.676041e-01    1.605288e+00   2.558794e-02
  8.698146e-01    1.605823e+00   2.555306e-02
  8.720250e-01    1.628647e+00   2.569482e-02
  8.742355e-01    1.605644e+00   2.547387e-02
  8.764459e-01    1.606334e+00   2.544050e-02
  8.786564e-01    1.574471e+00   2.514934e-02
  8.808669e-01    1.629677e+00   2.554767e-02
  8.830773e-01    1.595485e+00   2.524020e-02
  8.852878e-01    1.580979e+00   2.508752e-02
  8.874982e-01    1.584589e+00   2.507969e-02
  8.897087e-01    1.613661e+00   2.527088e-02
  8.919191e-01    1.613345e+00   2.523051e-02
  8.941296e-01    1.585032e+00   2.497103e-02
  8.963401e-01    1.596664e+00   2.502609e-02
  8.985505e-01    1.586990e+00   2.491336e-02
  9.007610e-01    1.592255e+00   2.491800e-02
  9.029714e-01    1.562872e+00   2.465158e-02
  9.051819e-01    1.602077e+00   2.492162e-02
  9.073923e-01    1.596472e+00   2.484146e-02
  9.096028e-01    1.599630e+00   2.483111e-02
  9.118132e-01    1.582450e+00   2.466138e-02
  9.140237e-01    1.608496e+00   2.482677e-02
  9.162342e-01    1.619803e+00   2.487912e-02
  9.184446e-01    1.644864e+00   2.503458e-02
  9.206551e-01    1.595706e+00   2.462213e-02
  9.228655e-01    1.577729e+00   2.444804e-02
  9.250760e-01    1.589548e+00   2.450421e-02
  9.272864e-01    1.632864e+00   2.480125e-02
  9.294969e-01    1.656018e+00   2.494009e-02
  9.317074e-01    1.650958e+00   2.486676e-02
  9.339178e-01    1.640530e+00   2.475426e-02
  9.361283e-01    1.621294e+00   2.457243e-02
  9.383387e-01    1.640042e+00   2.468047e-02
  9.405492e-01    1.681977e+00   2.495910e-02
  9.427596e-01    1.692276e+00   2.499937e-02
  9.449701e-01    1.668960e+00   2.479282e-02
  9.471805e-01    1.657651e+00   2.467368e-02
  9.493910e-01    1.633500e+00   2.445966e-02
  9.516015e-01    1.685555e+00   2.481163e-02
  9.538119e-01    1.702738e+00   2.490363e-02
  9.560224e-01    1.714010e+00   2.495074e-02
  9.582328e-01    1.737648e+00   2.508849e-02
  9.604433e-01    1.767597e+00   2.526796e-02
  9.626537e-01    1.752922e+00   2.512901e-02
  9.648642e-01    1.805310e+00   2.546681e-02
  9.670747e-01    1.799739e+00   2.539244e-02
  9.692851e-01    1.771857e+00   2.516149e-02
  9.714956e-01    1.813216e+00   2.541753e-02
  9.737060e-01    1.874909e+00   2.581239e-02
  9.759165e-01    1.886629e+00   2.585644e-02
  9.781269e-01    1.868974e+00   2.570149e-02
  9.803374e-01    1.875443e+00   2.571035e-02
  9.825478e-01    1.821358e+00   2.530348e-02
  9.847583e-01    1.805342e+00   2.515778e-02
  9.869688e-01    1.796289e+00   2.506102e-02
  9.891792e-01    1.765052e+00   2.480916e-02
  9.913897e-01    1.725050e+00   2.449331e-02
  9.936001e-01    1.759851e+00   2.470675e-02
  9.958106e-01    1.767101e+00   2.472394e-02
  9.980210e-01    1.742281e+00   2.451784e-02
  1.000231e+00    1.736199e+00   2.460908e-02
  1.002442e+00    1.699827e+00   2.447934e-02
  1.004652e+00    1.661598e+00   2.427003e-02
  1.006863e+00    1.609694e+00   2.393751e-02
  1.009073e+00    1.604356e+00   2.393435e-02
  1.011284e+00    1.580776e+00   2.378959e-02
  1.013494e+00    1.556154e+00   2.362701e-02
  1.015705e+00    1.545075e+00   2.356498e-02
  1.017915e+00    1.575519e+00   2.381242e-02
  1.020126e+00    1.551571e+00   2.364672e-02
  1.022336e+00    1.553952e+00   2.367651e-02
  1.024547e+00    1.509306e+00   2.334499e-02
  1.026757e+00    1.496242e+00   2.325195e-02
  1.028967e+00    1.505934e+00   2.333474e-02
  1.031178e+00    1.507134e+00   2.335013e-02
  1.033388e+00    1.507007e+00   2.335416e-02
  1.035599e+00    1.498037e+00   2.328794e-02
  1.037809e+00    1.499455e+00   2.330219e-02
  1.040020e+00    1.510753e+00   2.339109e-02
  1.042230e+00    1.511462e+00   2.339851e-02
  1.044441e+00    1.480158e+00   2.315472e-02
  1.046651e+00    1.459891e+00   2.299581e-02
  1.048862e+00    1.502425e+00   2.332760e-02
  1.051072e+00    1.503529e+00   2.333383e-02
  1.053282e+00    1.523510e+00   2.348739e-02
  1.055493e+00    1.522193e+00   2.347291e-02
  1.057703e+00    1.503637e+00   2.332788e-02
  1.059914e+00    1.517775e+00   2.343297e-02
  1.062124e+00    1.498259e+00   2.327779e-02
  1.064335e+00    1.498376e+00   2.327522e-02
  1.066545e+00    1.494023e+00   2.323539e-02
  1.068756e+00    1.514583e+00   2.339091e-02
  1.070966e+00    1.558010e+00   2.371719e-02
  1.073177e+00    1.512526e+00   2.336231e-02
  1.075387e+00    1.491405e+00   2.319334e-02
  1.077597e+00    1.499757e+00   2.325085e-02
  1.079808e+00    1.475270e+00   2.292703e-02
  1.082018e+00    1.446332e+00   2.251304e-02
  1.084229e+00    1.464366e+00   2.254277e-02
  1.086439e+00    1.478059e+00   2.255980e-02
  1.088650e+00    1.475338e+00   2.246283e-02
  1.090860e+00    1.435158e+00   2.208766e-02
  1.093071e+00    1.428662e+00   2.197588e-02
  1.095281e+00    1.425864e+00   2.189751e-02
  1.097492e+00    1.440081e+00   2.195159e-02
  1.099702e+00    1.425589e+00   2.178973e-02
  1.101912e+00    1.420119e+00   2.169937e-02
  1.104123e+00    1.405396e+00   2.153889e-02
  1.106333e+00    1.401947e+00   2.146848e-02
  1.108544e+00    1.432540e+00   2.165719e-02
  1.110754e+00    1.431349e+00   2.160507e-02
  1.112965e+00    1.456216e+00   2.175094e-02
  1.115175e+00    1.391599e+00   2.122213e-02
  1.117386e+00    1.401545e+00   2.125873e-02
  1.119596e+00    1.394331e+00   2.116633e-02
  1.121807e+00    1.389817e+00   2.109349e-02
  1.124017e+00    1.394749e+00   2.109439e-02
  1.126228e+00    1.389708e+00   2.102069e-02
  1.128438e+00    1.399001e+00   2.105410e-02
  1.130648e+00    1.410525e+00   2.110618e-02
  1.132859e+00    1.397057e+00   2.097082e-02
  1.135069e+00    1.371027e+00   2.074009e-02
  1.137280e+00    1.354700e+00   2.058363e-02
  1.139490e+00    1.391223e+00   2.082614e-02
  1.141701e+00    1.383385e+00   2.073430e-02
  1.143911e+00    1.366899e+00   2.057871e-02
  1.146122e+00    1.380380e+00   2.064792e-02
  1.148332e+00    1.377416e+00   2.059390e-02
  1.150543e+00    1.387052e+00   2.063486e-02
  1.152753e+00    1.356983e+00   2.037937e-02
  1.154963e+00    1.353880e+00   2.032521e-02
  1.157174e+00    1.355720e+00   2.030906e-02
  1.159384e+00    1.376966e+00   2.043766e-02
  1.161595e+00    1.365948e+00   2.032595e-02
  1.163805e+00    1.370596e+00   2.033119e-02
  1.166016e+00    1.390488e+00   2.044856e-02
  1.168226e+00    1.360571e+00   2.019846e-02
  1.170437e+00    1.368727e+00   2.023028e-02
  1.172647e+00    1.363980e+00   2.016626e-02
  1.174858e+00    1.373556e+00   2.020876e-02
  1.177068e+00    1.364912e+00   2.011679e-02
  1.179278e+00    1.347283e+00   1.995804e-02
  1.181489e+00    1.351351e+00   1.996120e-02
  1.183699e+00    1.381456e+00   2.015452e-02
  1.185910e+00    1.371714e+00   2.005543e-02
  1.188120e+00    1.339449e+00   1.979164e-02
  1.190331e+00    1.336297e+00   1.974176e-02
  1.192541e+00    1.346680e+00   1.979101e-02
  1.194752e+00    1.339808e+00   1.971353e-02
  1.196962e+00    1.351689e+00   1.977500e-02
  1.199173e+00    1.367483e+00   1.986352e-02
  1.201383e+00    1.395269e+00   2.003670e-02
  1.203593e+00    1.347606e+00   1.966672e-02
  1.205804e+00    1.311065e+00   1.937270e-02
  1.208014e+00    1.355286e+00   1.966977e-02
  1.210225e+00    1.396087e+00   1.993791e-02
  1.212435e+00    1.458945e+00   2.035603e-02
  1.214646e+00    1.507870e+00   2.066698e-02
  1.216856e+00    1.444148e+00   2.019923e-02
  1.219067e+00    1.404967e+00   1.989836e-02
  1.221277e+00    1.377686e+00   1.967896e-02
  1.223488e+00    1.364692e+00   1.956003e-02
  1.225698e+00    1.371956e+00   1.958490e-02
  1.227909e+00    1.417314e+00   1.987507e-02
  1.230119e+00    1.502806e+00   2.043215e-02
  1.232329e+00    1.417840e+00   1.981472e-02
  1.234540e+00    1.367300e+00   1.942782e-02
  1.236750e+00    1.381049e+00   1.949465e-02
  1.238961e+00    1.385419e+00   1.949814e-02
  1.241171e+00    1.393057e+00   1.952725e-02
  1.243382e+00    1.431179e+00   1.976841e-02
  1.245592e+00    1.431869e+00   1.974840e-02
  1.247803e+00    1.411735e+00   1.958485e-02
  1.250013e+00    1.444886e+00   1.978910e-02
  1.252224e+00    1.463772e+00   1.989382e-02
  1.254434e+00    1.478122e+00   1.996625e-02
  1.256644e+00    1.424069e+00   1.957398e-02
  1.258855e+00    1.356085e+00   1.907769e-02
  1.261065e+00    1.378728e+00   1.921266e-02
  1.263276e+00    1.415118e+00   1.944110e-02
  1.265486e+00    1.389214e+00   1.923913e-02
  1.267697e+00    1.362389e+00   1.902936e-02
  1.269907e+00    1.364750e+00   1.902300e-02
  1.272118e+00    1.379065e+00   1.909970e-02
  1.274328e+00    1.370032e+00   1.901414e-02
  1.276539e+00    1.367143e+00   1.897116e-02
  1.278749e+00    1.379750e+00   1.903588e-02
  1.280959e+00    1.413983e+00   1.924753e-02
  1.283170e+00    1.407489e+00   1.918039e-02
  1.285380e+00    1.378118e+00   1.895653e-02
  1.287591e+00    1.353282e+00   1.876288e-02
  1.289801e+00    1.329212e+00   1.857419e-02
  1.292012e+00    1.355968e+00   1.874306e-02
  1.294222e+00    1.354882e+00   1.871931e-02
  1.296433e+00    1.357311e+00   1.872042e-02
  1.298643e+00    1.363623e+00   1.874736e-02
  1.300854e+00    1.369809e+00   1.877329e-02
  1.303064e+00    1.373976e+00   1.878244e-02
  1.305274e+00    1.362858e+00   1.868475e-02
  1.307485e+00    1.365814e+00   1.868333e-02
  1.309695e+00    1.369450e+00   1.868578e-02
  1.311906e+00    1.362286e+00   1.861505e-02
  1.314116e+00    1.346871e+00   1.848865e-02
  1.316327e+00    1.355616e+00   1.852684e-02
  1.318537e+00    1.368751e+00   1.859434e-02
  1.320748e+00    1.375855e+00   1.862078e-02
  1.322958e+00    1.363946e+00   1.851939e-02
  1.325169e+00    1.379542e+00   1.860371e-02
  1.327379e+00    1.378853e+00   1.857703e-02
  1.329589e+00    1.374774e+00   1.852827e-02
  1.331800e+00    1.371631e+00   1.848623e-02
  1.334010e+00    1.372844e+00   1.847356e-02
  1.336221e+00    1.382974e+00   1.851956e-02
  1.338431e+00    1.384779e+00   1.851054e-02
  1.340642e+00    1.350803e+00   1.834621e-02
  1.342852e+00    1.364862e+00   1.854267e-02
  1.345063e+00    1.376349e+00   1.867050e-02
  1.347273e+00    1.343930e+00   1.848448e-02
  1.349484e+00    1.337937e+00   1.847076e-02
  1.351694e+00    1.350150e+00   1.857758e-02
  1.353905e+00    1.352139e+00   1.860927e-02
  1.356115e+00    1.359329e+00   1.867378e-02
  1.358325e+00    1.364547e+00   1.872298e-02
  1.360536e+00    1.326857e+00   1.847413e-02
  1.362746e+00    1.339612e+00   1.857221e-02
  1.364957e+00    1.325514e+00   1.848187e-02
  1.367167e+00    1.316693e+00   1.842730e-02
  1.369378e+00    1.337003e+00   1.857488e-02
  1.371588e+00    1.324971e+00   1.849623e-02
  1.373799e+00    1.325816e+00   1.850576e-02
  1.376009e+00    1.318723e+00   1.845956e-02
  1.378220e+00    1.319078e+00   1.846456e-02
  1.380430e+00    1.300039e+00   1.833351e-02
  1.382640e+00    1.296294e+00   1.830797e-02
  1.384851e+00    1.320320e+00   1.847773e-02
  1.387061e+00    1.312929e+00   1.842624e-02
  1.389272e+00    1.310800e+00   1.841150e-02
  1.391482e+00    1.303485e+00   1.835938e-02
  1.393693e+00    1.311414e+00   1.841424e-02
  1.395903e+00    1.309002e+00   1.839581e-02
  1.398114e+00    1.322072e+00   1.848601e-02
  1.400324e+00    1.315066e+00   1.843481e-02
  1.402535e+00    1.298614e+00   1.831680e-02
  1.404745e+00    1.275782e+00   1.815270e-02
  1.406955e+00    1.282425e+00   1.819718e-02
  1.409166e+00    1.296923e+00   1.829642e-02
  1.411376e+00    1.275522e+00   1.814171e-02
  1.413587e+00    1.269515e+00   1.809515e-02
  1.415797e+00    1.266436e+00   1.806964e-02
  1.418008e+00    1.266683e+00   1.802959e-02
  1.420218e+00    1.280326e+00   1.797607e-02
  1.422429e+00    1.280567e+00   1.789212e-02
  1.424639e+00    1.257645e+00   1.766689e-02
  1.426850e+00    1.271635e+00   1.771013e-02
  1.429060e+00    1.272726e+00   1.766870e-02
  1.431270e+00    1.280844e+00   1.768045e-02
  1.433481e+00    1.288451e+00   1.769163e-02
  1.435691e+00    1.289380e+00   1.765928e-02
  1.437902e+00    1.305407e+00   1.773173e-02
  1.440112e+00    1.302587e+00   1.767678e-02
  1.442323e+00    1.285463e+00   1.752695e-02
  1.444533e+00    1.269701e+00   1.738662e-02
  1.446744e+00    1.283087e+00   1.744674e-02
  1.448954e+00    1.290325e+00   1.746544e-02
  1.451165e+00    1.285364e+00   1.740191e-02
  1.453375e+00    1.294663e+00   1.743641e-02
  1.455586e+00    1.273564e+00   1.726556e-02
  1.457796e+00    1.293619e+00   1.737319e-02
  1.460006e+00    1.260294e+00   1.712083e-02
  1.462217e+00    1.260254e+00   1.709441e-02
  1.464427e+00    1.255274e+00   1.703515e-02
  1.466638e+00    1.250076e+00   1.697470e-02
  1.468848e+00    1.290793e+00   1.722339e-02
  1.471059e+00    1.270144e+00   1.705999e-02
  1.473269e+00    1.264471e+00   1.699750e-02
  1.475480e+00    1.259372e+00   1.693952e-02
  1.477690e+00    1.253510e+00   1.687635e-02
  1.479901e+00    1.268419e+00   1.695257e-02
  1.482111e+00    1.270509e+00   1.694319e-02
  1.484321e+00    1.252277e+00   1.679820e-02
  1.486532e+00    1.271175e+00   1.690209e-02
  1.488742e+00    1.260261e+00   1.680677e-02
  1.490953e+00    1.240740e+00   1.665370e-02
  1.493163e+00    1.270873e+00   1.683237e-02
  1.495374e+00    1.241390e+00   1.661468e-02
  1.497584e+00    1.262267e+00   1.673214e-02
  1.499795e+00    1.274849e+00   1.679356e-02
  1.502005e+00    1.266122e+00   1.671424e-02
  1.504216e+00    1.249846e+00   1.658552e-02
  1.506426e+00    1.221103e+00   1.637317e-02
  1.508636e+00    1.250230e+00   1.654691e-02
  1.510847e+00    1.286068e+00   1.676031e-02
  1.513057e+00    1.274306e+00   1.665824e-02
  1.515268e+00    1.258664e+00   1.652992e-02
  1.517478e+00    1.254971e+00   1.648049e-02
  1.519689e+00    1.253825e+00   1.644802e-02
  1.521899e+00    1.273930e+00   1.655606e-02
  1.524110e+00    1.271304e+00   1.651851e-02
  1.526320e+00    1.273260e+00   1.651146e-02
  1.528531e+00    1.290391e+00   1.660210e-02
  1.530741e+00    1.251311e+00   1.632960e-02
  1.532951e+00    1.261597e+00   1.637692e-02
  1.535162e+00    1.247205e+00   1.636974e-02
  1.537372e+00    1.250048e+00   1.645533e-02
  1.539583e+00    1.246690e+00   1.646740e-02
  1.541793e+00    1.266826e+00   1.660687e-02
  1.544004e+00    1.250102e+00   1.649716e-02
  1.546214e+00    1.244307e+00   1.645736e-02
  1.548425e+00    1.232614e+00   1.638012e-02
  1.550635e+00    1.234288e+00   1.640086e-02
  1.552846e+00    1.253686e+00   1.653893e-02
  1.555056e+00    1.240821e+00   1.641245e-02
  1.557266e+00    1.250735e+00   1.636714e-02
  1.559477e+00    1.246224e+00   1.627845e-02
  1.561687e+00    1.255265e+00   1.630659e-02
  1.563898e+00    1.222866e+00   1.607776e-02
  1.566108e+00    1.245024e+00   1.620679e-02
  1.568319e+00    1.252287e+00   1.623836e-02
  1.570529e+00    1.239063e+00   1.612728e-02
  1.572740e+00    1.251948e+00   1.618324e-02
  1.574950e+00    1.268914e+00   1.626595e-02
  1.577161e+00    1.260992e+00   1.618946e-02
  1.579371e+00    1.244581e+00   1.606008e-02
  1.581582e+00    1.263496e+00   1.616176e-02
  1.583792e+00    1.252560e+00   1.607359e-02
  1.586002e+00    1.250471e+00   1.604251e-02
  1.588213e+00    1.243021e+00   1.597742e-02
  1.590423e+00    1.251755e+00   1.601331e-02
  1.592634e+00    1.252876e+00   1.599879e-02
  1.594844e+00    1.222817e+00   1.578447e-02
  1.597055e+00    1.216929e+00   1.572615e-02
  1.599265e+00    1.239575e+00   1.585108e-02
  1.601476e+00    1.251463e+00   1.590653e-02
  1.603686e+00    1.241850e+00   1.582554e-02
  1.605897e+00    1.243686e+00   1.581704e-02
  1.608107e+00    1.235378e+00   1.574457e-02
  1.610317e+00    1.240696e+00   1.575909e-02
  1.612528e+00    1.249305e+00   1.579438e-02
  1.614738e+00    1.250736e+00   1.578433e-02
  1.616949e+00    1.248532e+00   1.575126e-02
  1.619159e+00    1.260163e+00   1.580545e-02
  1.621370e+00    1.260089e+00   1.578625e-02
  1.623580e+00    1.242141e+00   1.565485e-02
  1.625791e+00    1.271253e+00   1.581851e-02
  1.628001e+00    1.258423e+00   1.571983e-02
  1.630212e+00    1.217276e+00   1.544276e-02
  1.632422e+00    1.191730e+00   1.526191e-02
  1.634632e+00    1.205338e+00   1.533131e-02
  1.636843e+00    1.229232e+00   1.546461e-02
  1.639053e+00    1.240700e+00   1.551881e-02
  1.641264e+00    1.213381e+00   1.532961e-02
  1.643474e+00    1.181169e+00   1.510722e-02
  1.645685e+00    1.175422e+00   1.505364e-02
  1.647895e+00    1.139606e+00   1.480604e-02
  1.650106e+00    1.127612e+00   1.471107e-02
  1.652316e+00    1.135790e+00   1.474794e-02
  1.654527e+00    1.110278e+00   1.456493e-02
  1.656737e+00    1.122674e+00   1.462953e-02
  1.658947e+00    1.151965e+00   1.480273e-02
  1.661158e+00    1.139258e+00   1.470454e-02
  1.663368e+00    1.094274e+00   1.439546e-02
  1.665579e+00    1.122843e+00   1.456599e-02
  1.667789e+00    1.142164e+00   1.467436e-02
  1.670000e+00    1.183182e+00   1.491955e-02
  1.672210e+00    1.161228e+00   1.476427e-02
  1.674421e+00    1.124780e+00   1.451524e-02
  1.676631e+00    1.155379e+00   1.469507e-02
  1.678842e+00    1.220401e+00   1.508631e-02
  1.681052e+00    1.273026e+00   1.539151e-02
  1.683263e+00    1.249824e+00   1.523449e-02
  1.685473e+00    1.140885e+00   1.453985e-02
  1.687683e+00    1.161137e+00   1.465231e-02
  1.689894e+00    1.171754e+00   1.470277e-02
  1.692104e+00    1.100746e+00   1.423524e-02
  1.694315e+00    1.093090e+00   1.417097e-02
  1.696525e+00    1.091394e+00   1.414468e-02
  1.698736e+00    1.063278e+00   1.394650e-02
  1.700946e+00    1.075021e+00   1.400803e-02
  1.703157e+00    1.066367e+00   1.393686e-02
  1.705367e+00    1.058638e+00   1.387170e-02
  1.707578e+00    1.069801e+00   1.392994e-02
  1.709788e+00    1.056312e+00   1.382765e-02
  1.711998e+00    1.060678e+00   1.384106e-02
  1.714209e+00    1.081936e+00   1.396432e-02
  1.716419e+00    1.146671e+00   1.436102e-02
  1.718630e+00    1.060930e+00   1.379919e-02
  1.720840e+00    1.019008e+00   1.350968e-02
  1.723051e+00    1.023239e+00   1.352385e-02
  1.725261e+00    1.009520e+00   1.341830e-02
  1.727472e+00    1.004964e+00   1.337390e-02
  1.729682e+00    1.002009e+00   1.334085e-02
  1.731893e+00    1.009873e+00   1.337921e-02
  1.734103e+00    1.014858e+00   1.339835e-02
  1.736313e+00    1.005139e+00   1.332005e-02
  1.738524e+00    9.901287e-01   1.320646e-02
  1.740734e+00    1.000341e+00   1.326068e-02
  1.742945e+00    1.001828e+00   1.325706e-02
  1.745155e+00    9.711770e-01   1.303937e-02
  1.747366e+00    9.569368e-01   1.292984e-02
  1.749576e+00    9.486248e-01   1.286014e-02
  1.751787e+00    9.664282e-01   1.296702e-02
  1.753997e+00    9.671327e-01   1.295845e-02
  1.756208e+00    9.661545e-01   1.293879e-02
  1.758418e+00    9.508570e-01   1.282295e-02
  1.760628e+00    9.519337e-01   1.281698e-02
  1.762839e+00    9.429407e-01   1.274323e-02
  1.765049e+00    9.449209e-01   1.274360e-02
  1.767260e+00    9.385476e-01   1.268789e-02
  1.769470e+00    9.407330e-01   1.268975e-02
  1.771681e+00    9.603956e-01   1.280849e-02
  1.773891e+00    9.511408e-01   1.273358e-02
  1.776102e+00    9.534503e-01   1.273610e-02
  1.778312e+00    9.631542e-01   1.278792e-02
  1.780523e+00    9.274482e-01   1.253600e-02
  1.782733e+00    9.668525e-01   1.278663e-02
  1.784944e+00    1.014777e+00   1.308631e-02
  1.787154e+00    1.031443e+00   1.318014e-02
  1.789364e+00    1.012907e+00   1.304817e-02
  1.791575e+00    9.895843e-01   1.288413e-02
  1.793785e+00    9.438096e-01   1.257007e-02
  1.795996e+00    9.071243e-01   1.231092e-02
  1.798206e+00    8.903187e-01   1.218402e-02
  1.800417e+00    9.045209e-01   1.226822e-02
  1.802627e+00    9.006141e-01   1.222984e-02
  1.804838e+00    9.135574e-01   1.230530e-02
  1.807048e+00    9.046554e-01   1.223239e-02
  1.809259e+00    8.936765e-01   1.214444e-02
  1.811469e+00    8.946535e-01   1.213619e-02
  1.813679e+00    9.003542e-01   1.215983e-02
  1.815890e+00    8.895035e-01   1.207167e-02
  1.818100e+00    8.860067e-01   1.203288e-02
  1.820311e+00    9.080706e-01   1.216690e-02
  1.822521e+00    8.912715e-01   1.203900e-02
  1.824732e+00    8.702496e-01   1.188152e-02
  1.826942e+00    8.932856e-01   1.202535e-02
  1.829153e+00    8.889285e-01   1.198429e-02
  1.831363e+00    9.065465e-01   1.209028e-02
  1.833574e+00    8.833073e-01   1.192262e-02
  1.835784e+00    8.898104e-01   1.195493e-02
  1.837994e+00    8.888125e-01   1.193645e-02
  1.840205e+00    8.532199e-01   1.168396e-02
  1.842415e+00    8.535408e-01   1.167451e-02
  1.844626e+00    8.629524e-01   1.172720e-02
  1.846836e+00    8.588638e-01   1.168801e-02
  1.849047e+00    8.627692e-01   1.170297e-02
  1.851257e+00    8.521243e-01   1.162104e-02
  1.853468e+00    8.617111e-01   1.167743e-02
  1.855678e+00    8.359132e-01   1.149257e-02
  1.857889e+00    8.392827e-01   1.150728e-02
  1.860099e+00    8.388565e-01   1.149583e-02
  1.862309e+00    8.437526e-01   1.152087e-02
  1.864520e+00    8.644546e-01   1.165274e-02
  1.866730e+00    8.523039e-01   1.156120e-02
  1.868941e+00    8.342664e-01   1.142737e-02
  1.871151e+00    8.282874e-01   1.137512e-02
  1.873362e+00    8.272089e-01   1.135651e-02
  1.875572e+00    8.571985e-01   1.154955e-02
  1.877783e+00    8.280024e-01   1.133989e-02
  1.879993e+00    8.308635e-01   1.134839e-02
  1.882204e+00    8.291264e-01   1.132573e-02
  1.884414e+00    8.471601e-01   1.143713e-02
  1.886624e+00    8.385611e-01   1.136792e-02
  1.888835e+00    8.327238e-01   1.131736e-02
  1.891045e+00    8.580999e-01   1.147749e-02
  1.893256e+00    8.651586e-01   1.151337e-02
  1.895466e+00    8.362334e-01   1.130809e-02
  1.897677e+00    8.227549e-01   1.120575e-02
  1.899887e+00    8.316339e-01   1.125509e-02
  1.902098e+00    8.233564e-01   1.118815e-02
  1.904308e+00    8.031582e-01   1.103965e-02
  1.906519e+00    8.360552e-01   1.125260e-02
  1.908729e+00    8.198330e-01   1.113235e-02
  1.910940e+00    8.078987e-01   1.104003e-02
  1.913150e+00    8.213158e-01   1.112075e-02
  1.915360e+00    8.439445e-01   1.126218e-02
  1.917571e+00    8.127167e-01   1.104106e-02
  1.919781e+00    7.946839e-01   1.090736e-02
  1.921992e+00    7.995064e-01   1.092992e-02
  1.924202e+00    7.944942e-01   1.088499e-02
  1.926413e+00    8.157656e-01   1.101944e-02
  1.928623e+00    8.088730e-01   1.096229e-02
  1.930834e+00    8.064419e-01   1.093542e-02
  1.933044e+00    8.261014e-01   1.105713e-02
  1.935255e+00    8.101179e-01   1.093934e-02
  1.937465e+00    8.006387e-01   1.086478e-02
  1.939675e+00    7.971105e-01   1.083005e-02
  1.941886e+00    7.821321e-01   1.071767e-02
  1.944096e+00    7.909157e-01   1.076757e-02
  1.946307e+00    8.072128e-01   1.086758e-02
  1.948517e+00    7.995065e-01   1.080513e-02
  1.950728e+00    7.948227e-01   1.076321e-02
  1.952938e+00    7.954198e-01   1.075720e-02
  1.955149e+00    7.915388e-01   1.072069e-02
  1.957359e+00    7.968946e-01   1.074687e-02
  1.959570e+00    8.043687e-01   1.078621e-02
  1.961780e+00    7.940669e-01   1.070700e-02
  1.963990e+00    7.981845e-01   1.072457e-02
  1.966201e+00    7.989557e-01   1.071963e-02
  1.968411e+00    7.925749e-01   1.066657e-02
  1.970622e+00    8.079908e-01   1.075958e-02
  1.972832e+00    7.973414e-01   1.067841e-02
  1.975043e+00    7.968482e-01   1.066499e-02
  1.977253e+00    8.111341e-01   1.075005e-02
  1.979464e+00    8.039572e-01   1.069222e-02
  1.981674e+00    8.171552e-01   1.076914e-02
  1.983885e+00    7.986894e-01   1.063666e-02
  1.986095e+00    7.923769e-01   1.058474e-02
  1.988305e+00    8.045359e-01   1.065560e-02
  1.990516e+00    8.367133e-01   1.085630e-02
  1.992726e+00    8.611044e-01   1.100323e-02
  1.994937e+00    8.650318e-01   1.101762e-02
  1.997147e+00    8.482688e-01   1.090018e-02
  1.999358e+00    8.073013e-01   1.062366e-02
  2.001568e+00    7.865754e-01   1.047549e-02
  2.003779e+00    7.923276e-01   1.050163e-02
  2.005989e+00    8.265003e-01   1.071326e-02
  2.008200e+00    8.537577e-01   1.087637e-02
  2.010410e+00    8.157049e-01   1.061914e-02
  2.012621e+00    8.039944e-01   1.053065e-02
  2.014831e+00    7.815195e-01   1.037085e-02
  2.017041e+00    7.774708e-01   1.033350e-02
  2.019252e+00    7.776979e-01   1.032496e-02
  2.021462e+00    7.899436e-01   1.039627e-02
  2.023673e+00    8.011333e-01   1.046003e-02
  2.025883e+00    8.175302e-01   1.055668e-02
  2.028094e+00    8.131093e-01   1.051816e-02
  2.030304e+00    7.815756e-01   1.030252e-02
  2.032515e+00    7.798310e-01   1.028160e-02
  2.034725e+00    7.728324e-01   1.022583e-02
  2.036936e+00    7.576205e-01   1.011536e-02
  2.039146e+00    7.493780e-01   1.005066e-02
  2.041356e+00    7.499483e-01   1.004486e-02
  2.043567e+00    7.694561e-01   1.016530e-02
  2.045777e+00    7.366866e-01   9.937351e-03
  2.047988e+00    7.490970e-01   1.001136e-02
  2.050198e+00    7.596396e-01   1.007311e-02
  2.052409e+00    7.295849e-01   9.864290e-03
  2.054619e+00    7.384555e-01   9.916773e-03
  2.056830e+00    7.438861e-01   9.946007e-03
  2.059040e+00    7.643015e-01   1.007400e-02
  2.061251e+00    7.742630e-01   1.013206e-02
  2.063461e+00    7.781489e-01   1.014973e-02
  2.065671e+00    7.769601e-01   1.013309e-02
  2.067882e+00    7.640716e-01   1.003961e-02
  2.070092e+00    7.581950e-01   9.991652e-03
  2.072303e+00    7.554333e-01   9.964245e-03
  2.074513e+00    7.466646e-01   9.896917e-03
  2.076724e+00    7.663547e-01   1.001695e-02
  2.078934e+00    7.520320e-01   9.913866e-03
  2.081145e+00    7.370451e-01   9.805537e-03
  2.083355e+00    7.481671e-01   9.870018e-03
  2.085566e+00    7.415958e-01   9.817672e-03
  2.087776e+00    7.560346e-01   9.903152e-03
  2.089986e+00    7.822706e-01   1.006450e-02
  2.092197e+00    7.870346e-01   1.008583e-02
  2.094407e+00    8.103538e-01   1.022448e-02
  2.096618e+00    7.877588e-01   1.007174e-02
  2.098828e+00    7.669998e-01   9.928634e-03
  2.101039e+00    7.433689e-01   9.765442e-03
  2.103249e+00    7.242343e-01   9.630303e-03
  2.105460e+00    7.332443e-01   9.680996e-03
  2.107670e+00    7.168555e-01   9.563515e-03
  2.109881e+00    7.164209e-01   9.551531e-03
  2.112091e+00    7.268423e-01   9.611747e-03
  2.114301e+00    7.091072e-01   9.485082e-03
  2.116512e+00    7.145417e-01   9.512614e-03
  2.118722e+00    7.129789e-01   9.493432e-03
  2.120933e+00    7.304412e-01   9.600057e-03
  2.123143e+00    7.186666e-01   9.513483e-03
  2.125354e+00    6.953302e-01   9.349349e-03
  2.127564e+00    6.925417e-01   9.321976e-03
  2.129775e+00    7.147645e-01   9.461647e-03
  2.131985e+00    7.090527e-01   9.414759e-03
  2.134196e+00    6.986259e-01   9.336763e-03
  2.136406e+00    7.069345e-01   9.383412e-03
  2.138617e+00    7.142514e-01   9.423370e-03
  2.140827e+00    7.019218e-01   9.357665e-03
  2.143037e+00    7.085932e-01   9.447547e-03
  2.145248e+00    7.152164e-01   9.513755e-03
  2.147458e+00    7.019436e-01   9.440175e-03
  2.149669e+00    7.047666e-01   9.470986e-03
  2.151879e+00    7.217341e-01   9.593694e-03
  2.154090e+00    7.076715e-01   9.507108e-03
  2.156300e+00    7.074527e-01   9.512279e-03
  2.158511e+00    7.131811e-01   9.556055e-03
  2.160721e+00    6.978059e-01   9.457326e-03
  2.162932e+00    6.944430e-01   9.438224e-03
  2.165142e+00    6.736607e-01   9.298887e-03
  2.167352e+00    6.940299e-01   9.441341e-03
  2.169563e+00    7.029551e-01   9.503812e-03
  2.171773e+00    7.023211e-01   9.502003e-03
  2.173984e+00    7.012565e-01   9.496195e-03
  2.176194e+00    7.008168e-01   9.494452e-03
  2.178405e+00    6.757156e-01   9.323554e-03
  2.180615e+00    6.850362e-01   9.388287e-03
  2.182826e+00    6.996042e-01   9.488299e-03
  2.185036e+00    6.782753e-01   9.342586e-03
  2.187247e+00    6.777691e-01   9.339058e-03
  2.189457e+00    7.057005e-01   9.529108e-03
  2.191667e+00    6.952651e-01   9.458257e-03
  2.193878e+00    6.872845e-01   9.403209e-03
  2.196088e+00    6.983526e-01   9.477967e-03
  2.198299e+00    6.824158e-01   9.368087e-03
  2.200509e+00    6.934659e-01   9.442575e-03
  2.202720e+00    6.883060e-01   9.406216e-03
  2.204930e+00    6.856063e-01   9.386512e-03
  2.207141e+00    6.865667e-01   9.391957e-03
  2.209351e+00    6.854011e-01   9.382105e-03
  2.211562e+00    6.843160e-01   9.373030e-03
  2.213772e+00    6.798098e-01   9.286543e-03
  2.215982e+00    6.678036e-01   9.160209e-03
  2.218193e+00    6.722571e-01   9.161148e-03
  2.220403e+00    6.823261e-01   9.204772e-03
  2.222614e+00    6.740392e-01   9.127756e-03
  2.224824e+00    6.889493e-01   9.208553e-03
  2.227035e+00    6.706791e-01   9.068226e-03
  2.229245e+00    6.708074e-01   9.052128e-03
  2.231456e+00    6.660426e-01   9.004371e-03
  2.233666e+00    6.803364e-01   9.085268e-03
  2.235877e+00    6.659350e-01   8.974397e-03
  2.238087e+00    6.763787e-01   9.030934e-03
  2.240298e+00    6.691160e-01   8.968551e-03
  2.242508e+00    6.731350e-01   8.980283e-03
  2.244718e+00    6.744121e-01   8.972913e-03
  2.246929e+00    6.611984e-01   8.870237e-03
  2.249139e+00    6.765172e-01   8.959930e-03
  2.251350e+00    6.707845e-01   8.910150e-03
  2.253560e+00    6.614538e-01   8.836445e-03
  2.255771e+00    6.667517e-01   8.860330e-03
  2.257981e+00    6.810365e-01   8.943440e-03
  2.260192e+00    6.786560e-01   8.916558e-03
  2.262402e+00    6.589097e-01   8.775103e-03
  2.264613e+00    6.585079e-01   8.761606e-03
  2.266823e+00    6.533781e-01   8.717098e-03
  2.269033e+00    6.669384e-01   8.796669e-03
  2.271244e+00    6.731619e-01   8.827167e-03
  2.273454e+00    6.517048e-01   8.675156e-03
  2.275665e+00    6.584598e-01   8.709713e-03
  2.277875e+00    6.596860e-01   8.707898e-03
  2.280086e+00    6.615037e-01   8.709851e-03
  2.282296e+00    6.584185e-01   8.680110e-03
  2.284507e+00    6.654773e-01   8.716324e-03
  2.286717e+00    6.613057e-01   8.679481e-03
  2.288928e+00    6.570235e-01   8.641473e-03
  2.291138e+00    6.467738e-01   8.564440e-03
  2.293348e+00    6.614330e-01   8.651372e-03
  2.295559e+00    6.657933e-01   8.670457e-03
  2.297769e+00    6.689202e-01   8.681447e-03
  2.299980e+00    6.635723e-01   8.637277e-03
  2.302190e+00    6.506867e-01   8.543885e-03
  2.304401e+00    6.249548e-01   8.364139e-03
  2.306611e+00    6.475800e-01   8.504990e-03
  2.308822e+00    6.606851e-01   8.582191e-03
  2.311032e+00    6.557646e-01   8.543705e-03
  2.313243e+00    6.447462e-01   8.465368e-03
  2.315453e+00    6.472906e-01   8.474489e-03
  2.317663e+00    6.373842e-01   8.400361e-03
  2.319874e+00    6.300465e-01   8.343226e-03
  2.322084e+00    6.314806e-01   8.343861e-03
  2.324295e+00    6.303802e-01   8.328440e-03
  2.326505e+00    6.486294e-01   8.439065e-03
  2.328716e+00    6.502492e-01   8.440997e-03
  2.330926e+00    6.418390e-01   8.377460e-03
  2.333137e+00    6.452169e-01   8.391063e-03
  2.335347e+00    6.375821e-01   8.332437e-03
  2.337558e+00    6.372214e-01   8.321860e-03
  2.339768e+00    6.392066e-01   8.326245e-03
  2.341979e+00    6.366678e-01   8.301346e-03
  2.344189e+00    6.479788e-01   8.366290e-03
  2.346399e+00    6.417810e-01   8.317675e-03
  2.348610e+00    6.371930e-01   8.279385e-03
  2.350820e+00    6.562372e-01   8.393909e-03
  2.353031e+00    6.413931e-01   8.290101e-03
  2.355241e+00    6.394166e-01   8.269217e-03
  2.357452e+00    6.438669e-01   8.289452e-03
  2.359662e+00    6.300874e-01   8.192056e-03
  2.361873e+00    6.325319e-01   8.199671e-03
  2.364083e+00    6.478663e-01   8.290380e-03
  2.366294e+00    6.347290e-01   8.197728e-03
  2.368504e+00    6.431661e-01   8.243863e-03
  2.370714e+00    6.264749e-01   8.128123e-03
  2.372925e+00    6.338556e-01   8.167751e-03
  2.375135e+00    6.194432e-01   8.066340e-03
  2.377346e+00    6.203428e-01   8.064262e-03
  2.379556e+00    6.261036e-01   8.093708e-03
  2.381767e+00    6.138184e-01   8.006106e-03
  2.383977e+00    6.094373e-01   7.969606e-03
  2.386188e+00    6.225079e-01   8.046675e-03
  2.388398e+00    6.339216e-01   8.112062e-03
  2.390609e+00    6.114672e-01   7.959408e-03
  2.392819e+00    6.273278e-01   8.054121e-03
  2.395029e+00    6.236523e-01   8.022791e-03
  2.397240e+00    6.223291e-01   8.006354e-03
  2.399450e+00    5.988050e-01   7.845879e-03
  2.401661e+00    5.941921e-01   7.808012e-03
  2.403871e+00    6.037346e-01   7.862756e-03
  2.406082e+00    5.984535e-01   7.820918e-03
  2.408292e+00    6.088381e-01   7.880703e-03
  2.410503e+00    6.067823e-01   7.859902e-03
  2.412713e+00    6.152400e-01   7.906646e-03
  2.414924e+00    6.004685e-01   7.803716e-03
  2.417134e+00    5.828682e-01   7.680998e-03
  2.419344e+00    5.843048e-01   7.683153e-03
  2.421555e+00    6.073735e-01   7.825800e-03
  2.423765e+00    6.131436e-01   7.855418e-03
  2.425976e+00    6.022069e-01   7.777233e-03
  2.428186e+00    5.833943e-01   7.647660e-03
  2.430397e+00    5.911005e-01   7.690548e-03
  2.432607e+00    5.881966e-01   7.664415e-03
  2.434818e+00    5.803889e-01   7.605923e-03
  2.437028e+00    5.932751e-01   7.682763e-03
  2.439239e+00    5.886345e-01   7.645024e-03
  2.441449e+00    5.812101e-01   7.589541e-03
  2.443659e+00    5.810402e-01   7.581123e-03
  2.445870e+00    5.764787e-01   7.563435e-03
  2.448080e+00    5.794346e-01   7.617485e-03
  2.450291e+00    5.765954e-01   7.615408e-03
  2.452501e+00    5.741808e-01   7.610584e-03
  2.454712e+00    5.676900e-01   7.575835e-03
  2.456922e+00    5.646856e-01   7.562355e-03
  2.459133e+00    5.590524e-01   7.529912e-03
  2.461343e+00    5.639858e-01   7.567419e-03
  2.463554e+00    5.656469e-01   7.582027e-03
  2.465764e+00    5.508294e-01   7.485169e-03
  2.467975e+00    5.482417e-01   7.469807e-03
  2.470185e+00    5.561327e-01   7.525634e-03
  2.472395e+00    5.525423e-01   7.502518e-03
  2.474606e+00    5.439829e-01   7.445733e-03
  2.476816e+00    5.488323e-01   7.479581e-03
  2.479027e+00    5.364800e-01   7.395762e-03
  2.481237e+00    5.524842e-01   7.505541e-03
  2.483448e+00    5.508136e-01   7.494508e-03
  2.485658e+00    5.426007e-01   7.438266e-03
  2.487869e+00    5.476831e-01   7.473071e-03
  2.490079e+00    5.471204e-01   7.468695e-03
  2.492290e+00    5.542181e-01   7.516558e-03
  2.494500e+00    5.337210e-01   7.375531e-03
  2.496710e+00    5.309284e-01   7.355498e-03
  2.498921e+00    5.325350e-01   7.365641e-03
  2.501131e+00    5.259592e-01   7.319079e-03
  2.503342e+00    5.255523e-01   7.314987e-03
  2.505552e+00    5.222412e-01   7.290793e-03
  2.507763e+00    5.245824e-01   7.305702e-03
  2.509973e+00    5.299134e-01   7.341323e-03
  2.512184e+00    5.409526e-01   7.415784e-03
  2.514394e+00    5.335334e-01   7.355328e-03
  2.516605e+00    5.150493e-01   7.180256e-03
  2.518815e+00    5.204928e-01   7.189902e-03
  2.521025e+00    5.466685e-01   7.347098e-03
  2.523236e+00    5.351900e-01   7.251419e-03
  2.525446e+00    5.268524e-01   7.179092e-03
  2.527657e+00    5.387084e-01   7.244607e-03
  2.529867e+00    5.405679e-01   7.242738e-03
  2.532078e+00    5.319367e-01   7.169527e-03
  2.534288e+00    5.292728e-01   7.137627e-03
  2.536499e+00    5.168165e-01   7.041282e-03
  2.538709e+00    5.013812e-01   6.924577e-03
  2.540920e+00    5.142514e-01   7.002335e-03
  2.543130e+00    5.208641e-01   7.036898e-03
  2.545340e+00    5.208980e-01   7.027077e-03
  2.547551e+00    5.242881e-01   7.039965e-03
  2.549761e+00    5.118284e-01   6.946326e-03
  2.551972e+00    5.138202e-01   6.950524e-03
  2.554182e+00    5.154427e-01   6.952392e-03
  2.556393e+00    5.166491e-01   6.951441e-03
  2.558603e+00    5.213847e-01   6.974162e-03
  2.560814e+00    5.292580e-01   7.017832e-03
  2.563024e+00    5.196998e-01   6.945601e-03
  2.565235e+00    5.245404e-01   6.968307e-03
  2.567445e+00    5.169144e-01   6.907947e-03
  2.569656e+00    5.228098e-01   6.937413e-03
  2.571866e+00    5.244095e-01   6.938631e-03
  2.574076e+00    5.178416e-01   6.885740e-03
  2.576287e+00    5.299669e-01   6.957460e-03
  2.578497e+00    5.185964e-01   6.874566e-03
  2.580708e+00    5.180302e-01   6.862697e-03
  2.582918e+00    5.163044e-01   6.843491e-03
  2.585129e+00    5.018545e-01   6.739380e-03
  2.587339e+00    5.071639e-01   6.767329e-03
  2.589550e+00    4.937038e-01   6.669486e-03
  2.591760e+00    5.096189e-01   6.768429e-03
  2.593971e+00    5.121121e-01   6.777426e-03
  2.596181e+00    5.214321e-01   6.832542e-03
  2.598391e+00    5.107535e-01   6.757040e-03
  2.600602e+00    5.102949e-01   6.748079e-03
  2.602812e+00    5.181516e-01   6.792225e-03
  2.605023e+00    5.024223e-01   6.681225e-03
  2.607233e+00    5.014567e-01   6.667689e-03
  2.609444e+00    5.091410e-01   6.711356e-03
  2.611654e+00    4.967370e-01   6.621848e-03
  2.613865e+00    5.101526e-01   6.703591e-03
  2.616075e+00    5.150455e-01   6.728481e-03
  2.618286e+00    5.161726e-01   6.728764e-03
  2.620496e+00    5.026594e-01   6.633426e-03
  2.622706e+00    5.017469e-01   6.621675e-03
  2.624917e+00    5.017484e-01   6.615836e-03
  2.627127e+00    5.107637e-01   6.669252e-03
  2.629338e+00    5.006494e-01   6.596930e-03
  2.631548e+00    5.024324e-01   6.602479e-03
  2.633759e+00    5.055305e-01   6.615656e-03
  2.635969e+00    4.924601e-01   6.522943e-03
  2.638180e+00    4.962300e-01   6.540914e-03
  2.640390e+00    5.015878e-01   6.569515e-03
  2.642601e+00    4.980769e-01   6.539847e-03
  2.644811e+00    4.905844e-01   6.483473e-03
  2.647021e+00    4.842180e-01   6.434796e-03
  2.649232e+00    4.887933e-01   6.458476e-03
  2.651442e+00    4.873898e-01   6.442788e-03
  2.653653e+00    4.923084e-01   6.468442e-03
  2.655863e+00    4.998508e-01   6.511129e-03
  2.658074e+00    4.927798e-01   6.458332e-03
  2.660284e+00    4.979832e-01   6.485968e-03
  2.662495e+00    4.964429e-01   6.469197e-03
  2.664705e+00    5.048736e-01   6.517273e-03
  2.666916e+00    4.911751e-01   6.421819e-03
  2.669126e+00    4.973734e-01   6.455746e-03
  2.671337e+00    4.805321e-01   6.339041e-03
  2.673547e+00    4.822023e-01   6.343725e-03
  2.675757e+00    4.938587e-01   6.413505e-03
  2.677968e+00    5.124692e-01   6.526595e-03
  2.680178e+00    4.971788e-01   6.422076e-03
  2.682389e+00    4.988731e-01   6.426557e-03
  2.684599e+00    4.975626e-01   6.411916e-03
  2.686810e+00    4.862198e-01   6.331837e-03
  2.689020e+00    4.898556e-01   6.349176e-03
  2.691231e+00    4.909872e-01   6.350228e-03
  2.693441e+00    4.820201e-01   6.285872e-03
  2.695652e+00    4.903856e-01   6.333668e-03
  2.697862e+00    4.966302e-01   6.367477e-03
  2.700072e+00    4.861151e-01   6.293669e-03
  2.702283e+00    4.816389e-01   6.258441e-03
  2.704493e+00    4.777086e-01   6.226643e-03
  2.706704e+00    4.692562e-01   6.165041e-03
  2.708914e+00    4.765674e-01   6.206964e-03
  2.711125e+00    4.867882e-01   6.266943e-03
  2.713335e+00    4.822679e-01   6.231728e-03
  2.715546e+00    4.745607e-01   6.175351e-03
  2.717756e+00    4.699591e-01   6.139543e-03
  2.719967e+00    4.784976e-01   6.188910e-03
  2.722177e+00    4.921215e-01   6.270224e-03
  2.724387e+00    4.779312e-01   6.173125e-03
  2.726598e+00    4.737085e-01   6.139783e-03
  2.728808e+00    4.862842e-01   6.214592e-03
  2.731019e+00    4.870822e-01   6.213569e-03
  2.733229e+00    4.775752e-01   6.146862e-03
  2.735440e+00    4.784057e-01   6.145962e-03
  2.737650e+00    4.740841e-01   6.112193e-03
  2.739861e+00    4.712261e-01   6.087741e-03
  2.742071e+00    4.773867e-01   6.121696e-03
  2.744282e+00    4.757674e-01   6.105116e-03
  2.746492e+00    4.654913e-01   6.032886e-03
  2.748702e+00    4.738659e-01   6.081053e-03
  2.750913e+00    4.662096e-01   6.026041e-03
  2.753123e+00    4.569477e-01   5.959915e-03
  2.755334e+00    4.687347e-01   6.030286e-03
  2.757544e+00    4.748681e-01   6.063918e-03
  2.759755e+00    4.722224e-01   6.041162e-03
  2.761965e+00    4.788660e-01   6.077540e-03
  2.764176e+00    4.810654e-01   6.085487e-03
  2.766386e+00    4.801483e-01   6.073896e-03
  2.768597e+00    4.712620e-01   6.011614e-03
  2.770807e+00    4.813973e-01   6.070019e-03
  2.773017e+00    4.742636e-01   6.018948e-03
  2.775228e+00    4.686286e-01   5.977349e-03
  2.777438e+00    4.698535e-01   5.979409e-03
  2.779649e+00    4.699016e-01   5.973868e-03
  2.781859e+00    4.638680e-01   5.929713e-03
  2.784070e+00    4.810113e-01   6.032401e-03
  2.786280e+00    4.819257e-01   6.032347e-03
  2.788491e+00    4.853689e-01   6.047961e-03
  2.790701e+00    4.785388e-01   5.999627e-03
  2.792912e+00    4.693565e-01   5.935835e-03
  2.795122e+00    4.627657e-01   5.888374e-03
  2.797333e+00    4.693058e-01   5.924306e-03
  2.799543e+00    4.733711e-01   5.944060e-03
  2.801753e+00    4.694809e-01   5.913783e-03
  2.803964e+00    4.671801e-01   5.893631e-03
  2.806174e+00    4.752748e-01   5.938346e-03
  2.808385e+00    4.738334e-01   5.922546e-03
  2.810595e+00    4.742838e-01   5.918488e-03
  2.812806e+00    4.713970e-01   5.893865e-03
  2.815016e+00    4.658773e-01   5.854556e-03
  2.817227e+00    4.799488e-01   5.968381e-03
  2.819437e+00    4.785147e-01   5.970630e-03
  2.821648e+00    4.713750e-01   5.928176e-03
  2.823858e+00    4.713291e-01   5.933232e-03
  2.826068e+00    4.864280e-01   6.032543e-03
  2.828279e+00    4.945747e-01   6.087008e-03
  2.830489e+00    4.788027e-01   5.992524e-03
  2.832700e+00    4.685105e-01   5.930315e-03
  2.834910e+00    4.658783e-01   5.915679e-03
  2.837121e+00    4.745907e-01   5.972441e-03
  2.839331e+00    4.849618e-01   6.038607e-03
  2.841542e+00    4.819244e-01   6.020702e-03
  2.843752e+00    4.617104e-01   5.893857e-03
  2.845963e+00    4.683304e-01   5.936346e-03
  2.848173e+00    4.543907e-01   5.847421e-03
  2.850383e+00    4.737337e-01   5.970873e-03
  2.852594e+00    4.623778e-01   5.898810e-03
  2.854804e+00    4.601863e-01   5.884298e-03
  2.857015e+00    4.756568e-01   5.981964e-03
  2.859225e+00    4.708540e-01   5.951429e-03
  2.861436e+00    4.544615e-01   5.846279e-03
  2.863646e+00    4.582520e-01   5.870642e-03
  2.865857e+00    4.625351e-01   5.898338e-03
  2.868067e+00    4.649891e-01   5.914193e-03
  2.870278e+00    4.645180e-01   5.910860e-03
  2.872488e+00    4.635541e-01   5.903540e-03
  2.874698e+00    4.636817e-01   5.903325e-03
  2.876909e+00    4.652798e-01   5.912147e-03
  2.879119e+00    4.640464e-01   5.902689e-03
  2.881330e+00    4.697559e-01   5.937401e-03
  2.883540e+00    4.569063e-01   5.854267e-03
  2.885751e+00    4.536285e-01   5.831592e-03
  2.887961e+00    4.630009e-01   5.889630e-03
  2.890172e+00    4.700534e-01   5.932709e-03
  2.892382e+00    4.720273e-01   5.943328e-03
  2.894593e+00    4.702744e-01   5.930440e-03
  2.896803e+00    4.665860e-01   5.905159e-03
  2.899014e+00    4.729036e-01   5.943047e-03
  2.901224e+00    4.719439e-01   5.935011e-03
  2.903434e+00    4.564334e-01   5.834736e-03
  2.905645e+00    4.610623e-01   5.862005e-03
  2.907855e+00    4.578611e-01   5.839536e-03
  2.910066e+00    4.557586e-01   5.824038e-03
  2.912276e+00    4.641857e-01   5.875487e-03
  2.914487e+00    4.667796e-01   5.889424e-03
  2.916697e+00    4.659351e-01   5.881834e-03
  2.918908e+00    4.638186e-01   5.866466e-03
  2.921118e+00    4.595780e-01   5.836873e-03
  2.923329e+00    4.598698e-01   5.836410e-03
  2.925539e+00    4.541891e-01   5.797978e-03
  2.927749e+00    4.609247e-01   5.838471e-03
  2.929960e+00    4.741656e-01   5.918931e-03
  2.932170e+00    4.648670e-01   5.858257e-03
  2.934381e+00    4.568578e-01   5.805137e-03
  2.936591e+00    4.469764e-01   5.739447e-03
  2.938802e+00    4.496635e-01   5.753992e-03
  2.941012e+00    4.489545e-01   5.747122e-03
  2.943223e+00    4.593765e-01   5.810754e-03
  2.945433e+00    4.566655e-01   5.789835e-03
  2.947644e+00    4.549574e-01   5.774877e-03
  2.949854e+00    4.497450e-01   5.737441e-03
  2.952064e+00    4.603860e-01   5.800670e-03
  2.954275e+00    4.594011e-01   5.790057e-03
  2.956485e+00    4.564597e-01   5.767267e-03
  2.958696e+00    4.809806e-01   5.915650e-03
  2.960906e+00    4.825221e-01   5.920837e-03
  2.963117e+00    4.560660e-01   5.751749e-03
  2.965327e+00    4.570465e-01   5.753989e-03
  2.967538e+00    4.537982e-01   5.730623e-03
  2.969748e+00    4.537257e-01   5.727318e-03
  2.971959e+00    4.761274e-01   5.863800e-03
  2.974169e+00    4.707499e-01   5.827977e-03
  2.976379e+00    4.695652e-01   5.817666e-03
  2.978590e+00    4.611335e-01   5.762042e-03
  2.980800e+00    4.646769e-01   5.781297e-03
  2.983011e+00    4.640097e-01   5.774324e-03
  2.985221e+00    4.760730e-01   5.845660e-03
  2.987432e+00    4.751569e-01   5.836875e-03
  2.989642e+00    4.530255e-01   5.696692e-03
  2.991853e+00    4.673496e-01   5.782716e-03
  2.994063e+00    4.594601e-01   5.730772e-03
  2.996274e+00    4.533423e-01   5.689316e-03
  2.998484e+00    4.680390e-01   5.778050e-03
  3.000694e+00    4.712101e-01   5.794081e-03
  3.002905e+00    4.723558e-01   5.798112e-03
  3.005115e+00    4.735238e-01   5.802246e-03
  3.007326e+00    4.534991e-01   5.675077e-03
  3.009536e+00    4.625346e-01   5.728044e-03
  3.011747e+00    4.621686e-01   5.722838e-03
  3.013957e+00    4.518398e-01   5.655342e-03
  3.016168e+00    4.544654e-01   5.668493e-03
  3.018378e+00    4.585870e-01   5.691082e-03
  3.020589e+00    4.498536e-01   5.633412e-03
  3.022799e+00    4.584451e-01   5.683784e-03
  3.025010e+00    4.541776e-01   5.654018e-03
  3.027220e+00    4.486833e-01   5.616621e-03
  3.029430e+00    4.528335e-01   5.639285e-03
  3.031641e+00    4.492579e-01   5.613848e-03
  3.033851e+00    4.580187e-01   5.664777e-03
  3.036062e+00    4.639719e-01   5.698654e-03
  3.038272e+00    4.542854e-01   5.635287e-03
  3.040483e+00    4.455792e-01   5.577813e-03
  3.042693e+00    4.408014e-01   5.544598e-03
  3.044904e+00    4.551697e-01   5.630199e-03
  3.047114e+00    4.568925e-01   5.636002e-03
  3.049325e+00    4.552812e-01   5.621645e-03
  3.051535e+00    4.494792e-01   5.581329e-03
  3.053745e+00    4.414169e-01   5.526341e-03
  3.055956e+00    4.577951e-01   5.623316e-03
  3.058166e+00    4.558213e-01   5.606890e-03
  3.060377e+00    4.521766e-01   5.579660e-03
  3.062587e+00    4.552584e-01   5.593977e-03
  3.064798e+00    4.581795e-01   5.607610e-03
  3.067008e+00    4.478459e-01   5.539289e-03
  3.069219e+00    4.555686e-01   5.582296e-03
  3.071429e+00    4.537430e-01   5.567580e-03
  3.073640e+00    4.480395e-01   5.529161e-03
  3.075850e+00    4.430603e-01   5.494780e-03
  3.078060e+00    4.516765e-01   5.544840e-03
  3.080271e+00    4.474900e-01   5.515602e-03
  3.082481e+00    4.538854e-01   5.551432e-03
  3.084692e+00    4.418429e-01   5.473929e-03
  3.086902e+00    4.452263e-01   5.491607e-03
  3.089113e+00    4.474221e-01   5.501564e-03
  3.091323e+00    4.546006e-01   5.542133e-03
  3.093534e+00    4.498420e-01   5.509677e-03
  3.095744e+00    4.426024e-01   5.461791e-03
  3.097955e+00    4.446834e-01   5.471075e-03
  3.100165e+00    4.469029e-01   5.481394e-03
  3.102375e+00    4.503562e-01   5.499086e-03
  3.104586e+00    4.630456e-01   5.572463e-03
  3.106796e+00    4.673023e-01   5.594424e-03
  3.109007e+00    4.469891e-01   5.468272e-03
  3.111217e+00    4.531703e-01   5.502222e-03
  3.113428e+00    4.420361e-01   5.430805e-03
  3.115638e+00    4.552234e-01   5.507947e-03
  3.117849e+00    4.458686e-01   5.447341e-03
  3.120059e+00    4.513085e-01   5.476970e-03
  3.122270e+00    4.491875e-01   5.460832e-03
  3.124480e+00    4.449729e-01   5.431446e-03
  3.126691e+00    4.463686e-01   5.436403e-03
  3.128901e+00    4.442628e-01   5.420427e-03
  3.131111e+00    4.556123e-01   5.485347e-03
  3.133322e+00    4.575770e-01   5.493667e-03
  3.135532e+00    4.598528e-01   5.503846e-03
  3.137743e+00    4.515325e-01   5.450329e-03
  3.139953e+00    4.410543e-01   5.383043e-03
  3.142164e+00    4.398772e-01   5.387814e-03
  3.144374e+00    4.487250e-01   5.470347e-03
  3.146585e+00    4.540747e-01   5.517614e-03
  3.148795e+00    4.454001e-01   5.475479e-03
  3.151006e+00    4.415845e-01   5.460505e-03
  3.153216e+00    4.337465e-01   5.418911e-03
  3.155426e+00    4.412358e-01   5.471792e-03
  3.157637e+00    4.512506e-01   5.539113e-03
  3.159847e+00    4.634579e-01   5.618561e-03
  3.162058e+00    4.518854e-01   5.552469e-03
  3.164268e+00    4.499028e-01   5.544360e-03
  3.166479e+00    4.476940e-01   5.534440e-03
  3.168689e+00    4.450164e-01   5.521240e-03
  3.170900e+00    4.377384e-01   5.479072e-03
  3.173110e+00    4.407822e-01   5.500967e-03
  3.175321e+00    4.459872e-01   5.535861e-03
  3.177531e+00    4.525822e-01   5.579427e-03
  3.179741e+00    4.519327e-01   5.577548e-03
  3.181952e+00    4.434603e-01   5.527121e-03
  3.184162e+00    4.494261e-01   5.566402e-03
  3.186373e+00    4.426572e-01   5.525940e-03
  3.188583e+00    4.288593e-01   5.440908e-03
  3.190794e+00    4.331334e-01   5.469683e-03
  3.193004e+00    4.374319e-01   5.498026e-03
  3.195215e+00    4.434486e-01   5.537199e-03
  3.197425e+00    4.411033e-01   5.523776e-03
  3.199636e+00    4.311002e-01   5.460017e-03
  3.201846e+00    4.343981e-01   5.480241e-03
  3.204056e+00    4.243316e-01   5.417264e-03
  3.206267e+00    4.297056e-01   5.452293e-03
  3.208477e+00    4.327621e-01   5.472575e-03
  3.210688e+00    4.331371e-01   5.475794e-03
  3.212898e+00    4.437702e-01   5.543177e-03
  3.215109e+00    4.387541e-01   5.512520e-03
  3.217319e+00    4.471131e-01   5.565428e-03
  3.219530e+00    4.333676e-01   5.479627e-03
  3.221740e+00    4.276637e-01   5.443983e-03
  3.223951e+00    4.265935e-01   5.437639e-03
  3.226161e+00    4.258965e-01   5.433392e-03
  3.228372e+00    4.217394e-01   5.407324e-03
  3.230582e+00    4.182955e-01   5.385344e-03
  3.232792e+00    4.257084e-01   5.433074e-03
  3.235003e+00    4.238472e-01   5.421420e-03
  3.237213e+00    4.315937e-01   5.470861e-03
  3.239424e+00    4.156002e-01   5.368530e-03
  3.241634e+00    4.275118e-01   5.445024e-03
  3.243845e+00    4.397748e-01   5.522655e-03
  3.246055e+00    4.378974e-01   5.510568e-03
  3.248266e+00    4.341676e-01   5.487277e-03
  3.250476e+00    4.253118e-01   5.430711e-03
  3.252687e+00    4.061812e-01   5.307100e-03
  3.254897e+00    4.064145e-01   5.308486e-03
  3.257107e+00    4.167378e-01   5.375180e-03
  3.259318e+00    4.193255e-01   5.391604e-03
  3.261528e+00    4.216335e-01   5.406306e-03
  3.263739e+00    4.181293e-01   5.383217e-03
  3.265949e+00    4.282965e-01   5.448161e-03
  3.268160e+00    4.230361e-01   5.414182e-03
  3.270370e+00    4.162037e-01   5.369798e-03
  3.272581e+00    4.155148e-01   5.365041e-03
  3.274791e+00    4.351389e-01   5.489761e-03
  3.277002e+00    4.290662e-01   5.450746e-03
  3.279212e+00    4.177683e-01   5.378142e-03
  3.281422e+00    4.217753e-01   5.403279e-03
  3.283633e+00    4.192706e-01   5.386550e-03
  3.285843e+00    4.294619e-01   5.451251e-03
  3.288054e+00    4.345470e-01   5.482530e-03
  3.290264e+00    4.160344e-01   5.364124e-03
  3.292475e+00    4.279820e-01   5.439785e-03
  3.294685e+00    4.281024e-01   5.439910e-03
  3.296896e+00    4.271381e-01   5.433017e-03
  3.299106e+00    4.223086e-01   5.401668e-03
  3.301317e+00    4.280878e-01   5.437460e-03
  3.303527e+00    4.265333e-01   5.427110e-03
  3.305737e+00    4.314663e-01   5.457347e-03
  3.307948e+00    4.416635e-01   5.520769e-03
  3.310158e+00    4.304228e-01   5.449239e-03
  3.312369e+00    4.100511e-01   5.317835e-03
  3.314579e+00    4.156035e-01   5.352796e-03
  3.316790e+00    4.166753e-01   5.359007e-03
  3.319000e+00    4.382755e-01   5.494935e-03
  3.321211e+00    4.328433e-01   5.460173e-03
  3.323421e+00    4.386907e-01   5.495699e-03
  3.325632e+00    4.226453e-01   5.393389e-03
  3.327842e+00    4.203707e-01   5.377921e-03
  3.330052e+00    4.175911e-01   5.359057e-03
  3.332263e+00    4.194689e-01   5.370075e-03
  3.334473e+00    4.174069e-01   5.355950e-03
  3.336684e+00    4.239166e-01   5.396285e-03
  3.338894e+00    4.266177e-01   5.412614e-03
  3.341105e+00    4.241656e-01   5.395816e-03
  3.343315e+00    4.141335e-01   5.330493e-03
  3.345526e+00    4.185752e-01   5.358105e-03
  3.347736e+00    4.072601e-01   5.283803e-03
  3.349947e+00    4.207113e-01   5.369407e-03
  3.352157e+00    4.308325e-01   5.432428e-03
  3.354368e+00    4.231160e-01   5.382268e-03
  3.356578e+00    4.131412e-01   5.317437e-03
  3.358788e+00    4.076580e-01   5.280709e-03
  3.360999e+00    4.055457e-01   5.265776e-03
  3.363209e+00    4.281804e-01   5.409715e-03
  3.365420e+00    4.183915e-01   5.346006e-03
  3.367630e+00    4.208580e-01   5.360710e-03
  3.369841e+00    4.156484e-01   5.326010e-03
  3.372051e+00    4.191430e-01   5.346372e-03
  3.374262e+00    4.115782e-01   5.295480e-03
  3.376472e+00    4.255114e-01   5.381895e-03
  3.378683e+00    4.083437e-01   5.269733e-03
  3.380893e+00    4.144885e-01   5.306895e-03
  3.383103e+00    4.121360e-01   5.289123e-03
  3.385314e+00    4.032326e-01   5.229488e-03
  3.387524e+00    4.150396e-01   5.302750e-03
  3.389735e+00    4.201463e-01   5.332635e-03
  3.391945e+00    4.223675e-01   5.342986e-03
  3.394156e+00    4.130208e-01   5.279332e-03
  3.396366e+00    4.114814e-01   5.266068e-03
  3.398577e+00    4.093460e-01   5.249358e-03
  3.400787e+00    4.043342e-01   5.228931e-03
  3.402998e+00    4.095025e-01   5.300281e-03
  3.405208e+00    4.077599e-01   5.309721e-03
  3.407418e+00    4.008711e-01   5.280457e-03
  3.409629e+00    4.046338e-01   5.319186e-03
  3.411839e+00    3.918091e-01   5.245888e-03
  3.414050e+00    4.098221e-01   5.376291e-03
  3.416260e+00    3.911915e-01   5.262292e-03
  3.418471e+00    3.863869e-01   5.239170e-03
  3.420681e+00    3.903279e-01   5.274314e-03
  3.422892e+00    3.811622e-01   5.219916e-03
  3.425102e+00    3.894123e-01   5.283908e-03
  3.427313e+00    3.835335e-01   5.251025e-03
  3.429523e+00    4.074069e-01   5.419215e-03
  3.431733e+00    3.835444e-01   5.264794e-03
  3.433944e+00    3.814312e-01   5.256703e-03
  3.436154e+00    3.792393e-01   5.247789e-03
  3.438365e+00    3.908180e-01   5.333286e-03
  3.440575e+00    3.880112e-01   5.320129e-03
  3.442786e+00    3.768541e-01   5.248636e-03
  3.444996e+00    3.786625e-01   5.266737e-03
  3.447207e+00    3.675117e-01   5.193845e-03
  3.449417e+00    3.627575e-01   5.200473e-03
  3.451628e+00    3.752145e-01   5.318683e-03
  3.453838e+00    3.751110e-01   5.339361e-03
  3.456049e+00    3.671651e-01   5.306395e-03
  3.458259e+00    3.615150e-01   5.287217e-03
  3.460469e+00    3.599215e-01   5.295125e-03
  3.462680e+00    3.749236e-01   5.423657e-03
  3.464890e+00    3.764121e-01   5.452447e-03
  3.467101e+00    3.635563e-01   5.375923e-03
  3.469311e+00    3.857722e-01   5.554584e-03
  3.471522e+00    4.018740e-01   5.686312e-03
  3.473732e+00    3.968521e-01   5.667043e-03
  3.475943e+00    4.020975e-01   5.720403e-03
  3.478153e+00    4.149561e-01   5.827161e-03
  3.480364e+00    4.138114e-01   5.834647e-03
  3.482574e+00    4.228202e-01   5.913512e-03
  3.484784e+00    4.137638e-01   5.864780e-03
  3.486995e+00    4.188315e-01   5.915699e-03
  3.489205e+00    4.351961e-01   6.045077e-03
  3.491416e+00    4.513810e-01   6.171752e-03
  3.493626e+00    4.592508e-01   6.240356e-03
  3.495837e+00    4.445482e-01   6.154463e-03
  3.498047e+00    4.510237e-01   6.213724e-03
  3.500258e+00    4.647442e-01   6.322302e-03
  3.502468e+00    4.514569e-01   6.245656e-03
  3.504679e+00    4.664009e-01   6.362741e-03
  3.506889e+00    4.789674e-01   6.462553e-03
  3.509099e+00    4.800719e-01   6.484468e-03
  3.511310e+00    4.907258e-01   6.570743e-03
  3.513520e+00    4.901455e-01   6.581373e-03
  3.515731e+00    4.904403e-01   6.597804e-03
  3.517941e+00    4.973908e-01   6.658847e-03
  3.520152e+00    5.277696e-01   6.873970e-03
  3.522362e+00    5.166536e-01   6.815925e-03
  3.524573e+00    5.054384e-01   6.755821e-03
  3.526783e+00    5.063385e-01   6.775086e-03
  3.528994e+00    5.385893e-01   7.000037e-03
  3.531204e+00    5.452172e-01   7.055724e-03
  3.533414e+00    5.402244e-01   7.035607e-03
  3.535625e+00    5.333068e-01   7.002823e-03
  3.537835e+00    5.452847e-01   7.093290e-03
  3.540046e+00    5.375571e-01   7.051797e-03
  3.542256e+00    5.579111e-01   7.191753e-03
  3.544467e+00    5.465515e-01   7.125861e-03
  3.546677e+00    5.454977e-01   7.126617e-03
  3.548888e+00    5.362834e-01   7.073701e-03
  3.551098e+00    5.465742e-01   7.148557e-03
  3.553309e+00    5.419358e-01   7.126430e-03
  3.555519e+00    5.335904e-01   7.082568e-03
  3.557729e+00    5.559398e-01   7.241331e-03
  3.559940e+00    5.415805e-01   7.158820e-03
  3.562150e+00    5.398363e-01   7.159023e-03
  3.564361e+00    5.394176e-01   7.169601e-03
  3.566571e+00    5.562531e-01   7.294721e-03
  3.568782e+00    5.479114e-01   7.254095e-03
  3.570992e+00    5.461674e-01   7.256421e-03
  3.573203e+00    5.480233e-01   7.283043e-03
  3.575413e+00    5.429627e-01   7.263211e-03
  3.577624e+00    5.386972e-01   7.248783e-03
  3.579834e+00    5.209089e-01   7.141761e-03
  3.582045e+00    5.446641e-01   7.316970e-03
  3.584255e+00    5.270552e-01   7.211629e-03
  3.586465e+00    5.453269e-01   7.349624e-03
  3.588676e+00    5.376608e-01   7.312014e-03
  3.590886e+00    5.354579e-01   7.310708e-03
  3.593097e+00    5.137351e-01   7.175091e-03
  3.595307e+00    5.292746e-01   7.296599e-03
  3.597518e+00    5.564259e-01   7.495935e-03
  3.599728e+00    5.519351e-01   7.479942e-03
  3.601939e+00    5.420159e-01   7.426578e-03
  3.604149e+00    5.497226e-01   7.493763e-03
  3.606360e+00    5.402315e-01   7.443019e-03
  3.608570e+00    5.542899e-01   7.553619e-03
  3.610780e+00    5.410879e-01   7.474291e-03
  3.612991e+00    5.442914e-01   7.506444e-03
  3.615201e+00    5.399694e-01   7.486455e-03
  3.617412e+00    5.394794e-01   7.490342e-03
  3.619622e+00    5.301214e-01   7.431044e-03
  3.621833e+00    5.360108e-01   7.478917e-03
  3.624043e+00    5.303760e-01   7.448966e-03
  3.626254e+00    5.466278e-01   7.572033e-03
  3.628464e+00    5.622833e-01   7.690981e-03
  3.630675e+00    5.379395e-01   7.536850e-03
  3.632885e+00    5.248232e-01   7.458657e-03
  3.635095e+00    5.482799e-01   7.638150e-03
  3.637306e+00    5.528593e-01   7.684601e-03
  3.639516e+00    5.390294e-01   7.602499e-03
  3.641727e+00    5.434663e-01   7.648400e-03
  3.643937e+00    5.373423e-01   7.619837e-03
  3.646148e+00    5.461736e-01   7.696927e-03
  3.648358e+00    5.447747e-01   7.702128e-03
  3.650569e+00    5.414699e-01   7.693538e-03
  3.652779e+00    5.555493e-01   7.808065e-03
  3.654990e+00    5.325451e-01   7.659549e-03
  3.657200e+00    5.555889e-01   7.838733e-03
  3.659410e+00    5.555865e-01   7.854013e-03
  3.661621e+00    5.204198e-01   7.616361e-03
  3.663831e+00    5.243179e-01   7.659787e-03
  3.666042e+00    5.493493e-01   7.855906e-03
  3.668252e+00    5.528460e-01   7.896471e-03
  3.670463e+00    5.433355e-01   7.843623e-03
  3.672673e+00    5.385218e-01   7.824360e-03
  3.674884e+00    5.308611e-01   7.783868e-03
  3.677094e+00    5.437330e-01   7.893435e-03
  3.679305e+00    5.377036e-01   7.865173e-03
  3.681515e+00    5.199584e-01   7.749783e-03
  3.683726e+00    5.361077e-01   7.885101e-03
  3.685936e+00    5.310435e-01   7.863504e-03
  3.688146e+00    5.360516e-01   7.916375e-03
  3.690357e+00    5.228881e-01   7.834494e-03
  3.692567e+00    5.249037e-01   7.865637e-03
  3.694778e+00    5.150712e-01   7.807518e-03
  3.696988e+00    5.105333e-01   7.788744e-03
  3.699199e+00    5.443134e-01   8.058845e-03
  3.701409e+00    5.216860e-01   7.905908e-03
  3.703620e+00    5.130567e-01   7.856350e-03
  3.705830e+00    5.394503e-01   8.072508e-03
  3.708041e+00    5.350633e-01   8.056425e-03
  3.710251e+00    5.430965e-01   8.133687e-03
  3.712461e+00    5.304771e-01   8.055517e-03
  3.714672e+00    5.109248e-01   7.922216e-03
  3.716882e+00    5.283008e-01   8.072604e-03
  3.719093e+00    5.266742e-01   8.077443e-03
  3.721303e+00    5.333064e-01   8.145309e-03
  3.723514e+00    5.125163e-01   8.002101e-03
  3.725724e+00    5.161173e-01   8.047283e-03
  3.727935e+00    5.491564e-01   8.318859e-03
  3.730145e+00    5.279521e-01   8.174169e-03
  3.732356e+00    5.317520e-01   8.221348e-03
  3.734566e+00    5.362535e-01   8.273956e-03
  3.736776e+00    5.128261e-01   8.108935e-03
  3.738987e+00    5.008985e-01   8.031595e-03
  3.741197e+00    5.166766e-01   8.175139e-03
  3.743408e+00    5.451311e-01   8.415850e-03
  3.745618e+00    5.116321e-01   8.171503e-03
  3.747829e+00    5.100748e-01   8.177080e-03
  3.750039e+00    4.973402e-01   8.092511e-03
  3.752250e+00    5.095115e-01   8.209312e-03
  3.754460e+00    5.114267e-01   8.243375e-03
  3.756671e+00    4.983350e-01   8.155722e-03
  3.758881e+00    5.051798e-01   8.230134e-03
  3.761091e+00    5.386350e-01   8.517968e-03
  3.763302e+00    5.205837e-01   8.393367e-03
  3.765512e+00    5.036014e-01   8.274495e-03
  3.767723e+00    5.106776e-01   8.351815e-03
  3.769933e+00    5.171473e-01   8.424100e-03
  3.772144e+00    5.239268e-01   8.499064e-03
  3.774354e+00    5.080468e-01   8.389160e-03
  3.776565e+00    5.204766e-01   8.511334e-03
  3.778775e+00    5.018203e-01   8.377287e-03
  3.780986e+00    5.226166e-01   8.569794e-03
  3.783196e+00    4.910933e-01   8.327344e-03
  3.785407e+00    5.037476e-01   8.454306e-03
  3.787617e+00    5.097007e-01   8.525042e-03
  3.789827e+00    4.864790e-01   8.348823e-03
  3.792038e+00    4.838038e-01   8.346275e-03
  3.794248e+00    5.072014e-01   8.566956e-03
  3.796459e+00    4.942212e-01   8.477865e-03
  3.798669e+00    5.137903e-01   8.665700e-03
  3.800880e+00    5.239006e-01   8.772515e-03
  3.803090e+00    5.299987e-01   8.845875e-03
  3.805301e+00    5.154899e-01   8.746386e-03
  3.807511e+00    5.163172e-01   8.775801e-03
  3.809722e+00    4.976881e-01   8.638157e-03
  3.811932e+00    4.926404e-01   8.616356e-03
  3.814142e+00    4.833372e-01   8.557068e-03
  3.816353e+00    5.069177e-01   8.786363e-03
  3.818563e+00    5.123571e-01   8.856776e-03
  3.820774e+00    4.842815e-01   8.633601e-03
  3.822984e+00    4.928493e-01   8.732808e-03
  3.825195e+00    5.046767e-01   8.860904e-03
  3.827405e+00    5.022260e-01   8.863352e-03
  3.829616e+00    4.868688e-01   8.750599e-03
  3.831826e+00    4.989385e-01   8.882576e-03
  3.834037e+00    4.968095e-01   8.888115e-03
  3.836247e+00    5.026174e-01   8.964759e-03
  3.838457e+00    4.975102e-01   8.944170e-03
  3.840668e+00    5.102348e-01   9.083316e-03
  3.842878e+00    4.848239e-01   8.879520e-03
  3.845089e+00    5.035028e-01   9.074665e-03
  3.847299e+00    5.115370e-01   9.173022e-03
  3.849510e+00    4.995220e-01   9.090677e-03
  3.851720e+00    5.019605e-01   9.134340e-03
  3.853931e+00    4.936550e-01   9.077457e-03
  3.856141e+00    4.635736e-01   8.814928e-03
  3.858352e+00    4.678124e-01   8.873845e-03
  3.860562e+00    5.016237e-01   9.208366e-03
  3.862772e+00    5.153685e-01   9.353738e-03
  3.864983e+00    5.176528e-01   9.394551e-03
  3.867193e+00    5.062991e-01   9.310968e-03
  3.869404e+00    5.227131e-01   9.481141e-03
  3.871614e+00    5.168941e-01   9.448581e-03
  3.873825e+00    5.142511e-01   9.445208e-03
  3.876035e+00    5.174525e-01   9.495663e-03
  3.878246e+00    4.909297e-01   9.274802e-03
  3.880456e+00    4.874587e-01   9.270784e-03
  3.882667e+00    4.919936e-01   9.343162e-03
  3.884877e+00    4.868012e-01   9.323368e-03
  3.887087e+00    4.935939e-01   9.418082e-03
  3.889298e+00    5.222906e-01   9.719358e-03
  3.891508e+00    5.089645e-01   9.625665e-03
  3.893719e+00    4.916361e-01   9.491386e-03
  3.895929e+00    5.215973e-01   9.808732e-03
  3.898140e+00    4.951046e-01   9.588253e-03
  3.900350e+00    4.861323e-01   9.533000e-03
  3.902561e+00    4.812555e-01   9.517013e-03
  3.904771e+00    4.943551e-01   9.678704e-03
  3.906982e+00    5.016438e-01   9.783383e-03
  3.909192e+00    5.121474e-01   9.919469e-03
  3.911403e+00    5.188369e-01   1.001908e-02
  3.913613e+00    4.961721e-01   9.832424e-03
  3.915823e+00    5.048592e-01   9.953404e-03
  3.918034e+00    5.031852e-01   9.972703e-03
  3.920244e+00    5.335996e-01   1.030708e-02
  3.922455e+00    5.075034e-01   1.008868e-02
  3.924665e+00    4.730681e-01   9.776227e-03
  3.926876e+00    4.964194e-01   1.005202e-02
  3.929086e+00    4.955677e-01   1.008103e-02
  3.931297e+00    5.000035e-01   1.016140e-02
  3.933507e+00    4.814917e-01   1.000017e-02
  3.935718e+00    5.180419e-01   1.040248e-02
  3.937928e+00    5.109654e-01   1.036136e-02
  3.940138e+00    5.171218e-01   1.045371e-02
  3.942349e+00    5.037135e-01   1.034778e-02
  3.944559e+00    4.856221e-01   1.019018e-02
  3.946770e+00    5.013208e-01   1.038413e-02
  3.948980e+00    4.871051e-01   1.026672e-02
  3.951191e+00    4.755135e-01   1.017418e-02
  3.953401e+00    4.811064e-01   1.026511e-02
  3.955612e+00    5.010701e-01   1.050800e-02
  3.957822e+00    4.823013e-01   1.034090e-02
  3.960033e+00    4.885433e-01   1.044031e-02
  3.962243e+00    4.808400e-01   1.039035e-02
  3.964453e+00    5.059893e-01   1.069239e-02
  3.966664e+00    4.760129e-01   1.040389e-02
  3.968874e+00    5.057532e-01   1.075302e-02
  3.971085e+00    4.779459e-01   1.047492e-02
  3.973295e+00    4.799188e-01   1.051793e-02
  3.975506e+00    4.887222e-01   1.063549e-02
  3.977716e+00    4.937933e-01   1.071287e-02
  3.979927e+00    4.384593e-01   1.011584e-02
  3.982137e+00    4.417405e-01   1.017476e-02
  3.984348e+00    4.735036e-01   1.055656e-02
  3.986558e+00    4.944560e-01   1.081008e-02
  3.988768e+00    4.702511e-01   1.056493e-02
  3.990979e+00    5.038121e-01   1.095855e-02
  3.993189e+00    4.561650e-01   1.044987e-02
  3.995400e+00    4.887920e-01   1.084073e-02
  3.997610e+00    4.840778e-01   1.081816e-02
  3.999821e+00    5.122445e-01   1.116692e-02
  4.002031e+00    4.926729e-01   1.099034e-02
  4.004242e+00    4.948926e-01   1.105388e-02
  4.006452e+00    4.882847e-01   1.101942e-02
  4.008663e+00    4.776754e-01   1.093869e-02
  4.010873e+00    5.020316e-01   1.125481e-02
  4.013084e+00    4.566418e-01   1.077374e-02
  4.015294e+00    4.742038e-01   1.101947e-02
  4.017504e+00    4.754673e-01   1.107568e-02
  4.019715e+00    4.812213e-01   1.118471e-02
  4.021925e+00    5.111642e-01   1.157176e-02
  4.024136e+00    4.615323e-01   1.103829e-02
  4.026346e+00    4.526538e-01   1.097418e-02
  4.028557e+00    4.992357e-01   1.157009e-02
  4.030767e+00    4.678649e-01   1.124561e-02
  4.032978e+00    4.674076e-01   1.128560e-02
  4.035188e+00    4.536275e-01   1.116267e-02
  4.037399e+00    4.911735e-01   1.166343e-02
  4.039609e+00    5.285327e-01   1.214873e-02
  4.041819e+00    5.268804e-01   1.218070e-02
  4.044030e+00    4.762897e-01   1.163075e-02
  4.046240e+00    4.932846e-01   1.188671e-02
  4.048451e+00    4.588703e-01   1.151429e-02
  4.050661e+00    4.942324e-01   1.200179e-02
  4.052872e+00    4.549688e-01   1.156625e-02
  4.055082e+00    4.832468e-01   1.197398e-02
  4.057293e+00    4.987581e-01   1.221913e-02
  4.059503e+00    4.652806e-01   1.185575e-02
  4.061714e+00    4.424886e-01   1.161568e-02
  4.063924e+00    4.851244e-01   1.221942e-02
  4.066134e+00    4.788974e-01   1.219792e-02
  4.068345e+00    4.964466e-01   1.247930e-02
  4.070555e+00    4.788305e-01   1.231494e-02
  4.072766e+00    4.953091e-01   1.258674e-02
  4.074976e+00    4.973779e-01   1.267588e-02
  4.077187e+00    5.056207e-01   1.284407e-02
  4.079397e+00    4.772772e-01   1.254258e-02
  4.081608e+00    4.922284e-01   1.280392e-02
  4.083818e+00    4.420475e-01   1.219659e-02
  4.086029e+00    4.766645e-01   1.273202e-02
  4.088239e+00    5.004594e-01   1.311625e-02
  4.090449e+00    4.890813e-01   1.303660e-02
  4.092660e+00    4.579932e-01   1.268477e-02
  4.094870e+00    5.124575e-01   1.349238e-02
  4.097081e+00    5.025463e-01   1.343468e-02
  4.099291e+00    5.014719e-01   1.347580e-02
  4.101502e+00    4.842127e-01   1.329122e-02
  4.103712e+00    4.775021e-01   1.324795e-02
  4.105923e+00    4.657457e-01   1.313464e-02
  4.108133e+00    4.641926e-01   1.316296e-02
  4.110344e+00    5.075672e-01   1.381717e-02
  4.112554e+00    4.466195e-01   1.301221e-02
  4.114764e+00    4.727072e-01   1.344062e-02
  4.116975e+00    4.706353e-01   1.346397e-02
  4.119185e+00    4.870546e-01   1.375251e-02
  4.121396e+00    4.697040e-01   1.356102e-02
  4.123606e+00    4.535796e-01   1.338094e-02
  4.125817e+00    4.586207e-01   1.351146e-02
  4.128027e+00    4.936754e-01   1.407745e-02
  4.130238e+00    4.424873e-01   1.338464e-02
  4.132448e+00    4.935057e-01   1.419681e-02
  4.134659e+00    4.570494e-01   1.372094e-02
  4.136869e+00    4.775876e-01   1.408847e-02
  4.139080e+00    5.235085e-01   1.481669e-02
  4.141290e+00    4.640398e-01   1.401163e-02
  4.143500e+00    4.558302e-01   1.395113e-02
  4.145711e+00    4.776442e-01   1.434779e-02
  4.147921e+00    4.579892e-01   1.411385e-02
  4.150132e+00    4.692706e-01   1.435493e-02
  4.152342e+00    4.542935e-01   1.419223e-02
  4.154553e+00    5.085866e-01   1.508791e-02
  4.156763e+00    5.252196e-01   1.540844e-02
  4.158974e+00    5.432944e-01   1.575048e-02
  4.161184e+00    4.505211e-01   1.441361e-02
  4.163395e+00    5.053210e-01   1.534300e-02
  4.165605e+00    4.547760e-01   1.463143e-02
  4.167815e+00    4.292043e-01   1.428786e-02
  4.170026e+00    5.605248e-01   1.641417e-02
  4.172236e+00    4.942130e-01   1.549627e-02
  4.174447e+00    5.015438e-01   1.569548e-02
  4.176657e+00    4.680192e-01   1.524481e-02
  4.178868e+00    4.640555e-01   1.526599e-02
  4.181078e+00    5.258372e-01   1.634188e-02
  4.183289e+00    5.521237e-01   1.684112e-02
  4.185499e+00    5.363501e-01   1.669732e-02
  4.187710e+00    5.187492e-01   1.651681e-02
  4.189920e+00    4.965853e-01   1.625758e-02
  4.192130e+00    5.096733e-01   1.657118e-02
  4.194341e+00    4.848036e-01   1.626076e-02
  4.196551e+00    4.561486e-01   1.587281e-02
  4.198762e+00    5.064307e-01   1.683094e-02
  4.200972e+00    4.671322e-01   1.626957e-02
  4.203183e+00    4.342748e-01   1.578997e-02
  4.205393e+00    5.128914e-01   1.727424e-02
  4.207604e+00    4.960662e-01   1.710445e-02
  4.209814e+00    5.517626e-01   1.816266e-02
  4.212025e+00    5.182919e-01   1.772817e-02
  4.214235e+00    4.974794e-01   1.749137e-02
  4.216445e+00    5.465527e-01   1.846683e-02
  4.218656e+00    4.780832e-01   1.740056e-02
  4.220866e+00    5.254683e-01   1.837750e-02
  4.223077e+00    4.997902e-01   1.806097e-02
  4.225287e+00    4.902826e-01   1.802889e-02
  4.227498e+00    4.908736e-01   1.818131e-02
  4.229708e+00    5.252818e-01   1.896060e-02
  4.231919e+00    5.144258e-01   1.891879e-02
  4.234129e+00    5.038465e-01   1.888049e-02
  4.236340e+00    5.191079e-01   1.932825e-02
  4.238550e+00    4.708097e-01   1.856977e-02
  4.240761e+00    4.863529e-01   1.903985e-02
  4.242971e+00    5.777968e-01   2.094344e-02
  4.245181e+00    5.219884e-01   2.009327e-02
  4.247392e+00    4.347282e-01   1.850872e-02
  4.249602e+00    4.747602e-01   1.953378e-02
  4.251813e+00    4.539042e-01   1.928854e-02
  4.254023e+00    4.077172e-01   1.846465e-02
  4.256234e+00    4.639626e-01   1.990787e-02
  4.258444e+00    4.405287e-01   1.960136e-02
  4.260655e+00    5.216172e-01   2.156393e-02
  4.262865e+00    5.085225e-01   2.153311e-02
  4.265076e+00    4.329358e-01   2.009417e-02
  4.267286e+00    5.264668e-01   2.242162e-02
  4.269496e+00    4.057168e-01   1.992384e-02
  4.271707e+00    4.945626e-01   2.226804e-02
  4.273917e+00    5.199698e-01   2.312864e-02
  4.276128e+00    4.836698e-01   2.260317e-02
  4.278338e+00    5.093782e-01   2.350558e-02
  4.280549e+00    5.106663e-01   2.387320e-02
  4.282759e+00    4.342795e-01   2.233149e-02
  4.284970e+00    4.270080e-01   2.247149e-02
  4.287180e+00    4.312612e-01   2.285376e-02
  4.289391e+00    5.290243e-01   2.550182e-02
  4.291601e+00    4.223816e-01   2.296962e-02
  4.293811e+00    4.904859e-01   2.494469e-02
  4.296022e+00    4.571485e-01   2.427634e-02
  4.298232e+00    5.134737e-01   2.594330e-02
  4.300443e+00    4.660524e-01   2.492102e-02
  4.302653e+00    4.600476e-01   2.497367e-02
  4.304864e+00    4.670990e-01   2.538235e-02
  4.307074e+00    5.185406e-01   2.698391e-02
  4.309285e+00    5.399294e-01   2.778495e-02
  4.311495e+00    4.881016e-01   2.666562e-02
  4.313706e+00    4.220732e-01   2.502891e-02
  4.315916e+00    4.926133e-01   2.730538e-02
  4.318126e+00    4.719328e-01   2.699123e-02
  4.320337e+00    4.368179e-01   2.623022e-02
  4.322547e+00    4.145529e-01   2.582261e-02
  4.324758e+00    5.044001e-01   2.878152e-02
  4.326968e+00    4.690636e-01   2.806745e-02
  4.329179e+00    4.644332e-01   2.823601e-02
  4.331389e+00    4.423129e-01   2.787388e-02
  4.333600e+00    5.085469e-01   3.024360e-02
  4.335810e+00    4.444558e-01   2.861131e-02
  4.338021e+00    4.716434e-01   2.984934e-02
  4.340231e+00    5.560163e-01   3.281721e-02
  4.342442e+00    5.187491e-01   3.212330e-02
  4.344652e+00    3.998403e-01   2.858475e-02
  4.346862e+00    3.876955e-01   2.854206e-02
  4.349073e+00    5.049368e-01   3.304705e-02
  4.351283e+00    4.610616e-01   3.205008e-02
  4.353494e+00    4.242990e-01   3.122169e-02
  4.355704e+00    5.288119e-01   3.541470e-02
  4.357915e+00    4.868927e-01   3.454924e-02
  4.360125e+00    4.205818e-01   3.265814e-02
  4.362336e+00    5.284525e-01   3.727389e-02
  4.364546e+00    4.179307e-01   3.375278e-02
  4.366757e+00    3.505616e-01   3.152792e-02
  4.368967e+00    4.416358e-01   3.609039e-02
  4.371177e+00    4.770793e-01   3.831145e-02
  4.373388e+00    5.223365e-01   4.098041e-02
  4.375598e+00    5.089123e-01   4.137459e-02
  4.377809e+00    4.307695e-01   3.903047e-02
  4.380019e+00    3.831405e-01   3.773371e-02
  4.382230e+00    3.367873e-01   3.636617e-02
  4.384440e+00    2.540886e-01   3.249435e-02
  4.386651e+00    3.688782e-01   4.036130e-02
  4.388861e+00    3.862910e-01   4.268649e-02
  4.391072e+00    5.071424e-01   5.063267e-02
  4.393282e+00    4.726195e-01   5.076620e-02
  4.395492e+00    3.927981e-01   4.820319e-02
  4.397703e+00    4.125738e-01   5.166332e-02
  4.399913e+00    3.606842e-01   5.075040e-02
  4.402124e+00    1.903913e-01   3.895440e-02
  4.404334e+00    5.370482e-01   6.955900e-02
  4.406545e+00    1.461729e-01   3.899128e-02
  4.408755e+00    3.692722e-01   6.720781e-02
  4.410966e+00    1.348102e-01   4.495235e-02
  4.413176e+00    6.408373e-02   3.508476e-02
  4.415387e+00   -5.889745e-01            nan
  4.417597e+00   -1.896606e+00            nan
  4.419807e+00   -3.766224e-01            nan
