# == pyFAI calibration ==
# Distance Sample to Detector: 0.216 m
# PONI: 1.166e-01, 1.308e-01 m
# Rotations: 0.000000 0.000000 0.000000 rad
# 
# == Fit2d calibration ==
# Distance Sample-beamCenter: 216.000 mm
# Center: x=1744.293, y=1555.000 pix
# Tilt: 0.000 deg  TiltPlanRot: 0.000 deg
# 
# Detector Eiger 9M	 PixelSize= 7.500e-05, 7.500e-05 m
#    Detector has a mask: True 
#    Detector has a dark current: False 
#    detector has a flat field: False 
# 
# Wavelength: 9.8e-11 m
# Mask applied: from detector
# Dark current applied: False
# Flat field applied: False
# Polarization factor: None
# Normalization factor: 1.0
# 
# Headers of the input frame:
# {
# "_array_data.header_convention": "SLS_1.0",
# "_array_data.header_contents": "# Detector: Dectris Eiger 9M, S/N E-18-0102\r\n# Pixel_size 75e-6 m x 75e-6 m\r\n# Silicon sensor, thickness 0.000450 m\r\n# Exposure_time 0.024997 s\r\n# Exposure_period 0.025000 s\r\n# Count_cutoff 62318 counts\r\n# Wavelength 0.980106 A\r\n# Detector_distance 0.215992 m\r\n# Beam_xy (1555, 1744) pixels\r\n# Start_angle 0.000000 deg.\r\n# Angle_increment 0.000000 deg.",
# "Content-Type": "application/octet-stream;",
# "conversions": "x-CBF_BYTE_OFFSET",
# "Content-Transfer-Encoding": "BINARY",
# "X-Binary-Size": "10166594",
# "X-Binary-ID": "1",
# "X-Binary-Element-Type": "signed 32-bit integer",
# "X-Binary-Element-Byte-Order": "LITTLE_ENDIAN",
# "Content-MD5": "WtvG7x0CqXy0Vyd/6A4hoA==",
# "X-Binary-Number-of-Elements": "10166590",
# "X-Binary-Size-Fastest-Dimension": "3110",
# "X-Binary-Size-Second-Dimension": "3269",
# "X-Binary-Size-Padding": "4095"
# }
# --> H:/Proxima2a_2019-04-05/RAW_DATA/C5_gel17_position5/C5_mesh_1_data.cbf/C5_mesh_1_data.cbf000141.dat
#        q_A^-1              I           sigma 
  1.105228e-03    2.939672e+00   9.277616e-01
  3.315685e-03    1.788193e+00   4.398986e-01
  5.526141e-03    1.163215e+00   2.743482e-01
  7.736597e-03    1.264741e+00   2.416690e-01
  9.947054e-03    1.537042e+00   2.348656e-01
  1.215751e-02    1.725426e+00   2.250178e-01
  1.436797e-02    1.718791e+00   2.065795e-01
  1.657842e-02    1.420079e+00   1.747836e-01
  1.878888e-02    1.306577e+00   1.574820e-01
  2.099934e-02    1.346794e+00   1.512699e-01
  2.320979e-02    1.309502e+00   1.418685e-01
  2.542025e-02    1.277905e+00   1.339241e-01
  2.763070e-02    1.425170e+00   1.356512e-01
  2.984116e-02    1.426073e+00   1.305712e-01
  3.205162e-02    1.452963e+00   1.271784e-01
  3.426207e-02    1.429920e+00   1.220199e-01
  3.647253e-02    1.236429e+00   1.099700e-01
  3.868299e-02    1.415998e+00   1.142818e-01
  4.089344e-02    1.533325e+00   1.156639e-01
  4.310390e-02    1.493492e+00   1.111797e-01
  4.531436e-02    1.449015e+00   1.068076e-01
  4.752481e-02    1.508373e+00   1.064078e-01
  4.973527e-02    1.391254e+00   9.989759e-02
  5.194572e-02    1.448567e+00   9.974066e-02
  5.415618e-02    1.416336e+00   9.658772e-02
  5.636664e-02    1.421678e+00   9.485620e-02
  5.857709e-02    1.382378e+00   9.175462e-02
  6.078755e-02    1.333563e+00   8.846350e-02
  6.299801e-02    1.265158e+00   8.463868e-02
  6.520846e-02    1.418007e+00   8.807442e-02
  6.741892e-02    1.532454e+00   9.004168e-02
  6.962938e-02    1.578815e+00   8.993567e-02
  7.183983e-02    1.494518e+00   8.614354e-02
  7.405029e-02    1.443849e+00   8.339538e-02
  7.626074e-02    1.415329e+00   8.136152e-02
  7.847120e-02    1.460338e+00   8.147057e-02
  8.068166e-02    1.405150e+00   7.881331e-02
  8.289211e-02    1.462706e+00   7.933144e-02
  8.510257e-02    1.534769e+00   8.019935e-02
  8.731303e-02    1.554855e+00   7.969107e-02
  8.952348e-02    1.598437e+00   7.979861e-02
  9.173394e-02    1.616055e+00   7.926144e-02
  9.394439e-02    1.544321e+00   7.656286e-02
  9.615485e-02    1.591599e+00   7.682569e-02
  9.836531e-02    1.548183e+00   7.491238e-02
  1.005758e-01    1.469263e+00   7.217207e-02
  1.027862e-01    1.590099e+00   7.426769e-02
  1.049967e-01    1.586641e+00   7.340055e-02
  1.072071e-01    1.543041e+00   7.163405e-02
  1.094176e-01    1.551700e+00   7.110436e-02
  1.116280e-01    1.482240e+00   6.880166e-02
  1.138385e-01    1.550484e+00   6.967981e-02
  1.160490e-01    1.588037e+00   6.984292e-02
  1.182594e-01    1.557388e+00   6.851471e-02
  1.204699e-01    1.522329e+00   6.711427e-02
  1.226803e-01    1.565857e+00   6.744821e-02
  1.248908e-01    1.683443e+00   6.931236e-02
  1.271012e-01    1.619176e+00   6.738146e-02
  1.293117e-01    1.518592e+00   6.469405e-02
  1.315222e-01    1.581474e+00   6.546123e-02
  1.337326e-01    1.710996e+00   6.752273e-02
  1.359431e-01    1.720834e+00   6.775625e-02
  1.381535e-01    1.601992e+00   6.625228e-02
  1.403640e-01    1.636880e+00   6.725896e-02
  1.425744e-01    1.569726e+00   6.597005e-02
  1.447849e-01    1.556582e+00   6.570840e-02
  1.469953e-01    1.602399e+00   6.662668e-02
  1.492058e-01    1.627721e+00   6.707302e-02
  1.514163e-01    1.606987e+00   6.653379e-02
  1.536267e-01    1.669957e+00   6.769241e-02
  1.558372e-01    1.597452e+00   6.606045e-02
  1.580476e-01    1.581801e+00   6.557649e-02
  1.602581e-01    1.553889e+00   6.483030e-02
  1.624685e-01    1.693999e+00   6.750466e-02
  1.646790e-01    1.726225e+00   6.794808e-02
  1.668895e-01    1.648871e+00   6.621644e-02
  1.690999e-01    1.686745e+00   6.677146e-02
  1.713104e-01    1.774532e+00   6.827447e-02
  1.735208e-01    1.814435e+00   6.882314e-02
  1.757313e-01    1.809386e+00   6.851193e-02
  1.779417e-01    1.817194e+00   6.843565e-02
  1.801522e-01    1.876552e+00   6.932291e-02
  1.823626e-01    1.833387e+00   6.829287e-02
  1.845731e-01    1.856611e+00   6.850142e-02
  1.867836e-01    1.984853e+00   7.058872e-02
  1.889940e-01    1.980546e+00   7.028167e-02
  1.912045e-01    1.977831e+00   6.999894e-02
  1.934149e-01    1.958051e+00   6.941491e-02
  1.956254e-01    2.048169e+00   7.076020e-02
  1.978358e-01    2.001554e+00   6.971064e-02
  2.000463e-01    1.993076e+00   6.933230e-02
  2.022568e-01    1.982622e+00   6.892329e-02
  2.044672e-01    1.942468e+00   6.798802e-02
  2.066777e-01    1.997317e+00   6.871243e-02
  2.088881e-01    1.971697e+00   6.804693e-02
  2.110986e-01    1.963262e+00   6.766838e-02
  2.133090e-01    2.056938e+00   6.903879e-02
  2.155195e-01    1.900948e+00   6.614921e-02
  2.177300e-01    1.955527e+00   6.656501e-02
  2.199404e-01    1.993992e+00   6.544538e-02
  2.221509e-01    1.913072e+00   6.305104e-02
  2.243613e-01    2.002945e+00   6.369718e-02
  2.265718e-01    2.027645e+00   6.338236e-02
  2.287822e-01    2.034888e+00   6.286698e-02
  2.309927e-01    2.059348e+00   6.266756e-02
  2.332031e-01    2.151576e+00   6.350722e-02
  2.354136e-01    2.112166e+00   6.241294e-02
  2.376241e-01    2.124411e+00   6.210776e-02
  2.398345e-01    2.088429e+00   6.112378e-02
  2.420450e-01    2.136772e+00   6.138534e-02
  2.442554e-01    2.093676e+00   6.034453e-02
  2.464659e-01    2.115131e+00   6.024573e-02
  2.486763e-01    2.100868e+00   5.964759e-02
  2.508868e-01    2.096064e+00   5.920350e-02
  2.530973e-01    2.128895e+00   5.929545e-02
  2.553077e-01    2.078208e+00   5.822996e-02
  2.575182e-01    2.085548e+00   5.798756e-02
  2.597286e-01    2.052577e+00   5.719295e-02
  2.619391e-01    2.000771e+00   5.614150e-02
  2.641495e-01    2.045258e+00   5.644803e-02
  2.663600e-01    2.129889e+00   5.728731e-02
  2.685704e-01    2.124839e+00   5.690921e-02
  2.707809e-01    2.077432e+00   5.597209e-02
  2.729914e-01    2.013267e+00   5.481376e-02
  2.752018e-01    1.972291e+00   5.397071e-02
  2.774123e-01    2.020110e+00   5.434203e-02
  2.796227e-01    2.043662e+00   5.438754e-02
  2.818332e-01    2.034248e+00   5.399144e-02
  2.840436e-01    2.035403e+00   5.374496e-02
  2.862541e-01    2.016419e+00   5.323661e-02
  2.884646e-01    1.997303e+00   5.273220e-02
  2.906750e-01    1.953481e+00   5.190325e-02
  2.928855e-01    1.922399e+00   5.125008e-02
  2.950959e-01    1.964742e+00   5.157343e-02
  2.973064e-01    1.978404e+00   5.151986e-02
  2.995168e-01    1.901700e+00   5.028246e-02
  3.017273e-01    1.918919e+00   5.028691e-02
  3.039377e-01    1.918808e+00   5.006526e-02
  3.061482e-01    1.870518e+00   4.921744e-02
  3.083587e-01    1.864856e+00   4.893015e-02
  3.105691e-01    1.910868e+00   4.931857e-02
  3.127796e-01    1.860250e+00   4.845640e-02
  3.149900e-01    1.928447e+00   4.913102e-02
  3.172005e-01    1.881614e+00   4.833236e-02
  3.194109e-01    1.912121e+00   4.852143e-02
  3.216214e-01    1.915705e+00   4.836873e-02
  3.238319e-01    1.889608e+00   4.784783e-02
  3.260423e-01    1.878864e+00   4.752157e-02
  3.282528e-01    1.826727e+00   4.667103e-02
  3.304632e-01    1.841161e+00   4.667355e-02
  3.326737e-01    1.791360e+00   4.585837e-02
  3.348841e-01    1.821928e+00   4.606862e-02
  3.370946e-01    1.842592e+00   4.615483e-02
  3.393050e-01    1.878671e+00   4.642797e-02
  3.415155e-01    1.872740e+00   4.618034e-02
  3.437260e-01    1.812899e+00   4.526815e-02
  3.459364e-01    1.820152e+00   4.519079e-02
  3.481469e-01    1.851745e+00   4.541492e-02
  3.503573e-01    1.869722e+00   4.546861e-02
  3.525678e-01    1.822892e+00   4.473560e-02
  3.547782e-01    1.809453e+00   4.440927e-02
  3.569887e-01    1.818221e+00   4.435901e-02
  3.591992e-01    1.898285e+00   4.516477e-02
  3.614096e-01    1.841295e+00   4.432743e-02
  3.636201e-01    1.807683e+00   4.376663e-02
  3.658305e-01    1.783298e+00   4.332213e-02
  3.680410e-01    1.774883e+00   4.307116e-02
  3.702514e-01    1.747559e+00   4.259460e-02
  3.724619e-01    1.815658e+00   4.326873e-02
  3.746724e-01    1.825308e+00   4.323883e-02
  3.768828e-01    1.840466e+00   4.327189e-02
  3.790933e-01    1.833440e+00   4.304847e-02
  3.813037e-01    1.786028e+00   4.234921e-02
  3.835142e-01    1.789715e+00   4.225367e-02
  3.857246e-01    1.762348e+00   4.179366e-02
  3.879351e-01    1.787476e+00   4.195434e-02
  3.901455e-01    1.802886e+00   4.200064e-02
  3.923560e-01    1.787513e+00   4.168829e-02
  3.945665e-01    1.740401e+00   4.100478e-02
  3.967769e-01    1.787951e+00   4.143101e-02
  3.989874e-01    1.768796e+00   4.107980e-02
  4.011978e-01    1.810646e+00   4.143511e-02
  4.034083e-01    1.826222e+00   4.148524e-02
  4.056187e-01    1.734402e+00   4.030433e-02
  4.078292e-01    1.751592e+00   4.038098e-02
  4.100397e-01    1.806854e+00   4.088780e-02
  4.122501e-01    1.853766e+00   4.129129e-02
  4.144606e-01    1.819816e+00   4.079015e-02
  4.166710e-01    1.808020e+00   4.053681e-02
  4.188815e-01    1.813205e+00   4.047500e-02
  4.210919e-01    1.799910e+00   4.020814e-02
  4.233024e-01    1.839852e+00   4.053225e-02
  4.255128e-01    1.797830e+00   3.995091e-02
  4.277233e-01    1.756200e+00   3.937217e-02
  4.299338e-01    1.814863e+00   3.990921e-02
  4.321442e-01    1.789878e+00   3.952013e-02
  4.343547e-01    1.786769e+00   3.937414e-02
  4.365651e-01    1.788792e+00   3.928450e-02
  4.387756e-01    1.789752e+00   3.918500e-02
  4.409860e-01    1.777122e+00   3.893832e-02
  4.431965e-01    1.742115e+00   3.844628e-02
  4.454070e-01    1.792249e+00   3.888707e-02
  4.476174e-01    1.734091e+00   3.814591e-02
  4.498279e-01    1.748792e+00   3.820302e-02
  4.520383e-01    1.718660e+00   3.776856e-02
  4.542488e-01    1.683829e+00   3.728306e-02
  4.564592e-01    1.733031e+00   3.772238e-02
  4.586697e-01    1.731416e+00   3.760472e-02
  4.608801e-01    1.712199e+00   3.729530e-02
  4.630906e-01    1.720178e+00   3.728310e-02
  4.653011e-01    1.744394e+00   3.744589e-02
  4.675115e-01    1.747467e+00   3.738014e-02
  4.697220e-01    1.744464e+00   3.725024e-02
  4.719324e-01    1.711612e+00   3.680237e-02
  4.741429e-01    1.743298e+00   3.704576e-02
  4.763533e-01    1.686354e+00   3.634230e-02
  4.785638e-01    1.723036e+00   3.664050e-02
  4.807743e-01    1.741313e+00   3.674068e-02
  4.829847e-01    1.714394e+00   3.636348e-02
  4.851952e-01    1.728734e+00   3.642286e-02
  4.874056e-01    1.676447e+00   3.577737e-02
  4.896161e-01    1.642681e+00   3.532739e-02
  4.918265e-01    1.704744e+00   3.589918e-02
  4.940370e-01    1.713930e+00   3.590693e-02
  4.962475e-01    1.638418e+00   3.502033e-02
  4.984579e-01    1.631044e+00   3.485531e-02
  5.006684e-01    1.663487e+00   3.511443e-02
  5.028788e-01    1.688358e+00   3.529024e-02
  5.050893e-01    1.716702e+00   3.549868e-02
  5.072997e-01    1.696142e+00   3.520025e-02
  5.095102e-01    1.678985e+00   3.493789e-02
  5.117206e-01    1.702064e+00   3.509354e-02
  5.139311e-01    1.694211e+00   3.492963e-02
  5.161416e-01    1.720158e+00   3.511291e-02
  5.183520e-01    1.681710e+00   3.463579e-02
  5.205625e-01    1.661354e+00   3.434488e-02
  5.227729e-01    1.660772e+00   3.425876e-02
  5.249834e-01    1.672734e+00   3.430211e-02
  5.271938e-01    1.680889e+00   3.430539e-02
  5.294043e-01    1.669600e+00   3.411108e-02
  5.316148e-01    1.779450e+00   3.513471e-02
  5.338252e-01    1.793413e+00   3.519169e-02
  5.360357e-01    1.808560e+00   3.525953e-02
  5.382461e-01    1.756376e+00   3.466859e-02
  5.404566e-01    1.685061e+00   3.388019e-02
  5.426670e-01    1.723845e+00   3.419062e-02
  5.448775e-01    1.800589e+00   3.486536e-02
  5.470879e-01    1.773089e+00   3.452093e-02
  5.492984e-01    1.806281e+00   3.476505e-02
  5.515089e-01    1.838275e+00   3.499383e-02
  5.537193e-01    1.792391e+00   3.447823e-02
  5.559298e-01    1.749818e+00   3.399155e-02
  5.581402e-01    1.751683e+00   3.393536e-02
  5.603507e-01    1.774760e+00   3.408381e-02
  5.625611e-01    1.772314e+00   3.398642e-02
  5.647716e-01    1.786977e+00   3.405261e-02
  5.669821e-01    1.822200e+00   3.431245e-02
  5.691925e-01    1.790017e+00   3.393511e-02
  5.714030e-01    1.756022e+00   3.353965e-02
  5.736134e-01    1.748098e+00   3.339273e-02
  5.758239e-01    1.700068e+00   3.286050e-02
  5.780343e-01    1.706627e+00   3.285418e-02
  5.802448e-01    1.677239e+00   3.250191e-02
  5.824552e-01    1.680921e+00   3.246928e-02
  5.846657e-01    1.655335e+00   3.215405e-02
  5.868762e-01    1.661518e+00   3.214697e-02
  5.890866e-01    1.710199e+00   3.254685e-02
  5.912971e-01    1.676255e+00   3.215553e-02
  5.935075e-01    1.637396e+00   3.171496e-02
  5.957180e-01    1.633668e+00   3.161382e-02
  5.979284e-01    1.630717e+00   3.152078e-02
  6.001389e-01    1.606437e+00   3.122154e-02
  6.023494e-01    1.635278e+00   3.143658e-02
  6.045598e-01    1.641347e+00   3.143076e-02
  6.067703e-01    1.651132e+00   3.146090e-02
  6.089807e-01    1.668757e+00   3.156479e-02
  6.111912e-01    1.666622e+00   3.148161e-02
  6.134016e-01    1.682672e+00   3.156974e-02
  6.156121e-01    1.700140e+00   3.167009e-02
  6.178226e-01    1.719988e+00   3.179136e-02
  6.200330e-01    1.723322e+00   3.175939e-02
  6.222435e-01    1.724846e+00   3.171048e-02
  6.244539e-01    1.708094e+00   3.149433e-02
  6.266644e-01    1.711358e+00   3.146291e-02
  6.288748e-01    1.715020e+00   3.143526e-02
  6.310853e-01    1.703867e+00   3.127205e-02
  6.332957e-01    1.739994e+00   3.154081e-02
  6.355062e-01    1.713248e+00   3.123668e-02
  6.377167e-01    1.685226e+00   3.092072e-02
  6.399271e-01    1.704564e+00   3.103802e-02
  6.421376e-01    1.728884e+00   3.119900e-02
  6.443480e-01    1.727336e+00   3.112571e-02
  6.465585e-01    1.718219e+00   3.098464e-02
  6.487689e-01    1.725800e+00   3.099429e-02
  6.509794e-01    1.718388e+00   3.086932e-02
  6.531899e-01    1.715558e+00   3.078591e-02
  6.554003e-01    1.680266e+00   3.041032e-02
  6.576108e-01    1.638448e+00   2.997359e-02
  6.598212e-01    1.601400e+00   2.957772e-02
  6.620317e-01    1.607444e+00   2.957856e-02
  6.642421e-01    1.580757e+00   2.927773e-02
  6.664526e-01    1.629407e+00   2.967008e-02
  6.686630e-01    1.622126e+00   2.954898e-02
  6.708735e-01    1.614823e+00   2.942831e-02
  6.730840e-01    1.628657e+00   2.950022e-02
  6.752944e-01    1.596451e+00   2.915396e-02
  6.775049e-01    1.632688e+00   2.942945e-02
  6.797153e-01    1.600265e+00   2.908302e-02
  6.819258e-01    1.611471e+00   2.913202e-02
  6.841362e-01    1.619070e+00   2.914813e-02
  6.863467e-01    1.620148e+00   2.910560e-02
  6.885572e-01    1.567737e+00   2.857965e-02
  6.907676e-01    1.590092e+00   2.873110e-02
  6.929781e-01    1.621283e+00   2.895998e-02
  6.951885e-01    1.613093e+00   2.883559e-02
  6.973990e-01    1.606328e+00   2.872417e-02
  6.996094e-01    1.605018e+00   2.866195e-02
  7.018199e-01    1.577599e+00   2.836619e-02
  7.040303e-01    1.610500e+00   2.861011e-02
  7.062408e-01    1.587209e+00   2.835273e-02
  7.084513e-01    1.606913e+00   2.847854e-02
  7.106617e-01    1.613667e+00   2.848875e-02
  7.128722e-01    1.603289e+00   2.834786e-02
  7.150826e-01    1.620775e+00   2.845290e-02
  7.172931e-01    1.589388e+00   2.812749e-02
  7.195035e-01    1.558336e+00   2.780348e-02
  7.217140e-01    1.592049e+00   2.815234e-02
  7.239245e-01    1.569879e+00   2.818204e-02
  7.261349e-01    1.580403e+00   2.838515e-02
  7.283454e-01    1.569532e+00   2.835964e-02
  7.305558e-01    1.572485e+00   2.844026e-02
  7.327663e-01    1.620979e+00   2.891858e-02
  7.349767e-01    1.593821e+00   2.869179e-02
  7.371872e-01    1.604661e+00   2.877789e-02
  7.393976e-01    1.616239e+00   2.886710e-02
  7.416081e-01    1.581145e+00   2.853577e-02
  7.438186e-01    1.569850e+00   2.828955e-02
  7.460290e-01    1.578164e+00   2.806980e-02
  7.482395e-01    1.570841e+00   2.783363e-02
  7.504499e-01    1.577775e+00   2.775859e-02
  7.526604e-01    1.553584e+00   2.742920e-02
  7.548708e-01    1.577858e+00   2.755313e-02
  7.570813e-01    1.562431e+00   2.736735e-02
  7.592918e-01    1.577235e+00   2.746147e-02
  7.615022e-01    1.592093e+00   2.755655e-02
  7.637127e-01    1.573137e+00   2.735924e-02
  7.659231e-01    1.580910e+00   2.739467e-02
  7.681336e-01    1.555446e+00   2.714176e-02
  7.703440e-01    1.555513e+00   2.711130e-02
  7.725545e-01    1.550209e+00   2.703440e-02
  7.747650e-01    1.573803e+00   2.720116e-02
  7.769754e-01    1.585355e+00   2.724794e-02
  7.791859e-01    1.567435e+00   2.704015e-02
  7.813963e-01    1.614202e+00   2.738740e-02
  7.836068e-01    1.567229e+00   2.693428e-02
  7.858172e-01    1.601657e+00   2.717758e-02
  7.880277e-01    1.592681e+00   2.704979e-02
  7.902381e-01    1.603040e+00   2.708830e-02
  7.924486e-01    1.569535e+00   2.675407e-02
  7.946591e-01    1.582564e+00   2.681685e-02
  7.968695e-01    1.599300e+00   2.691005e-02
  7.990800e-01    1.617972e+00   2.701831e-02
  8.012904e-01    1.626697e+00   2.704419e-02
  8.035009e-01    1.649698e+00   2.718626e-02
  8.057113e-01    1.667456e+00   2.728495e-02
  8.079218e-01    1.632431e+00   2.695026e-02
  8.101323e-01    1.648995e+00   2.704066e-02
  8.123427e-01    1.632097e+00   2.685588e-02
  8.145532e-01    1.628725e+00   2.678223e-02
  8.167636e-01    1.621244e+00   2.667572e-02
  8.189741e-01    1.624050e+00   2.665429e-02
  8.211845e-01    1.620362e+00   2.657937e-02
  8.233950e-01    1.656579e+00   2.683108e-02
  8.256054e-01    1.636496e+00   2.662374e-02
  8.278159e-01    1.658020e+00   2.675402e-02
  8.300264e-01    1.648176e+00   2.663126e-02
  8.322368e-01    1.663408e+00   2.671059e-02
  8.344473e-01    1.649023e+00   2.655134e-02
  8.366577e-01    1.653368e+00   2.654351e-02
  8.388682e-01    1.663455e+00   2.658181e-02
  8.410786e-01    1.649209e+00   2.642556e-02
  8.432891e-01    1.636171e+00   2.627908e-02
  8.454996e-01    1.646446e+00   2.631975e-02
  8.477100e-01    1.622999e+00   2.609020e-02
  8.499205e-01    1.586808e+00   2.575715e-02
  8.521309e-01    1.596022e+00   2.579155e-02
  8.543414e-01    1.593232e+00   2.572878e-02
  8.565518e-01    1.583727e+00   2.561200e-02
  8.587623e-01    1.594523e+00   2.565911e-02
  8.609727e-01    1.621927e+00   2.583854e-02
  8.631832e-01    1.621825e+00   2.579789e-02
  8.653937e-01    1.614811e+00   2.570250e-02
  8.676041e-01    1.631831e+00   2.579861e-02
  8.698146e-01    1.630726e+00   2.575045e-02
  8.720250e-01    1.630010e+00   2.570557e-02
  8.742355e-01    1.615238e+00   2.554987e-02
  8.764459e-01    1.620669e+00   2.555374e-02
  8.786564e-01    1.635000e+00   2.562821e-02
  8.808669e-01    1.618060e+00   2.545646e-02
  8.830773e-01    1.614539e+00   2.539045e-02
  8.852878e-01    1.634184e+00   2.550616e-02
  8.874982e-01    1.603480e+00   2.522875e-02
  8.897087e-01    1.615602e+00   2.528606e-02
  8.919191e-01    1.629464e+00   2.535624e-02
  8.941296e-01    1.593627e+00   2.503863e-02
  8.963401e-01    1.602058e+00   2.506834e-02
  8.985505e-01    1.581459e+00   2.486990e-02
  9.007610e-01    1.601624e+00   2.499119e-02
  9.029714e-01    1.595426e+00   2.490702e-02
  9.051819e-01    1.574837e+00   2.470885e-02
  9.073923e-01    1.575798e+00   2.468008e-02
  9.096028e-01    1.603768e+00   2.486319e-02
  9.118132e-01    1.615468e+00   2.491733e-02
  9.140237e-01    1.601804e+00   2.477509e-02
  9.162342e-01    1.593045e+00   2.467276e-02
  9.184446e-01    1.583742e+00   2.456506e-02
  9.206551e-01    1.624829e+00   2.484577e-02
  9.228655e-01    1.624853e+00   2.481046e-02
  9.250760e-01    1.623316e+00   2.476313e-02
  9.272864e-01    1.655097e+00   2.496954e-02
  9.294969e-01    1.629633e+00   2.474062e-02
  9.317074e-01    1.615898e+00   2.460130e-02
  9.339178e-01    1.661606e+00   2.491275e-02
  9.361283e-01    1.627448e+00   2.461902e-02
  9.383387e-01    1.630237e+00   2.460658e-02
  9.405492e-01    1.658484e+00   2.478418e-02
  9.427596e-01    1.649460e+00   2.468109e-02
  9.449701e-01    1.651136e+00   2.466006e-02
  9.471805e-01    1.693234e+00   2.493710e-02
  9.493910e-01    1.674170e+00   2.476228e-02
  9.516015e-01    1.693720e+00   2.487166e-02
  9.538119e-01    1.687640e+00   2.479297e-02
  9.560224e-01    1.715326e+00   2.496030e-02
  9.582328e-01    1.744376e+00   2.513702e-02
  9.604433e-01    1.774024e+00   2.531385e-02
  9.626537e-01    1.792129e+00   2.540848e-02
  9.648642e-01    1.761469e+00   2.515570e-02
  9.670747e-01    1.773912e+00   2.520958e-02
  9.692851e-01    1.792619e+00   2.530846e-02
  9.714956e-01    1.823903e+00   2.549236e-02
  9.737060e-01    1.804256e+00   2.532139e-02
  9.759165e-01    1.800463e+00   2.525908e-02
  9.781269e-01    1.830197e+00   2.543347e-02
  9.803374e-01    1.826167e+00   2.537034e-02
  9.825478e-01    1.811727e+00   2.523648e-02
  9.847583e-01    1.814970e+00   2.522477e-02
  9.869688e-01    1.816107e+00   2.519888e-02
  9.891792e-01    1.800770e+00   2.505893e-02
  9.913897e-01    1.754725e+00   2.470309e-02
  9.936001e-01    1.742476e+00   2.458449e-02
  9.958106e-01    1.700895e+00   2.425638e-02
  9.980210e-01    1.691476e+00   2.415772e-02
  1.000231e+00    1.671075e+00   2.414314e-02
  1.002442e+00    1.629847e+00   2.397014e-02
  1.004652e+00    1.618330e+00   2.395194e-02
  1.006863e+00    1.599099e+00   2.385860e-02
  1.009073e+00    1.626763e+00   2.410091e-02
  1.011284e+00    1.604511e+00   2.396752e-02
  1.013494e+00    1.583840e+00   2.383625e-02
  1.015705e+00    1.590021e+00   2.390528e-02
  1.017915e+00    1.586376e+00   2.389432e-02
  1.020126e+00    1.584172e+00   2.389384e-02
  1.022336e+00    1.589484e+00   2.394569e-02
  1.024547e+00    1.525785e+00   2.347209e-02
  1.026757e+00    1.528064e+00   2.349791e-02
  1.028967e+00    1.512697e+00   2.338707e-02
  1.031178e+00    1.552705e+00   2.370052e-02
  1.033388e+00    1.509713e+00   2.337513e-02
  1.035599e+00    1.511617e+00   2.339325e-02
  1.037809e+00    1.514001e+00   2.341495e-02
  1.040020e+00    1.542100e+00   2.363249e-02
  1.042230e+00    1.580091e+00   2.392383e-02
  1.044441e+00    1.559927e+00   2.377046e-02
  1.046651e+00    1.575288e+00   2.388738e-02
  1.048862e+00    1.624355e+00   2.425571e-02
  1.051072e+00    1.601699e+00   2.408357e-02
  1.053282e+00    1.520162e+00   2.346158e-02
  1.055493e+00    1.518541e+00   2.344473e-02
  1.057703e+00    1.519899e+00   2.345368e-02
  1.059914e+00    1.509312e+00   2.336757e-02
  1.062124e+00    1.506576e+00   2.334229e-02
  1.064335e+00    1.518736e+00   2.343284e-02
  1.066545e+00    1.477094e+00   2.310337e-02
  1.068756e+00    1.476799e+00   2.309732e-02
  1.070966e+00    1.460364e+00   2.296196e-02
  1.073177e+00    1.454482e+00   2.290963e-02
  1.075387e+00    1.457218e+00   2.292596e-02
  1.077597e+00    1.452734e+00   2.288347e-02
  1.079808e+00    1.447987e+00   2.271402e-02
  1.082018e+00    1.465286e+00   2.266010e-02
  1.084229e+00    1.425920e+00   2.224489e-02
  1.086439e+00    1.449391e+00   2.233996e-02
  1.088650e+00    1.416997e+00   2.201420e-02
  1.090860e+00    1.444491e+00   2.215935e-02
  1.093071e+00    1.420385e+00   2.191215e-02
  1.095281e+00    1.417497e+00   2.183316e-02
  1.097492e+00    1.431102e+00   2.188304e-02
  1.099702e+00    1.448577e+00   2.196472e-02
  1.101912e+00    1.471299e+00   2.208691e-02
  1.104123e+00    1.493147e+00   2.220115e-02
  1.106333e+00    1.442534e+00   2.177705e-02
  1.108544e+00    1.445333e+00   2.175367e-02
  1.110754e+00    1.445735e+00   2.171337e-02
  1.112965e+00    1.453759e+00   2.173259e-02
  1.115175e+00    1.409351e+00   2.135704e-02
  1.117386e+00    1.425131e+00   2.143686e-02
  1.119596e+00    1.447855e+00   2.156875e-02
  1.121807e+00    1.500633e+00   2.191829e-02
  1.124017e+00    1.508747e+00   2.193955e-02
  1.126228e+00    1.431711e+00   2.133599e-02
  1.128438e+00    1.412927e+00   2.115864e-02
  1.130648e+00    1.405973e+00   2.107210e-02
  1.132859e+00    1.371370e+00   2.077715e-02
  1.135069e+00    1.379968e+00   2.080758e-02
  1.137280e+00    1.399632e+00   2.092221e-02
  1.139490e+00    1.386042e+00   2.078733e-02
  1.141701e+00    1.393059e+00   2.080666e-02
  1.143911e+00    1.365965e+00   2.057169e-02
  1.146122e+00    1.389746e+00   2.071784e-02
  1.148332e+00    1.403646e+00   2.078907e-02
  1.150543e+00    1.344813e+00   2.031826e-02
  1.152753e+00    1.356612e+00   2.037656e-02
  1.154963e+00    1.365799e+00   2.041448e-02
  1.157174e+00    1.395817e+00   2.060719e-02
  1.159384e+00    1.380263e+00   2.046214e-02
  1.161595e+00    1.369359e+00   2.035130e-02
  1.163805e+00    1.361176e+00   2.026123e-02
  1.166016e+00    1.354536e+00   2.018245e-02
  1.168226e+00    1.376352e+00   2.031527e-02
  1.170437e+00    1.378285e+00   2.030078e-02
  1.172647e+00    1.364048e+00   2.016680e-02
  1.174858e+00    1.354067e+00   2.006487e-02
  1.177068e+00    1.377882e+00   2.021215e-02
  1.179278e+00    1.339481e+00   1.990017e-02
  1.181489e+00    1.341886e+00   1.989117e-02
  1.183699e+00    1.356197e+00   1.996941e-02
  1.185910e+00    1.381943e+00   2.013008e-02
  1.188120e+00    1.332940e+00   1.974349e-02
  1.190331e+00    1.349545e+00   1.983937e-02
  1.192541e+00    1.356650e+00   1.986412e-02
  1.194752e+00    1.376523e+00   1.998182e-02
  1.196962e+00    1.362298e+00   1.985245e-02
  1.199173e+00    1.348100e+00   1.972226e-02
  1.201383e+00    1.355748e+00   1.975090e-02
  1.203593e+00    1.353805e+00   1.971188e-02
  1.205804e+00    1.370263e+00   1.980522e-02
  1.208014e+00    1.374904e+00   1.981165e-02
  1.210225e+00    1.357894e+00   1.966331e-02
  1.212435e+00    1.376184e+00   1.977026e-02
  1.214646e+00    1.366428e+00   1.967380e-02
  1.216856e+00    1.354559e+00   1.956266e-02
  1.219067e+00    1.342225e+00   1.944899e-02
  1.221277e+00    1.321774e+00   1.927549e-02
  1.223488e+00    1.310577e+00   1.916830e-02
  1.225698e+00    1.352651e+00   1.944662e-02
  1.227909e+00    1.351432e+00   1.940768e-02
  1.230119e+00    1.357633e+00   1.942021e-02
  1.232329e+00    1.353280e+00   1.935830e-02
  1.234540e+00    1.349244e+00   1.929913e-02
  1.236750e+00    1.349708e+00   1.927217e-02
  1.238961e+00    1.344419e+00   1.920747e-02
  1.241171e+00    1.318924e+00   1.900058e-02
  1.243382e+00    1.340503e+00   1.913193e-02
  1.245592e+00    1.380142e+00   1.938838e-02
  1.247803e+00    1.370233e+00   1.929484e-02
  1.250013e+00    1.354817e+00   1.916239e-02
  1.252224e+00    1.364334e+00   1.920622e-02
  1.254434e+00    1.371165e+00   1.923030e-02
  1.256644e+00    1.379050e+00   1.926206e-02
  1.258855e+00    1.376673e+00   1.922197e-02
  1.261065e+00    1.354557e+00   1.904352e-02
  1.263276e+00    1.380435e+00   1.920136e-02
  1.265486e+00    1.372039e+00   1.911983e-02
  1.267697e+00    1.351014e+00   1.894974e-02
  1.269907e+00    1.359080e+00   1.898345e-02
  1.272118e+00    1.348766e+00   1.888873e-02
  1.274328e+00    1.340405e+00   1.880743e-02
  1.276539e+00    1.342468e+00   1.879917e-02
  1.278749e+00    1.391337e+00   1.911565e-02
  1.280959e+00    1.340924e+00   1.874371e-02
  1.283170e+00    1.344165e+00   1.874394e-02
  1.285380e+00    1.356375e+00   1.880638e-02
  1.287591e+00    1.333426e+00   1.862471e-02
  1.289801e+00    1.331923e+00   1.859313e-02
  1.292012e+00    1.352802e+00   1.872118e-02
  1.294222e+00    1.353495e+00   1.870972e-02
  1.296433e+00    1.365431e+00   1.877633e-02
  1.298643e+00    1.383986e+00   1.888682e-02
  1.300854e+00    1.367409e+00   1.875684e-02
  1.303064e+00    1.373864e+00   1.878168e-02
  1.305274e+00    1.341833e+00   1.854006e-02
  1.307485e+00    1.352249e+00   1.859032e-02
  1.309695e+00    1.366327e+00   1.866446e-02
  1.311906e+00    1.363193e+00   1.862124e-02
  1.314116e+00    1.365514e+00   1.861616e-02
  1.316327e+00    1.391670e+00   1.877159e-02
  1.318537e+00    1.384395e+00   1.870030e-02
  1.320748e+00    1.404332e+00   1.881249e-02
  1.322958e+00    1.402659e+00   1.878037e-02
  1.325169e+00    1.390536e+00   1.867770e-02
  1.327379e+00    1.392630e+00   1.866961e-02
  1.329589e+00    1.381632e+00   1.857443e-02
  1.331800e+00    1.391075e+00   1.861678e-02
  1.334010e+00    1.397614e+00   1.863948e-02
  1.336221e+00    1.365801e+00   1.840425e-02
  1.338431e+00    1.355428e+00   1.831328e-02
  1.340642e+00    1.390859e+00   1.861625e-02
  1.342852e+00    1.386559e+00   1.868946e-02
  1.345063e+00    1.405137e+00   1.886474e-02
  1.347273e+00    1.394125e+00   1.882650e-02
  1.349484e+00    1.398527e+00   1.888436e-02
  1.351694e+00    1.398523e+00   1.890745e-02
  1.353905e+00    1.417405e+00   1.905310e-02
  1.356115e+00    1.430145e+00   1.915402e-02
  1.358325e+00    1.400764e+00   1.896983e-02
  1.360536e+00    1.390735e+00   1.891359e-02
  1.362746e+00    1.356723e+00   1.869047e-02
  1.364957e+00    1.380031e+00   1.885807e-02
  1.367167e+00    1.379656e+00   1.886276e-02
  1.369378e+00    1.372958e+00   1.882298e-02
  1.371588e+00    1.386419e+00   1.892026e-02
  1.373799e+00    1.415517e+00   1.912153e-02
  1.376009e+00    1.411885e+00   1.910049e-02
  1.378220e+00    1.421922e+00   1.917086e-02
  1.380430e+00    1.440311e+00   1.929722e-02
  1.382640e+00    1.540385e+00   1.995734e-02
  1.384851e+00    1.528120e+00   1.987872e-02
  1.387061e+00    1.464130e+00   1.945838e-02
  1.389272e+00    1.367012e+00   1.880216e-02
  1.391482e+00    1.344246e+00   1.864422e-02
  1.393693e+00    1.354354e+00   1.871330e-02
  1.395903e+00    1.351358e+00   1.869104e-02
  1.398114e+00    1.339187e+00   1.860529e-02
  1.400324e+00    1.303822e+00   1.835584e-02
  1.402535e+00    1.276619e+00   1.816102e-02
  1.404745e+00    1.291145e+00   1.826165e-02
  1.406955e+00    1.324007e+00   1.848984e-02
  1.409166e+00    1.321876e+00   1.847161e-02
  1.411376e+00    1.287608e+00   1.822747e-02
  1.413587e+00    1.289719e+00   1.823854e-02
  1.415797e+00    1.292615e+00   1.825546e-02
  1.418008e+00    1.292521e+00   1.821254e-02
  1.420218e+00    1.280833e+00   1.797965e-02
  1.422429e+00    1.272947e+00   1.783880e-02
  1.424639e+00    1.307154e+00   1.801125e-02
  1.426850e+00    1.305092e+00   1.794163e-02
  1.429060e+00    1.291984e+00   1.780186e-02
  1.431270e+00    1.313333e+00   1.790327e-02
  1.433481e+00    1.296994e+00   1.775020e-02
  1.435691e+00    1.274332e+00   1.755593e-02
  1.437902e+00    1.274697e+00   1.752193e-02
  1.440112e+00    1.261642e+00   1.739672e-02
  1.442323e+00    1.271190e+00   1.742938e-02
  1.444533e+00    1.269712e+00   1.738669e-02
  1.446744e+00    1.287795e+00   1.747872e-02
  1.448954e+00    1.260078e+00   1.725952e-02
  1.451165e+00    1.277663e+00   1.734969e-02
  1.453375e+00    1.285920e+00   1.737744e-02
  1.455586e+00    1.281466e+00   1.731903e-02
  1.457796e+00    1.273125e+00   1.723504e-02
  1.460006e+00    1.264912e+00   1.715216e-02
  1.462217e+00    1.253201e+00   1.704651e-02
  1.464427e+00    1.276343e+00   1.717751e-02
  1.466638e+00    1.284966e+00   1.720996e-02
  1.468848e+00    1.287625e+00   1.720224e-02
  1.471059e+00    1.298511e+00   1.724943e-02
  1.473269e+00    1.304253e+00   1.726282e-02
  1.475480e+00    1.305718e+00   1.724840e-02
  1.477690e+00    1.274816e+00   1.701919e-02
  1.479901e+00    1.287775e+00   1.708141e-02
  1.482111e+00    1.307307e+00   1.718680e-02
  1.484321e+00    1.283092e+00   1.700362e-02
  1.486532e+00    1.330422e+00   1.729148e-02
  1.488742e+00    1.296802e+00   1.704870e-02
  1.490953e+00    1.274017e+00   1.687557e-02
  1.493163e+00    1.258174e+00   1.674807e-02
  1.495374e+00    1.258985e+00   1.673200e-02
  1.497584e+00    1.261309e+00   1.672579e-02
  1.499795e+00    1.260948e+00   1.670175e-02
  1.502005e+00    1.279219e+00   1.680046e-02
  1.504216e+00    1.284318e+00   1.681268e-02
  1.506426e+00    1.255220e+00   1.660033e-02
  1.508636e+00    1.259444e+00   1.660778e-02
  1.510847e+00    1.256883e+00   1.656907e-02
  1.513057e+00    1.260758e+00   1.656943e-02
  1.515268e+00    1.295614e+00   1.677079e-02
  1.517478e+00    1.293062e+00   1.672875e-02
  1.519689e+00    1.282703e+00   1.663634e-02
  1.521899e+00    1.299293e+00   1.672005e-02
  1.524110e+00    1.309702e+00   1.676613e-02
  1.526320e+00    1.280707e+00   1.655968e-02
  1.528531e+00    1.273722e+00   1.649451e-02
  1.530741e+00    1.267927e+00   1.643767e-02
  1.532951e+00    1.267000e+00   1.641194e-02
  1.535162e+00    1.245543e+00   1.635884e-02
  1.537372e+00    1.239126e+00   1.638327e-02
  1.539583e+00    1.242915e+00   1.644247e-02
  1.541793e+00    1.252104e+00   1.651009e-02
  1.544004e+00    1.249541e+00   1.649345e-02
  1.546214e+00    1.251664e+00   1.650594e-02
  1.548425e+00    1.248597e+00   1.648597e-02
  1.550635e+00    1.238555e+00   1.642920e-02
  1.552846e+00    1.260480e+00   1.658368e-02
  1.555056e+00    1.246152e+00   1.644767e-02
  1.557266e+00    1.248029e+00   1.634943e-02
  1.559477e+00    1.269330e+00   1.642865e-02
  1.561687e+00    1.248496e+00   1.626258e-02
  1.563898e+00    1.243188e+00   1.621079e-02
  1.566108e+00    1.249047e+00   1.623297e-02
  1.568319e+00    1.238639e+00   1.614962e-02
  1.570529e+00    1.232463e+00   1.608429e-02
  1.572740e+00    1.249562e+00   1.616780e-02
  1.574950e+00    1.236448e+00   1.605651e-02
  1.577161e+00    1.244270e+00   1.608174e-02
  1.579371e+00    1.274239e+00   1.625032e-02
  1.581582e+00    1.270007e+00   1.620334e-02
  1.583792e+00    1.301373e+00   1.638377e-02
  1.586002e+00    1.291391e+00   1.630289e-02
  1.588213e+00    1.289616e+00   1.627411e-02
  1.590423e+00    1.278473e+00   1.618331e-02
  1.592634e+00    1.307863e+00   1.634609e-02
  1.594844e+00    1.299560e+00   1.627226e-02
  1.597055e+00    1.261548e+00   1.601186e-02
  1.599265e+00    1.241348e+00   1.586242e-02
  1.601476e+00    1.266563e+00   1.600219e-02
  1.603686e+00    1.267728e+00   1.598957e-02
  1.605897e+00    1.314063e+00   1.625838e-02
  1.608107e+00    1.378810e+00   1.663345e-02
  1.610317e+00    1.408722e+00   1.679235e-02
  1.612528e+00    1.324574e+00   1.626324e-02
  1.614738e+00    1.293645e+00   1.605282e-02
  1.616949e+00    1.277325e+00   1.593186e-02
  1.619159e+00    1.259742e+00   1.580283e-02
  1.621370e+00    1.238644e+00   1.565133e-02
  1.623580e+00    1.222979e+00   1.553364e-02
  1.625791e+00    1.193935e+00   1.532995e-02
  1.628001e+00    1.195852e+00   1.532402e-02
  1.630212e+00    1.182478e+00   1.522043e-02
  1.632422e+00    1.176387e+00   1.516334e-02
  1.634632e+00    1.179947e+00   1.516899e-02
  1.636843e+00    1.174465e+00   1.511620e-02
  1.639053e+00    1.154091e+00   1.496735e-02
  1.641264e+00    1.158774e+00   1.498067e-02
  1.643474e+00    1.182138e+00   1.511340e-02
  1.645685e+00    1.158036e+00   1.494190e-02
  1.647895e+00    1.135611e+00   1.478005e-02
  1.650106e+00    1.131601e+00   1.473708e-02
  1.652316e+00    1.138389e+00   1.476479e-02
  1.654527e+00    1.130687e+00   1.469820e-02
  1.656737e+00    1.107513e+00   1.453043e-02
  1.658947e+00    1.114479e+00   1.455990e-02
  1.661158e+00    1.101780e+00   1.446064e-02
  1.663368e+00    1.115791e+00   1.453629e-02
  1.665579e+00    1.130003e+00   1.461238e-02
  1.667789e+00    1.106887e+00   1.444597e-02
  1.670000e+00    1.143481e+00   1.466712e-02
  1.672210e+00    1.116462e+00   1.447688e-02
  1.674421e+00    1.107865e+00   1.440567e-02
  1.676631e+00    1.122909e+00   1.448713e-02
  1.678842e+00    1.108457e+00   1.437778e-02
  1.681052e+00    1.088051e+00   1.422946e-02
  1.683263e+00    1.062658e+00   1.404749e-02
  1.685473e+00    1.073368e+00   1.410304e-02
  1.687683e+00    1.068595e+00   1.405631e-02
  1.689894e+00    1.089444e+00   1.417696e-02
  1.692104e+00    1.074430e+00   1.406403e-02
  1.694315e+00    1.067673e+00   1.400526e-02
  1.696525e+00    1.062904e+00   1.395884e-02
  1.698736e+00    1.058474e+00   1.391494e-02
  1.700946e+00    1.052047e+00   1.385755e-02
  1.703157e+00    1.049396e+00   1.382550e-02
  1.705367e+00    1.045896e+00   1.378797e-02
  1.707578e+00    1.032076e+00   1.368213e-02
  1.709788e+00    1.010137e+00   1.352205e-02
  1.711998e+00    1.000977e+00   1.344589e-02
  1.714209e+00    1.026320e+00   1.360067e-02
  1.716419e+00    1.029751e+00   1.360918e-02
  1.718630e+00    1.024548e+00   1.356052e-02
  1.720840e+00    1.040096e+00   1.364875e-02
  1.723051e+00    1.018764e+00   1.349427e-02
  1.725261e+00    1.014808e+00   1.345339e-02
  1.727472e+00    1.008271e+00   1.339589e-02
  1.729682e+00    9.952981e-01   1.329611e-02
  1.731893e+00    1.008765e+00   1.337185e-02
  1.734103e+00    9.959369e-01   1.327288e-02
  1.736313e+00    9.926867e-01   1.323728e-02
  1.738524e+00    9.784598e-01   1.312841e-02
  1.740734e+00    9.791709e-01   1.311962e-02
  1.742945e+00    9.726484e-01   1.306256e-02
  1.745155e+00    9.639316e-01   1.299064e-02
  1.747366e+00    9.521782e-01   1.289765e-02
  1.749576e+00    9.746186e-01   1.303512e-02
  1.751787e+00    9.816957e-01   1.306907e-02
  1.753997e+00    9.783671e-01   1.303351e-02
  1.756208e+00    9.749305e-01   1.299739e-02
  1.758418e+00    9.680336e-01   1.293826e-02
  1.760628e+00    9.504599e-01   1.280706e-02
  1.762839e+00    9.612949e-01   1.286664e-02
  1.765049e+00    9.606951e-01   1.284954e-02
  1.767260e+00    9.602808e-01   1.283395e-02
  1.769470e+00    9.356147e-01   1.265519e-02
  1.771681e+00    9.498441e-01   1.273794e-02
  1.773891e+00    9.428061e-01   1.267766e-02
  1.776102e+00    9.398960e-01   1.264526e-02
  1.778312e+00    9.165996e-01   1.247503e-02
  1.780523e+00    9.054495e-01   1.238642e-02
  1.782733e+00    9.235435e-01   1.249699e-02
  1.784944e+00    9.210098e-01   1.246706e-02
  1.787154e+00    8.923607e-01   1.225936e-02
  1.789364e+00    9.087133e-01   1.235884e-02
  1.791575e+00    9.193995e-01   1.241881e-02
  1.793785e+00    9.388226e-01   1.253679e-02
  1.795996e+00    9.409702e-01   1.253849e-02
  1.798206e+00    9.051409e-01   1.228503e-02
  1.800417e+00    8.975103e-01   1.222059e-02
  1.802627e+00    8.809829e-01   1.209582e-02
  1.804838e+00    8.901597e-01   1.214669e-02
  1.807048e+00    9.062983e-01   1.224347e-02
  1.809259e+00    9.313844e-01   1.239801e-02
  1.811469e+00    8.908809e-01   1.211057e-02
  1.813679e+00    9.012515e-01   1.216589e-02
  1.815890e+00    8.957182e-01   1.211376e-02
  1.818100e+00    8.933734e-01   1.208281e-02
  1.820311e+00    9.056417e-01   1.215062e-02
  1.822521e+00    9.161370e-01   1.220578e-02
  1.824732e+00    8.859971e-01   1.198854e-02
  1.826942e+00    8.847216e-01   1.196758e-02
  1.829153e+00    8.987954e-01   1.205062e-02
  1.831363e+00    8.983859e-01   1.203573e-02
  1.833574e+00    9.064855e-01   1.207802e-02
  1.835784e+00    9.196594e-01   1.215378e-02
  1.837994e+00    9.110086e-01   1.208457e-02
  1.840205e+00    9.107871e-01   1.207168e-02
  1.842415e+00    8.851954e-01   1.188905e-02
  1.844626e+00    8.670555e-01   1.175504e-02
  1.846836e+00    8.605213e-01   1.169929e-02
  1.849047e+00    8.437161e-01   1.157303e-02
  1.851257e+00    8.672956e-01   1.172401e-02
  1.853468e+00    8.943528e-01   1.189655e-02
  1.855678e+00    8.769198e-01   1.177108e-02
  1.857889e+00    8.564678e-01   1.162451e-02
  1.860099e+00    8.785835e-01   1.176488e-02
  1.862309e+00    8.755156e-01   1.173573e-02
  1.864520e+00    8.577968e-01   1.160779e-02
  1.866730e+00    8.634498e-01   1.163654e-02
  1.868941e+00    8.739279e-01   1.169584e-02
  1.871151e+00    8.692793e-01   1.165320e-02
  1.873362e+00    8.793739e-01   1.170912e-02
  1.875572e+00    8.894423e-01   1.176476e-02
  1.877783e+00    8.784325e-01   1.168011e-02
  1.879993e+00    8.673787e-01   1.159510e-02
  1.882204e+00    8.617617e-01   1.154647e-02
  1.884414e+00    8.679777e-01   1.157681e-02
  1.886624e+00    8.725067e-01   1.159573e-02
  1.888835e+00    8.511583e-01   1.144195e-02
  1.891045e+00    8.639685e-01   1.151668e-02
  1.893256e+00    8.641290e-01   1.150652e-02
  1.895466e+00    8.417664e-01   1.134542e-02
  1.897677e+00    8.433678e-01   1.134526e-02
  1.899887e+00    8.348531e-01   1.127685e-02
  1.902098e+00    8.613819e-01   1.144357e-02
  1.904308e+00    8.530459e-01   1.137737e-02
  1.906519e+00    8.442492e-01   1.130761e-02
  1.908729e+00    8.552043e-01   1.136997e-02
  1.910940e+00    8.347153e-01   1.122177e-02
  1.913150e+00    8.185620e-01   1.110212e-02
  1.915360e+00    8.206931e-01   1.110595e-02
  1.917571e+00    8.488381e-01   1.128373e-02
  1.919781e+00    8.287298e-01   1.113857e-02
  1.921992e+00    8.280347e-01   1.112321e-02
  1.924202e+00    8.012640e-01   1.093129e-02
  1.926413e+00    7.978353e-01   1.089766e-02
  1.928623e+00    8.039864e-01   1.092913e-02
  1.930834e+00    8.156759e-01   1.099784e-02
  1.933044e+00    8.048058e-01   1.091370e-02
  1.935255e+00    8.071337e-01   1.091917e-02
  1.937465e+00    8.051308e-01   1.089522e-02
  1.939675e+00    8.021986e-01   1.086454e-02
  1.941886e+00    8.104528e-01   1.091000e-02
  1.944096e+00    7.944958e-01   1.079191e-02
  1.946307e+00    7.997199e-01   1.081703e-02
  1.948517e+00    7.887998e-01   1.073254e-02
  1.950728e+00    7.986615e-01   1.078918e-02
  1.952938e+00    7.857577e-01   1.069166e-02
  1.955149e+00    7.996631e-01   1.077557e-02
  1.957359e+00    8.103824e-01   1.083744e-02
  1.959570e+00    7.977464e-01   1.074172e-02
  1.961780e+00    7.868478e-01   1.065822e-02
  1.963990e+00    7.920716e-01   1.068341e-02
  1.966201e+00    8.151366e-01   1.082763e-02
  1.968411e+00    8.053255e-01   1.075203e-02
  1.970622e+00    7.681168e-01   1.049074e-02
  1.972832e+00    7.873866e-01   1.061152e-02
  1.975043e+00    8.071725e-01   1.073386e-02
  1.977253e+00    7.956001e-01   1.064663e-02
  1.979464e+00    7.700826e-01   1.046454e-02
  1.981674e+00    7.873382e-01   1.057084e-02
  1.983885e+00    7.810014e-01   1.051821e-02
  1.986095e+00    7.957300e-01   1.060711e-02
  1.988305e+00    7.908539e-01   1.056462e-02
  1.990516e+00    7.875289e-01   1.053240e-02
  1.992726e+00    7.889313e-01   1.053203e-02
  1.994937e+00    7.880041e-01   1.051565e-02
  1.997147e+00    7.878020e-01   1.050448e-02
  1.999358e+00    7.925252e-01   1.052597e-02
  2.001568e+00    7.780884e-01   1.041883e-02
  2.003779e+00    7.598886e-01   1.028442e-02
  2.005989e+00    7.877356e-01   1.045902e-02
  2.008200e+00    7.607333e-01   1.026675e-02
  2.010410e+00    7.649402e-01   1.028338e-02
  2.012621e+00    7.783015e-01   1.036102e-02
  2.014831e+00    7.604254e-01   1.022993e-02
  2.017041e+00    7.695264e-01   1.028057e-02
  2.019252e+00    7.593898e-01   1.020271e-02
  2.021462e+00    7.676635e-01   1.024860e-02
  2.023673e+00    7.913716e-01   1.039611e-02
  2.025883e+00    8.160617e-01   1.054718e-02
  2.028094e+00    8.526937e-01   1.077113e-02
  2.030304e+00    8.057280e-01   1.046052e-02
  2.032515e+00    7.772971e-01   1.026488e-02
  2.034725e+00    7.851668e-01   1.030710e-02
  2.036936e+00    7.815679e-01   1.027399e-02
  2.039146e+00    7.700491e-01   1.018833e-02
  2.041356e+00    7.816932e-01   1.025527e-02
  2.043567e+00    7.786872e-01   1.022610e-02
  2.045777e+00    7.566736e-01   1.007125e-02
  2.047988e+00    7.538859e-01   1.004333e-02
  2.050198e+00    7.487881e-01   1.000089e-02
  2.052409e+00    7.579432e-01   1.005417e-02
  2.054619e+00    7.670370e-01   1.010686e-02
  2.056830e+00    7.719343e-01   1.013179e-02
  2.059040e+00    7.732360e-01   1.013270e-02
  2.061251e+00    7.884262e-01   1.022433e-02
  2.063461e+00    7.779500e-01   1.014844e-02
  2.065671e+00    7.680830e-01   1.007504e-02
  2.067882e+00    7.629978e-01   1.003254e-02
  2.070092e+00    7.457100e-01   9.909055e-03
  2.072303e+00    7.551555e-01   9.962399e-03
  2.074513e+00    7.539656e-01   9.945196e-03
  2.076724e+00    7.655086e-01   1.001142e-02
  2.078934e+00    7.675164e-01   1.001540e-02
  2.081145e+00    7.760682e-01   1.006176e-02
  2.083355e+00    7.609993e-01   9.954321e-03
  2.085566e+00    7.466484e-01   9.851052e-03
  2.087776e+00    7.409063e-01   9.803602e-03
  2.089986e+00    7.317218e-01   9.733879e-03
  2.092197e+00    7.613081e-01   9.919624e-03
  2.094407e+00    7.535816e-01   9.859835e-03
  2.096618e+00    7.337473e-01   9.720326e-03
  2.098828e+00    7.430768e-01   9.772554e-03
  2.101039e+00    7.353331e-01   9.712507e-03
  2.103249e+00    7.319016e-01   9.681150e-03
  2.105460e+00    7.371130e-01   9.706488e-03
  2.107670e+00    7.165980e-01   9.561808e-03
  2.109881e+00    7.496315e-01   9.770389e-03
  2.112091e+00    7.424799e-01   9.714609e-03
  2.114301e+00    7.421209e-01   9.703360e-03
  2.116512e+00    7.516713e-01   9.756617e-03
  2.118722e+00    7.615395e-01   9.811418e-03
  2.120933e+00    7.388667e-01   9.655289e-03
  2.123143e+00    7.101488e-01   9.456926e-03
  2.125354e+00    7.117040e-01   9.458766e-03
  2.127564e+00    7.383413e-01   9.625298e-03
  2.129775e+00    7.303466e-01   9.564231e-03
  2.131985e+00    7.342187e-01   9.580366e-03
  2.134196e+00    7.286693e-01   9.535415e-03
  2.136406e+00    7.161114e-01   9.444121e-03
  2.138617e+00    7.132317e-01   9.416644e-03
  2.140827e+00    7.138497e-01   9.436836e-03
  2.143037e+00    7.108642e-01   9.462669e-03
  2.145248e+00    7.408867e-01   9.682978e-03
  2.147458e+00    7.232968e-01   9.582681e-03
  2.149669e+00    7.241104e-01   9.600098e-03
  2.151879e+00    7.123877e-01   9.531373e-03
  2.154090e+00    6.981239e-01   9.442756e-03
  2.156300e+00    6.966901e-01   9.439643e-03
  2.158511e+00    7.037135e-01   9.492419e-03
  2.160721e+00    6.949334e-01   9.437835e-03
  2.162932e+00    6.926551e-01   9.426063e-03
  2.165142e+00    6.846895e-01   9.374706e-03
  2.167352e+00    6.915200e-01   9.424248e-03
  2.169563e+00    6.915470e-01   9.426386e-03
  2.171773e+00    6.995533e-01   9.483251e-03
  2.173984e+00    6.997701e-01   9.486140e-03
  2.176194e+00    6.951765e-01   9.456155e-03
  2.178405e+00    6.837038e-01   9.378507e-03
  2.180615e+00    6.737102e-01   9.310358e-03
  2.182826e+00    7.081570e-01   9.546111e-03
  2.185036e+00    7.077448e-01   9.543387e-03
  2.187247e+00    6.826912e-01   9.372906e-03
  2.189457e+00    6.933606e-01   9.445442e-03
  2.191667e+00    6.975619e-01   9.473857e-03
  2.193878e+00    6.918963e-01   9.434712e-03
  2.196088e+00    6.761812e-01   9.326312e-03
  2.198299e+00    6.728166e-01   9.301956e-03
  2.200509e+00    6.829773e-01   9.370899e-03
  2.202720e+00    6.767993e-01   9.327262e-03
  2.204930e+00    6.915918e-01   9.427387e-03
  2.207141e+00    6.947492e-01   9.447764e-03
  2.209351e+00    6.858737e-01   9.385331e-03
  2.211562e+00    6.714544e-01   9.284551e-03
  2.213772e+00    6.765168e-01   9.263996e-03
  2.215982e+00    6.962381e-01   9.353191e-03
  2.218193e+00    6.818441e-01   9.226242e-03
  2.220403e+00    6.848007e-01   9.221456e-03
  2.222614e+00    6.681663e-01   9.087916e-03
  2.224824e+00    6.590949e-01   9.006819e-03
  2.227035e+00    6.905225e-01   9.201384e-03
  2.229245e+00    6.821991e-01   9.128671e-03
  2.231456e+00    6.804028e-01   9.100930e-03
  2.233666e+00    6.578778e-01   8.934066e-03
  2.235877e+00    6.742634e-01   9.030316e-03
  2.238087e+00    6.708663e-01   8.994074e-03
  2.240298e+00    6.727994e-01   8.993198e-03
  2.242508e+00    6.858413e-01   9.064640e-03
  2.244718e+00    6.800378e-01   9.010259e-03
  2.246929e+00    6.690267e-01   8.922596e-03
  2.249139e+00    6.596670e-01   8.847658e-03
  2.251350e+00    6.459241e-01   8.743469e-03
  2.253560e+00    6.579721e-01   8.813147e-03
  2.255771e+00    6.717758e-01   8.893656e-03
  2.257981e+00    6.548746e-01   8.769987e-03
  2.260192e+00    6.579482e-01   8.779468e-03
  2.262402e+00    6.540914e-01   8.742948e-03
  2.264613e+00    6.718720e-01   8.850053e-03
  2.266823e+00    6.843531e-01   8.921334e-03
  2.269033e+00    6.607435e-01   8.755745e-03
  2.271244e+00    6.630922e-01   8.760871e-03
  2.273454e+00    6.686870e-01   8.787456e-03
  2.275665e+00    6.650562e-01   8.753251e-03
  2.277875e+00    6.612957e-01   8.718507e-03
  2.280086e+00    6.649110e-01   8.732251e-03
  2.282296e+00    6.775896e-01   8.805568e-03
  2.284507e+00    6.700648e-01   8.746329e-03
  2.286717e+00    6.645420e-01   8.700691e-03
  2.288928e+00    6.698945e-01   8.725692e-03
  2.291138e+00    6.656148e-01   8.688301e-03
  2.293348e+00    6.532521e-01   8.597715e-03
  2.295559e+00    6.569728e-01   8.612815e-03
  2.297769e+00    6.745378e-01   8.717839e-03
  2.299980e+00    6.601370e-01   8.614883e-03
  2.302190e+00    6.519601e-01   8.552243e-03
  2.304401e+00    6.514440e-01   8.539548e-03
  2.306611e+00    6.501589e-01   8.521929e-03
  2.308822e+00    6.444280e-01   8.475947e-03
  2.311032e+00    6.475358e-01   8.489920e-03
  2.313243e+00    6.505024e-01   8.503070e-03
  2.315453e+00    6.468608e-01   8.471687e-03
  2.317663e+00    6.232359e-01   8.306594e-03
  2.319874e+00    6.377597e-01   8.394137e-03
  2.322084e+00    6.441424e-01   8.427083e-03
  2.324295e+00    6.595315e-01   8.518843e-03
  2.326505e+00    6.654448e-01   8.547754e-03
  2.328716e+00    6.628044e-01   8.522104e-03
  2.330926e+00    6.523996e-01   8.446086e-03
  2.333137e+00    6.461388e-01   8.397064e-03
  2.335347e+00    6.527099e-01   8.430702e-03
  2.337558e+00    6.479585e-01   8.391681e-03
  2.339768e+00    6.583651e-01   8.450106e-03
  2.341979e+00    6.303887e-01   8.260319e-03
  2.344189e+00    6.314133e-01   8.258663e-03
  2.346399e+00    6.327187e-01   8.258719e-03
  2.348610e+00    6.344123e-01   8.261329e-03
  2.350820e+00    6.315914e-01   8.234763e-03
  2.353031e+00    6.384719e-01   8.271198e-03
  2.355241e+00    6.250547e-01   8.175832e-03
  2.357452e+00    6.189466e-01   8.127448e-03
  2.359662e+00    6.281317e-01   8.179318e-03
  2.361873e+00    6.487599e-01   8.304200e-03
  2.364083e+00    6.254583e-01   8.145751e-03
  2.366294e+00    6.187119e-01   8.093636e-03
  2.368504e+00    6.330227e-01   8.178586e-03
  2.370714e+00    6.333437e-01   8.172560e-03
  2.372925e+00    6.312702e-01   8.151082e-03
  2.375135e+00    6.257542e-01   8.107324e-03
  2.377346e+00    6.180700e-01   8.049484e-03
  2.379556e+00    6.185794e-01   8.044926e-03
  2.381767e+00    6.169320e-01   8.026374e-03
  2.383977e+00    6.180493e-01   8.025720e-03
  2.386188e+00    6.125043e-01   7.981771e-03
  2.388398e+00    6.120275e-01   7.970736e-03
  2.390609e+00    6.211736e-01   8.022335e-03
  2.392819e+00    6.130689e-01   7.962063e-03
  2.395029e+00    6.187025e-01   7.990887e-03
  2.397240e+00    6.254162e-01   8.026188e-03
  2.399450e+00    6.186868e-01   7.975058e-03
  2.401661e+00    5.992452e-01   7.841157e-03
  2.403871e+00    6.024587e-01   7.854439e-03
  2.406082e+00    6.041387e-01   7.857983e-03
  2.408292e+00    6.142828e-01   7.915852e-03
  2.410503e+00    6.289995e-01   8.002507e-03
  2.412713e+00    6.118711e-01   7.884977e-03
  2.414924e+00    6.194540e-01   7.926104e-03
  2.417134e+00    6.132869e-01   7.878873e-03
  2.419344e+00    6.080837e-01   7.837931e-03
  2.421555e+00    6.071325e-01   7.824277e-03
  2.423765e+00    5.858073e-01   7.678312e-03
  2.425976e+00    6.068119e-01   7.806876e-03
  2.428186e+00    6.142130e-01   7.847075e-03
  2.430397e+00    5.925159e-01   7.699755e-03
  2.432607e+00    5.901638e-01   7.677217e-03
  2.434818e+00    5.908519e-01   7.674177e-03
  2.437028e+00    5.989102e-01   7.719157e-03
  2.439239e+00    5.997612e-01   7.716942e-03
  2.441449e+00    5.982059e-01   7.699697e-03
  2.443659e+00    5.860635e-01   7.613841e-03
  2.445870e+00    5.786689e-01   7.577778e-03
  2.448080e+00    5.795975e-01   7.618562e-03
  2.450291e+00    5.778760e-01   7.623859e-03
  2.452501e+00    5.711165e-01   7.590252e-03
  2.454712e+00    5.656496e-01   7.562212e-03
  2.456922e+00    5.579045e-01   7.516806e-03
  2.459133e+00    5.669994e-01   7.583236e-03
  2.461343e+00    5.736265e-01   7.631828e-03
  2.463554e+00    5.719012e-01   7.623819e-03
  2.465764e+00    5.748111e-01   7.646368e-03
  2.467975e+00    5.568492e-01   7.528238e-03
  2.470185e+00    5.653322e-01   7.587615e-03
  2.472395e+00    5.512054e-01   7.493452e-03
  2.474606e+00    5.367060e-01   7.395757e-03
  2.476816e+00    5.473782e-01   7.469655e-03
  2.479027e+00    5.584335e-01   7.545568e-03
  2.481237e+00    5.565023e-01   7.532801e-03
  2.483448e+00    5.415378e-01   7.431129e-03
  2.485658e+00    5.360148e-01   7.392997e-03
  2.487869e+00    5.338097e-01   7.377800e-03
  2.490079e+00    5.448487e-01   7.453178e-03
  2.492290e+00    5.375609e-01   7.402741e-03
  2.494500e+00    5.410126e-01   7.425719e-03
  2.496710e+00    5.420544e-01   7.432183e-03
  2.498921e+00    5.240428e-01   7.306681e-03
  2.501131e+00    5.286880e-01   7.338041e-03
  2.503342e+00    5.181475e-01   7.263281e-03
  2.505552e+00    5.364400e-01   7.389216e-03
  2.507763e+00    5.316872e-01   7.355032e-03
  2.509973e+00    5.314491e-01   7.351958e-03
  2.512184e+00    5.224127e-01   7.287594e-03
  2.514394e+00    5.297469e-01   7.329178e-03
  2.516605e+00    5.296630e-01   7.281394e-03
  2.518815e+00    5.237346e-01   7.212280e-03
  2.521025e+00    5.179963e-01   7.151827e-03
  2.523236e+00    5.346488e-01   7.247746e-03
  2.525446e+00    5.253199e-01   7.168638e-03
  2.527657e+00    5.287480e-01   7.177331e-03
  2.529867e+00    5.298432e-01   7.170523e-03
  2.532078e+00    5.328828e-01   7.175900e-03
  2.534288e+00    5.301200e-01   7.143341e-03
  2.536499e+00    5.143499e-01   7.024453e-03
  2.538709e+00    5.233200e-01   7.074443e-03
  2.540920e+00    5.264859e-01   7.085157e-03
  2.543130e+00    5.296342e-01   7.095891e-03
  2.545340e+00    5.180680e-01   7.007970e-03
  2.547551e+00    5.189714e-01   7.004173e-03
  2.549761e+00    5.200472e-01   7.001856e-03
  2.551972e+00    5.273985e-01   7.041800e-03
  2.554182e+00    4.995431e-01   6.844311e-03
  2.556393e+00    5.092075e-01   6.901193e-03
  2.558603e+00    5.198475e-01   6.963881e-03
  2.560814e+00    5.179585e-01   6.942510e-03
  2.563024e+00    5.394801e-01   7.076534e-03
  2.565235e+00    5.235842e-01   6.961968e-03
  2.567445e+00    5.212581e-01   6.936897e-03
  2.569656e+00    5.220268e-01   6.932227e-03
  2.571866e+00    5.259826e-01   6.949018e-03
  2.574076e+00    5.241106e-01   6.927298e-03
  2.576287e+00    5.311785e-01   6.965422e-03
  2.578497e+00    5.102019e-01   6.818690e-03
  2.580708e+00    5.179867e-01   6.862410e-03
  2.582918e+00    5.133067e-01   6.823585e-03
  2.585129e+00    5.186682e-01   6.851353e-03
  2.587339e+00    5.127574e-01   6.804528e-03
  2.589550e+00    5.100973e-01   6.779330e-03
  2.591760e+00    5.076472e-01   6.755322e-03
  2.593971e+00    5.166495e-01   6.807387e-03
  2.596181e+00    5.211349e-01   6.830597e-03
  2.598391e+00    5.057843e-01   6.724084e-03
  2.600602e+00    5.147923e-01   6.777752e-03
  2.602812e+00    5.127875e-01   6.756976e-03
  2.605023e+00    5.103802e-01   6.733920e-03
  2.607233e+00    5.074074e-01   6.707150e-03
  2.609444e+00    5.083577e-01   6.706188e-03
  2.611654e+00    5.042125e-01   6.671481e-03
  2.613865e+00    4.998026e-01   6.635260e-03
  2.616075e+00    5.048237e-01   6.661369e-03
  2.618286e+00    5.098855e-01   6.687656e-03
  2.620496e+00    5.053352e-01   6.651063e-03
  2.622706e+00    5.077389e-01   6.661085e-03
  2.624917e+00    5.035437e-01   6.627679e-03
  2.627127e+00    5.013754e-01   6.607673e-03
  2.629338e+00    4.996831e-01   6.590547e-03
  2.631548e+00    5.028399e-01   6.605166e-03
  2.633759e+00    5.028182e-01   6.597877e-03
  2.635969e+00    5.128957e-01   6.656898e-03
  2.638180e+00    5.087985e-01   6.623238e-03
  2.640390e+00    5.162251e-01   6.664686e-03
  2.642601e+00    4.979914e-01   6.539292e-03
  2.644811e+00    4.953475e-01   6.514855e-03
  2.647021e+00    5.009195e-01   6.544829e-03
  2.649232e+00    5.063804e-01   6.573647e-03
  2.651442e+00    5.092346e-01   6.585574e-03
  2.653653e+00    5.091752e-01   6.578324e-03
  2.655863e+00    5.136170e-01   6.600180e-03
  2.658074e+00    5.032631e-01   6.526672e-03
  2.660284e+00    4.888465e-01   6.426206e-03
  2.662495e+00    4.913146e-01   6.435688e-03
  2.664705e+00    4.944343e-01   6.449542e-03
  2.666916e+00    4.959679e-01   6.453073e-03
  2.669126e+00    5.008817e-01   6.478470e-03
  2.671337e+00    5.027850e-01   6.484149e-03
  2.673547e+00    4.841400e-01   6.356470e-03
  2.675757e+00    5.050949e-01   6.486058e-03
  2.677968e+00    4.962052e-01   6.422187e-03
  2.680178e+00    5.017562e-01   6.451569e-03
  2.682389e+00    4.875211e-01   6.353028e-03
  2.684599e+00    4.888728e-01   6.355667e-03
  2.686810e+00    4.880464e-01   6.343719e-03
  2.689020e+00    4.807393e-01   6.289831e-03
  2.691231e+00    4.815665e-01   6.289007e-03
  2.693441e+00    4.797146e-01   6.270823e-03
  2.695652e+00    4.836003e-01   6.289694e-03
  2.697862e+00    5.076213e-01   6.437547e-03
  2.700072e+00    5.003413e-01   6.385097e-03
  2.702283e+00    4.825642e-01   6.264460e-03
  2.704493e+00    4.902050e-01   6.307549e-03
  2.706704e+00    5.027800e-01   6.381433e-03
  2.708914e+00    4.980199e-01   6.345160e-03
  2.711125e+00    4.743531e-01   6.186391e-03
  2.713335e+00    4.790084e-01   6.210620e-03
  2.715546e+00    4.853583e-01   6.245203e-03
  2.717756e+00    4.819825e-01   6.217597e-03
  2.719967e+00    4.864466e-01   6.240105e-03
  2.722177e+00    4.789809e-01   6.185948e-03
  2.724387e+00    4.889419e-01   6.243814e-03
  2.726598e+00    4.929200e-01   6.263051e-03
  2.728808e+00    4.860262e-01   6.212958e-03
  2.731019e+00    4.886844e-01   6.223771e-03
  2.733229e+00    4.859723e-01   6.200656e-03
  2.735440e+00    4.892944e-01   6.215524e-03
  2.737650e+00    4.785742e-01   6.141062e-03
  2.739861e+00    4.861793e-01   6.183573e-03
  2.742071e+00    4.914153e-01   6.210994e-03
  2.744282e+00    4.970642e-01   6.240248e-03
  2.746492e+00    4.884120e-01   6.179639e-03
  2.748702e+00    4.769969e-01   6.101110e-03
  2.750913e+00    4.910246e-01   6.184332e-03
  2.753123e+00    4.744177e-01   6.072779e-03
  2.755334e+00    4.764526e-01   6.079731e-03
  2.757544e+00    4.814174e-01   6.105594e-03
  2.759755e+00    4.809110e-01   6.096491e-03
  2.761965e+00    4.867460e-01   6.127338e-03
  2.764176e+00    4.891797e-01   6.136596e-03
  2.766386e+00    4.911827e-01   6.143286e-03
  2.768597e+00    4.834538e-01   6.088885e-03
  2.770807e+00    4.756882e-01   6.033920e-03
  2.773017e+00    4.748270e-01   6.022520e-03
  2.775228e+00    4.830174e-01   6.068403e-03
  2.777438e+00    4.902839e-01   6.108044e-03
  2.779649e+00    4.714484e-01   5.983694e-03
  2.781859e+00    4.660941e-01   5.943921e-03
  2.784070e+00    4.785728e-01   6.017092e-03
  2.786280e+00    4.813178e-01   6.028545e-03
  2.788491e+00    4.757539e-01   5.987763e-03
  2.790701e+00    4.842050e-01   6.035002e-03
  2.792912e+00    4.906896e-01   6.069263e-03
  2.795122e+00    4.739124e-01   5.958862e-03
  2.797333e+00    4.777380e-01   5.977294e-03
  2.799543e+00    4.749959e-01   5.954258e-03
  2.801753e+00    4.684562e-01   5.907319e-03
  2.803964e+00    4.723547e-01   5.926192e-03
  2.806174e+00    4.662315e-01   5.881578e-03
  2.808385e+00    4.660055e-01   5.873397e-03
  2.810595e+00    4.853293e-01   5.987017e-03
  2.812806e+00    4.885271e-01   6.000000e-03
  2.815016e+00    4.795970e-01   5.940126e-03
  2.817227e+00    4.830309e-01   5.987533e-03
  2.819437e+00    4.737853e-01   5.941045e-03
  2.821648e+00    4.802438e-01   5.983685e-03
  2.823858e+00    4.849196e-01   6.018168e-03
  2.826068e+00    4.834497e-01   6.014056e-03
  2.828279e+00    4.756214e-01   5.969233e-03
  2.830489e+00    4.748025e-01   5.967430e-03
  2.832700e+00    4.713046e-01   5.947968e-03
  2.834910e+00    4.697772e-01   5.940379e-03
  2.837121e+00    4.788977e-01   5.999478e-03
  2.839331e+00    4.783581e-01   5.997370e-03
  2.841542e+00    4.708696e-01   5.951231e-03
  2.843752e+00    4.712574e-01   5.954467e-03
  2.845963e+00    4.748450e-01   5.977503e-03
  2.848173e+00    4.663955e-01   5.924162e-03
  2.850383e+00    4.646682e-01   5.913472e-03
  2.852594e+00    4.753869e-01   5.981193e-03
  2.854804e+00    4.685722e-01   5.937694e-03
  2.857015e+00    4.666334e-01   5.924944e-03
  2.859225e+00    4.668832e-01   5.926287e-03
  2.861436e+00    4.602984e-01   5.883687e-03
  2.863646e+00    4.758008e-01   5.981987e-03
  2.865857e+00    4.629809e-01   5.901202e-03
  2.868067e+00    4.616205e-01   5.892728e-03
  2.870278e+00    4.620588e-01   5.895180e-03
  2.872488e+00    4.615651e-01   5.890873e-03
  2.874698e+00    4.674748e-01   5.927413e-03
  2.876909e+00    4.661813e-01   5.917881e-03
  2.879119e+00    4.674250e-01   5.924124e-03
  2.881330e+00    4.653354e-01   5.909417e-03
  2.883540e+00    4.632735e-01   5.894906e-03
  2.885751e+00    4.602607e-01   5.874064e-03
  2.887961e+00    4.532702e-01   5.827434e-03
  2.890172e+00    4.552991e-01   5.838845e-03
  2.892382e+00    4.611579e-01   5.874494e-03
  2.894593e+00    4.619666e-01   5.877834e-03
  2.896803e+00    4.626762e-01   5.880357e-03
  2.899014e+00    4.662715e-01   5.901234e-03
  2.901224e+00    4.593358e-01   5.855188e-03
  2.903434e+00    4.780954e-01   5.971576e-03
  2.905645e+00    4.599703e-01   5.855070e-03
  2.907855e+00    4.493914e-01   5.785266e-03
  2.910066e+00    4.592048e-01   5.846014e-03
  2.912276e+00    4.570354e-01   5.830077e-03
  2.914487e+00    4.523160e-01   5.797443e-03
  2.916697e+00    4.629292e-01   5.862843e-03
  2.918908e+00    4.666176e-01   5.884131e-03
  2.921118e+00    4.609408e-01   5.845516e-03
  2.923329e+00    4.637541e-01   5.861007e-03
  2.925539e+00    4.542300e-01   5.798236e-03
  2.927749e+00    4.572835e-01   5.815388e-03
  2.929960e+00    4.495789e-01   5.763420e-03
  2.932170e+00    4.511209e-01   5.770991e-03
  2.934381e+00    4.642318e-01   5.851777e-03
  2.936591e+00    4.709875e-01   5.891596e-03
  2.938802e+00    4.635619e-01   5.842241e-03
  2.941012e+00    4.621257e-01   5.830825e-03
  2.943223e+00    4.609705e-01   5.820830e-03
  2.945433e+00    4.569970e-01   5.791935e-03
  2.947644e+00    4.628610e-01   5.824805e-03
  2.949854e+00    4.618737e-01   5.814306e-03
  2.952064e+00    4.535433e-01   5.757408e-03
  2.954275e+00    4.463618e-01   5.707283e-03
  2.956485e+00    4.552548e-01   5.759659e-03
  2.958696e+00    4.566448e-01   5.764066e-03
  2.960906e+00    4.606124e-01   5.784846e-03
  2.963117e+00    4.524822e-01   5.729095e-03
  2.965327e+00    4.545768e-01   5.738424e-03
  2.967538e+00    4.483740e-01   5.696271e-03
  2.969748e+00    4.487140e-01   5.695616e-03
  2.971959e+00    4.577264e-01   5.749365e-03
  2.974169e+00    4.583755e-01   5.750867e-03
  2.976379e+00    4.674773e-01   5.804706e-03
  2.978590e+00    4.636045e-01   5.777460e-03
  2.980800e+00    4.594017e-01   5.748392e-03
  2.983011e+00    4.599907e-01   5.749268e-03
  2.985221e+00    4.513783e-01   5.692038e-03
  2.987432e+00    4.566695e-01   5.722185e-03
  2.989642e+00    4.660755e-01   5.778148e-03
  2.991853e+00    4.653953e-01   5.770629e-03
  2.994063e+00    4.492552e-01   5.666783e-03
  2.996274e+00    4.415499e-01   5.614824e-03
  2.998484e+00    4.697403e-01   5.788534e-03
  3.000694e+00    4.616866e-01   5.735239e-03
  3.002905e+00    4.566826e-01   5.701116e-03
  3.005115e+00    4.531151e-01   5.675822e-03
  3.007326e+00    4.562954e-01   5.692538e-03
  3.009536e+00    4.604491e-01   5.715106e-03
  3.011747e+00    4.624007e-01   5.724284e-03
  3.013957e+00    4.632919e-01   5.726559e-03
  3.016168e+00    4.715632e-01   5.774129e-03
  3.018378e+00    4.647896e-01   5.729449e-03
  3.020589e+00    4.523218e-01   5.648854e-03
  3.022799e+00    4.441575e-01   5.594511e-03
  3.025010e+00    4.554358e-01   5.661845e-03
  3.027220e+00    4.561264e-01   5.663005e-03
  3.029430e+00    4.521397e-01   5.634978e-03
  3.031641e+00    4.450211e-01   5.587306e-03
  3.033851e+00    4.495045e-01   5.611894e-03
  3.036062e+00    4.492548e-01   5.607551e-03
  3.038272e+00    4.588115e-01   5.663270e-03
  3.040483e+00    4.510375e-01   5.611877e-03
  3.042693e+00    4.398351e-01   5.538516e-03
  3.044904e+00    4.563233e-01   5.637322e-03
  3.047114e+00    4.466976e-01   5.572789e-03
  3.049325e+00    4.515259e-01   5.598396e-03
  3.051535e+00    4.577781e-01   5.632615e-03
  3.053745e+00    4.479397e-01   5.567022e-03
  3.055956e+00    4.506768e-01   5.579432e-03
  3.058166e+00    4.621642e-01   5.645752e-03
  3.060377e+00    4.623905e-01   5.642330e-03
  3.062587e+00    4.487712e-01   5.553988e-03
  3.064798e+00    4.480532e-01   5.545283e-03
  3.067008e+00    4.570888e-01   5.596158e-03
  3.069219e+00    4.521121e-01   5.561091e-03
  3.071429e+00    4.433194e-01   5.503254e-03
  3.073640e+00    4.476072e-01   5.526486e-03
  3.075850e+00    4.556645e-01   5.572382e-03
  3.078060e+00    4.491983e-01   5.529624e-03
  3.080271e+00    4.438441e-01   5.493088e-03
  3.082481e+00    4.521722e-01   5.540932e-03
  3.084692e+00    4.506495e-01   5.528214e-03
  3.086902e+00    4.481816e-01   5.509816e-03
  3.089113e+00    4.485268e-01   5.508350e-03
  3.091323e+00    4.391643e-01   5.447228e-03
  3.093534e+00    4.483791e-01   5.500688e-03
  3.095744e+00    4.565296e-01   5.547060e-03
  3.097955e+00    4.431254e-01   5.461504e-03
  3.100165e+00    4.421744e-01   5.452305e-03
  3.102375e+00    4.474860e-01   5.481545e-03
  3.104586e+00    4.527105e-01   5.509923e-03
  3.106796e+00    4.603108e-01   5.552419e-03
  3.109007e+00    4.569705e-01   5.528981e-03
  3.111217e+00    4.370620e-01   5.403551e-03
  3.113428e+00    4.394550e-01   5.414929e-03
  3.115638e+00    4.380217e-01   5.402881e-03
  3.117849e+00    4.357762e-01   5.385324e-03
  3.120059e+00    4.461164e-01   5.445387e-03
  3.122270e+00    4.458073e-01   5.440227e-03
  3.124480e+00    4.444797e-01   5.428447e-03
  3.126691e+00    4.415095e-01   5.406725e-03
  3.128901e+00    4.460777e-01   5.431492e-03
  3.131111e+00    4.461031e-01   5.427812e-03
  3.133322e+00    4.418707e-01   5.398559e-03
  3.135532e+00    4.500994e-01   5.445157e-03
  3.137743e+00    4.447290e-01   5.409101e-03
  3.139953e+00    4.489735e-01   5.431165e-03
  3.142164e+00    4.379530e-01   5.376016e-03
  3.144374e+00    4.551387e-01   5.509301e-03
  3.146585e+00    4.540432e-01   5.517425e-03
  3.148795e+00    4.481775e-01   5.492515e-03
  3.151006e+00    4.452764e-01   5.483284e-03
  3.153216e+00    4.618019e-01   5.591406e-03
  3.155426e+00    4.521408e-01   5.539000e-03
  3.157637e+00    4.479187e-01   5.518646e-03
  3.159847e+00    4.469564e-01   5.517644e-03
  3.162058e+00    4.344383e-01   5.444198e-03
  3.164268e+00    4.282133e-01   5.409090e-03
  3.166479e+00    4.470634e-01   5.530501e-03
  3.168689e+00    4.542403e-01   5.578187e-03
  3.170900e+00    4.496858e-01   5.553322e-03
  3.173110e+00    4.428829e-01   5.514088e-03
  3.175321e+00    4.361543e-01   5.474488e-03
  3.177531e+00    4.395794e-01   5.498705e-03
  3.179741e+00    4.389103e-01   5.496582e-03
  3.181952e+00    4.317015e-01   5.453356e-03
  3.184162e+00    4.415878e-01   5.517653e-03
  3.186373e+00    4.400873e-01   5.509873e-03
  3.188583e+00    4.281303e-01   5.436275e-03
  3.190794e+00    4.393286e-01   5.508670e-03
  3.193004e+00    4.362837e-01   5.490798e-03
  3.195215e+00    4.349309e-01   5.483774e-03
  3.197425e+00    4.353626e-01   5.487695e-03
  3.199636e+00    4.386114e-01   5.507372e-03
  3.201846e+00    4.413319e-01   5.523826e-03
  3.204056e+00    4.344034e-01   5.481165e-03
  3.206267e+00    4.390093e-01   5.511010e-03
  3.208477e+00    4.276635e-01   5.440249e-03
  3.210688e+00    4.322678e-01   5.470293e-03
  3.212898e+00    4.375167e-01   5.503975e-03
  3.215109e+00    4.413904e-01   5.529067e-03
  3.217319e+00    4.342611e-01   5.484864e-03
  3.219530e+00    4.338940e-01   5.482933e-03
  3.221740e+00    4.414710e-01   5.531175e-03
  3.223951e+00    4.266095e-01   5.437741e-03
  3.226161e+00    4.305603e-01   5.463061e-03
  3.228372e+00    4.333451e-01   5.481213e-03
  3.230582e+00    4.361652e-01   5.499175e-03
  3.232792e+00    4.418401e-01   5.535052e-03
  3.235003e+00    4.403512e-01   5.525974e-03
  3.237213e+00    4.395818e-01   5.521239e-03
  3.239424e+00    4.254088e-01   5.431521e-03
  3.241634e+00    4.280679e-01   5.448577e-03
  3.243845e+00    4.187599e-01   5.389094e-03
  3.246055e+00    4.224069e-01   5.412221e-03
  3.248266e+00    4.235092e-01   5.419492e-03
  3.250476e+00    4.206187e-01   5.400663e-03
  3.252687e+00    4.302100e-01   5.461807e-03
  3.254897e+00    4.244036e-01   5.424708e-03
  3.257107e+00    4.226308e-01   5.413058e-03
  3.259318e+00    4.229463e-01   5.414848e-03
  3.261528e+00    4.240440e-01   5.421713e-03
  3.263739e+00    4.405201e-01   5.525483e-03
  3.265949e+00    4.288103e-01   5.451437e-03
  3.268160e+00    4.231532e-01   5.414929e-03
  3.270370e+00    4.320641e-01   5.471141e-03
  3.272581e+00    4.229704e-01   5.412972e-03
  3.274791e+00    4.355947e-01   5.492634e-03
  3.277002e+00    4.146110e-01   5.358143e-03
  3.279212e+00    4.353572e-01   5.490172e-03
  3.281422e+00    4.281728e-01   5.444120e-03
  3.283633e+00    4.335179e-01   5.477294e-03
  3.285843e+00    4.251275e-01   5.423706e-03
  3.288054e+00    4.176129e-01   5.374616e-03
  3.290264e+00    4.399997e-01   5.516464e-03
  3.292475e+00    4.391247e-01   5.510147e-03
  3.294685e+00    4.246583e-01   5.417974e-03
  3.296896e+00    4.464401e-01   5.554408e-03
  3.299106e+00    4.270869e-01   5.432153e-03
  3.301317e+00    4.300064e-01   5.449629e-03
  3.303527e+00    4.276081e-01   5.433959e-03
  3.305737e+00    4.163451e-01   5.360856e-03
  3.307948e+00    4.461435e-01   5.548706e-03
  3.310158e+00    4.298962e-01   5.445889e-03
  3.312369e+00    4.236621e-01   5.405367e-03
  3.314579e+00    4.287444e-01   5.436768e-03
  3.316790e+00    4.212596e-01   5.388405e-03
  3.319000e+00    4.364149e-01   5.483274e-03
  3.321211e+00    4.147003e-01   5.344509e-03
  3.323421e+00    4.392253e-01   5.499033e-03
  3.325632e+00    4.297097e-01   5.438288e-03
  3.327842e+00    4.155881e-01   5.347239e-03
  3.330052e+00    4.216798e-01   5.385224e-03
  3.332263e+00    4.243516e-01   5.401238e-03
  3.334473e+00    4.239716e-01   5.397917e-03
  3.336684e+00    4.180873e-01   5.359054e-03
  3.338894e+00    4.196527e-01   5.368241e-03
  3.341105e+00    4.318012e-01   5.444151e-03
  3.343315e+00    4.340358e-01   5.457093e-03
  3.345526e+00    4.169948e-01   5.347977e-03
  3.347736e+00    4.165646e-01   5.343833e-03
  3.349947e+00    4.265932e-01   5.406795e-03
  3.352157e+00    4.140767e-01   5.325757e-03
  3.354368e+00    4.203493e-01   5.364632e-03
  3.356578e+00    4.263902e-01   5.402020e-03
  3.358788e+00    4.252758e-01   5.393617e-03
  3.360999e+00    4.102516e-01   5.296256e-03
  3.363209e+00    4.322920e-01   5.435613e-03
  3.365420e+00    4.308047e-01   5.424735e-03
  3.367630e+00    4.312056e-01   5.426210e-03
  3.369841e+00    4.243872e-01   5.381713e-03
  3.372051e+00    4.197926e-01   5.350519e-03
  3.374262e+00    4.118403e-01   5.297159e-03
  3.376472e+00    4.069921e-01   5.263488e-03
  3.378683e+00    4.115306e-01   5.290241e-03
  3.380893e+00    4.111828e-01   5.285691e-03
  3.383103e+00    4.257703e-01   5.375873e-03
  3.385314e+00    4.270106e-01   5.381488e-03
  3.387524e+00    4.188826e-01   5.327236e-03
  3.389735e+00    4.052524e-01   5.237283e-03
  3.391945e+00    4.062935e-01   5.240319e-03
  3.394156e+00    4.287063e-01   5.378635e-03
  3.396366e+00    4.149171e-01   5.288016e-03
  3.398577e+00    4.093381e-01   5.249312e-03
  3.400787e+00    4.044685e-01   5.229801e-03
  3.402998e+00    4.014760e-01   5.248077e-03
  3.405208e+00    4.189613e-01   5.382155e-03
  3.407418e+00    4.055886e-01   5.311434e-03
  3.409629e+00    4.036669e-01   5.312841e-03
  3.411839e+00    3.932981e-01   5.255865e-03
  3.414050e+00    3.840306e-01   5.204367e-03
  3.416260e+00    3.989708e-01   5.314315e-03
  3.418471e+00    3.947502e-01   5.295608e-03
  3.420681e+00    3.814820e-01   5.214184e-03
  3.422892e+00    3.900162e-01   5.280199e-03
  3.425102e+00    3.988000e-01   5.347222e-03
  3.427313e+00    3.894999e-01   5.291711e-03
  3.429523e+00    3.963133e-01   5.344939e-03
  3.431733e+00    3.829240e-01   5.260527e-03
  3.433944e+00    3.938697e-01   5.341706e-03
  3.436154e+00    3.839176e-01   5.280065e-03
  3.438365e+00    3.829495e-01   5.279342e-03
  3.440575e+00    3.809322e-01   5.271344e-03
  3.442786e+00    3.977620e-01   5.392256e-03
  3.444996e+00    3.805511e-01   5.279878e-03
  3.447207e+00    3.488102e-01   5.059985e-03
  3.449417e+00    3.706537e-01   5.256757e-03
  3.451628e+00    3.650879e-01   5.246433e-03
  3.453838e+00    3.733033e-01   5.326469e-03
  3.456049e+00    3.653425e-01   5.293201e-03
  3.458259e+00    3.726328e-01   5.367898e-03
  3.460469e+00    3.678084e-01   5.352822e-03
  3.462680e+00    3.852782e-01   5.498052e-03
  3.464890e+00    3.881607e-01   5.536888e-03
  3.467101e+00    3.788790e-01   5.488008e-03
  3.469311e+00    3.958891e-01   5.626966e-03
  3.471522e+00    3.920055e-01   5.616094e-03
  3.473732e+00    4.055707e-01   5.728906e-03
  3.475943e+00    3.890356e-01   5.626767e-03
  3.478153e+00    4.117147e-01   5.804337e-03
  3.480364e+00    4.162849e-01   5.852061e-03
  3.482574e+00    4.150893e-01   5.859205e-03
  3.484784e+00    4.304906e-01   5.982128e-03
  3.486995e+00    4.348668e-01   6.027909e-03
  3.489205e+00    4.373389e-01   6.059936e-03
  3.491416e+00    4.498244e-01   6.161099e-03
  3.493626e+00    4.515724e-01   6.187979e-03
  3.495837e+00    4.428964e-01   6.143019e-03
  3.498047e+00    4.395717e-01   6.134319e-03
  3.500258e+00    4.685750e-01   6.348286e-03
  3.502468e+00    4.796322e-01   6.437612e-03
  3.504679e+00    4.718750e-01   6.399981e-03
  3.506889e+00    4.785611e-01   6.459810e-03
  3.509099e+00    4.593224e-01   6.342818e-03
  3.511310e+00    4.712400e-01   6.438934e-03
  3.513520e+00    4.907091e-01   6.585153e-03
  3.515731e+00    5.159935e-01   6.767481e-03
  3.517941e+00    5.004777e-01   6.679518e-03
  3.520152e+00    4.946751e-01   6.654950e-03
  3.522362e+00    5.151747e-01   6.806151e-03
  3.524573e+00    5.143882e-01   6.815366e-03
  3.526783e+00    5.116208e-01   6.810351e-03
  3.528994e+00    5.206520e-01   6.882489e-03
  3.531204e+00    5.224905e-01   6.907104e-03
  3.533414e+00    5.170062e-01   6.882736e-03
  3.535625e+00    5.317761e-01   6.992775e-03
  3.537835e+00    5.284501e-01   6.982923e-03
  3.540046e+00    5.555046e-01   7.168540e-03
  3.542256e+00    5.448369e-01   7.107005e-03
  3.544467e+00    5.491956e-01   7.143084e-03
  3.546677e+00    5.382279e-01   7.078977e-03
  3.548888e+00    5.465980e-01   7.141370e-03
  3.551098e+00    5.424498e-01   7.121574e-03
  3.553309e+00    5.494881e-01   7.175871e-03
  3.555519e+00    5.520083e-01   7.203794e-03
  3.557729e+00    5.245636e-01   7.034051e-03
  3.559940e+00    5.236974e-01   7.039581e-03
  3.562150e+00    5.533636e-01   7.248186e-03
  3.564361e+00    5.365862e-01   7.150764e-03
  3.566571e+00    5.291512e-01   7.114797e-03
  3.568782e+00    5.400223e-01   7.201670e-03
  3.570992e+00    5.452569e-01   7.250362e-03
  3.573203e+00    5.286633e-01   7.153262e-03
  3.575413e+00    5.337975e-01   7.201633e-03
  3.577624e+00    5.509326e-01   7.330621e-03
  3.579834e+00    5.615249e-01   7.414969e-03
  3.582045e+00    5.592960e-01   7.414594e-03
  3.584255e+00    5.335670e-01   7.256059e-03
  3.586465e+00    5.430571e-01   7.334312e-03
  3.588676e+00    5.493446e-01   7.391030e-03
  3.590886e+00    5.441617e-01   7.369877e-03
  3.593097e+00    5.528925e-01   7.443493e-03
  3.595307e+00    5.532054e-01   7.459760e-03
  3.597518e+00    5.384760e-01   7.374056e-03
  3.599728e+00    5.414518e-01   7.408557e-03
  3.601939e+00    5.521743e-01   7.495833e-03
  3.604149e+00    5.626957e-01   7.581673e-03
  3.606360e+00    5.450378e-01   7.476054e-03
  3.608570e+00    5.591630e-01   7.586787e-03
  3.610780e+00    5.341457e-01   7.426164e-03
  3.612991e+00    5.544237e-01   7.575993e-03
  3.615201e+00    5.424330e-01   7.503515e-03
  3.617412e+00    5.498449e-01   7.561959e-03
  3.619622e+00    5.369613e-01   7.478823e-03
  3.621833e+00    5.367467e-01   7.484042e-03
  3.624043e+00    5.505655e-01   7.589430e-03
  3.626254e+00    5.414905e-01   7.536365e-03
  3.628464e+00    5.495572e-01   7.603467e-03
  3.630675e+00    5.409196e-01   7.557660e-03
  3.632885e+00    5.374756e-01   7.548057e-03
  3.635095e+00    5.476719e-01   7.633903e-03
  3.637306e+00    5.435913e-01   7.619930e-03
  3.639516e+00    5.345398e-01   7.570752e-03
  3.641727e+00    5.278572e-01   7.537787e-03
  3.643937e+00    5.278474e-01   7.552198e-03
  3.646148e+00    5.404359e-01   7.656380e-03
  3.648358e+00    5.554487e-01   7.777214e-03
  3.650569e+00    5.432150e-01   7.705961e-03
  3.652779e+00    5.374690e-01   7.679936e-03
  3.654990e+00    5.337242e-01   7.668030e-03
  3.657200e+00    5.258868e-01   7.626328e-03
  3.659410e+00    5.481647e-01   7.801370e-03
  3.661621e+00    5.442523e-01   7.788791e-03
  3.663831e+00    5.269548e-01   7.679040e-03
  3.666042e+00    5.403211e-01   7.791100e-03
  3.668252e+00    5.366795e-01   7.780137e-03
  3.670463e+00    5.361910e-01   7.791893e-03
  3.672673e+00    5.237888e-01   7.716581e-03
  3.674884e+00    5.348345e-01   7.812955e-03
  3.677094e+00    5.260881e-01   7.764311e-03
  3.679305e+00    5.219458e-01   7.749051e-03
  3.681515e+00    5.280417e-01   7.809788e-03
  3.683726e+00    5.076850e-01   7.673222e-03
  3.685936e+00    5.416802e-01   7.941853e-03
  3.688146e+00    5.291861e-01   7.865554e-03
  3.690357e+00    5.151232e-01   7.776085e-03
  3.692567e+00    5.272343e-01   7.883079e-03
  3.694778e+00    5.250903e-01   7.883068e-03
  3.696988e+00    5.194777e-01   7.856707e-03
  3.699199e+00    5.217502e-01   7.890051e-03
  3.701409e+00    5.275664e-01   7.950301e-03
  3.703620e+00    5.338697e-01   8.014141e-03
  3.705830e+00    5.416657e-01   8.089092e-03
  3.708041e+00    5.282224e-01   8.004747e-03
  3.710251e+00    5.310731e-01   8.043154e-03
  3.712461e+00    5.222975e-01   7.993153e-03
  3.714672e+00    5.264607e-01   8.041735e-03
  3.716882e+00    5.306015e-01   8.090202e-03
  3.719093e+00    5.081199e-01   7.933888e-03
  3.721303e+00    5.194548e-01   8.038803e-03
  3.723514e+00    5.300975e-01   8.138198e-03
  3.725724e+00    5.320339e-01   8.170456e-03
  3.727935e+00    5.157982e-01   8.062241e-03
  3.730145e+00    5.249262e-01   8.150704e-03
  3.732356e+00    5.186621e-01   8.119551e-03
  3.734566e+00    5.118334e-01   8.083364e-03
  3.736776e+00    5.048221e-01   8.045387e-03
  3.738987e+00    5.005801e-01   8.029036e-03
  3.741197e+00    5.245124e-01   8.236926e-03
  3.743408e+00    5.188645e-01   8.210597e-03
  3.745618e+00    5.191669e-01   8.231400e-03
  3.747829e+00    5.029680e-01   8.119946e-03
  3.750039e+00    4.937707e-01   8.063374e-03
  3.752250e+00    5.104011e-01   8.216520e-03
  3.754460e+00    4.980723e-01   8.135018e-03
  3.756671e+00    4.998640e-01   8.168203e-03
  3.758881e+00    5.108417e-01   8.276176e-03
  3.761091e+00    4.948489e-01   8.164410e-03
  3.763302e+00    5.100591e-01   8.308066e-03
  3.765512e+00    5.024894e-01   8.265351e-03
  3.767723e+00    5.172728e-01   8.405564e-03
  3.769933e+00    5.303341e-01   8.530840e-03
  3.772144e+00    5.296718e-01   8.545524e-03
  3.774354e+00    5.118253e-01   8.420294e-03
  3.776565e+00    5.149785e-01   8.466285e-03
  3.778775e+00    5.194459e-01   8.523111e-03
  3.780986e+00    5.159581e-01   8.515038e-03
  3.783196e+00    5.021636e-01   8.420619e-03
  3.785407e+00    5.166764e-01   8.562176e-03
  3.787617e+00    4.872922e-01   8.335542e-03
  3.789827e+00    5.049880e-01   8.506126e-03
  3.792038e+00    5.215939e-01   8.666115e-03
  3.794248e+00    4.876225e-01   8.400021e-03
  3.796459e+00    5.006099e-01   8.532475e-03
  3.798669e+00    5.050856e-01   8.591978e-03
  3.800880e+00    5.094897e-01   8.651036e-03
  3.803090e+00    4.956796e-01   8.554667e-03
  3.805301e+00    5.126265e-01   8.722063e-03
  3.807511e+00    5.086417e-01   8.710305e-03
  3.809722e+00    4.950025e-01   8.614855e-03
  3.811932e+00    4.852725e-01   8.551650e-03
  3.814142e+00    5.278037e-01   8.942042e-03
  3.816353e+00    5.056872e-01   8.775710e-03
  3.818563e+00    4.976982e-01   8.729206e-03
  3.820774e+00    4.873024e-01   8.660413e-03
  3.822984e+00    4.953983e-01   8.755395e-03
  3.825195e+00    5.000030e-01   8.819779e-03
  3.827405e+00    4.871562e-01   8.729343e-03
  3.829616e+00    5.029287e-01   8.893743e-03
  3.831826e+00    4.932410e-01   8.831714e-03
  3.834037e+00    4.978166e-01   8.897142e-03
  3.836247e+00    4.951752e-01   8.898146e-03
  3.838457e+00    4.845009e-01   8.826427e-03
  3.840668e+00    5.183953e-01   9.155652e-03
  3.842878e+00    5.123961e-01   9.128537e-03
  3.845089e+00    4.940851e-01   8.989434e-03
  3.847299e+00    4.974273e-01   9.045597e-03
  3.849510e+00    5.158033e-01   9.237619e-03
  3.851720e+00    5.131184e-01   9.235287e-03
  3.853931e+00    5.089604e-01   9.217117e-03
  3.856141e+00    5.046108e-01   9.196840e-03
  3.858352e+00    4.750459e-01   8.942167e-03
  3.860562e+00    4.865653e-01   9.069148e-03
  3.862772e+00    4.905888e-01   9.126055e-03
  3.864983e+00    5.028836e-01   9.259566e-03
  3.867193e+00    4.951502e-01   9.207904e-03
  3.869404e+00    5.015995e-01   9.287655e-03
  3.871614e+00    4.952164e-01   9.248388e-03
  3.873825e+00    5.169281e-01   9.469741e-03
  3.876035e+00    5.113299e-01   9.439282e-03
  3.878246e+00    5.207158e-01   9.551969e-03
  3.880456e+00    5.183811e-01   9.560414e-03
  3.882667e+00    5.044457e-01   9.460617e-03
  3.884877e+00    5.063317e-01   9.508509e-03
  3.887087e+00    4.968172e-01   9.448837e-03
  3.889298e+00    5.099773e-01   9.604115e-03
  3.891508e+00    5.136809e-01   9.670166e-03
  3.893719e+00    5.027516e-01   9.598035e-03
  3.895929e+00    5.347667e-01   9.931825e-03
  3.898140e+00    5.112159e-01   9.743023e-03
  3.900350e+00    4.888677e-01   9.559702e-03
  3.902561e+00    4.888835e-01   9.592208e-03
  3.904771e+00    5.230228e-01   9.955392e-03
  3.906982e+00    4.912671e-01   9.681622e-03
  3.909192e+00    5.165935e-01   9.962437e-03
  3.911403e+00    5.176249e-01   1.000744e-02
  3.913613e+00    4.807034e-01   9.677917e-03
  3.915823e+00    4.865135e-01   9.770878e-03
  3.918034e+00    4.959572e-01   9.900889e-03
  3.920244e+00    4.981246e-01   9.958490e-03
  3.922455e+00    4.839782e-01   9.852073e-03
  3.924665e+00    4.944794e-01   9.994999e-03
  3.926876e+00    5.071105e-01   1.015971e-02
  3.929086e+00    5.043839e-01   1.017031e-02
  3.931297e+00    4.953651e-01   1.011412e-02
  3.933507e+00    4.947446e-01   1.013692e-02
  3.935718e+00    4.943368e-01   1.016169e-02
  3.937928e+00    4.983415e-01   1.023252e-02
  3.940138e+00    4.822462e-01   1.009510e-02
  3.942349e+00    5.050632e-01   1.036159e-02
  3.944559e+00    5.155372e-01   1.049935e-02
  3.946770e+00    5.080405e-01   1.045350e-02
  3.948980e+00    4.939243e-01   1.033828e-02
  3.951191e+00    4.920780e-01   1.034988e-02
  3.953401e+00    4.946337e-01   1.040847e-02
  3.955612e+00    4.737087e-01   1.021706e-02
  3.957822e+00    4.814602e-01   1.033191e-02
  3.960033e+00    4.886360e-01   1.044128e-02
  3.962243e+00    4.969715e-01   1.056323e-02
  3.964453e+00    4.798526e-01   1.041256e-02
  3.966664e+00    4.837955e-01   1.048859e-02
  3.968874e+00    5.138460e-01   1.083863e-02
  3.971085e+00    5.109902e-01   1.083097e-02
  3.973295e+00    5.196709e-01   1.094482e-02
  3.975506e+00    4.920985e-01   1.067228e-02
  3.977716e+00    4.603252e-01   1.034344e-02
  3.979927e+00    4.956858e-01   1.075558e-02
  3.982137e+00    5.117842e-01   1.095189e-02
  3.984348e+00    4.935260e-01   1.077745e-02
  3.986558e+00    4.895639e-01   1.075655e-02
  3.988768e+00    4.892091e-01   1.077567e-02
  3.990979e+00    5.091679e-01   1.101665e-02
  3.993189e+00    5.084404e-01   1.103242e-02
  3.995400e+00    5.013906e-01   1.097959e-02
  3.997610e+00    5.158032e-01   1.116694e-02
  3.999821e+00    5.448083e-01   1.151650e-02
  4.002031e+00    4.981195e-01   1.105094e-02
  4.004242e+00    4.890727e-01   1.098866e-02
  4.006452e+00    5.052946e-01   1.120967e-02
  4.008663e+00    5.083039e-01   1.128398e-02
  4.010873e+00    4.761878e-01   1.096134e-02
  4.013084e+00    4.856044e-01   1.111011e-02
  4.015294e+00    4.884227e-01   1.118347e-02
  4.017504e+00    4.952085e-01   1.130326e-02
  4.019715e+00    4.757954e-01   1.112152e-02
  4.021925e+00    4.938639e-01   1.137417e-02
  4.024136e+00    4.846265e-01   1.131113e-02
  4.026346e+00    4.714366e-01   1.119957e-02
  4.028557e+00    4.927004e-01   1.149405e-02
  4.030767e+00    4.862224e-01   1.146414e-02
  4.032978e+00    4.587235e-01   1.118029e-02
  4.035188e+00    4.475456e-01   1.108754e-02
  4.037399e+00    4.837345e-01   1.157481e-02
  4.039609e+00    4.646406e-01   1.139082e-02
  4.041819e+00    5.089776e-01   1.197192e-02
  4.044030e+00    5.165787e-01   1.211262e-02
  4.046240e+00    4.775443e-01   1.169559e-02
  4.048451e+00    4.700091e-01   1.165322e-02
  4.050661e+00    4.822185e-01   1.185488e-02
  4.052872e+00    5.132254e-01   1.228451e-02
  4.055082e+00    4.976220e-01   1.215077e-02
  4.057293e+00    4.813570e-01   1.200421e-02
  4.059503e+00    4.806415e-01   1.204971e-02
  4.061714e+00    4.540193e-01   1.176625e-02
  4.063924e+00    4.656398e-01   1.197146e-02
  4.066134e+00    4.400438e-01   1.169262e-02
  4.068345e+00    4.665437e-01   1.209755e-02
  4.070555e+00    4.973235e-01   1.255052e-02
  4.072766e+00    4.683879e-01   1.223991e-02
  4.074976e+00    4.891563e-01   1.257072e-02
  4.077187e+00    4.980424e-01   1.274736e-02
  4.079397e+00    4.878174e-01   1.268035e-02
  4.081608e+00    4.538223e-01   1.229414e-02
  4.083818e+00    5.166906e-01   1.318616e-02
  4.086029e+00    4.762854e-01   1.272721e-02
  4.088239e+00    4.714007e-01   1.272959e-02
  4.090449e+00    4.849631e-01   1.298162e-02
  4.092660e+00    4.779963e-01   1.295882e-02
  4.094870e+00    4.574686e-01   1.274813e-02
  4.097081e+00    4.570207e-01   1.281147e-02
  4.099291e+00    5.137485e-01   1.363978e-02
  4.101502e+00    4.668179e-01   1.305026e-02
  4.103712e+00    5.441643e-01   1.414249e-02
  4.105923e+00    4.945937e-01   1.353534e-02
  4.108133e+00    4.690381e-01   1.323168e-02
  4.110344e+00    4.942102e-01   1.363399e-02
  4.112554e+00    4.986011e-01   1.374860e-02
  4.114764e+00    4.819608e-01   1.357155e-02
  4.116975e+00    5.016952e-01   1.390124e-02
  4.119185e+00    4.322052e-01   1.295502e-02
  4.121396e+00    4.539556e-01   1.333181e-02
  4.123606e+00    4.703570e-01   1.362610e-02
  4.125817e+00    5.213650e-01   1.440606e-02
  4.128027e+00    5.208982e-01   1.446034e-02
  4.130238e+00    4.905722e-01   1.409323e-02
  4.132448e+00    4.984615e-01   1.426776e-02
  4.134659e+00    5.139749e-01   1.455056e-02
  4.136869e+00    4.544192e-01   1.374245e-02
  4.139080e+00    5.035207e-01   1.453111e-02
  4.141290e+00    5.356599e-01   1.505406e-02
  4.143500e+00    4.652056e-01   1.409399e-02
  4.145711e+00    4.954787e-01   1.461320e-02
  4.147921e+00    5.062631e-01   1.483909e-02
  4.150132e+00    5.242061e-01   1.517182e-02
  4.152342e+00    5.116038e-01   1.506116e-02
  4.154553e+00    4.895353e-01   1.480253e-02
  4.156763e+00    5.258847e-01   1.541835e-02
  4.158974e+00    5.046091e-01   1.517902e-02
  4.161184e+00    5.158588e-01   1.542347e-02
  4.163395e+00    5.092837e-01   1.540317e-02
  4.165605e+00    4.930865e-01   1.523503e-02
  4.167815e+00    5.016256e-01   1.544659e-02
  4.170026e+00    4.813939e-01   1.521140e-02
  4.172236e+00    5.142936e-01   1.580789e-02
  4.174447e+00    4.953830e-01   1.559875e-02
  4.176657e+00    4.616131e-01   1.514028e-02
  4.178868e+00    5.233289e-01   1.621152e-02
  4.181078e+00    5.467727e-01   1.666410e-02
  4.183289e+00    5.174682e-01   1.630440e-02
  4.185499e+00    4.747258e-01   1.570844e-02
  4.187710e+00    5.148191e-01   1.645425e-02
  4.189920e+00    5.340499e-01   1.685961e-02
  4.192130e+00    5.129413e-01   1.662419e-02
  4.194341e+00    4.842685e-01   1.625185e-02
  4.196551e+00    5.042447e-01   1.668874e-02
  4.198762e+00    4.424216e-01   1.573128e-02
  4.200972e+00    4.933407e-01   1.671960e-02
  4.203183e+00    4.901597e-01   1.677541e-02
  4.205393e+00    5.078975e-01   1.718998e-02
  4.207604e+00    4.838422e-01   1.689247e-02
  4.209814e+00    4.131275e-01   1.571620e-02
  4.212025e+00    5.113474e-01   1.760860e-02
  4.214235e+00    5.139879e-01   1.777965e-02
  4.216445e+00    4.446551e-01   1.665644e-02
  4.218656e+00    4.040104e-01   1.599599e-02
  4.220866e+00    4.529613e-01   1.706246e-02
  4.223077e+00    5.453484e-01   1.886608e-02
  4.225287e+00    5.333383e-01   1.880392e-02
  4.227498e+00    5.291091e-01   1.887609e-02
  4.229708e+00    4.929046e-01   1.836712e-02
  4.231919e+00    5.285664e-01   1.917727e-02
  4.234129e+00    4.607463e-01   1.805485e-02
  4.236340e+00    4.730189e-01   1.845004e-02
  4.238550e+00    4.776978e-01   1.870505e-02
  4.240761e+00    4.759533e-01   1.883574e-02
  4.242971e+00    4.927455e-01   1.934048e-02
  4.245181e+00    4.731403e-01   1.912992e-02
  4.247392e+00    5.185353e-01   2.021384e-02
  4.249602e+00    4.988017e-01   2.002267e-02
  4.251813e+00    4.526163e-01   1.926084e-02
  4.254023e+00    4.170720e-01   1.867566e-02
  4.256234e+00    4.279542e-01   1.911954e-02
  4.258444e+00    4.726140e-01   2.030283e-02
  4.260655e+00    4.586698e-01   2.022092e-02
  4.262865e+00    5.271105e-01   2.192294e-02
  4.265076e+00    5.604048e-01   2.286153e-02
  4.267286e+00    5.126197e-01   2.212521e-02
  4.269496e+00    4.212777e-01   2.030209e-02
  4.271707e+00    4.096169e-01   2.026623e-02
  4.273917e+00    4.609666e-01   2.177632e-02
  4.276128e+00    4.379890e-01   2.150942e-02
  4.278338e+00    5.188506e-01   2.372266e-02
  4.280549e+00    5.322478e-01   2.437276e-02
  4.282759e+00    4.778728e-01   2.342577e-02
  4.284970e+00    4.677265e-01   2.351859e-02
  4.287180e+00    4.422147e-01   2.314196e-02
  4.289391e+00    4.850110e-01   2.441823e-02
  4.291601e+00    4.918885e-01   2.478674e-02
  4.293811e+00    5.367697e-01   2.609589e-02
  4.296022e+00    4.940790e-01   2.523761e-02
  4.298232e+00    5.160397e-01   2.600829e-02
  4.300443e+00    5.240340e-01   2.642501e-02
  4.302653e+00    5.165550e-01   2.646363e-02
  4.304864e+00    5.112543e-01   2.655523e-02
  4.307074e+00    4.135343e-01   2.409746e-02
  4.309285e+00    4.559893e-01   2.553357e-02
  4.311495e+00    5.964676e-01   2.947669e-02
  4.313706e+00    5.074664e-01   2.744462e-02
  4.315916e+00    4.329130e-01   2.559758e-02
  4.318126e+00    4.542947e-01   2.648241e-02
  4.320337e+00    4.399786e-01   2.632433e-02
  4.322547e+00    4.256037e-01   2.616543e-02
  4.324758e+00    5.807930e-01   3.088401e-02
  4.326968e+00    5.122308e-01   2.932953e-02
  4.329179e+00    4.469416e-01   2.770015e-02
  4.331389e+00    4.905217e-01   2.935281e-02
  4.333600e+00    4.881144e-01   2.962926e-02
  4.335810e+00    5.504920e-01   3.184186e-02
  4.338021e+00    4.407897e-01   2.885734e-02
  4.340231e+00    4.688796e-01   3.013598e-02
  4.342442e+00    4.746713e-01   3.072747e-02
  4.344652e+00    4.997514e-01   3.195782e-02
  4.346862e+00    4.258989e-01   2.991588e-02
  4.349073e+00    4.360395e-01   3.070940e-02
  4.351283e+00    4.912350e-01   3.308245e-02
  4.353494e+00    5.519192e-01   3.560779e-02
  4.355704e+00    5.049143e-01   3.460670e-02
  4.357915e+00    4.773049e-01   3.420658e-02
  4.360125e+00    4.737250e-01   3.466039e-02
  4.362336e+00    5.548011e-01   3.819126e-02
  4.364546e+00    4.777581e-01   3.608867e-02
  4.366757e+00    3.658315e-01   3.220646e-02
  4.368967e+00    4.204543e-01   3.521554e-02
  4.371177e+00    6.123983e-01   4.340435e-02
  4.373388e+00    4.697047e-01   3.886281e-02
  4.375598e+00    5.900357e-01   4.455078e-02
  4.377809e+00    4.358000e-01   3.925679e-02
  4.380019e+00    3.795981e-01   3.755983e-02
  4.382230e+00    3.724228e-01   3.824078e-02
  4.384440e+00    3.925702e-01   4.039077e-02
  4.386651e+00    4.919658e-01   4.661066e-02
  4.388861e+00    3.732195e-01   4.195842e-02
  4.391072e+00    5.911463e-01   5.466467e-02
  4.393282e+00    5.320295e-01   5.386206e-02
  4.395492e+00    5.247227e-01   5.571510e-02
  4.397703e+00    3.109525e-01   4.485362e-02
  4.399913e+00    3.275690e-01   4.835904e-02
  4.402124e+00    4.204989e-01   5.790462e-02
  4.404334e+00    4.275381e-01   6.205847e-02
  4.406545e+00    2.731881e-01   5.330399e-02
  4.408755e+00    3.702190e-01   6.729256e-02
  4.410966e+00    3.415177e-01   7.153384e-02
  4.413176e+00    7.633280e-02   3.829617e-02
  4.415387e+00   -8.906519e-01            nan
  4.417597e+00   -1.997080e+00            nan
  4.419807e+00    8.004956e-01   3.213970e-01
