# == pyFAI calibration ==
# Distance Sample to Detector: 0.216 m
# PONI: 1.166e-01, 1.308e-01 m
# Rotations: 0.000000 0.000000 0.000000 rad
# 
# == Fit2d calibration ==
# Distance Sample-beamCenter: 216.000 mm
# Center: x=1744.293, y=1555.000 pix
# Tilt: 0.000 deg  TiltPlanRot: 0.000 deg
# 
# Detector Eiger 9M	 PixelSize= 7.500e-05, 7.500e-05 m
#    Detector has a mask: True 
#    Detector has a dark current: False 
#    detector has a flat field: False 
# 
# Wavelength: 9.8e-11 m
# Mask applied: from detector
# Dark current applied: False
# Flat field applied: False
# Polarization factor: None
# Normalization factor: 1.0
# 
# Headers of the input frame:
# {
# "_array_data.header_convention": "SLS_1.0",
# "_array_data.header_contents": "# Detector: Dectris Eiger 9M, S/N E-18-0102\r\n# Pixel_size 75e-6 m x 75e-6 m\r\n# Silicon sensor, thickness 0.000450 m\r\n# Exposure_time 0.024997 s\r\n# Exposure_period 0.025000 s\r\n# Count_cutoff 62318 counts\r\n# Wavelength 0.980106 A\r\n# Detector_distance 0.215992 m\r\n# Beam_xy (1555, 1744) pixels\r\n# Start_angle 0.000000 deg.\r\n# Angle_increment 0.000000 deg.",
# "Content-Type": "application/octet-stream;",
# "conversions": "x-CBF_BYTE_OFFSET",
# "Content-Transfer-Encoding": "BINARY",
# "X-Binary-Size": "10166594",
# "X-Binary-ID": "1",
# "X-Binary-Element-Type": "signed 32-bit integer",
# "X-Binary-Element-Byte-Order": "LITTLE_ENDIAN",
# "Content-MD5": "oL5S2KtkJ3mud+zeKSc/nQ==",
# "X-Binary-Number-of-Elements": "10166590",
# "X-Binary-Size-Fastest-Dimension": "3110",
# "X-Binary-Size-Second-Dimension": "3269",
# "X-Binary-Size-Padding": "4095"
# }
# --> H:/Proxima2a_2019-04-05/RAW_DATA/C5_gel17_position5/C5_mesh_1_data.cbf/C5_mesh_1_data.cbf000122.dat
#        q_A^-1              I           sigma 
  1.105228e-03    2.561647e+00   8.660573e-01
  3.315685e-03    1.286009e+00   3.730504e-01
  5.526141e-03    1.424984e+00   3.036526e-01
  7.736597e-03    1.431423e+00   2.571012e-01
  9.947054e-03    1.283499e+00   2.146221e-01
  1.215751e-02    1.193599e+00   1.871534e-01
  1.436797e-02    1.240008e+00   1.754640e-01
  1.657842e-02    1.494183e+00   1.792860e-01
  1.878888e-02    1.585206e+00   1.734628e-01
  2.099934e-02    1.493950e+00   1.593199e-01
  2.320979e-02    1.495459e+00   1.516073e-01
  2.542025e-02    1.594885e+00   1.496146e-01
  2.763070e-02    1.445045e+00   1.365938e-01
  2.984116e-02    1.447471e+00   1.315472e-01
  3.205162e-02    1.610082e+00   1.338783e-01
  3.426207e-02    1.445115e+00   1.226665e-01
  3.647253e-02    1.377616e+00   1.160790e-01
  3.868299e-02    1.348423e+00   1.115215e-01
  4.089344e-02    1.342536e+00   1.082290e-01
  4.310390e-02    1.288396e+00   1.032639e-01
  4.531436e-02    1.354060e+00   1.032487e-01
  4.752481e-02    1.388052e+00   1.020756e-01
  4.973527e-02    1.435831e+00   1.014854e-01
  5.194572e-02    1.285537e+00   9.396046e-02
  5.415618e-02    1.387703e+00   9.560641e-02
  5.636664e-02    1.484470e+00   9.692834e-02
  5.857709e-02    1.524745e+00   9.636365e-02
  6.078755e-02    1.426482e+00   9.149355e-02
  6.299801e-02    1.388016e+00   8.865304e-02
  6.520846e-02    1.377420e+00   8.680485e-02
  6.741892e-02    1.423270e+00   8.677477e-02
  6.962938e-02    1.391000e+00   8.441701e-02
  7.183983e-02    1.409883e+00   8.366880e-02
  7.405029e-02    1.493457e+00   8.481597e-02
  7.626074e-02    1.492826e+00   8.355932e-02
  7.847120e-02    1.374379e+00   7.903643e-02
  8.068166e-02    1.410248e+00   7.895615e-02
  8.289211e-02    1.501388e+00   8.037356e-02
  8.510257e-02    1.554329e+00   8.070878e-02
  8.731303e-02    1.567636e+00   8.001795e-02
  8.952348e-02    1.428224e+00   7.543030e-02
  9.173394e-02    1.396447e+00   7.367940e-02
  9.394439e-02    1.387537e+00   7.257244e-02
  9.615485e-02    1.431998e+00   7.287204e-02
  9.836531e-02    1.597059e+00   7.608568e-02
  1.005758e-01    1.541027e+00   7.391363e-02
  1.027862e-01    1.525972e+00   7.275471e-02
  1.049967e-01    1.539054e+00   7.229144e-02
  1.072071e-01    1.520755e+00   7.111487e-02
  1.094176e-01    1.543468e+00   7.091550e-02
  1.116280e-01    1.617791e+00   7.187883e-02
  1.138385e-01    1.513696e+00   6.884822e-02
  1.160490e-01    1.477737e+00   6.737372e-02
  1.182594e-01    1.479788e+00   6.678594e-02
  1.204699e-01    1.469347e+00   6.593604e-02
  1.226803e-01    1.529260e+00   6.665535e-02
  1.248908e-01    1.533714e+00   6.615821e-02
  1.271012e-01    1.575729e+00   6.647129e-02
  1.293117e-01    1.575783e+00   6.590100e-02
  1.315222e-01    1.542657e+00   6.465289e-02
  1.337326e-01    1.561435e+00   6.450414e-02
  1.359431e-01    1.609965e+00   6.553723e-02
  1.381535e-01    1.551825e+00   6.520665e-02
  1.403640e-01    1.534060e+00   6.511226e-02
  1.425744e-01    1.572894e+00   6.603660e-02
  1.447849e-01    1.492101e+00   6.433305e-02
  1.469953e-01    1.455929e+00   6.350867e-02
  1.492058e-01    1.538048e+00   6.519926e-02
  1.514163e-01    1.604152e+00   6.647509e-02
  1.536267e-01    1.555992e+00   6.534179e-02
  1.558372e-01    1.466138e+00   6.328706e-02
  1.580476e-01    1.504573e+00   6.395566e-02
  1.602581e-01    1.543042e+00   6.460360e-02
  1.624685e-01    1.564459e+00   6.487231e-02
  1.646790e-01    1.593124e+00   6.527594e-02
  1.668895e-01    1.653781e+00   6.631494e-02
  1.690999e-01    1.716621e+00   6.736022e-02
  1.713104e-01    1.712864e+00   6.707764e-02
  1.735208e-01    1.745874e+00   6.751032e-02
  1.757313e-01    1.747548e+00   6.733100e-02
  1.779417e-01    1.763960e+00   6.742582e-02
  1.801522e-01    1.728198e+00   6.652628e-02
  1.823626e-01    1.734991e+00   6.643497e-02
  1.845731e-01    1.839168e+00   6.817888e-02
  1.867836e-01    1.832267e+00   6.782120e-02
  1.889940e-01    1.859716e+00   6.810404e-02
  1.912045e-01    1.921192e+00   6.898937e-02
  1.934149e-01    1.956497e+00   6.938738e-02
  1.956254e-01    1.922866e+00   6.856156e-02
  1.978358e-01    1.838399e+00   6.680906e-02
  2.000463e-01    1.883787e+00   6.740459e-02
  2.022568e-01    2.035043e+00   6.982847e-02
  2.044672e-01    2.042375e+00   6.971455e-02
  2.066777e-01    1.924418e+00   6.744682e-02
  2.088881e-01    1.972724e+00   6.806465e-02
  2.110986e-01    1.930246e+00   6.709700e-02
  2.133090e-01    1.864335e+00   6.572711e-02
  2.155195e-01    1.819306e+00   6.471311e-02
  2.177300e-01    1.930467e+00   6.613713e-02
  2.199404e-01    1.985276e+00   6.530219e-02
  2.221509e-01    1.899816e+00   6.283222e-02
  2.243613e-01    1.979665e+00   6.332592e-02
  2.265718e-01    2.032731e+00   6.346181e-02
  2.287822e-01    2.052302e+00   6.313539e-02
  2.309927e-01    2.054667e+00   6.259631e-02
  2.332031e-01    1.977737e+00   6.088763e-02
  2.354136e-01    2.139282e+00   6.281227e-02
  2.376241e-01    2.188392e+00   6.303607e-02
  2.398345e-01    2.139878e+00   6.187212e-02
  2.420450e-01    2.066990e+00   6.037467e-02
  2.442554e-01    2.093154e+00   6.033701e-02
  2.464659e-01    2.037853e+00   5.913495e-02
  2.486763e-01    1.995818e+00   5.813715e-02
  2.508868e-01    2.177234e+00   6.033894e-02
  2.530973e-01    2.163872e+00   5.978056e-02
  2.553077e-01    2.115080e+00   5.874425e-02
  2.575182e-01    2.058290e+00   5.760738e-02
  2.597286e-01    2.036627e+00   5.697030e-02
  2.619391e-01    2.075173e+00   5.717582e-02
  2.641495e-01    2.088055e+00   5.703558e-02
  2.663600e-01    2.110068e+00   5.702014e-02
  2.685704e-01    2.019050e+00   5.547445e-02
  2.707809e-01    2.000640e+00   5.492784e-02
  2.729914e-01    2.025056e+00   5.497402e-02
  2.752018e-01    2.026172e+00   5.470294e-02
  2.774123e-01    1.976205e+00   5.374827e-02
  2.796227e-01    1.958193e+00   5.323812e-02
  2.818332e-01    1.947273e+00   5.282462e-02
  2.840436e-01    1.914446e+00   5.212359e-02
  2.862541e-01    1.932672e+00   5.211934e-02
  2.884646e-01    1.953396e+00   5.214937e-02
  2.906750e-01    1.978887e+00   5.223966e-02
  2.928855e-01    1.928859e+00   5.133614e-02
  2.950959e-01    1.926693e+00   5.107161e-02
  2.973064e-01    1.858626e+00   4.993592e-02
  2.995168e-01    1.928988e+00   5.064192e-02
  3.017273e-01    1.972596e+00   5.098539e-02
  3.039377e-01    1.916243e+00   5.003180e-02
  3.061482e-01    1.913596e+00   4.978095e-02
  3.083587e-01    1.858513e+00   4.884688e-02
  3.105691e-01    1.853172e+00   4.856832e-02
  3.127796e-01    1.888061e+00   4.881725e-02
  3.149900e-01    1.857564e+00   4.821964e-02
  3.172005e-01    1.856378e+00   4.800713e-02
  3.194109e-01    1.886362e+00   4.819353e-02
  3.216214e-01    1.812354e+00   4.704591e-02
  3.238319e-01    1.779663e+00   4.643498e-02
  3.260423e-01    1.799324e+00   4.650478e-02
  3.282528e-01    1.865189e+00   4.715982e-02
  3.304632e-01    1.853319e+00   4.682738e-02
  3.326737e-01    1.844847e+00   4.653797e-02
  3.348841e-01    1.799367e+00   4.578251e-02
  3.370946e-01    1.790016e+00   4.549159e-02
  3.393050e-01    1.841944e+00   4.597190e-02
  3.415155e-01    1.872560e+00   4.617813e-02
  3.437260e-01    1.843818e+00   4.565252e-02
  3.459364e-01    1.877376e+00   4.589569e-02
  3.481469e-01    1.783353e+00   4.456838e-02
  3.503573e-01    1.794797e+00   4.454825e-02
  3.525678e-01    1.820544e+00   4.470676e-02
  3.547782e-01    1.811320e+00   4.443218e-02
  3.569887e-01    1.772550e+00   4.379837e-02
  3.591992e-01    1.727663e+00   4.308724e-02
  3.614096e-01    1.758444e+00   4.331863e-02
  3.636201e-01    1.796356e+00   4.362928e-02
  3.658305e-01    1.746486e+00   4.287267e-02
  3.680410e-01    1.717447e+00   4.236853e-02
  3.702514e-01    1.706299e+00   4.208876e-02
  3.724619e-01    1.741477e+00   4.237562e-02
  3.746724e-01    1.792035e+00   4.284291e-02
  3.768828e-01    1.745668e+00   4.214274e-02
  3.790933e-01    1.730005e+00   4.181655e-02
  3.813037e-01    1.736952e+00   4.176332e-02
  3.835142e-01    1.778247e+00   4.211808e-02
  3.857246e-01    1.735286e+00   4.147154e-02
  3.879351e-01    1.766198e+00   4.170388e-02
  3.901455e-01    1.708027e+00   4.088078e-02
  3.923560e-01    1.707047e+00   4.073915e-02
  3.945665e-01    1.731653e+00   4.090161e-02
  3.967769e-01    1.738936e+00   4.085917e-02
  3.989874e-01    1.747059e+00   4.082660e-02
  4.011978e-01    1.759654e+00   4.084751e-02
  4.034083e-01    1.710072e+00   4.014429e-02
  4.056187e-01    1.736786e+00   4.033201e-02
  4.078292e-01    1.797297e+00   4.090442e-02
  4.100397e-01    1.774267e+00   4.051745e-02
  4.122501e-01    1.723716e+00   3.981658e-02
  4.144606e-01    1.743288e+00   3.992325e-02
  4.166710e-01    1.736434e+00   3.972621e-02
  4.188815e-01    1.737219e+00   3.961783e-02
  4.210919e-01    1.732514e+00   3.944819e-02
  4.233024e-01    1.782598e+00   3.989660e-02
  4.255128e-01    1.780715e+00   3.976028e-02
  4.277233e-01    1.783048e+00   3.967200e-02
  4.299338e-01    1.778276e+00   3.950489e-02
  4.321442e-01    1.726075e+00   3.880936e-02
  4.343547e-01    1.744569e+00   3.890640e-02
  4.365651e-01    1.710474e+00   3.841488e-02
  4.387756e-01    1.725131e+00   3.847107e-02
  4.409860e-01    1.725436e+00   3.836791e-02
  4.431965e-01    1.699315e+00   3.797107e-02
  4.454070e-01    1.722961e+00   3.812797e-02
  4.476174e-01    1.710882e+00   3.788978e-02
  4.498279e-01    1.635789e+00   3.694812e-02
  4.520383e-01    1.656548e+00   3.707979e-02
  4.542488e-01    1.699905e+00   3.746060e-02
  4.564592e-01    1.735927e+00   3.775390e-02
  4.586697e-01    1.650789e+00   3.671873e-02
  4.608801e-01    1.632655e+00   3.641867e-02
  4.630906e-01    1.665564e+00   3.668648e-02
  4.653011e-01    1.660990e+00   3.653973e-02
  4.675115e-01    1.696791e+00   3.683415e-02
  4.697220e-01    1.650136e+00   3.622914e-02
  4.719324e-01    1.619967e+00   3.580356e-02
  4.741429e-01    1.656095e+00   3.610732e-02
  4.763533e-01    1.651025e+00   3.595959e-02
  4.785638e-01    1.638810e+00   3.573375e-02
  4.807743e-01    1.687396e+00   3.616739e-02
  4.829847e-01    1.662542e+00   3.580935e-02
  4.851952e-01    1.679904e+00   3.590475e-02
  4.874056e-01    1.651265e+00   3.550765e-02
  4.896161e-01    1.628545e+00   3.517505e-02
  4.918265e-01    1.664367e+00   3.547151e-02
  4.940370e-01    1.672462e+00   3.546989e-02
  4.962475e-01    1.611999e+00   3.473685e-02
  4.984579e-01    1.609569e+00   3.462508e-02
  5.006684e-01    1.665231e+00   3.513282e-02
  5.028788e-01    1.700824e+00   3.542028e-02
  5.050893e-01    1.680822e+00   3.512577e-02
  5.072997e-01    1.646386e+00   3.468011e-02
  5.095102e-01    1.626652e+00   3.438908e-02
  5.117206e-01    1.632176e+00   3.436551e-02
  5.139311e-01    1.660590e+00   3.458131e-02
  5.161416e-01    1.619920e+00   3.407451e-02
  5.183520e-01    1.622069e+00   3.401607e-02
  5.205625e-01    1.617885e+00   3.389257e-02
  5.227729e-01    1.684755e+00   3.450525e-02
  5.249834e-01    1.649327e+00   3.406127e-02
  5.271938e-01    1.669130e+00   3.418519e-02
  5.294043e-01    1.724568e+00   3.466805e-02
  5.316148e-01    1.776758e+00   3.510814e-02
  5.338252e-01    1.727561e+00   3.453955e-02
  5.360357e-01    1.709504e+00   3.428035e-02
  5.382461e-01    1.743774e+00   3.454396e-02
  5.404566e-01    1.736006e+00   3.438853e-02
  5.426670e-01    1.712277e+00   3.407573e-02
  5.448775e-01    1.722273e+00   3.409869e-02
  5.470879e-01    1.734018e+00   3.413847e-02
  5.492984e-01    1.726817e+00   3.399173e-02
  5.515089e-01    1.778517e+00   3.442034e-02
  5.537193e-01    1.772709e+00   3.428839e-02
  5.559298e-01    1.731398e+00   3.381218e-02
  5.581402e-01    1.770903e+00   3.412101e-02
  5.603507e-01    1.798593e+00   3.431192e-02
  5.625611e-01    1.744000e+00   3.371385e-02
  5.647716e-01    1.740591e+00   3.360775e-02
  5.669821e-01    1.728120e+00   3.341494e-02
  5.691925e-01    1.725242e+00   3.331544e-02
  5.714030e-01    1.731281e+00   3.330253e-02
  5.736134e-01    1.748923e+00   3.340060e-02
  5.758239e-01    1.717740e+00   3.303085e-02
  5.780343e-01    1.670803e+00   3.250753e-02
  5.802448e-01    1.641996e+00   3.215862e-02
  5.824552e-01    1.593766e+00   3.161633e-02
  5.846657e-01    1.546790e+00   3.108197e-02
  5.868762e-01    1.547879e+00   3.102816e-02
  5.890866e-01    1.608664e+00   3.156589e-02
  5.912971e-01    1.607377e+00   3.148796e-02
  5.935075e-01    1.616493e+00   3.151186e-02
  5.957180e-01    1.612068e+00   3.140413e-02
  5.979284e-01    1.606626e+00   3.128708e-02
  6.001389e-01    1.645269e+00   3.159663e-02
  6.023494e-01    1.615003e+00   3.124112e-02
  6.045598e-01    1.627158e+00   3.129460e-02
  6.067703e-01    1.610495e+00   3.107136e-02
  6.089807e-01    1.599471e+00   3.090256e-02
  6.111912e-01    1.656886e+00   3.138951e-02
  6.134016e-01    1.633048e+00   3.110074e-02
  6.156121e-01    1.647229e+00   3.117339e-02
  6.178226e-01    1.613270e+00   3.078931e-02
  6.200330e-01    1.688672e+00   3.143846e-02
  6.222435e-01    1.676979e+00   3.126740e-02
  6.244539e-01    1.643314e+00   3.089134e-02
  6.266644e-01    1.653047e+00   3.092224e-02
  6.288748e-01    1.694479e+00   3.124644e-02
  6.310853e-01    1.688948e+00   3.113484e-02
  6.332957e-01    1.673380e+00   3.093116e-02
  6.355062e-01    1.698678e+00   3.110355e-02
  6.377167e-01    1.721529e+00   3.125200e-02
  6.399271e-01    1.660092e+00   3.063048e-02
  6.421376e-01    1.665424e+00   3.062105e-02
  6.443480e-01    1.677534e+00   3.067372e-02
  6.465585e-01    1.673239e+00   3.057640e-02
  6.487689e-01    1.686495e+00   3.063930e-02
  6.509794e-01    1.651812e+00   3.026544e-02
  6.531899e-01    1.601342e+00   2.974345e-02
  6.554003e-01    1.586822e+00   2.955262e-02
  6.576108e-01    1.560370e+00   2.925070e-02
  6.598212e-01    1.578026e+00   2.936107e-02
  6.620317e-01    1.573944e+00   2.926871e-02
  6.642421e-01    1.558809e+00   2.907377e-02
  6.664526e-01    1.531124e+00   2.876133e-02
  6.686630e-01    1.551486e+00   2.889842e-02
  6.708735e-01    1.543261e+00   2.876884e-02
  6.730840e-01    1.584058e+00   2.909349e-02
  6.752944e-01    1.534055e+00   2.857857e-02
  6.775049e-01    1.537631e+00   2.855988e-02
  6.797153e-01    1.568102e+00   2.878927e-02
  6.819258e-01    1.552777e+00   2.859657e-02
  6.841362e-01    1.591612e+00   2.889989e-02
  6.863467e-01    1.587965e+00   2.881507e-02
  6.885572e-01    1.592578e+00   2.880517e-02
  6.907676e-01    1.581689e+00   2.865510e-02
  6.929781e-01    1.611073e+00   2.886865e-02
  6.951885e-01    1.584642e+00   2.858015e-02
  6.973990e-01    1.573804e+00   2.843188e-02
  6.996094e-01    1.617649e+00   2.877450e-02
  7.018199e-01    1.604204e+00   2.860439e-02
  7.040303e-01    1.570374e+00   2.825146e-02
  7.062408e-01    1.554570e+00   2.805969e-02
  7.084513e-01    1.583385e+00   2.826928e-02
  7.106617e-01    1.620441e+00   2.854848e-02
  7.128722e-01    1.618888e+00   2.848543e-02
  7.150826e-01    1.663321e+00   2.882392e-02
  7.172931e-01    1.643445e+00   2.860182e-02
  7.195035e-01    1.588759e+00   2.807357e-02
  7.217140e-01    1.566632e+00   2.792673e-02
  7.239245e-01    1.521455e+00   2.774397e-02
  7.261349e-01    1.562734e+00   2.822603e-02
  7.283454e-01    1.595595e+00   2.859413e-02
  7.305558e-01    1.619431e+00   2.886168e-02
  7.327663e-01    1.550739e+00   2.828511e-02
  7.349767e-01    1.546865e+00   2.826597e-02
  7.371872e-01    1.551281e+00   2.829520e-02
  7.393976e-01    1.488548e+00   2.770331e-02
  7.416081e-01    1.525076e+00   2.802522e-02
  7.438186e-01    1.535546e+00   2.797876e-02
  7.460290e-01    1.557649e+00   2.788674e-02
  7.482395e-01    1.559180e+00   2.773014e-02
  7.504499e-01    1.559343e+00   2.759596e-02
  7.526604e-01    1.575481e+00   2.762184e-02
  7.548708e-01    1.545501e+00   2.726917e-02
  7.570813e-01    1.532290e+00   2.710208e-02
  7.592918e-01    1.559415e+00   2.730590e-02
  7.615022e-01    1.541626e+00   2.711628e-02
  7.637127e-01    1.512511e+00   2.682686e-02
  7.659231e-01    1.505308e+00   2.673162e-02
  7.681336e-01    1.584410e+00   2.739327e-02
  7.703440e-01    1.580266e+00   2.732618e-02
  7.725545e-01    1.558190e+00   2.710389e-02
  7.747650e-01    1.606510e+00   2.748235e-02
  7.769754e-01    1.614786e+00   2.749969e-02
  7.791859e-01    1.566099e+00   2.702866e-02
  7.813963e-01    1.584570e+00   2.713484e-02
  7.836068e-01    1.584610e+00   2.708323e-02
  7.858172e-01    1.558750e+00   2.681109e-02
  7.880277e-01    1.571382e+00   2.686829e-02
  7.902381e-01    1.582021e+00   2.691012e-02
  7.924486e-01    1.580374e+00   2.684628e-02
  7.946591e-01    1.611628e+00   2.706197e-02
  7.968695e-01    1.617087e+00   2.705929e-02
  7.990800e-01    1.622439e+00   2.705557e-02
  8.012904e-01    1.600289e+00   2.682379e-02
  8.035009e-01    1.598878e+00   2.676424e-02
  8.057113e-01    1.605603e+00   2.677409e-02
  8.079218e-01    1.589761e+00   2.659571e-02
  8.101323e-01    1.606485e+00   2.668983e-02
  8.123427e-01    1.608252e+00   2.665898e-02
  8.145532e-01    1.599979e+00   2.654483e-02
  8.167636e-01    1.613539e+00   2.661224e-02
  8.189741e-01    1.617542e+00   2.660084e-02
  8.211845e-01    1.616188e+00   2.654511e-02
  8.233950e-01    1.612776e+00   2.647397e-02
  8.256054e-01    1.618084e+00   2.647355e-02
  8.278159e-01    1.617210e+00   2.642270e-02
  8.300264e-01    1.613562e+00   2.635014e-02
  8.322368e-01    1.574880e+00   2.599009e-02
  8.344473e-01    1.637988e+00   2.646232e-02
  8.366577e-01    1.651745e+00   2.653052e-02
  8.388682e-01    1.587972e+00   2.597171e-02
  8.410786e-01    1.583485e+00   2.589365e-02
  8.432891e-01    1.582872e+00   2.584752e-02
  8.454996e-01    1.581078e+00   2.579197e-02
  8.477100e-01    1.606182e+00   2.595468e-02
  8.499205e-01    1.576506e+00   2.567340e-02
  8.521309e-01    1.593723e+00   2.577296e-02
  8.543414e-01    1.606395e+00   2.583485e-02
  8.565518e-01    1.600240e+00   2.574518e-02
  8.587623e-01    1.581560e+00   2.555461e-02
  8.609727e-01    1.596612e+00   2.563612e-02
  8.631832e-01    1.571235e+00   2.539236e-02
  8.653937e-01    1.565071e+00   2.530355e-02
  8.676041e-01    1.577553e+00   2.536592e-02
  8.698146e-01    1.591147e+00   2.543604e-02
  8.720250e-01    1.568671e+00   2.521727e-02
  8.742355e-01    1.552591e+00   2.504949e-02
  8.764459e-01    1.556995e+00   2.504672e-02
  8.786564e-01    1.566032e+00   2.508186e-02
  8.808669e-01    1.557073e+00   2.497210e-02
  8.830773e-01    1.544963e+00   2.483735e-02
  8.852878e-01    1.561343e+00   2.493124e-02
  8.874982e-01    1.543085e+00   2.474906e-02
  8.897087e-01    1.559742e+00   2.484508e-02
  8.919191e-01    1.546383e+00   2.470136e-02
  8.941296e-01    1.595336e+00   2.505204e-02
  8.963401e-01    1.619825e+00   2.520696e-02
  8.985505e-01    1.570495e+00   2.478356e-02
  9.007610e-01    1.580903e+00   2.482900e-02
  9.029714e-01    1.590710e+00   2.487016e-02
  9.051819e-01    1.622031e+00   2.507634e-02
  9.073923e-01    1.600945e+00   2.487624e-02
  9.096028e-01    1.581831e+00   2.469257e-02
  9.118132e-01    1.562432e+00   2.450490e-02
  9.140237e-01    1.590378e+00   2.468655e-02
  9.162342e-01    1.596943e+00   2.470295e-02
  9.184446e-01    1.563237e+00   2.440551e-02
  9.206551e-01    1.566673e+00   2.439709e-02
  9.228655e-01    1.575211e+00   2.442851e-02
  9.250760e-01    1.569322e+00   2.434782e-02
  9.272864e-01    1.587409e+00   2.445361e-02
  9.294969e-01    1.634682e+00   2.477891e-02
  9.317074e-01    1.590394e+00   2.440641e-02
  9.339178e-01    1.586851e+00   2.434589e-02
  9.361283e-01    1.603757e+00   2.443917e-02
  9.383387e-01    1.614710e+00   2.448912e-02
  9.405492e-01    1.634065e+00   2.460105e-02
  9.427596e-01    1.631454e+00   2.454601e-02
  9.449701e-01    1.653470e+00   2.467748e-02
  9.471805e-01    1.687319e+00   2.489351e-02
  9.493910e-01    1.624226e+00   2.439013e-02
  9.516015e-01    1.652360e+00   2.456610e-02
  9.538119e-01    1.697736e+00   2.486702e-02
  9.560224e-01    1.699705e+00   2.484640e-02
  9.582328e-01    1.717907e+00   2.494559e-02
  9.604433e-01    1.734828e+00   2.503264e-02
  9.626537e-01    1.770980e+00   2.525810e-02
  9.648642e-01    1.780147e+00   2.528872e-02
  9.670747e-01    1.773528e+00   2.520685e-02
  9.692851e-01    1.782753e+00   2.523872e-02
  9.714956e-01    1.823715e+00   2.549103e-02
  9.737060e-01    1.858107e+00   2.569648e-02
  9.759165e-01    1.867245e+00   2.572325e-02
  9.781269e-01    1.896273e+00   2.588853e-02
  9.803374e-01    1.852922e+00   2.555551e-02
  9.825478e-01    1.845359e+00   2.546964e-02
  9.847583e-01    1.832694e+00   2.534764e-02
  9.869688e-01    1.820707e+00   2.523079e-02
  9.891792e-01    1.773959e+00   2.487169e-02
  9.913897e-01    1.733629e+00   2.455414e-02
  9.936001e-01    1.746357e+00   2.461186e-02
  9.958106e-01    1.718994e+00   2.438509e-02
  9.980210e-01    1.667269e+00   2.398425e-02
  1.000231e+00    1.623215e+00   2.379489e-02
  1.002442e+00    1.635691e+00   2.401308e-02
  1.004652e+00    1.625945e+00   2.400822e-02
  1.006863e+00    1.615437e+00   2.398017e-02
  1.009073e+00    1.584312e+00   2.378439e-02
  1.011284e+00    1.554640e+00   2.359210e-02
  1.013494e+00    1.543700e+00   2.353227e-02
  1.015705e+00    1.497075e+00   2.319606e-02
  1.017915e+00    1.558699e+00   2.368494e-02
  1.020126e+00    1.546657e+00   2.360926e-02
  1.022336e+00    1.550092e+00   2.364707e-02
  1.024547e+00    1.530445e+00   2.350791e-02
  1.026757e+00    1.487306e+00   2.318242e-02
  1.028967e+00    1.506130e+00   2.333625e-02
  1.031178e+00    1.500162e+00   2.329607e-02
  1.033388e+00    1.486366e+00   2.319367e-02
  1.035599e+00    1.474409e+00   2.310358e-02
  1.037809e+00    1.440246e+00   2.283749e-02
  1.040020e+00    1.462335e+00   2.301318e-02
  1.042230e+00    1.487764e+00   2.321435e-02
  1.044441e+00    1.493748e+00   2.326077e-02
  1.046651e+00    1.451589e+00   2.293035e-02
  1.048862e+00    1.460434e+00   2.299930e-02
  1.051072e+00    1.477195e+00   2.312858e-02
  1.053282e+00    1.459853e+00   2.299149e-02
  1.055493e+00    1.443315e+00   2.285665e-02
  1.057703e+00    1.424858e+00   2.270857e-02
  1.059914e+00    1.425001e+00   2.270551e-02
  1.062124e+00    1.453694e+00   2.292897e-02
  1.064335e+00    1.459064e+00   2.296786e-02
  1.066545e+00    1.453264e+00   2.291624e-02
  1.068756e+00    1.449809e+00   2.288529e-02
  1.070966e+00    1.412599e+00   2.258332e-02
  1.073177e+00    1.409537e+00   2.255287e-02
  1.075387e+00    1.425079e+00   2.267174e-02
  1.077597e+00    1.405068e+00   2.250492e-02
  1.079808e+00    1.406085e+00   2.238297e-02
  1.082018e+00    1.363918e+00   2.186223e-02
  1.084229e+00    1.404211e+00   2.207488e-02
  1.086439e+00    1.408996e+00   2.202645e-02
  1.088650e+00    1.378843e+00   2.171581e-02
  1.090860e+00    1.408314e+00   2.188009e-02
  1.093071e+00    1.391365e+00   2.168715e-02
  1.095281e+00    1.411238e+00   2.178491e-02
  1.097492e+00    1.400764e+00   2.164987e-02
  1.099702e+00    1.377278e+00   2.141735e-02
  1.101912e+00    1.371927e+00   2.132801e-02
  1.104123e+00    1.389251e+00   2.141481e-02
  1.106333e+00    1.388345e+00   2.136410e-02
  1.108544e+00    1.383035e+00   2.127968e-02
  1.110754e+00    1.378003e+00   2.119865e-02
  1.112965e+00    1.376968e+00   2.115079e-02
  1.115175e+00    1.411640e+00   2.137439e-02
  1.117386e+00    1.386533e+00   2.114457e-02
  1.119596e+00    1.394577e+00   2.116820e-02
  1.121807e+00    1.372849e+00   2.096433e-02
  1.124017e+00    1.375872e+00   2.095116e-02
  1.126228e+00    1.395401e+00   2.106369e-02
  1.128438e+00    1.387661e+00   2.096859e-02
  1.130648e+00    1.385442e+00   2.091770e-02
  1.132859e+00    1.369884e+00   2.076586e-02
  1.135069e+00    1.366435e+00   2.070532e-02
  1.137280e+00    1.359488e+00   2.061999e-02
  1.139490e+00    1.354657e+00   2.055064e-02
  1.141701e+00    1.353317e+00   2.050771e-02
  1.143911e+00    1.378116e+00   2.066299e-02
  1.146122e+00    1.330293e+00   2.026988e-02
  1.148332e+00    1.339740e+00   2.031028e-02
  1.150543e+00    1.352491e+00   2.037617e-02
  1.152753e+00    1.356214e+00   2.037357e-02
  1.154963e+00    1.353115e+00   2.031947e-02
  1.157174e+00    1.355158e+00   2.030485e-02
  1.159384e+00    1.340431e+00   2.016472e-02
  1.161595e+00    1.320351e+00   1.998381e-02
  1.163805e+00    1.356770e+00   2.022839e-02
  1.166016e+00    1.353514e+00   2.017484e-02
  1.168226e+00    1.349999e+00   2.011984e-02
  1.170437e+00    1.347673e+00   2.007409e-02
  1.172647e+00    1.296742e+00   1.966295e-02
  1.174858e+00    1.304801e+00   1.969647e-02
  1.177068e+00    1.339542e+00   1.992894e-02
  1.179278e+00    1.353476e+00   2.000385e-02
  1.181489e+00    1.349076e+00   1.994440e-02
  1.183699e+00    1.352077e+00   1.993907e-02
  1.185910e+00    1.338493e+00   1.981108e-02
  1.188120e+00    1.339549e+00   1.979238e-02
  1.190331e+00    1.330440e+00   1.969846e-02
  1.192541e+00    1.324940e+00   1.963060e-02
  1.194752e+00    1.347171e+00   1.976762e-02
  1.196962e+00    1.350144e+00   1.976370e-02
  1.199173e+00    1.325829e+00   1.955866e-02
  1.201383e+00    1.330499e+00   1.956612e-02
  1.203593e+00    1.343277e+00   1.963508e-02
  1.205804e+00    1.349365e+00   1.965363e-02
  1.208014e+00    1.344016e+00   1.958784e-02
  1.210225e+00    1.339932e+00   1.953282e-02
  1.212435e+00    1.342236e+00   1.952490e-02
  1.214646e+00    1.337504e+00   1.946445e-02
  1.216856e+00    1.338441e+00   1.944592e-02
  1.219067e+00    1.305647e+00   1.918215e-02
  1.221277e+00    1.305677e+00   1.915774e-02
  1.223488e+00    1.314296e+00   1.919548e-02
  1.225698e+00    1.291972e+00   1.900544e-02
  1.227909e+00    1.316134e+00   1.915254e-02
  1.230119e+00    1.326063e+00   1.919308e-02
  1.232329e+00    1.333511e+00   1.921637e-02
  1.234540e+00    1.325108e+00   1.912573e-02
  1.236750e+00    1.311744e+00   1.899921e-02
  1.238961e+00    1.325942e+00   1.907502e-02
  1.241171e+00    1.334468e+00   1.911221e-02
  1.243382e+00    1.348962e+00   1.919222e-02
  1.245592e+00    1.308552e+00   1.887886e-02
  1.247803e+00    1.296883e+00   1.877128e-02
  1.250013e+00    1.338509e+00   1.904671e-02
  1.252224e+00    1.349083e+00   1.909857e-02
  1.254434e+00    1.337116e+00   1.899005e-02
  1.256644e+00    1.306401e+00   1.874784e-02
  1.258855e+00    1.309160e+00   1.874470e-02
  1.261065e+00    1.317656e+00   1.878233e-02
  1.263276e+00    1.343867e+00   1.894534e-02
  1.265486e+00    1.333953e+00   1.885260e-02
  1.267697e+00    1.314237e+00   1.869004e-02
  1.269907e+00    1.312437e+00   1.865485e-02
  1.272118e+00    1.331350e+00   1.876637e-02
  1.274328e+00    1.348836e+00   1.886648e-02
  1.276539e+00    1.348168e+00   1.883904e-02
  1.278749e+00    1.321705e+00   1.863118e-02
  1.280959e+00    1.340771e+00   1.874261e-02
  1.283170e+00    1.351749e+00   1.879675e-02
  1.285380e+00    1.351918e+00   1.877545e-02
  1.287591e+00    1.364338e+00   1.883936e-02
  1.289801e+00    1.332000e+00   1.859368e-02
  1.292012e+00    1.319385e+00   1.848852e-02
  1.294222e+00    1.314737e+00   1.843988e-02
  1.296433e+00    1.345057e+00   1.863573e-02
  1.298643e+00    1.334328e+00   1.854489e-02
  1.300854e+00    1.327357e+00   1.848011e-02
  1.303064e+00    1.331435e+00   1.848937e-02
  1.305274e+00    1.331092e+00   1.846571e-02
  1.307485e+00    1.330294e+00   1.843878e-02
  1.309695e+00    1.362658e+00   1.863937e-02
  1.311906e+00    1.374623e+00   1.869915e-02
  1.314116e+00    1.352284e+00   1.852576e-02
  1.316327e+00    1.344580e+00   1.845127e-02
  1.318537e+00    1.351629e+00   1.847767e-02
  1.320748e+00    1.344648e+00   1.840839e-02
  1.322958e+00    1.347144e+00   1.840496e-02
  1.325169e+00    1.352944e+00   1.842351e-02
  1.327379e+00    1.323609e+00   1.820108e-02
  1.329589e+00    1.341686e+00   1.830394e-02
  1.331800e+00    1.355421e+00   1.837665e-02
  1.334010e+00    1.382329e+00   1.853727e-02
  1.336221e+00    1.366175e+00   1.840676e-02
  1.338431e+00    1.373686e+00   1.843623e-02
  1.340642e+00    1.367281e+00   1.845779e-02
  1.342852e+00    1.349007e+00   1.843465e-02
  1.345063e+00    1.340381e+00   1.842494e-02
  1.347273e+00    1.311051e+00   1.825695e-02
  1.349484e+00    1.334159e+00   1.844466e-02
  1.351694e+00    1.321764e+00   1.838127e-02
  1.353905e+00    1.331794e+00   1.846874e-02
  1.356115e+00    1.319865e+00   1.840072e-02
  1.358325e+00    1.304817e+00   1.830862e-02
  1.360536e+00    1.308860e+00   1.834840e-02
  1.362746e+00    1.349626e+00   1.864151e-02
  1.364957e+00    1.338719e+00   1.857369e-02
  1.367167e+00    1.340602e+00   1.859385e-02
  1.369378e+00    1.372247e+00   1.881810e-02
  1.371588e+00    1.402400e+00   1.902899e-02
  1.373799e+00    1.354355e+00   1.870391e-02
  1.376009e+00    1.300459e+00   1.833128e-02
  1.378220e+00    1.335999e+00   1.858261e-02
  1.380430e+00    1.344173e+00   1.864210e-02
  1.382640e+00    1.331190e+00   1.855276e-02
  1.384851e+00    1.331439e+00   1.855538e-02
  1.387061e+00    1.343298e+00   1.863811e-02
  1.389272e+00    1.324877e+00   1.851011e-02
  1.391482e+00    1.329257e+00   1.853999e-02
  1.393693e+00    1.315596e+00   1.844358e-02
  1.395903e+00    1.356567e+00   1.872703e-02
  1.398114e+00    1.347422e+00   1.866242e-02
  1.400324e+00    1.290715e+00   1.826334e-02
  1.402535e+00    1.278891e+00   1.817718e-02
  1.404745e+00    1.257249e+00   1.802037e-02
  1.406955e+00    1.269619e+00   1.810610e-02
  1.409166e+00    1.275993e+00   1.814819e-02
  1.411376e+00    1.269032e+00   1.809551e-02
  1.413587e+00    1.275127e+00   1.813507e-02
  1.415797e+00    1.280061e+00   1.816659e-02
  1.418008e+00    1.261508e+00   1.799273e-02
  1.420218e+00    1.258702e+00   1.782363e-02
  1.422429e+00    1.263022e+00   1.776912e-02
  1.424639e+00    1.250480e+00   1.761649e-02
  1.426850e+00    1.253288e+00   1.758191e-02
  1.429060e+00    1.269996e+00   1.764972e-02
  1.431270e+00    1.275517e+00   1.764365e-02
  1.433481e+00    1.264386e+00   1.752564e-02
  1.435691e+00    1.265585e+00   1.749557e-02
  1.437902e+00    1.282069e+00   1.757251e-02
  1.440112e+00    1.283163e+00   1.754447e-02
  1.442323e+00    1.298441e+00   1.761521e-02
  1.444533e+00    1.299389e+00   1.758870e-02
  1.446744e+00    1.306786e+00   1.760713e-02
  1.448954e+00    1.270665e+00   1.733189e-02
  1.451165e+00    1.279603e+00   1.736285e-02
  1.453375e+00    1.280935e+00   1.734373e-02
  1.455586e+00    1.267801e+00   1.722645e-02
  1.457796e+00    1.262568e+00   1.716342e-02
  1.460006e+00    1.244118e+00   1.701059e-02
  1.462217e+00    1.258240e+00   1.708074e-02
  1.464427e+00    1.273793e+00   1.716035e-02
  1.466638e+00    1.267682e+00   1.709383e-02
  1.468848e+00    1.276087e+00   1.712499e-02
  1.471059e+00    1.294996e+00   1.722608e-02
  1.473269e+00    1.257237e+00   1.694882e-02
  1.475480e+00    1.257937e+00   1.692986e-02
  1.477690e+00    1.279473e+00   1.705023e-02
  1.479901e+00    1.262447e+00   1.691262e-02
  1.482111e+00    1.245743e+00   1.677723e-02
  1.484321e+00    1.255389e+00   1.681907e-02
  1.486532e+00    1.214712e+00   1.652246e-02
  1.488742e+00    1.234290e+00   1.663268e-02
  1.490953e+00    1.252040e+00   1.672939e-02
  1.493163e+00    1.235722e+00   1.659796e-02
  1.495374e+00    1.260912e+00   1.674479e-02
  1.497584e+00    1.277868e+00   1.683525e-02
  1.499795e+00    1.228626e+00   1.648630e-02
  1.502005e+00    1.244886e+00   1.657348e-02
  1.504216e+00    1.224409e+00   1.641587e-02
  1.506426e+00    1.235435e+00   1.646897e-02
  1.508636e+00    1.232358e+00   1.642823e-02
  1.510847e+00    1.229238e+00   1.638583e-02
  1.513057e+00    1.239758e+00   1.643087e-02
  1.515268e+00    1.250747e+00   1.647786e-02
  1.517478e+00    1.217445e+00   1.623224e-02
  1.519689e+00    1.239277e+00   1.635230e-02
  1.521899e+00    1.253470e+00   1.642257e-02
  1.524110e+00    1.259697e+00   1.644293e-02
  1.526320e+00    1.251695e+00   1.637104e-02
  1.528531e+00    1.244201e+00   1.630225e-02
  1.530741e+00    1.263860e+00   1.641127e-02
  1.532951e+00    1.253920e+00   1.632700e-02
  1.535162e+00    1.279242e+00   1.657865e-02
  1.537372e+00    1.280356e+00   1.665360e-02
  1.539583e+00    1.291004e+00   1.675754e-02
  1.541793e+00    1.270024e+00   1.662782e-02
  1.544004e+00    1.268399e+00   1.661744e-02
  1.546214e+00    1.263144e+00   1.658146e-02
  1.548425e+00    1.249639e+00   1.649287e-02
  1.550635e+00    1.238051e+00   1.642583e-02
  1.552846e+00    1.238538e+00   1.643872e-02
  1.555056e+00    1.249274e+00   1.646823e-02
  1.557266e+00    1.245358e+00   1.633195e-02
  1.559477e+00    1.208436e+00   1.602975e-02
  1.561687e+00    1.223203e+00   1.609698e-02
  1.563898e+00    1.251192e+00   1.626289e-02
  1.566108e+00    1.260830e+00   1.630936e-02
  1.568319e+00    1.240424e+00   1.616125e-02
  1.570529e+00    1.237793e+00   1.611902e-02
  1.572740e+00    1.249730e+00   1.616889e-02
  1.574950e+00    1.235674e+00   1.605149e-02
  1.577161e+00    1.224432e+00   1.595303e-02
  1.579371e+00    1.219512e+00   1.589752e-02
  1.581582e+00    1.237322e+00   1.599347e-02
  1.583792e+00    1.212742e+00   1.581604e-02
  1.586002e+00    1.220003e+00   1.584586e-02
  1.588213e+00    1.220521e+00   1.583216e-02
  1.590423e+00    1.221399e+00   1.581795e-02
  1.592634e+00    1.213721e+00   1.574680e-02
  1.594844e+00    1.219908e+00   1.576568e-02
  1.597055e+00    1.222031e+00   1.575908e-02
  1.599265e+00    1.215749e+00   1.569801e-02
  1.601476e+00    1.198866e+00   1.556868e-02
  1.603686e+00    1.191617e+00   1.550216e-02
  1.605897e+00    1.210199e+00   1.560262e-02
  1.608107e+00    1.239288e+00   1.576948e-02
  1.610317e+00    1.228309e+00   1.568022e-02
  1.612528e+00    1.225372e+00   1.564237e-02
  1.614738e+00    1.210571e+00   1.552883e-02
  1.616949e+00    1.208321e+00   1.549555e-02
  1.619159e+00    1.184441e+00   1.532325e-02
  1.621370e+00    1.181379e+00   1.528524e-02
  1.623580e+00    1.181832e+00   1.527010e-02
  1.625791e+00    1.179696e+00   1.523824e-02
  1.628001e+00    1.176241e+00   1.519787e-02
  1.630212e+00    1.165066e+00   1.510794e-02
  1.632422e+00    1.165664e+00   1.509408e-02
  1.634632e+00    1.190711e+00   1.523800e-02
  1.636843e+00    1.182955e+00   1.517073e-02
  1.639053e+00    1.185846e+00   1.517187e-02
  1.641264e+00    1.173414e+00   1.507502e-02
  1.643474e+00    1.169438e+00   1.503201e-02
  1.645685e+00    1.145937e+00   1.486363e-02
  1.647895e+00    1.189259e+00   1.512511e-02
  1.650106e+00    1.196467e+00   1.515359e-02
  1.652316e+00    1.168956e+00   1.496172e-02
  1.654527e+00    1.158451e+00   1.487753e-02
  1.656737e+00    1.205127e+00   1.515725e-02
  1.658947e+00    1.169190e+00   1.491301e-02
  1.661158e+00    1.140874e+00   1.471495e-02
  1.663368e+00    1.104700e+00   1.446390e-02
  1.665579e+00    1.087420e+00   1.433440e-02
  1.667789e+00    1.093718e+00   1.435976e-02
  1.670000e+00    1.111455e+00   1.446027e-02
  1.672210e+00    1.097898e+00   1.435602e-02
  1.674421e+00    1.087306e+00   1.427139e-02
  1.676631e+00    1.066624e+00   1.411940e-02
  1.678842e+00    1.056285e+00   1.403532e-02
  1.681052e+00    1.061347e+00   1.405376e-02
  1.683263e+00    1.058244e+00   1.401829e-02
  1.685473e+00    1.067450e+00   1.406409e-02
  1.687683e+00    1.064828e+00   1.403154e-02
  1.689894e+00    1.073917e+00   1.407555e-02
  1.692104e+00    1.035256e+00   1.380527e-02
  1.694315e+00    1.056819e+00   1.393386e-02
  1.696525e+00    1.062014e+00   1.395301e-02
  1.698736e+00    1.038692e+00   1.378429e-02
  1.700946e+00    1.036497e+00   1.375477e-02
  1.703157e+00    1.045936e+00   1.380267e-02
  1.705367e+00    1.030833e+00   1.368835e-02
  1.707578e+00    1.016420e+00   1.357794e-02
  1.709788e+00    1.020967e+00   1.359434e-02
  1.711998e+00    1.016755e+00   1.355145e-02
  1.714209e+00    1.009132e+00   1.348631e-02
  1.716419e+00    9.994482e-01   1.340745e-02
  1.718630e+00    9.908605e-01   1.333571e-02
  1.720840e+00    1.011378e+00   1.345902e-02
  1.723051e+00    1.000110e+00   1.337014e-02
  1.725261e+00    9.945585e-01   1.331849e-02
  1.727472e+00    9.914901e-01   1.328394e-02
  1.729682e+00    9.819925e-01   1.320694e-02
  1.731893e+00    9.581738e-01   1.303224e-02
  1.734103e+00    9.698711e-01   1.309803e-02
  1.736313e+00    9.728260e-01   1.310419e-02
  1.738524e+00    9.646832e-01   1.303566e-02
  1.740734e+00    9.596575e-01   1.298823e-02
  1.742945e+00    9.664785e-01   1.302106e-02
  1.745155e+00    9.767631e-01   1.307681e-02
  1.747366e+00    9.665684e-01   1.299476e-02
  1.749576e+00    9.540961e-01   1.289717e-02
  1.751787e+00    9.605600e-01   1.292760e-02
  1.753997e+00    9.480214e-01   1.282978e-02
  1.756208e+00    9.446732e-01   1.279413e-02
  1.758418e+00    9.453548e-01   1.278579e-02
  1.760628e+00    9.339496e-01   1.269534e-02
  1.762839e+00    9.113849e-01   1.252819e-02
  1.765049e+00    9.263216e-01   1.261755e-02
  1.767260e+00    9.163908e-01   1.253724e-02
  1.769470e+00    9.044243e-01   1.244246e-02
  1.771681e+00    8.990388e-01   1.239259e-02
  1.773891e+00    9.214360e-01   1.253315e-02
  1.776102e+00    9.209720e-01   1.251732e-02
  1.778312e+00    8.989202e-01   1.235413e-02
  1.780523e+00    8.934660e-01   1.230419e-02
  1.782733e+00    8.929847e-01   1.228850e-02
  1.784944e+00    8.840705e-01   1.221449e-02
  1.787154e+00    8.962028e-01   1.228571e-02
  1.789364e+00    8.934686e-01   1.225475e-02
  1.791575e+00    8.778906e-01   1.213524e-02
  1.793785e+00    8.727949e-01   1.208791e-02
  1.795996e+00    8.659849e-01   1.202851e-02
  1.798206e+00    8.856853e-01   1.215227e-02
  1.800417e+00    9.037256e-01   1.226281e-02
  1.802627e+00    8.812401e-01   1.209762e-02
  1.804838e+00    8.603534e-01   1.194159e-02
  1.807048e+00    8.631635e-01   1.194857e-02
  1.809259e+00    8.606807e-01   1.191814e-02
  1.811469e+00    8.567088e-01   1.187603e-02
  1.813679e+00    8.771288e-01   1.200196e-02
  1.815890e+00    8.640910e-01   1.189798e-02
  1.818100e+00    8.496186e-01   1.178322e-02
  1.820311e+00    8.436728e-01   1.172754e-02
  1.822521e+00    8.737817e-01   1.192028e-02
  1.824732e+00    8.631909e-01   1.183324e-02
  1.826942e+00    8.491737e-01   1.172469e-02
  1.829153e+00    8.517446e-01   1.173096e-02
  1.831363e+00    8.690009e-01   1.183725e-02
  1.833574e+00    8.504639e-01   1.169886e-02
  1.835784e+00    8.496821e-01   1.168226e-02
  1.837994e+00    8.450964e-01   1.163918e-02
  1.840205e+00    8.605779e-01   1.173423e-02
  1.842415e+00    8.588864e-01   1.171102e-02
  1.844626e+00    8.498738e-01   1.163799e-02
  1.846836e+00    8.669042e-01   1.174260e-02
  1.849047e+00    8.540052e-01   1.164338e-02
  1.851257e+00    8.651237e-01   1.170935e-02
  1.853468e+00    8.583935e-01   1.165493e-02
  1.855678e+00    8.559132e-01   1.162922e-02
  1.857889e+00    8.568616e-01   1.162717e-02
  1.860099e+00    8.675575e-01   1.169083e-02
  1.862309e+00    8.649898e-01   1.166497e-02
  1.864520e+00    8.679151e-01   1.167604e-02
  1.866730e+00    8.759667e-01   1.172057e-02
  1.868941e+00    8.622990e-01   1.161779e-02
  1.871151e+00    8.324794e-01   1.140387e-02
  1.873362e+00    8.249908e-01   1.134128e-02
  1.875572e+00    8.288478e-01   1.135696e-02
  1.877783e+00    8.288551e-01   1.134571e-02
  1.879993e+00    8.352808e-01   1.137852e-02
  1.882204e+00    8.360153e-01   1.137269e-02
  1.884414e+00    8.244439e-01   1.128276e-02
  1.886624e+00    8.353384e-01   1.134605e-02
  1.888835e+00    8.157198e-01   1.120122e-02
  1.891045e+00    8.242366e-01   1.124875e-02
  1.893256e+00    8.223707e-01   1.122505e-02
  1.895466e+00    8.329322e-01   1.128573e-02
  1.897677e+00    8.482367e-01   1.137795e-02
  1.899887e+00    8.470867e-01   1.135917e-02
  1.902098e+00    8.353373e-01   1.126927e-02
  1.904308e+00    8.192903e-01   1.114997e-02
  1.906519e+00    8.239810e-01   1.117105e-02
  1.908729e+00    8.413314e-01   1.127737e-02
  1.910940e+00    8.143044e-01   1.108371e-02
  1.913150e+00    8.036621e-01   1.100061e-02
  1.915360e+00    8.134351e-01   1.105673e-02
  1.917571e+00    8.147405e-01   1.105480e-02
  1.919781e+00    8.120015e-01   1.102555e-02
  1.921992e+00    8.164167e-01   1.104492e-02
  1.924202e+00    8.138990e-01   1.101713e-02
  1.926413e+00    7.836381e-01   1.080029e-02
  1.928623e+00    7.893944e-01   1.082948e-02
  1.930834e+00    8.121644e-01   1.097415e-02
  1.933044e+00    8.082377e-01   1.093695e-02
  1.935255e+00    7.817925e-01   1.074638e-02
  1.937465e+00    7.891315e-01   1.078642e-02
  1.939675e+00    7.938724e-01   1.080803e-02
  1.941886e+00    7.717696e-01   1.064645e-02
  1.944096e+00    7.720504e-01   1.063837e-02
  1.946307e+00    7.740397e-01   1.064193e-02
  1.948517e+00    7.982370e-01   1.079654e-02
  1.950728e+00    7.928082e-01   1.074958e-02
  1.952938e+00    7.882549e-01   1.070862e-02
  1.955149e+00    7.754291e-01   1.061105e-02
  1.957359e+00    7.820264e-01   1.064614e-02
  1.959570e+00    7.850004e-01   1.065556e-02
  1.961780e+00    7.707448e-01   1.054859e-02
  1.963990e+00    7.793164e-01   1.059704e-02
  1.966201e+00    7.865446e-01   1.063604e-02
  1.968411e+00    7.699911e-01   1.051351e-02
  1.970622e+00    7.709354e-01   1.050995e-02
  1.972832e+00    8.011917e-01   1.070415e-02
  1.975043e+00    7.980229e-01   1.067286e-02
  1.977253e+00    7.816556e-01   1.055291e-02
  1.979464e+00    7.760835e-01   1.050524e-02
  1.981674e+00    7.695126e-01   1.045050e-02
  1.983885e+00    7.610627e-01   1.038307e-02
  1.986095e+00    7.704873e-01   1.043752e-02
  1.988305e+00    7.605768e-01   1.036042e-02
  1.990516e+00    7.600757e-01   1.034718e-02
  1.992726e+00    7.695190e-01   1.040166e-02
  1.994937e+00    7.487372e-01   1.025029e-02
  1.997147e+00    7.589741e-01   1.031050e-02
  1.999358e+00    7.608846e-01   1.031371e-02
  2.001568e+00    7.543231e-01   1.025848e-02
  2.003779e+00    7.566934e-01   1.026277e-02
  2.005989e+00    7.739936e-01   1.036740e-02
  2.008200e+00    7.688433e-01   1.032132e-02
  2.010410e+00    7.646321e-01   1.028132e-02
  2.012621e+00    7.442975e-01   1.013216e-02
  2.014831e+00    7.589045e-01   1.021969e-02
  2.017041e+00    7.595745e-01   1.021386e-02
  2.019252e+00    7.667562e-01   1.025208e-02
  2.021462e+00    7.483993e-01   1.011921e-02
  2.023673e+00    7.554241e-01   1.015725e-02
  2.025883e+00    7.695378e-01   1.024213e-02
  2.028094e+00    7.621460e-01   1.018320e-02
  2.030304e+00    7.640975e-01   1.018667e-02
  2.032515e+00    7.562612e-01   1.012503e-02
  2.034725e+00    7.330939e-01   9.959462e-03
  2.036936e+00    7.499936e-01   1.006430e-02
  2.039146e+00    7.528285e-01   1.007376e-02
  2.041356e+00    7.586648e-01   1.010309e-02
  2.043567e+00    7.557859e-01   1.007459e-02
  2.045777e+00    7.482840e-01   1.001526e-02
  2.047988e+00    7.576783e-01   1.006855e-02
  2.050198e+00    7.564799e-01   1.005212e-02
  2.052409e+00    7.681007e-01   1.012131e-02
  2.054619e+00    7.765743e-01   1.016950e-02
  2.056830e+00    7.786069e-01   1.017549e-02
  2.059040e+00    7.669958e-01   1.009175e-02
  2.061251e+00    7.638929e-01   1.006400e-02
  2.063461e+00    7.334242e-01   9.853733e-03
  2.065671e+00    7.553564e-01   9.991207e-03
  2.067882e+00    7.508603e-01   9.952432e-03
  2.070092e+00    7.456166e-01   9.908418e-03
  2.072303e+00    7.586336e-01   9.985332e-03
  2.074513e+00    7.204998e-01   9.721980e-03
  2.076724e+00    7.231414e-01   9.730436e-03
  2.078934e+00    7.295848e-01   9.764777e-03
  2.081145e+00    7.408207e-01   9.830608e-03
  2.083355e+00    7.286726e-01   9.740602e-03
  2.085566e+00    7.239150e-01   9.699922e-03
  2.087776e+00    7.345445e-01   9.761405e-03
  2.089986e+00    7.363654e-01   9.764737e-03
  2.092197e+00    7.187469e-01   9.638369e-03
  2.094407e+00    7.096338e-01   9.567999e-03
  2.096618e+00    7.131121e-01   9.582665e-03
  2.098828e+00    7.074591e-01   9.535469e-03
  2.101039e+00    7.093058e-01   9.539070e-03
  2.103249e+00    7.215813e-01   9.612640e-03
  2.105460e+00    7.231014e-01   9.613799e-03
  2.107670e+00    7.184098e-01   9.573881e-03
  2.109881e+00    7.181432e-01   9.563011e-03
  2.112091e+00    6.950974e-01   9.399516e-03
  2.114301e+00    7.098972e-01   9.490353e-03
  2.116512e+00    7.146192e-01   9.513117e-03
  2.118722e+00    7.141395e-01   9.501172e-03
  2.120933e+00    6.874564e-01   9.313325e-03
  2.123143e+00    6.826884e-01   9.272261e-03
  2.125354e+00    7.042786e-01   9.409308e-03
  2.127564e+00    6.905793e-01   9.308779e-03
  2.129775e+00    6.881988e-01   9.284157e-03
  2.131985e+00    6.993806e-01   9.350311e-03
  2.134196e+00    7.034976e-01   9.369267e-03
  2.136406e+00    7.030615e-01   9.357669e-03
  2.138617e+00    7.123396e-01   9.410750e-03
  2.140827e+00    6.970656e-01   9.325240e-03
  2.143037e+00    6.933928e-01   9.345667e-03
  2.145248e+00    6.982378e-01   9.400151e-03
  2.147458e+00    6.936684e-01   9.384365e-03
  2.149669e+00    6.945434e-01   9.402052e-03
  2.151879e+00    6.958083e-01   9.419798e-03
  2.154090e+00    6.809056e-01   9.325603e-03
  2.156300e+00    6.846557e-01   9.357742e-03
  2.158511e+00    6.955327e-01   9.437084e-03
  2.160721e+00    6.826286e-01   9.353909e-03
  2.162932e+00    6.839334e-01   9.366526e-03
  2.165142e+00    6.814070e-01   9.352209e-03
  2.167352e+00    6.875991e-01   9.397496e-03
  2.169563e+00    6.947587e-01   9.448231e-03
  2.171773e+00    7.001822e-01   9.487530e-03
  2.173984e+00    6.704597e-01   9.285352e-03
  2.176194e+00    6.695619e-01   9.280309e-03
  2.178405e+00    6.894892e-01   9.418067e-03
  2.180615e+00    6.921432e-01   9.436903e-03
  2.182826e+00    6.833494e-01   9.377404e-03
  2.185036e+00    6.860961e-01   9.396300e-03
  2.187247e+00    6.868629e-01   9.401489e-03
  2.189457e+00    6.742336e-01   9.314266e-03
  2.191667e+00    6.648075e-01   9.248751e-03
  2.193878e+00    6.715570e-01   9.295006e-03
  2.196088e+00    6.785945e-01   9.342914e-03
  2.198299e+00    6.766649e-01   9.328540e-03
  2.200509e+00    6.803015e-01   9.352507e-03
  2.202720e+00    6.829819e-01   9.369778e-03
  2.204930e+00    6.705525e-01   9.282898e-03
  2.207141e+00    6.628721e-01   9.228473e-03
  2.209351e+00    6.760149e-01   9.317626e-03
  2.211562e+00    6.742441e-01   9.303817e-03
  2.213772e+00    6.470972e-01   9.060341e-03
  2.215982e+00    6.757034e-01   9.214213e-03
  2.218193e+00    6.611776e-01   9.085366e-03
  2.220403e+00    6.564341e-01   9.028425e-03
  2.222614e+00    6.654618e-01   9.069502e-03
  2.224824e+00    6.536997e-01   8.969883e-03
  2.227035e+00    6.555762e-01   8.965543e-03
  2.229245e+00    6.562929e-01   8.953656e-03
  2.231456e+00    6.587602e-01   8.955012e-03
  2.233666e+00    6.651742e-01   8.983458e-03
  2.235877e+00    6.646379e-01   8.965643e-03
  2.238087e+00    6.585482e-01   8.911115e-03
  2.240298e+00    6.756776e-01   9.012412e-03
  2.242508e+00    6.689831e-01   8.952545e-03
  2.244718e+00    6.546972e-01   8.840792e-03
  2.246929e+00    6.645198e-01   8.892478e-03
  2.249139e+00    6.543718e-01   8.812074e-03
  2.251350e+00    6.455662e-01   8.741060e-03
  2.253560e+00    6.425280e-01   8.709104e-03
  2.255771e+00    6.387930e-01   8.672583e-03
  2.257981e+00    6.407335e-01   8.674767e-03
  2.260192e+00    6.472199e-01   8.707605e-03
  2.262402e+00    6.447727e-01   8.680433e-03
  2.264613e+00    6.661324e-01   8.812171e-03
  2.266823e+00    6.703193e-01   8.829400e-03
  2.269033e+00    6.544124e-01   8.713691e-03
  2.271244e+00    6.458296e-01   8.646086e-03
  2.273454e+00    6.556931e-01   8.701656e-03
  2.275665e+00    6.595858e-01   8.717156e-03
  2.277875e+00    6.592225e-01   8.704848e-03
  2.280086e+00    6.507005e-01   8.638437e-03
  2.282296e+00    6.422987e-01   8.573200e-03
  2.284507e+00    6.544146e-01   8.643568e-03
  2.286717e+00    6.604536e-01   8.673887e-03
  2.288928e+00    6.586543e-01   8.652188e-03
  2.291138e+00    6.487755e-01   8.577693e-03
  2.293348e+00    6.365526e-01   8.487107e-03
  2.295559e+00    6.471040e-01   8.547894e-03
  2.297769e+00    6.436580e-01   8.515936e-03
  2.299980e+00    6.556226e-01   8.585381e-03
  2.302190e+00    6.372354e-01   8.455113e-03
  2.304401e+00    6.569944e-01   8.575844e-03
  2.306611e+00    6.401419e-01   8.456031e-03
  2.308822e+00    6.323577e-01   8.396188e-03
  2.311032e+00    6.303212e-01   8.376322e-03
  2.313243e+00    6.430881e-01   8.454463e-03
  2.315453e+00    6.355234e-01   8.397127e-03
  2.317663e+00    6.250629e-01   8.318749e-03
  2.319874e+00    6.412952e-01   8.417366e-03
  2.322084e+00    6.394811e-01   8.396561e-03
  2.324295e+00    6.233333e-01   8.281771e-03
  2.326505e+00    6.229734e-01   8.270477e-03
  2.328716e+00    6.394634e-01   8.370698e-03
  2.330926e+00    6.277958e-01   8.285297e-03
  2.333137e+00    6.347942e-01   8.323011e-03
  2.335347e+00    6.409783e-01   8.354608e-03
  2.337558e+00    6.366556e-01   8.318154e-03
  2.339768e+00    6.344337e-01   8.295113e-03
  2.341979e+00    6.199670e-01   8.191744e-03
  2.344189e+00    6.265844e-01   8.227022e-03
  2.346399e+00    6.203826e-01   8.177828e-03
  2.348610e+00    6.190292e-01   8.160540e-03
  2.350820e+00    6.134774e-01   8.115840e-03
  2.353031e+00    6.044734e-01   8.047952e-03
  2.355241e+00    6.278524e-01   8.194091e-03
  2.357452e+00    6.271961e-01   8.181437e-03
  2.359662e+00    6.214799e-01   8.135896e-03
  2.361873e+00    6.251338e-01   8.151608e-03
  2.364083e+00    6.119963e-01   8.057587e-03
  2.366294e+00    6.243857e-01   8.130670e-03
  2.368504e+00    6.218523e-01   8.106108e-03
  2.370714e+00    6.235850e-01   8.109361e-03
  2.372925e+00    5.978888e-01   7.932642e-03
  2.375135e+00    5.950575e-01   7.905967e-03
  2.377346e+00    5.984612e-01   7.920770e-03
  2.379556e+00    5.999324e-01   7.922729e-03
  2.381767e+00    6.032355e-01   7.936781e-03
  2.383977e+00    6.122094e-01   7.987713e-03
  2.386188e+00    6.085464e-01   7.955938e-03
  2.388398e+00    6.116187e-01   7.968071e-03
  2.390609e+00    6.187251e-01   8.006515e-03
  2.392819e+00    6.106474e-01   7.946321e-03
  2.395029e+00    6.079333e-01   7.921045e-03
  2.397240e+00    5.948464e-01   7.827573e-03
  2.399450e+00    6.133464e-01   7.940558e-03
  2.401661e+00    5.927741e-01   7.798696e-03
  2.403871e+00    6.144530e-01   7.932243e-03
  2.406082e+00    6.017139e-01   7.842194e-03
  2.408292e+00    6.104336e-01   7.891026e-03
  2.410503e+00    6.025906e-01   7.832709e-03
  2.412713e+00    5.925907e-01   7.759753e-03
  2.414924e+00    5.788724e-01   7.662092e-03
  2.417134e+00    5.887541e-01   7.719669e-03
  2.419344e+00    5.935620e-01   7.743770e-03
  2.421555e+00    5.935667e-01   7.736370e-03
  2.423765e+00    5.815375e-01   7.650274e-03
  2.425976e+00    5.907918e-01   7.703154e-03
  2.428186e+00    5.877694e-01   7.676274e-03
  2.430397e+00    5.877272e-01   7.668596e-03
  2.432607e+00    5.756125e-01   7.581973e-03
  2.434818e+00    5.821424e-01   7.617407e-03
  2.437028e+00    5.749193e-01   7.562977e-03
  2.439239e+00    5.803856e-01   7.591262e-03
  2.441449e+00    5.818168e-01   7.593487e-03
  2.443659e+00    5.653787e-01   7.478274e-03
  2.445870e+00    5.666186e-01   7.498461e-03
  2.448080e+00    5.735645e-01   7.578808e-03
  2.450291e+00    5.666218e-01   7.549259e-03
  2.452501e+00    5.713645e-01   7.591890e-03
  2.454712e+00    5.590478e-01   7.517961e-03
  2.456922e+00    5.448226e-01   7.428146e-03
  2.459133e+00    5.572311e-01   7.517646e-03
  2.461343e+00    5.588135e-01   7.532626e-03
  2.463554e+00    5.683094e-01   7.599845e-03
  2.465764e+00    5.676381e-01   7.598518e-03
  2.467975e+00    5.520677e-01   7.495835e-03
  2.470185e+00    5.618364e-01   7.564112e-03
  2.472395e+00    5.715535e-01   7.630501e-03
  2.474606e+00    5.590826e-01   7.548364e-03
  2.476816e+00    5.555286e-01   7.525073e-03
  2.479027e+00    5.484648e-01   7.477916e-03
  2.481237e+00    5.460135e-01   7.461482e-03
  2.483448e+00    5.356724e-01   7.390765e-03
  2.485658e+00    5.407902e-01   7.425853e-03
  2.487869e+00    5.373215e-01   7.402036e-03
  2.490079e+00    5.412561e-01   7.428566e-03
  2.492290e+00    5.396263e-01   7.416942e-03
  2.494500e+00    5.405692e-01   7.422682e-03
  2.496710e+00    5.269390e-01   7.327840e-03
  2.498921e+00    5.128353e-01   7.228111e-03
  2.501131e+00    5.124445e-01   7.224443e-03
  2.503342e+00    5.051394e-01   7.171519e-03
  2.505552e+00    5.130421e-01   7.226288e-03
  2.507763e+00    5.101621e-01   7.204595e-03
  2.509973e+00    5.004892e-01   7.134617e-03
  2.512184e+00    4.980219e-01   7.115420e-03
  2.514394e+00    4.957910e-01   7.090403e-03
  2.516605e+00    5.214359e-01   7.224604e-03
  2.518815e+00    5.166362e-01   7.163239e-03
  2.521025e+00    5.178007e-01   7.150475e-03
  2.523236e+00    5.287078e-01   7.207370e-03
  2.525446e+00    5.004310e-01   6.996761e-03
  2.527657e+00    5.150307e-01   7.083617e-03
  2.529867e+00    5.148447e-01   7.068309e-03
  2.532078e+00    5.097048e-01   7.018107e-03
  2.534288e+00    5.065715e-01   6.982875e-03
  2.536499e+00    4.997856e-01   6.924281e-03
  2.538709e+00    5.195515e-01   7.048928e-03
  2.540920e+00    5.093938e-01   6.969213e-03
  2.543130e+00    5.064083e-01   6.938545e-03
  2.545340e+00    5.275617e-01   7.071881e-03
  2.547551e+00    5.108588e-01   6.949227e-03
  2.549761e+00    5.145188e-01   6.964545e-03
  2.551972e+00    5.071130e-01   6.905021e-03
  2.554182e+00    5.090293e-01   6.909004e-03
  2.556393e+00    4.994755e-01   6.834947e-03
  2.558603e+00    5.006064e-01   6.833763e-03
  2.560814e+00    4.980102e-01   6.807523e-03
  2.563024e+00    5.050082e-01   6.846719e-03
  2.565235e+00    5.066434e-01   6.848402e-03
  2.567445e+00    5.090954e-01   6.855490e-03
  2.569656e+00    5.147220e-01   6.883552e-03
  2.571866e+00    5.131129e-01   6.863479e-03
  2.574076e+00    5.025077e-01   6.783039e-03
  2.576287e+00    5.038643e-01   6.783962e-03
  2.578497e+00    5.048082e-01   6.782557e-03
  2.580708e+00    4.952956e-01   6.710422e-03
  2.582918e+00    5.029686e-01   6.754508e-03
  2.585129e+00    5.083973e-01   6.783196e-03
  2.587339e+00    4.817182e-01   6.595363e-03
  2.589550e+00    4.915864e-01   6.655170e-03
  2.591760e+00    5.022406e-01   6.719244e-03
  2.593971e+00    4.970340e-01   6.676937e-03
  2.596181e+00    4.946437e-01   6.654703e-03
  2.598391e+00    4.943067e-01   6.647360e-03
  2.600602e+00    4.960592e-01   6.653282e-03
  2.602812e+00    5.034432e-01   6.695136e-03
  2.605023e+00    4.974270e-01   6.647916e-03
  2.607233e+00    4.921771e-01   6.605726e-03
  2.609444e+00    4.892237e-01   6.578767e-03
  2.611654e+00    4.933977e-01   6.599547e-03
  2.613865e+00    5.028640e-01   6.655547e-03
  2.616075e+00    4.847763e-01   6.527771e-03
  2.618286e+00    4.907151e-01   6.560737e-03
  2.620496e+00    4.906403e-01   6.553633e-03
  2.622706e+00    4.917202e-01   6.555174e-03
  2.624917e+00    4.926894e-01   6.555851e-03
  2.627127e+00    5.008916e-01   6.604481e-03
  2.629338e+00    4.949307e-01   6.559131e-03
  2.631548e+00    4.945009e-01   6.550170e-03
  2.633759e+00    4.960613e-01   6.553400e-03
  2.635969e+00    4.883208e-01   6.495460e-03
  2.638180e+00    4.953538e-01   6.535138e-03
  2.640390e+00    5.112499e-01   6.632487e-03
  2.642601e+00    4.909349e-01   6.492807e-03
  2.644811e+00    4.935154e-01   6.502788e-03
  2.647021e+00    4.952244e-01   6.507532e-03
  2.649232e+00    4.853501e-01   6.435682e-03
  2.651442e+00    4.962419e-01   6.501031e-03
  2.653653e+00    4.836366e-01   6.411241e-03
  2.655863e+00    4.799025e-01   6.379874e-03
  2.658074e+00    4.769467e-01   6.353731e-03
  2.660284e+00    4.931108e-01   6.454153e-03
  2.662495e+00    4.930542e-01   6.447092e-03
  2.664705e+00    4.833178e-01   6.376615e-03
  2.666916e+00    4.972848e-01   6.461631e-03
  2.669126e+00    4.894169e-01   6.403911e-03
  2.671337e+00    4.940273e-01   6.427415e-03
  2.673547e+00    4.847729e-01   6.360634e-03
  2.675757e+00    4.674201e-01   6.239482e-03
  2.677968e+00    4.790197e-01   6.309981e-03
  2.680178e+00    4.986048e-01   6.431259e-03
  2.682389e+00    4.883683e-01   6.358570e-03
  2.684599e+00    4.737512e-01   6.256599e-03
  2.686810e+00    4.832071e-01   6.312177e-03
  2.689020e+00    4.872791e-01   6.332465e-03
  2.691231e+00    4.910533e-01   6.350651e-03
  2.693441e+00    4.844328e-01   6.301587e-03
  2.695652e+00    4.878164e-01   6.317055e-03
  2.697862e+00    4.905206e-01   6.328195e-03
  2.700072e+00    4.857108e-01   6.291045e-03
  2.702283e+00    4.696193e-01   6.179859e-03
  2.704493e+00    4.763330e-01   6.217671e-03
  2.706704e+00    4.895372e-01   6.296841e-03
  2.708914e+00    4.850731e-01   6.262126e-03
  2.711125e+00    4.764138e-01   6.199805e-03
  2.713335e+00    4.937391e-01   6.305397e-03
  2.715546e+00    4.825076e-01   6.226839e-03
  2.717756e+00    4.745721e-01   6.169617e-03
  2.719967e+00    4.790733e-01   6.192626e-03
  2.722177e+00    4.777229e-01   6.177825e-03
  2.724387e+00    4.788381e-01   6.178957e-03
  2.726598e+00    4.712856e-01   6.124081e-03
  2.728808e+00    4.654576e-01   6.080073e-03
  2.731019e+00    4.723629e-01   6.118945e-03
  2.733229e+00    4.714601e-01   6.107377e-03
  2.735440e+00    4.721867e-01   6.105887e-03
  2.737650e+00    4.789637e-01   6.143570e-03
  2.739861e+00    4.710192e-01   6.086404e-03
  2.742071e+00    4.734657e-01   6.096506e-03
  2.744282e+00    4.805712e-01   6.135850e-03
  2.746492e+00    4.697123e-01   6.060183e-03
  2.748702e+00    4.661466e-01   6.031320e-03
  2.750913e+00    4.821601e-01   6.128242e-03
  2.753123e+00    4.707972e-01   6.049572e-03
  2.755334e+00    4.665218e-01   6.016043e-03
  2.757544e+00    4.826800e-01   6.113571e-03
  2.759755e+00    4.742162e-01   6.053926e-03
  2.761965e+00    4.801994e-01   6.085979e-03
  2.764176e+00    4.835324e-01   6.101086e-03
  2.766386e+00    4.684022e-01   5.999136e-03
  2.768597e+00    4.685292e-01   5.994157e-03
  2.770807e+00    4.856201e-01   6.096572e-03
  2.773017e+00    4.808852e-01   6.060828e-03
  2.775228e+00    4.730732e-01   6.005630e-03
  2.777438e+00    4.611741e-01   5.923937e-03
  2.779649e+00    4.652320e-01   5.944108e-03
  2.781859e+00    4.548502e-01   5.871797e-03
  2.784070e+00    4.646082e-01   5.928648e-03
  2.786280e+00    4.609051e-01   5.899325e-03
  2.788491e+00    4.731910e-01   5.971602e-03
  2.790701e+00    4.663453e-01   5.922684e-03
  2.792912e+00    4.696683e-01   5.937808e-03
  2.795122e+00    4.842166e-01   6.023294e-03
  2.797333e+00    4.851734e-01   6.023629e-03
  2.799543e+00    4.758826e-01   5.959811e-03
  2.801753e+00    4.685454e-01   5.907884e-03
  2.803964e+00    4.564393e-01   5.825514e-03
  2.806174e+00    4.604757e-01   5.845142e-03
  2.808385e+00    4.824471e-01   5.976132e-03
  2.810595e+00    4.612774e-01   5.836772e-03
  2.812806e+00    4.738486e-01   5.909165e-03
  2.815016e+00    4.688053e-01   5.872933e-03
  2.817227e+00    4.622000e-01   5.857001e-03
  2.819437e+00    4.674770e-01   5.901348e-03
  2.821648e+00    4.616563e-01   5.866759e-03
  2.823858e+00    4.694091e-01   5.921125e-03
  2.826068e+00    4.620989e-01   5.879772e-03
  2.828279e+00    4.543306e-01   5.834098e-03
  2.830489e+00    4.452802e-01   5.778928e-03
  2.832700e+00    4.560377e-01   5.850837e-03
  2.834910e+00    4.507289e-01   5.818703e-03
  2.837121e+00    4.582199e-01   5.868530e-03
  2.839331e+00    4.619712e-01   5.893737e-03
  2.841542e+00    4.560901e-01   5.857095e-03
  2.843752e+00    4.591673e-01   5.877606e-03
  2.845963e+00    4.716742e-01   5.957485e-03
  2.848173e+00    4.628185e-01   5.901406e-03
  2.850383e+00    4.597718e-01   5.882240e-03
  2.852594e+00    4.637949e-01   5.907830e-03
  2.854804e+00    4.633029e-01   5.904195e-03
  2.857015e+00    4.671620e-01   5.928300e-03
  2.859225e+00    4.670630e-01   5.927442e-03
  2.861436e+00    4.568256e-01   5.861446e-03
  2.863646e+00    4.537554e-01   5.841767e-03
  2.865857e+00    4.600909e-01   5.882740e-03
  2.868067e+00    4.678183e-01   5.932151e-03
  2.870278e+00    4.748663e-01   5.976324e-03
  2.872488e+00    4.685606e-01   5.935351e-03
  2.874698e+00    4.456939e-01   5.787694e-03
  2.876909e+00    4.566849e-01   5.857280e-03
  2.879119e+00    4.576779e-01   5.862046e-03
  2.881330e+00    4.529748e-01   5.830400e-03
  2.883540e+00    4.416035e-01   5.755377e-03
  2.885751e+00    4.623377e-01   5.887297e-03
  2.887961e+00    4.588722e-01   5.863327e-03
  2.890172e+00    4.616109e-01   5.879189e-03
  2.892382e+00    4.573948e-01   5.850477e-03
  2.894593e+00    4.535335e-01   5.823938e-03
  2.896803e+00    4.550847e-01   5.831913e-03
  2.899014e+00    4.558688e-01   5.835034e-03
  2.901224e+00    4.572630e-01   5.841970e-03
  2.903434e+00    4.547347e-01   5.823856e-03
  2.905645e+00    4.560345e-01   5.829962e-03
  2.907855e+00    4.582925e-01   5.842281e-03
  2.910066e+00    4.425092e-01   5.738764e-03
  2.912276e+00    4.452818e-01   5.754615e-03
  2.914487e+00    4.453764e-01   5.752801e-03
  2.916697e+00    4.602752e-01   5.846004e-03
  2.918908e+00    4.553279e-01   5.812523e-03
  2.921118e+00    4.441015e-01   5.737751e-03
  2.923329e+00    4.543745e-01   5.801416e-03
  2.925539e+00    4.603208e-01   5.836997e-03
  2.927749e+00    4.465300e-01   5.746595e-03
  2.929960e+00    4.440114e-01   5.727625e-03
  2.932170e+00    4.591841e-01   5.822347e-03
  2.934381e+00    4.396949e-01   5.695031e-03
  2.936591e+00    4.578606e-01   5.808908e-03
  2.938802e+00    4.648696e-01   5.850469e-03
  2.941012e+00    4.639161e-01   5.842106e-03
  2.943223e+00    4.495820e-01   5.748485e-03
  2.945433e+00    4.380116e-01   5.670352e-03
  2.947644e+00    4.408190e-01   5.684428e-03
  2.949854e+00    4.465392e-01   5.716962e-03
  2.952064e+00    4.563700e-01   5.775318e-03
  2.954275e+00    4.459200e-01   5.704467e-03
  2.956485e+00    4.356651e-01   5.634371e-03
  2.958696e+00    4.457043e-01   5.694604e-03
  2.960906e+00    4.496036e-01   5.715291e-03
  2.963117e+00    4.492774e-01   5.708772e-03
  2.965327e+00    4.468494e-01   5.689454e-03
  2.967538e+00    4.571204e-01   5.751537e-03
  2.969748e+00    4.512672e-01   5.711807e-03
  2.971959e+00    4.431196e-01   5.656889e-03
  2.974169e+00    4.444623e-01   5.662922e-03
  2.976379e+00    4.419691e-01   5.644124e-03
  2.978590e+00    4.530989e-01   5.711603e-03
  2.980800e+00    4.493046e-01   5.684881e-03
  2.983011e+00    4.468341e-01   5.666444e-03
  2.985221e+00    4.420550e-01   5.632953e-03
  2.987432e+00    4.531495e-01   5.700076e-03
  2.989642e+00    4.443944e-01   5.642170e-03
  2.991853e+00    4.399656e-01   5.610746e-03
  2.994063e+00    4.437037e-01   5.631644e-03
  2.996274e+00    4.429184e-01   5.623535e-03
  2.998484e+00    4.390064e-01   5.595976e-03
  3.000694e+00    4.372454e-01   5.581363e-03
  3.002905e+00    4.422226e-01   5.610120e-03
  3.005115e+00    4.453356e-01   5.626901e-03
  3.007326e+00    4.374839e-01   5.573955e-03
  3.009536e+00    4.475042e-01   5.634205e-03
  3.011747e+00    4.405015e-01   5.587085e-03
  3.013957e+00    4.448449e-01   5.611389e-03
  3.016168e+00    4.443388e-01   5.604987e-03
  3.018378e+00    4.462003e-01   5.613688e-03
  3.020589e+00    4.443592e-01   5.598911e-03
  3.022799e+00    4.475211e-01   5.615662e-03
  3.025010e+00    4.514816e-01   5.637197e-03
  3.027220e+00    4.450588e-01   5.593909e-03
  3.029430e+00    4.381421e-01   5.547043e-03
  3.031641e+00    4.419726e-01   5.568152e-03
  3.033851e+00    4.403626e-01   5.554513e-03
  3.036062e+00    4.501896e-01   5.613380e-03
  3.038272e+00    4.356317e-01   5.518379e-03
  3.040483e+00    4.368438e-01   5.522855e-03
  3.042693e+00    4.445363e-01   5.568039e-03
  3.044904e+00    4.379067e-01   5.522416e-03
  3.047114e+00    4.387411e-01   5.522904e-03
  3.049325e+00    4.406935e-01   5.530859e-03
  3.051535e+00    4.255761e-01   5.430881e-03
  3.053745e+00    4.348827e-01   5.485280e-03
  3.055956e+00    4.375799e-01   5.497768e-03
  3.058166e+00    4.376337e-01   5.493897e-03
  3.060377e+00    4.339447e-01   5.466005e-03
  3.062587e+00    4.398004e-01   5.498191e-03
  3.064798e+00    4.335626e-01   5.454901e-03
  3.067008e+00    4.360766e-01   5.466000e-03
  3.069219e+00    4.450704e-01   5.517607e-03
  3.071429e+00    4.313809e-01   5.428661e-03
  3.073640e+00    4.275698e-01   5.401372e-03
  3.075850e+00    4.375753e-01   5.460655e-03
  3.078060e+00    4.377604e-01   5.458749e-03
  3.080271e+00    4.375328e-01   5.453907e-03
  3.082481e+00    4.384472e-01   5.456188e-03
  3.084692e+00    4.429452e-01   5.480759e-03
  3.086902e+00    4.307032e-01   5.401301e-03
  3.089113e+00    4.510718e-01   5.523956e-03
  3.091323e+00    4.419719e-01   5.464623e-03
  3.093534e+00    4.355931e-01   5.421686e-03
  3.095744e+00    4.344705e-01   5.411396e-03
  3.097955e+00    4.267053e-01   5.359349e-03
  3.100165e+00    4.395106e-01   5.435864e-03
  3.102375e+00    4.327597e-01   5.390597e-03
  3.104586e+00    4.369231e-01   5.413002e-03
  3.106796e+00    4.269585e-01   5.347493e-03
  3.109007e+00    4.169055e-01   5.281031e-03
  3.111217e+00    4.388898e-01   5.414829e-03
  3.113428e+00    4.272389e-01   5.339146e-03
  3.115638e+00    4.243957e-01   5.318175e-03
  3.117849e+00    4.304374e-01   5.352239e-03
  3.120059e+00    4.467440e-01   5.449205e-03
  3.122270e+00    4.327071e-01   5.359703e-03
  3.124480e+00    4.275376e-01   5.323992e-03
  3.126691e+00    4.289701e-01   5.329387e-03
  3.128901e+00    4.388959e-01   5.387596e-03
  3.131111e+00    4.293208e-01   5.324728e-03
  3.133322e+00    4.316825e-01   5.335966e-03
  3.135532e+00    4.184414e-01   5.250181e-03
  3.137743e+00    4.291749e-01   5.313666e-03
  3.139953e+00    4.448100e-01   5.405901e-03
  3.142164e+00    4.359629e-01   5.363807e-03
  3.144374e+00    4.223073e-01   5.306885e-03
  3.146585e+00    4.161976e-01   5.282474e-03
  3.148795e+00    4.168725e-01   5.297215e-03
  3.151006e+00    4.278294e-01   5.374777e-03
  3.153216e+00    4.277712e-01   5.381451e-03
  3.155426e+00    4.330364e-01   5.420722e-03
  3.157637e+00    4.286795e-01   5.398826e-03
  3.159847e+00    4.125111e-01   5.300754e-03
  3.162058e+00    4.201652e-01   5.354032e-03
  3.164268e+00    4.247180e-01   5.386947e-03
  3.166479e+00    4.266891e-01   5.403044e-03
  3.168689e+00    4.186593e-01   5.355232e-03
  3.170900e+00    4.339176e-01   5.455105e-03
  3.173110e+00    4.305772e-01   5.436919e-03
  3.175321e+00    4.244743e-01   5.400707e-03
  3.177531e+00    4.302508e-01   5.440033e-03
  3.179741e+00    4.328104e-01   5.458259e-03
  3.181952e+00    4.329265e-01   5.461084e-03
  3.184162e+00    4.288452e-01   5.437467e-03
  3.186373e+00    4.229788e-01   5.401709e-03
  3.188583e+00    4.220053e-01   5.397250e-03
  3.190794e+00    4.189972e-01   5.379687e-03
  3.193004e+00    4.373129e-01   5.497258e-03
  3.195215e+00    4.237400e-01   5.412785e-03
  3.197425e+00    4.087824e-01   5.317545e-03
  3.199636e+00    4.129271e-01   5.343689e-03
  3.201846e+00    4.157576e-01   5.361367e-03
  3.204056e+00    4.289941e-01   5.446941e-03
  3.206267e+00    4.180295e-01   5.377732e-03
  3.208477e+00    4.145463e-01   5.356142e-03
  3.210688e+00    4.267487e-01   5.435270e-03
  3.212898e+00    4.069988e-01   5.308552e-03
  3.215109e+00    4.190115e-01   5.387080e-03
  3.217319e+00    4.065465e-01   5.306946e-03
  3.219530e+00    4.217515e-01   5.405673e-03
  3.221740e+00    4.239395e-01   5.420223e-03
  3.223951e+00    4.328043e-01   5.477079e-03
  3.226161e+00    4.251528e-01   5.428633e-03
  3.228372e+00    4.244332e-01   5.424574e-03
  3.230582e+00    4.215763e-01   5.406433e-03
  3.232792e+00    4.130335e-01   5.351577e-03
  3.235003e+00    4.117174e-01   5.343284e-03
  3.237213e+00    4.223840e-01   5.412164e-03
  3.239424e+00    4.337448e-01   5.484459e-03
  3.241634e+00    4.298188e-01   5.459717e-03
  3.243845e+00    4.296068e-01   5.458430e-03
  3.246055e+00    4.225377e-01   5.413080e-03
  3.248266e+00    4.280906e-01   5.448710e-03
  3.250476e+00    4.180025e-01   5.383861e-03
  3.252687e+00    4.133524e-01   5.353727e-03
  3.254897e+00    4.274766e-01   5.444305e-03
  3.257107e+00    4.118797e-01   5.343775e-03
  3.259318e+00    4.080087e-01   5.318356e-03
  3.261528e+00    4.119601e-01   5.343916e-03
  3.263739e+00    4.180733e-01   5.382856e-03
  3.265949e+00    4.174666e-01   5.378854e-03
  3.268160e+00    4.131835e-01   5.350762e-03
  3.270370e+00    4.094063e-01   5.325749e-03
  3.272581e+00    4.135582e-01   5.352409e-03
  3.274791e+00    4.215674e-01   5.403464e-03
  3.277002e+00    4.130754e-01   5.348223e-03
  3.279212e+00    4.168702e-01   5.372339e-03
  3.281422e+00    4.176754e-01   5.376968e-03
  3.283633e+00    4.176191e-01   5.375915e-03
  3.285843e+00    4.206140e-01   5.394830e-03
  3.288054e+00    4.159431e-01   5.363869e-03
  3.290264e+00    4.130197e-01   5.344668e-03
  3.292475e+00    4.200728e-01   5.389273e-03
  3.294685e+00    4.229311e-01   5.406956e-03
  3.296896e+00    4.249811e-01   5.419268e-03
  3.299106e+00    4.333800e-01   5.472021e-03
  3.301317e+00    4.156795e-01   5.358085e-03
  3.303527e+00    4.052975e-01   5.290299e-03
  3.305737e+00    4.075910e-01   5.304191e-03
  3.307948e+00    4.293426e-01   5.443230e-03
  3.310158e+00    4.226670e-01   5.399913e-03
  3.312369e+00    4.091708e-01   5.312114e-03
  3.314579e+00    4.228278e-01   5.399121e-03
  3.316790e+00    4.207201e-01   5.384952e-03
  3.319000e+00    4.231372e-01   5.399218e-03
  3.321211e+00    4.199345e-01   5.378135e-03
  3.323421e+00    4.149967e-01   5.345232e-03
  3.325632e+00    4.039011e-01   5.272426e-03
  3.327842e+00    4.069762e-01   5.291539e-03
  3.330052e+00    4.210041e-01   5.380908e-03
  3.332263e+00    4.314309e-01   5.446102e-03
  3.334473e+00    4.216394e-01   5.383035e-03
  3.336684e+00    4.323231e-01   5.449545e-03
  3.338894e+00    4.220819e-01   5.383751e-03
  3.341105e+00    4.173778e-01   5.352470e-03
  3.343315e+00    4.086289e-01   5.294955e-03
  3.345526e+00    4.021773e-01   5.252101e-03
  3.347736e+00    4.151736e-01   5.334884e-03
  3.349947e+00    4.130938e-01   5.320587e-03
  3.352157e+00    3.967237e-01   5.212964e-03
  3.354368e+00    4.125141e-01   5.314395e-03
  3.356578e+00    4.079408e-01   5.283871e-03
  3.358788e+00    3.966156e-01   5.208695e-03
  3.360999e+00    4.110898e-01   5.301652e-03
  3.363209e+00    4.152977e-01   5.327706e-03
  3.365420e+00    4.037685e-01   5.251754e-03
  3.367630e+00    4.037743e-01   5.250788e-03
  3.369841e+00    4.113750e-01   5.298550e-03
  3.372051e+00    4.134881e-01   5.310178e-03
  3.374262e+00    4.158204e-01   5.322705e-03
  3.376472e+00    4.076034e-01   5.267437e-03
  3.378683e+00    4.137269e-01   5.304351e-03
  3.380893e+00    3.961458e-01   5.188153e-03
  3.383103e+00    3.953695e-01   5.180407e-03
  3.385314e+00    4.043434e-01   5.236687e-03
  3.387524e+00    4.001624e-01   5.206858e-03
  3.389735e+00    3.984305e-01   5.192983e-03
  3.391945e+00    4.019755e-01   5.212422e-03
  3.394156e+00    4.020112e-01   5.208470e-03
  3.396366e+00    4.092169e-01   5.251572e-03
  3.398577e+00    3.965552e-01   5.166684e-03
  3.400787e+00    4.008353e-01   5.206259e-03
  3.402998e+00    3.917779e-01   5.184317e-03
  3.405208e+00    3.900549e-01   5.193165e-03
  3.407418e+00    3.857135e-01   5.179650e-03
  3.409629e+00    3.802360e-01   5.156356e-03
  3.411839e+00    3.755093e-01   5.135606e-03
  3.414050e+00    3.843543e-01   5.206574e-03
  3.416260e+00    3.777425e-01   5.171015e-03
  3.418471e+00    3.714622e-01   5.137009e-03
  3.420681e+00    3.762118e-01   5.178049e-03
  3.422892e+00    3.880818e-01   5.267079e-03
  3.425102e+00    3.963225e-01   5.330584e-03
  3.427313e+00    3.839374e-01   5.253789e-03
  3.429523e+00    3.771013e-01   5.213789e-03
  3.431733e+00    3.736043e-01   5.196104e-03
  3.433944e+00    3.702509e-01   5.179081e-03
  3.436154e+00    3.871242e-01   5.302066e-03
  3.438365e+00    3.593325e-01   5.113968e-03
  3.440575e+00    3.717089e-01   5.207130e-03
  3.442786e+00    3.772803e-01   5.251612e-03
  3.444996e+00    3.709141e-01   5.212578e-03
  3.447207e+00    3.564345e-01   5.114977e-03
  3.449417e+00    3.478363e-01   5.092396e-03
  3.451628e+00    3.677030e-01   5.265187e-03
  3.453838e+00    3.650599e-01   5.267317e-03
  3.456049e+00    3.665513e-01   5.301976e-03
  3.458259e+00    3.634157e-01   5.301072e-03
  3.460469e+00    3.647303e-01   5.330415e-03
  3.462680e+00    3.563772e-01   5.287799e-03
  3.464890e+00    3.628500e-01   5.353322e-03
  3.467101e+00    3.718996e-01   5.437233e-03
  3.469311e+00    3.837071e-01   5.539725e-03
  3.471522e+00    3.702212e-01   5.457813e-03
  3.473732e+00    3.753480e-01   5.511323e-03
  3.475943e+00    3.849612e-01   5.597204e-03
  3.478153e+00    3.992934e-01   5.716130e-03
  3.480364e+00    3.858032e-01   5.633730e-03
  3.482574e+00    3.902979e-01   5.681529e-03
  3.484784e+00    4.219483e-01   5.922481e-03
  3.486995e+00    4.206089e-01   5.928261e-03
  3.489205e+00    4.288057e-01   6.000521e-03
  3.491416e+00    4.310339e-01   6.031054e-03
  3.493626e+00    4.464849e-01   6.153003e-03
  3.495837e+00    4.343769e-01   6.083653e-03
  3.498047e+00    4.488417e-01   6.198667e-03
  3.500258e+00    4.508074e-01   6.226780e-03
  3.502468e+00    4.566915e-01   6.281756e-03
  3.504679e+00    4.662403e-01   6.361663e-03
  3.506889e+00    4.584760e-01   6.322780e-03
  3.509099e+00    4.742986e-01   6.445382e-03
  3.511310e+00    4.711711e-01   6.438489e-03
  3.513520e+00    4.631112e-01   6.397314e-03
  3.515731e+00    4.803253e-01   6.529391e-03
  3.517941e+00    4.927050e-01   6.627409e-03
  3.520152e+00    4.927253e-01   6.641853e-03
  3.522362e+00    4.839729e-01   6.596802e-03
  3.524573e+00    5.197993e-01   6.851105e-03
  3.526783e+00    5.124574e-01   6.815945e-03
  3.528994e+00    5.121291e-01   6.825922e-03
  3.531204e+00    5.071771e-01   6.805142e-03
  3.533414e+00    5.065358e-01   6.812668e-03
  3.535625e+00    5.295324e-01   6.978010e-03
  3.537835e+00    5.308380e-01   6.998684e-03
  3.540046e+00    5.341435e-01   7.029383e-03
  3.542256e+00    5.427291e-01   7.093209e-03
  3.544467e+00    5.437199e-01   7.107374e-03
  3.546677e+00    5.441383e-01   7.117745e-03
  3.548888e+00    5.317643e-01   7.043825e-03
  3.551098e+00    5.297533e-01   7.037729e-03
  3.553309e+00    5.328010e-01   7.066068e-03
  3.555519e+00    5.361663e-01   7.099669e-03
  3.557729e+00    5.305535e-01   7.074065e-03
  3.559940e+00    5.212557e-01   7.023201e-03
  3.562150e+00    5.134986e-01   6.982203e-03
  3.564361e+00    5.169963e-01   7.019018e-03
  3.566571e+00    5.219689e-01   7.066341e-03
  3.568782e+00    5.342575e-01   7.163134e-03
  3.570992e+00    5.346457e-01   7.179474e-03
  3.573203e+00    5.165198e-01   7.070622e-03
  3.575413e+00    5.347549e-01   7.208084e-03
  3.577624e+00    5.310819e-01   7.197386e-03
  3.579834e+00    5.070733e-01   7.046260e-03
  3.582045e+00    5.251299e-01   7.184542e-03
  3.584255e+00    5.299726e-01   7.231574e-03
  3.586465e+00    5.360773e-01   7.287016e-03
  3.588676e+00    5.521654e-01   7.409972e-03
  3.590886e+00    5.446298e-01   7.373085e-03
  3.593097e+00    5.171465e-01   7.198863e-03
  3.595307e+00    5.171558e-01   7.212604e-03
  3.597518e+00    5.254112e-01   7.284047e-03
  3.599728e+00    5.168167e-01   7.238049e-03
  3.601939e+00    5.174066e-01   7.256022e-03
  3.604149e+00    5.370740e-01   7.407044e-03
  3.606360e+00    5.053267e-01   7.198566e-03
  3.608570e+00    5.344656e-01   7.417304e-03
  3.610780e+00    5.324160e-01   7.414154e-03
  3.612991e+00    5.285469e-01   7.397084e-03
  3.615201e+00    5.280682e-01   7.403472e-03
  3.617412e+00    5.372258e-01   7.474705e-03
  3.619622e+00    5.357663e-01   7.470476e-03
  3.621833e+00    5.350904e-01   7.472484e-03
  3.624043e+00    5.386018e-01   7.506517e-03
  3.626254e+00    5.323556e-01   7.472539e-03
  3.628464e+00    5.426812e-01   7.555722e-03
  3.630675e+00    5.310888e-01   7.488702e-03
  3.632885e+00    5.286261e-01   7.485650e-03
  3.635095e+00    5.062838e-01   7.339818e-03
  3.637306e+00    5.225940e-01   7.471272e-03
  3.639516e+00    5.213072e-01   7.476491e-03
  3.641727e+00    5.115068e-01   7.420089e-03
  3.643937e+00    5.464695e-01   7.684246e-03
  3.646148e+00    5.393251e-01   7.648567e-03
  3.648358e+00    5.275345e-01   7.579250e-03
  3.650569e+00    5.223524e-01   7.556527e-03
  3.652779e+00    5.240200e-01   7.583241e-03
  3.654990e+00    5.177776e-01   7.552626e-03
  3.657200e+00    5.086161e-01   7.500043e-03
  3.659410e+00    5.198814e-01   7.597454e-03
  3.661621e+00    5.140429e-01   7.569518e-03
  3.663831e+00    5.059659e-01   7.524563e-03
  3.666042e+00    5.259673e-01   7.686931e-03
  3.668252e+00    5.076728e-01   7.566974e-03
  3.670463e+00    4.999234e-01   7.523757e-03
  3.672673e+00    5.349367e-01   7.798231e-03
  3.674884e+00    5.228410e-01   7.724887e-03
  3.677094e+00    5.237032e-01   7.746653e-03
  3.679305e+00    5.185795e-01   7.724058e-03
  3.681515e+00    5.043204e-01   7.632350e-03
  3.683726e+00    5.341867e-01   7.870929e-03
  3.685936e+00    5.330968e-01   7.878724e-03
  3.688146e+00    5.102073e-01   7.723188e-03
  3.690357e+00    5.132566e-01   7.761993e-03
  3.692567e+00    5.225324e-01   7.847845e-03
  3.694778e+00    5.223747e-01   7.862644e-03
  3.696988e+00    5.069652e-01   7.761516e-03
  3.699199e+00    5.200771e-01   7.877382e-03
  3.701409e+00    5.279269e-01   7.953036e-03
  3.703620e+00    5.170556e-01   7.886921e-03
  3.705830e+00    5.099367e-01   7.848624e-03
  3.708041e+00    5.294790e-01   8.014234e-03
  3.710251e+00    5.183972e-01   7.946604e-03
  3.712461e+00    5.129969e-01   7.921675e-03
  3.714672e+00    5.117889e-01   7.928887e-03
  3.716882e+00    5.076714e-01   7.913457e-03
  3.719093e+00    4.979489e-01   7.854067e-03
  3.721303e+00    4.970664e-01   7.863654e-03
  3.723514e+00    4.958003e-01   7.870577e-03
  3.725724e+00    5.120735e-01   8.015643e-03
  3.727935e+00    5.279303e-01   8.156538e-03
  3.730145e+00    4.995832e-01   7.951529e-03
  3.732356e+00    5.078192e-01   8.034207e-03
  3.734566e+00    5.050430e-01   8.029579e-03
  3.736776e+00    4.890391e-01   7.918639e-03
  3.738987e+00    4.947789e-01   7.982334e-03
  3.741197e+00    5.222954e-01   8.219498e-03
  3.743408e+00    5.125523e-01   8.160496e-03
  3.745618e+00    5.120925e-01   8.175156e-03
  3.747829e+00    5.129438e-01   8.200042e-03
  3.750039e+00    4.972136e-01   8.091493e-03
  3.752250e+00    4.695708e-01   7.881029e-03
  3.754460e+00    4.885201e-01   8.056591e-03
  3.756671e+00    4.942214e-01   8.122002e-03
  3.758881e+00    5.051769e-01   8.230097e-03
  3.761091e+00    5.131527e-01   8.314064e-03
  3.763302e+00    5.181991e-01   8.374089e-03
  3.765512e+00    5.070636e-01   8.302915e-03
  3.767723e+00    4.820409e-01   8.114306e-03
  3.769933e+00    4.796956e-01   8.113299e-03
  3.772144e+00    5.064401e-01   8.356013e-03
  3.774354e+00    4.983617e-01   8.308845e-03
  3.776565e+00    4.949178e-01   8.299713e-03
  3.778775e+00    4.891074e-01   8.270500e-03
  3.780986e+00    5.165642e-01   8.520005e-03
  3.783196e+00    5.053120e-01   8.446984e-03
  3.785407e+00    4.928000e-01   8.361970e-03
  3.787617e+00    4.992138e-01   8.436918e-03
  3.789827e+00    4.954693e-01   8.425584e-03
  3.792038e+00    5.102369e-01   8.571225e-03
  3.794248e+00    4.943241e-01   8.457554e-03
  3.796459e+00    5.119728e-01   8.628734e-03
  3.798669e+00    5.136442e-01   8.664536e-03
  3.800880e+00    4.912041e-01   8.494369e-03
  3.803090e+00    4.893597e-01   8.499955e-03
  3.805301e+00    4.911032e-01   8.537009e-03
  3.807511e+00    4.907120e-01   8.555358e-03
  3.809722e+00    5.102337e-01   8.746379e-03
  3.811932e+00    4.981277e-01   8.664189e-03
  3.814142e+00    4.922269e-01   8.635432e-03
  3.816353e+00    4.938783e-01   8.672648e-03
  3.818563e+00    4.807734e-01   8.579464e-03
  3.820774e+00    4.968830e-01   8.745105e-03
  3.822984e+00    5.054495e-01   8.843794e-03
  3.825195e+00    4.945939e-01   8.771933e-03
  3.827405e+00    5.086777e-01   8.920052e-03
  3.829616e+00    5.124703e-01   8.977760e-03
  3.831826e+00    4.882005e-01   8.786478e-03
  3.834037e+00    4.910149e-01   8.836146e-03
  3.836247e+00    5.021328e-01   8.960410e-03
  3.838457e+00    4.950860e-01   8.922359e-03
  3.840668e+00    4.985781e-01   8.978969e-03
  3.842878e+00    4.953796e-01   8.975634e-03
  3.845089e+00    4.850066e-01   8.906475e-03
  3.847299e+00    5.046331e-01   9.110922e-03
  3.849510e+00    5.139032e-01   9.220569e-03
  3.851720e+00    4.983616e-01   9.101531e-03
  3.853931e+00    4.776566e-01   8.929150e-03
  3.856141e+00    4.747886e-01   8.920915e-03
  3.858352e+00    4.906514e-01   9.087849e-03
  3.860562e+00    4.782841e-01   8.991689e-03
  3.862772e+00    4.932549e-01   9.150796e-03
  3.864983e+00    5.163234e-01   9.382462e-03
  3.867193e+00    4.869346e-01   9.131243e-03
  3.869404e+00    4.814509e-01   9.099205e-03
  3.871614e+00    4.846732e-01   9.149391e-03
  3.873825e+00    5.021267e-01   9.333134e-03
  3.876035e+00    4.927941e-01   9.266669e-03
  3.878246e+00    4.633310e-01   9.010377e-03
  3.880456e+00    4.811558e-01   9.210634e-03
  3.882667e+00    4.937021e-01   9.359335e-03
  3.884877e+00    4.935834e-01   9.388096e-03
  3.887087e+00    4.660783e-01   9.151838e-03
  3.889298e+00    4.733569e-01   9.252843e-03
  3.891508e+00    4.903994e-01   9.448484e-03
  3.893719e+00    4.828123e-01   9.405854e-03
  3.895929e+00    4.738880e-01   9.349329e-03
  3.898140e+00    5.070188e-01   9.702906e-03
  3.900350e+00    4.985186e-01   9.653678e-03
  3.902561e+00    4.635044e-01   9.339917e-03
  3.904771e+00    5.146369e-01   9.875167e-03
  3.906982e+00    4.644545e-01   9.413872e-03
  3.909192e+00    4.603859e-01   9.404765e-03
  3.911403e+00    4.851639e-01   9.688591e-03
  3.913613e+00    4.847226e-01   9.718247e-03
  3.915823e+00    4.537975e-01   9.436721e-03
  3.918034e+00    4.687153e-01   9.625027e-03
  3.920244e+00    4.862163e-01   9.838796e-03
  3.922455e+00    4.940693e-01   9.954189e-03
  3.924665e+00    5.028301e-01   1.007906e-02
  3.926876e+00    5.016326e-01   1.010469e-02
  3.929086e+00    4.539537e-01   9.648546e-03
  3.931297e+00    4.637395e-01   9.785956e-03
  3.933507e+00    4.393201e-01   9.552189e-03
  3.935718e+00    4.885596e-01   1.010208e-02
  3.937928e+00    4.985366e-01   1.023459e-02
  3.940138e+00    4.660856e-01   9.924505e-03
  3.942349e+00    4.917343e-01   1.022392e-02
  3.944559e+00    4.762113e-01   1.009096e-02
  3.946770e+00    4.623101e-01   9.971993e-03
  3.948980e+00    4.683302e-01   1.006680e-02
  3.951191e+00    4.663346e-01   1.007552e-02
  3.953401e+00    4.922087e-01   1.038286e-02
  3.955612e+00    4.723922e-01   1.020289e-02
  3.957822e+00    4.824889e-01   1.034287e-02
  3.960033e+00    4.886006e-01   1.044095e-02
  3.962243e+00    4.734254e-01   1.030991e-02
  3.964453e+00    4.723878e-01   1.033126e-02
  3.966664e+00    4.694864e-01   1.033238e-02
  3.968874e+00    5.019267e-01   1.071221e-02
  3.971085e+00    4.882111e-01   1.058682e-02
  3.973295e+00    4.887920e-01   1.061463e-02
  3.975506e+00    4.745305e-01   1.048008e-02
  3.977716e+00    4.897289e-01   1.066857e-02
  3.979927e+00    4.802841e-01   1.058730e-02
  3.982137e+00    4.264570e-01   9.997265e-03
  3.984348e+00    4.766765e-01   1.059183e-02
  3.986558e+00    4.894402e-01   1.075513e-02
  3.988768e+00    4.550109e-01   1.039233e-02
  3.990979e+00    4.835875e-01   1.073630e-02
  3.993189e+00    4.871558e-01   1.079900e-02
  3.995400e+00    4.757169e-01   1.069477e-02
  3.997610e+00    5.066392e-01   1.106734e-02
  3.999821e+00    5.074179e-01   1.111428e-02
  4.002031e+00    5.113466e-01   1.119665e-02
  4.004242e+00    4.734627e-01   1.081198e-02
  4.006452e+00    4.824503e-01   1.095331e-02
  4.008663e+00    4.999597e-01   1.119096e-02
  4.010873e+00    4.566892e-01   1.073461e-02
  4.013084e+00    4.561994e-01   1.076842e-02
  4.015294e+00    4.895258e-01   1.119614e-02
  4.017504e+00    4.687986e-01   1.099762e-02
  4.019715e+00    4.492770e-01   1.080729e-02
  4.021925e+00    4.597691e-01   1.097450e-02
  4.024136e+00    4.880043e-01   1.135044e-02
  4.026346e+00    4.689901e-01   1.117048e-02
  4.028557e+00    4.713756e-01   1.124266e-02
  4.030767e+00    4.771887e-01   1.135701e-02
  4.032978e+00    4.917863e-01   1.157622e-02
  4.035188e+00    4.705791e-01   1.136929e-02
  4.037399e+00    4.767648e-01   1.149109e-02
  4.039609e+00    4.630805e-01   1.137182e-02
  4.041819e+00    4.506166e-01   1.126460e-02
  4.044030e+00    4.787670e-01   1.166087e-02
  4.046240e+00    4.850474e-01   1.178709e-02
  4.048451e+00    5.074657e-01   1.210853e-02
  4.050661e+00    4.967195e-01   1.203202e-02
  4.052872e+00    4.598328e-01   1.162802e-02
  4.055082e+00    4.422634e-01   1.145488e-02
  4.057293e+00    4.495382e-01   1.160064e-02
  4.059503e+00    4.856434e-01   1.211218e-02
  4.061714e+00    4.813625e-01   1.211533e-02
  4.063924e+00    4.710148e-01   1.204041e-02
  4.066134e+00    4.970903e-01   1.242748e-02
  4.068345e+00    4.749385e-01   1.220590e-02
  4.070555e+00    4.497375e-01   1.193506e-02
  4.072766e+00    4.555244e-01   1.207068e-02
  4.074976e+00    4.509339e-01   1.206955e-02
  4.077187e+00    4.838623e-01   1.256469e-02
  4.079397e+00    5.019997e-01   1.286325e-02
  4.081608e+00    4.930885e-01   1.281510e-02
  4.083818e+00    4.515882e-01   1.232755e-02
  4.086029e+00    4.836169e-01   1.282448e-02
  4.088239e+00    4.704935e-01   1.271749e-02
  4.090449e+00    4.770802e-01   1.287563e-02
  4.092660e+00    4.871747e-01   1.308268e-02
  4.094870e+00    4.430303e-01   1.254529e-02
  4.097081e+00    4.506463e-01   1.272196e-02
  4.099291e+00    4.548514e-01   1.283404e-02
  4.101502e+00    4.549078e-01   1.288267e-02
  4.103712e+00    4.660327e-01   1.308805e-02
  4.105923e+00    4.438659e-01   1.282229e-02
  4.108133e+00    4.689111e-01   1.322986e-02
  4.110344e+00    4.655454e-01   1.323268e-02
  4.112554e+00    4.768455e-01   1.344524e-02
  4.114764e+00    4.560602e-01   1.320186e-02
  4.116975e+00    4.799094e-01   1.359611e-02
  4.119185e+00    4.855396e-01   1.373092e-02
  4.121396e+00    4.621050e-01   1.345104e-02
  4.123606e+00    4.518297e-01   1.335507e-02
  4.125817e+00    4.551498e-01   1.346031e-02
  4.128027e+00    4.772779e-01   1.384147e-02
  4.130238e+00    4.849844e-01   1.401280e-02
  4.132448e+00    4.693678e-01   1.384528e-02
  4.134659e+00    4.617850e-01   1.379172e-02
  4.136869e+00    4.723533e-01   1.401112e-02
  4.139080e+00    4.514124e-01   1.375872e-02
  4.141290e+00    4.617851e-01   1.397749e-02
  4.143500e+00    4.986784e-01   1.459212e-02
  4.145711e+00    4.440672e-01   1.383435e-02
  4.147921e+00    4.498085e-01   1.398726e-02
  4.150132e+00    4.968472e-01   1.477054e-02
  4.152342e+00    4.853069e-01   1.466887e-02
  4.154553e+00    4.515183e-01   1.421633e-02
  4.156763e+00    4.810445e-01   1.474619e-02
  4.158974e+00    4.897708e-01   1.495426e-02
  4.161184e+00    5.067080e-01   1.528601e-02
  4.163395e+00    4.978268e-01   1.522890e-02
  4.165605e+00    5.241416e-01   1.570742e-02
  4.167815e+00    4.970637e-01   1.537628e-02
  4.170026e+00    4.805233e-01   1.519780e-02
  4.172236e+00    4.961505e-01   1.552647e-02
  4.174447e+00    5.021357e-01   1.570457e-02
  4.176657e+00    5.682824e-01   1.679854e-02
  4.178868e+00    5.024961e-01   1.588590e-02
  4.181078e+00    4.668804e-01   1.539864e-02
  4.183289e+00    5.172811e-01   1.630119e-02
  4.185499e+00    5.013999e-01   1.614386e-02
  4.187710e+00    4.951483e-01   1.613698e-02
  4.189920e+00    4.529647e-01   1.552707e-02
  4.192130e+00    4.580087e-01   1.570883e-02
  4.194341e+00    4.727953e-01   1.605793e-02
  4.196551e+00    5.043700e-01   1.669068e-02
  4.198762e+00    4.750893e-01   1.630199e-02
  4.200972e+00    4.544145e-01   1.604652e-02
  4.203183e+00    4.641695e-01   1.632442e-02
  4.205393e+00    4.421451e-01   1.603879e-02
  4.207604e+00    4.522530e-01   1.633140e-02
  4.209814e+00    5.328041e-01   1.784790e-02
  4.212025e+00    4.931899e-01   1.729344e-02
  4.214235e+00    4.797723e-01   1.717754e-02
  4.216445e+00    4.877169e-01   1.744417e-02
  4.218656e+00    5.137920e-01   1.803872e-02
  4.220866e+00    5.204185e-01   1.828890e-02
  4.223077e+00    5.451753e-01   1.886349e-02
  4.225287e+00    4.666833e-01   1.758977e-02
  4.227498e+00    4.638280e-01   1.767330e-02
  4.229708e+00    4.573128e-01   1.769145e-02
  4.231919e+00    4.243161e-01   1.718229e-02
  4.234129e+00    4.627753e-01   1.809447e-02
  4.236340e+00    4.429916e-01   1.785500e-02
  4.238550e+00    4.463280e-01   1.808043e-02
  4.240761e+00    4.939184e-01   1.918801e-02
  4.242971e+00    5.198432e-01   1.986506e-02
  4.245181e+00    4.851064e-01   1.937038e-02
  4.247392e+00    4.758204e-01   1.936359e-02
  4.249602e+00    5.187356e-01   2.041849e-02
  4.251813e+00    5.179042e-01   2.060326e-02
  4.254023e+00    4.885428e-01   2.021266e-02
  4.256234e+00    4.331745e-01   1.923589e-02
  4.258444e+00    4.700183e-01   2.024722e-02
  4.260655e+00    5.148870e-01   2.142433e-02
  4.262865e+00    4.807120e-01   2.093601e-02
  4.265076e+00    4.699357e-01   2.093529e-02
  4.267286e+00    4.134622e-01   1.987002e-02
  4.269496e+00    4.737316e-01   2.152888e-02
  4.271707e+00    4.487585e-01   2.121218e-02
  4.273917e+00    4.804741e-01   2.223247e-02
  4.276128e+00    4.871854e-01   2.268575e-02
  4.278338e+00    4.123317e-01   2.114808e-02
  4.280549e+00    5.790736e-01   2.542139e-02
  4.282759e+00    4.313112e-01   2.225563e-02
  4.284970e+00    4.394762e-01   2.279684e-02
  4.287180e+00    4.850454e-01   2.423693e-02
  4.289391e+00    5.425172e-01   2.582536e-02
  4.291601e+00    4.899849e-01   2.473916e-02
  4.293811e+00    4.825849e-01   2.474334e-02
  4.296022e+00    4.135663e-01   2.308999e-02
  4.298232e+00    4.458053e-01   2.417395e-02
  4.300443e+00    3.932069e-01   2.289027e-02
  4.302653e+00    3.833414e-01   2.279675e-02
  4.304864e+00    4.747751e-01   2.558995e-02
  4.307074e+00    4.781800e-01   2.591238e-02
  4.309285e+00    4.779224e-01   2.614130e-02
  4.311495e+00    3.309858e-01   2.195850e-02
  4.313706e+00    4.467466e-01   2.574958e-02
  4.315916e+00    4.880790e-01   2.717957e-02
  4.318126e+00    4.935479e-01   2.760196e-02
  4.320337e+00    5.545444e-01   2.955376e-02
  4.322547e+00    5.820170e-01   3.059836e-02
  4.324758e+00    4.353999e-01   2.674115e-02
  4.326968e+00    5.132895e-01   2.936056e-02
  4.329179e+00    4.773384e-01   2.862559e-02
  4.331389e+00    4.410187e-01   2.783253e-02
  4.333600e+00    4.200617e-01   2.748773e-02
  4.335810e+00    3.815164e-01   2.650747e-02
  4.338021e+00    4.449696e-01   2.899368e-02
  4.340231e+00    4.686906e-01   3.012931e-02
  4.342442e+00    5.529305e-01   3.316392e-02
  4.344652e+00    5.506844e-01   3.354808e-02
  4.346862e+00    3.552461e-01   2.732127e-02
  4.349073e+00    5.425100e-01   3.425447e-02
  4.351283e+00    4.706434e-01   3.238129e-02
  4.353494e+00    4.283477e-01   3.137046e-02
  4.355704e+00    4.205318e-01   3.158207e-02
  4.357915e+00    5.180106e-01   3.563520e-02
  4.360125e+00    5.036761e-01   3.573929e-02
  4.362336e+00    4.179637e-01   3.314898e-02
  4.364546e+00    4.847883e-01   3.635222e-02
  4.366757e+00    3.580889e-01   3.186443e-02
  4.368967e+00    3.416929e-01   3.174700e-02
  4.371177e+00    3.895310e-01   3.461583e-02
  4.373388e+00    4.989494e-01   4.005428e-02
  4.375598e+00    4.372979e-01   3.835370e-02
  4.377809e+00    4.054811e-01   3.786519e-02
  4.380019e+00    5.788186e-01   4.637847e-02
  4.382230e+00    3.472778e-01   3.692829e-02
  4.384440e+00    4.151184e-01   4.153448e-02
  4.386651e+00    4.683698e-01   4.547779e-02
  4.388861e+00    4.767576e-01   4.742609e-02
  4.391072e+00    4.432325e-01   4.733228e-02
  4.393282e+00    4.246060e-01   4.811913e-02
  4.395492e+00    4.837689e-01   5.349715e-02
  4.397703e+00    3.255419e-01   4.588779e-02
  4.399913e+00    2.941938e-01   4.583675e-02
  4.402124e+00    3.309445e-01   5.136475e-02
  4.404334e+00    6.028734e-01   7.369762e-02
  4.406545e+00    1.755836e-01   4.273494e-02
  4.408755e+00    1.494263e-01   4.275061e-02
  4.410966e+00    1.365616e-01   4.523964e-02
  4.413176e+00   -6.078698e-04            nan
  4.415387e+00   -6.478475e-01            nan
  4.417597e+00   -1.650480e+00            nan
  4.419807e+00   -3.766224e-01            nan
