# == pyFAI calibration ==
# Distance Sample to Detector: 0.216 m
# PONI: 1.166e-01, 1.308e-01 m
# Rotations: 0.000000 0.000000 0.000000 rad
# 
# == Fit2d calibration ==
# Distance Sample-beamCenter: 216.000 mm
# Center: x=1744.293, y=1555.000 pix
# Tilt: 0.000 deg  TiltPlanRot: 0.000 deg
# 
# Detector Eiger 9M	 PixelSize= 7.500e-05, 7.500e-05 m
#    Detector has a mask: True 
#    Detector has a dark current: False 
#    detector has a flat field: False 
# 
# Wavelength: 9.8e-11 m
# Mask applied: from detector
# Dark current applied: False
# Flat field applied: False
# Polarization factor: None
# Normalization factor: 1.0
# 
# Headers of the input frame:
# {
# "_array_data.header_convention": "SLS_1.0",
# "_array_data.header_contents": "# Detector: Dectris Eiger 9M, S/N E-18-0102\r\n# Pixel_size 75e-6 m x 75e-6 m\r\n# Silicon sensor, thickness 0.000450 m\r\n# Exposure_time 0.024997 s\r\n# Exposure_period 0.025000 s\r\n# Count_cutoff 62318 counts\r\n# Wavelength 0.980106 A\r\n# Detector_distance 0.215992 m\r\n# Beam_xy (1555, 1744) pixels\r\n# Start_angle 0.000000 deg.\r\n# Angle_increment 0.000000 deg.",
# "Content-Type": "application/octet-stream;",
# "conversions": "x-CBF_BYTE_OFFSET",
# "Content-Transfer-Encoding": "BINARY",
# "X-Binary-Size": "10166596",
# "X-Binary-ID": "1",
# "X-Binary-Element-Type": "signed 32-bit integer",
# "X-Binary-Element-Byte-Order": "LITTLE_ENDIAN",
# "Content-MD5": "ZwzlLmE6lVpMVjvrl2ojBQ==",
# "X-Binary-Number-of-Elements": "10166590",
# "X-Binary-Size-Fastest-Dimension": "3110",
# "X-Binary-Size-Second-Dimension": "3269",
# "X-Binary-Size-Padding": "4095"
# }
# --> H:/Proxima2a_2019-04-05/RAW_DATA/C5_gel17_position5/C5_mesh_1_data.cbf/C5_mesh_1_data.cbf000013.dat
#        q_A^-1              I           sigma 
  1.105228e-03    9.739523e-01   5.340179e-01
  3.315685e-03    1.049411e+00   3.369910e-01
  5.526141e-03    1.177385e+00   2.760141e-01
  7.736597e-03    1.370473e+00   2.515680e-01
  9.947054e-03    1.465207e+00   2.293116e-01
  1.215751e-02    1.503573e+00   2.100540e-01
  1.436797e-02    1.617613e+00   2.004071e-01
  1.657842e-02    1.146468e+00   1.570455e-01
  1.878888e-02    1.101687e+00   1.446081e-01
  2.099934e-02    1.525851e+00   1.610119e-01
  2.320979e-02    1.424574e+00   1.479706e-01
  2.542025e-02    1.543674e+00   1.471930e-01
  2.763070e-02    1.576415e+00   1.426677e-01
  2.984116e-02    1.581604e+00   1.375072e-01
  3.205162e-02    1.444891e+00   1.268247e-01
  3.426207e-02    1.369578e+00   1.194176e-01
  3.647253e-02    1.524830e+00   1.221238e-01
  3.868299e-02    1.391040e+00   1.132701e-01
  4.089344e-02    1.525175e+00   1.153561e-01
  4.310390e-02    1.463020e+00   1.100396e-01
  4.531436e-02    1.367895e+00   1.037749e-01
  4.752481e-02    1.471233e+00   1.050896e-01
  4.973527e-02    1.466761e+00   1.025726e-01
  5.194572e-02    1.545403e+00   1.030205e-01
  5.415618e-02    1.522175e+00   1.001316e-01
  5.636664e-02    1.531136e+00   9.844011e-02
  5.857709e-02    1.453455e+00   9.408391e-02
  6.078755e-02    1.473547e+00   9.299067e-02
  6.299801e-02    1.389397e+00   8.869715e-02
  6.520846e-02    1.401433e+00   8.755819e-02
  6.741892e-02    1.348659e+00   8.446971e-02
  6.962938e-02    1.348023e+00   8.310268e-02
  7.183983e-02    1.358879e+00   8.214147e-02
  7.405029e-02    1.432475e+00   8.306627e-02
  7.626074e-02    1.475508e+00   8.307324e-02
  7.847120e-02    1.438626e+00   8.086266e-02
  8.068166e-02    1.478142e+00   8.083442e-02
  8.289211e-02    1.497944e+00   8.028132e-02
  8.510257e-02    1.471565e+00   7.853064e-02
  8.731303e-02    1.583229e+00   8.041490e-02
  8.952348e-02    1.611979e+00   8.013593e-02
  9.173394e-02    1.563054e+00   7.795087e-02
  9.394439e-02    1.511232e+00   7.573815e-02
  9.615485e-02    1.557537e+00   7.599919e-02
  9.836531e-02    1.569637e+00   7.542965e-02
  1.005758e-01    1.526243e+00   7.355822e-02
  1.027862e-01    1.533745e+00   7.293978e-02
  1.049967e-01    1.482738e+00   7.095648e-02
  1.072071e-01    1.559198e+00   7.200810e-02
  1.094176e-01    1.545400e+00   7.095989e-02
  1.116280e-01    1.461201e+00   6.831163e-02
  1.138385e-01    1.513574e+00   6.884544e-02
  1.160490e-01    1.492234e+00   6.770341e-02
  1.182594e-01    1.446048e+00   6.602017e-02
  1.204699e-01    1.459133e+00   6.570647e-02
  1.226803e-01    1.552079e+00   6.715079e-02
  1.248908e-01    1.624408e+00   6.808621e-02
  1.271012e-01    1.695468e+00   6.895060e-02
  1.293117e-01    1.641086e+00   6.725266e-02
  1.315222e-01    1.610607e+00   6.606143e-02
  1.337326e-01    1.646442e+00   6.623672e-02
  1.359431e-01    1.591964e+00   6.516982e-02
  1.381535e-01    1.530291e+00   6.475265e-02
  1.403640e-01    1.489384e+00   6.415715e-02
  1.425744e-01    1.572886e+00   6.603640e-02
  1.447849e-01    1.569383e+00   6.597805e-02
  1.469953e-01    1.549076e+00   6.550875e-02
  1.492058e-01    1.554481e+00   6.554665e-02
  1.514163e-01    1.593690e+00   6.625797e-02
  1.536267e-01    1.573439e+00   6.570710e-02
  1.558372e-01    1.558707e+00   6.525438e-02
  1.580476e-01    1.575176e+00   6.543903e-02
  1.602581e-01    1.647009e+00   6.674456e-02
  1.624685e-01    1.639698e+00   6.641395e-02
  1.646790e-01    1.621656e+00   6.585789e-02
  1.668895e-01    1.717725e+00   6.758480e-02
  1.690999e-01    1.838144e+00   6.970374e-02
  1.713104e-01    1.801887e+00   6.879869e-02
  1.735208e-01    1.825016e+00   6.902351e-02
  1.757313e-01    1.836949e+00   6.903180e-02
  1.779417e-01    1.866456e+00   6.935706e-02
  1.801522e-01    1.916309e+00   7.005340e-02
  1.823626e-01    1.936157e+00   7.018084e-02
  1.845731e-01    1.875872e+00   6.885586e-02
  1.867836e-01    1.912640e+00   6.929272e-02
  1.889940e-01    1.911101e+00   6.903849e-02
  1.912045e-01    2.118642e+00   7.244787e-02
  1.934149e-01    2.079029e+00   7.152719e-02
  1.956254e-01    2.016711e+00   7.021473e-02
  1.978358e-01    1.929123e+00   6.843767e-02
  2.000463e-01    1.962989e+00   6.880701e-02
  2.022568e-01    2.012151e+00   6.943464e-02
  2.044672e-01    2.091639e+00   7.055032e-02
  2.066777e-01    1.988599e+00   6.856231e-02
  2.088881e-01    2.008487e+00   6.867884e-02
  2.110986e-01    1.938725e+00   6.724420e-02
  2.133090e-01    1.877264e+00   6.595462e-02
  2.155195e-01    1.962364e+00   6.720929e-02
  2.177300e-01    1.950799e+00   6.648452e-02
  2.199404e-01    1.922275e+00   6.425767e-02
  2.221509e-01    1.916033e+00   6.309982e-02
  2.243613e-01    2.038243e+00   6.425600e-02
  2.265718e-01    2.100042e+00   6.450397e-02
  2.287822e-01    2.062248e+00   6.328820e-02
  2.309927e-01    2.083714e+00   6.303720e-02
  2.332031e-01    2.171713e+00   6.380375e-02
  2.354136e-01    2.060955e+00   6.165167e-02
  2.376241e-01    2.199632e+00   6.319773e-02
  2.398345e-01    2.248749e+00   6.342655e-02
  2.420450e-01    2.146600e+00   6.152635e-02
  2.442554e-01    2.199789e+00   6.185484e-02
  2.464659e-01    2.194950e+00   6.137198e-02
  2.486763e-01    2.123478e+00   5.996769e-02
  2.508868e-01    2.100947e+00   5.927242e-02
  2.530973e-01    2.196808e+00   6.023380e-02
  2.553077e-01    2.132976e+00   5.899225e-02
  2.575182e-01    2.152764e+00   5.891460e-02
  2.597286e-01    2.083450e+00   5.762149e-02
  2.619391e-01    2.011781e+00   5.629575e-02
  2.641495e-01    2.015299e+00   5.603309e-02
  2.663600e-01    2.021191e+00   5.580636e-02
  2.685704e-01    1.987471e+00   5.503891e-02
  2.707809e-01    2.050980e+00   5.561459e-02
  2.729914e-01    2.082447e+00   5.574756e-02
  2.752018e-01    2.103837e+00   5.574150e-02
  2.774123e-01    2.044342e+00   5.466700e-02
  2.796227e-01    2.068703e+00   5.471973e-02
  2.818332e-01    2.037688e+00   5.403708e-02
  2.840436e-01    1.968709e+00   5.285712e-02
  2.862541e-01    1.931972e+00   5.210990e-02
  2.884646e-01    1.983029e+00   5.254344e-02
  2.906750e-01    1.977934e+00   5.222708e-02
  2.928855e-01    2.014718e+00   5.246624e-02
  2.950959e-01    1.946522e+00   5.133376e-02
  2.973064e-01    2.008900e+00   5.191537e-02
  2.995168e-01    2.047708e+00   5.217706e-02
  3.017273e-01    1.916892e+00   5.026034e-02
  3.039377e-01    1.886868e+00   4.964684e-02
  3.061482e-01    1.926301e+00   4.994591e-02
  3.083587e-01    1.944205e+00   4.996031e-02
  3.105691e-01    1.907726e+00   4.927799e-02
  3.127796e-01    1.923403e+00   4.927205e-02
  3.149900e-01    1.903469e+00   4.881182e-02
  3.172005e-01    1.905262e+00   4.863511e-02
  3.194109e-01    1.924010e+00   4.867207e-02
  3.216214e-01    1.928888e+00   4.853487e-02
  3.238319e-01    1.925678e+00   4.830233e-02
  3.260423e-01    1.900549e+00   4.779501e-02
  3.282528e-01    1.873713e+00   4.726745e-02
  3.304632e-01    1.911379e+00   4.755522e-02
  3.326737e-01    1.869450e+00   4.684724e-02
  3.348841e-01    1.873255e+00   4.671305e-02
  3.370946e-01    1.896222e+00   4.682170e-02
  3.393050e-01    1.868383e+00   4.630069e-02
  3.415155e-01    1.771816e+00   4.491875e-02
  3.437260e-01    1.838662e+00   4.558865e-02
  3.459364e-01    1.872130e+00   4.583151e-02
  3.481469e-01    1.929922e+00   4.636369e-02
  3.503573e-01    1.856098e+00   4.530266e-02
  3.525678e-01    1.828877e+00   4.480895e-02
  3.547782e-01    1.865895e+00   4.509658e-02
  3.569887e-01    1.844938e+00   4.468375e-02
  3.591992e-01    1.844297e+00   4.451788e-02
  3.614096e-01    1.820958e+00   4.408195e-02
  3.636201e-01    1.798335e+00   4.365330e-02
  3.658305e-01    1.798398e+00   4.350517e-02
  3.680410e-01    1.773674e+00   4.305649e-02
  3.702514e-01    1.744120e+00   4.255267e-02
  3.724619e-01    1.791581e+00   4.298089e-02
  3.746724e-01    1.834744e+00   4.335044e-02
  3.768828e-01    1.784139e+00   4.260458e-02
  3.790933e-01    1.797207e+00   4.262099e-02
  3.813037e-01    1.783116e+00   4.231467e-02
  3.835142e-01    1.751719e+00   4.180274e-02
  3.857246e-01    1.797823e+00   4.221220e-02
  3.879351e-01    1.779537e+00   4.186107e-02
  3.901455e-01    1.775851e+00   4.168454e-02
  3.923560e-01    1.769786e+00   4.148105e-02
  3.945665e-01    1.806358e+00   4.177454e-02
  3.967769e-01    1.852767e+00   4.217530e-02
  3.989874e-01    1.815265e+00   4.161594e-02
  4.011978e-01    1.809733e+00   4.142468e-02
  4.034083e-01    1.794928e+00   4.112823e-02
  4.056187e-01    1.763496e+00   4.064095e-02
  4.078292e-01    1.863100e+00   4.164649e-02
  4.100397e-01    1.816329e+00   4.099489e-02
  4.122501e-01    1.822508e+00   4.094170e-02
  4.144606e-01    1.796186e+00   4.052444e-02
  4.166710e-01    1.825045e+00   4.072721e-02
  4.188815e-01    1.854401e+00   4.093221e-02
  4.210919e-01    1.801753e+00   4.022874e-02
  4.233024e-01    1.765119e+00   3.970055e-02
  4.255128e-01    1.743220e+00   3.933944e-02
  4.277233e-01    1.868372e+00   4.061010e-02
  4.299338e-01    1.844727e+00   4.023623e-02
  4.321442e-01    1.790555e+00   3.952761e-02
  4.343547e-01    1.801782e+00   3.953920e-02
  4.365651e-01    1.793661e+00   3.933793e-02
  4.387756e-01    1.801347e+00   3.931172e-02
  4.409860e-01    1.757496e+00   3.872271e-02
  4.431965e-01    1.749913e+00   3.853224e-02
  4.454070e-01    1.722675e+00   3.812481e-02
  4.476174e-01    1.784520e+00   3.869659e-02
  4.498279e-01    1.743473e+00   3.814490e-02
  4.520383e-01    1.734244e+00   3.793940e-02
  4.542488e-01    1.732882e+00   3.782223e-02
  4.564592e-01    1.737179e+00   3.776749e-02
  4.586697e-01    1.740589e+00   3.770422e-02
  4.608801e-01    1.784185e+00   3.807122e-02
  4.630906e-01    1.757705e+00   3.768760e-02
  4.653011e-01    1.738353e+00   3.738099e-02
  4.675115e-01    1.751013e+00   3.741805e-02
  4.697220e-01    1.692904e+00   3.669563e-02
  4.719324e-01    1.700511e+00   3.668283e-02
  4.741429e-01    1.654637e+00   3.609142e-02
  4.763533e-01    1.749837e+00   3.702002e-02
  4.785638e-01    1.712311e+00   3.652632e-02
  4.807743e-01    1.751556e+00   3.684856e-02
  4.829847e-01    1.701484e+00   3.622633e-02
  4.851952e-01    1.656361e+00   3.565228e-02
  4.874056e-01    1.692946e+00   3.595297e-02
  4.896161e-01    1.712358e+00   3.606885e-02
  4.918265e-01    1.737368e+00   3.624107e-02
  4.940370e-01    1.742090e+00   3.620070e-02
  4.962475e-01    1.678000e+00   3.544084e-02
  4.984579e-01    1.672920e+00   3.529992e-02
  5.006684e-01    1.683204e+00   3.532192e-02
  5.028788e-01    1.666846e+00   3.506471e-02
  5.050893e-01    1.666903e+00   3.497999e-02
  5.072997e-01    1.700616e+00   3.524664e-02
  5.095102e-01    1.726340e+00   3.542716e-02
  5.117206e-01    1.693241e+00   3.500247e-02
  5.139311e-01    1.677214e+00   3.475398e-02
  5.161416e-01    1.654237e+00   3.443354e-02
  5.183520e-01    1.694168e+00   3.476382e-02
  5.205625e-01    1.707994e+00   3.482363e-02
  5.227729e-01    1.713676e+00   3.480015e-02
  5.249834e-01    1.711717e+00   3.469951e-02
  5.271938e-01    1.745835e+00   3.496184e-02
  5.294043e-01    1.772590e+00   3.514744e-02
  5.316148e-01    1.765925e+00   3.500094e-02
  5.338252e-01    1.799626e+00   3.525258e-02
  5.360357e-01    1.773814e+00   3.491921e-02
  5.382461e-01    1.734795e+00   3.445491e-02
  5.404566e-01    1.768518e+00   3.470904e-02
  5.426670e-01    1.773614e+00   3.468069e-02
  5.448775e-01    1.792969e+00   3.479150e-02
  5.470879e-01    1.785385e+00   3.464044e-02
  5.492984e-01    1.725678e+00   3.398054e-02
  5.515089e-01    1.733440e+00   3.398135e-02
  5.537193e-01    1.729961e+00   3.387244e-02
  5.559298e-01    1.767438e+00   3.416226e-02
  5.581402e-01    1.812512e+00   3.451955e-02
  5.603507e-01    1.801018e+00   3.433504e-02
  5.625611e-01    1.828719e+00   3.452299e-02
  5.647716e-01    1.817991e+00   3.434685e-02
  5.669821e-01    1.815820e+00   3.425235e-02
  5.691925e-01    1.799671e+00   3.402647e-02
  5.714030e-01    1.764972e+00   3.362503e-02
  5.736134e-01    1.741662e+00   3.333119e-02
  5.758239e-01    1.757194e+00   3.340803e-02
  5.780343e-01    1.752983e+00   3.329740e-02
  5.802448e-01    1.658128e+00   3.231619e-02
  5.824552e-01    1.696730e+00   3.262161e-02
  5.846657e-01    1.664577e+00   3.224369e-02
  5.868762e-01    1.671101e+00   3.223955e-02
  5.890866e-01    1.659592e+00   3.206168e-02
  5.912971e-01    1.658473e+00   3.198453e-02
  5.935075e-01    1.649745e+00   3.183431e-02
  5.957180e-01    1.638488e+00   3.166043e-02
  5.979284e-01    1.635130e+00   3.156341e-02
  6.001389e-01    1.628277e+00   3.143304e-02
  6.023494e-01    1.674655e+00   3.181283e-02
  6.045598e-01    1.666077e+00   3.166666e-02
  6.067703e-01    1.669838e+00   3.163861e-02
  6.089807e-01    1.666566e+00   3.154408e-02
  6.111912e-01    1.660870e+00   3.142722e-02
  6.134016e-01    1.699482e+00   3.172703e-02
  6.156121e-01    1.711555e+00   3.177624e-02
  6.178226e-01    1.676873e+00   3.139038e-02
  6.200330e-01    1.687936e+00   3.143162e-02
  6.222435e-01    1.721276e+00   3.167764e-02
  6.244539e-01    1.722692e+00   3.162864e-02
  6.266644e-01    1.716374e+00   3.150899e-02
  6.288748e-01    1.704988e+00   3.134318e-02
  6.310853e-01    1.728574e+00   3.149795e-02
  6.332957e-01    1.723366e+00   3.138974e-02
  6.355062e-01    1.752650e+00   3.159381e-02
  6.377167e-01    1.715373e+00   3.119608e-02
  6.399271e-01    1.671104e+00   3.073188e-02
  6.421376e-01    1.719862e+00   3.111748e-02
  6.443480e-01    1.731035e+00   3.115902e-02
  6.465585e-01    1.744283e+00   3.121876e-02
  6.487689e-01    1.729474e+00   3.102727e-02
  6.509794e-01    1.703732e+00   3.073740e-02
  6.531899e-01    1.679606e+00   3.046161e-02
  6.554003e-01    1.666897e+00   3.028910e-02
  6.576108e-01    1.654791e+00   3.012270e-02
  6.598212e-01    1.661453e+00   3.012721e-02
  6.620317e-01    1.616149e+00   2.965855e-02
  6.642421e-01    1.629771e+00   2.972815e-02
  6.664526e-01    1.619554e+00   2.958025e-02
  6.686630e-01    1.585045e+00   2.920930e-02
  6.708735e-01    1.563942e+00   2.896097e-02
  6.730840e-01    1.613664e+00   2.936409e-02
  6.752944e-01    1.644880e+00   2.959286e-02
  6.775049e-01    1.634779e+00   2.944830e-02
  6.797153e-01    1.629306e+00   2.934572e-02
  6.819258e-01    1.573982e+00   2.879119e-02
  6.841362e-01    1.577569e+00   2.877211e-02
  6.863467e-01    1.625283e+00   2.915168e-02
  6.885572e-01    1.609192e+00   2.895505e-02
  6.907676e-01    1.595713e+00   2.878185e-02
  6.929781e-01    1.596220e+00   2.873527e-02
  6.951885e-01    1.584309e+00   2.857715e-02
  6.973990e-01    1.607649e+00   2.873597e-02
  6.996094e-01    1.600478e+00   2.862139e-02
  7.018199e-01    1.583264e+00   2.841708e-02
  7.040303e-01    1.576476e+00   2.830628e-02
  7.062408e-01    1.570386e+00   2.820208e-02
  7.084513e-01    1.606394e+00   2.847395e-02
  7.106617e-01    1.580151e+00   2.819135e-02
  7.128722e-01    1.611487e+00   2.842024e-02
  7.150826e-01    1.600007e+00   2.827003e-02
  7.172931e-01    1.581462e+00   2.805726e-02
  7.195035e-01    1.610857e+00   2.826811e-02
  7.217140e-01    1.633789e+00   2.851902e-02
  7.239245e-01    1.573980e+00   2.821881e-02
  7.261349e-01    1.575240e+00   2.833875e-02
  7.283454e-01    1.568243e+00   2.834798e-02
  7.305558e-01    1.591908e+00   2.861536e-02
  7.327663e-01    1.585966e+00   2.860457e-02
  7.349767e-01    1.559530e+00   2.838145e-02
  7.371872e-01    1.597302e+00   2.871183e-02
  7.393976e-01    1.576857e+00   2.851322e-02
  7.416081e-01    1.615126e+00   2.884077e-02
  7.438186e-01    1.567361e+00   2.826713e-02
  7.460290e-01    1.537614e+00   2.770682e-02
  7.482395e-01    1.572443e+00   2.784782e-02
  7.504499e-01    1.570631e+00   2.769569e-02
  7.526604e-01    1.554837e+00   2.744026e-02
  7.548708e-01    1.579476e+00   2.756725e-02
  7.570813e-01    1.576787e+00   2.749279e-02
  7.592918e-01    1.584710e+00   2.752648e-02
  7.615022e-01    1.603521e+00   2.765525e-02
  7.637127e-01    1.600741e+00   2.759824e-02
  7.659231e-01    1.564105e+00   2.724869e-02
  7.681336e-01    1.580678e+00   2.736099e-02
  7.703440e-01    1.583023e+00   2.734999e-02
  7.725545e-01    1.609105e+00   2.754315e-02
  7.747650e-01    1.596574e+00   2.739725e-02
  7.769754e-01    1.575494e+00   2.716307e-02
  7.791859e-01    1.555196e+00   2.693439e-02
  7.813963e-01    1.556679e+00   2.689499e-02
  7.836068e-01    1.586409e+00   2.709858e-02
  7.858172e-01    1.632495e+00   2.743797e-02
  7.880277e-01    1.621009e+00   2.728929e-02
  7.902381e-01    1.586446e+00   2.694773e-02
  7.924486e-01    1.590642e+00   2.693336e-02
  7.946591e-01    1.623976e+00   2.716544e-02
  7.968695e-01    1.609051e+00   2.699197e-02
  7.990800e-01    1.620233e+00   2.703717e-02
  8.012904e-01    1.615739e+00   2.695296e-02
  8.035009e-01    1.604158e+00   2.680840e-02
  8.057113e-01    1.615369e+00   2.685540e-02
  8.079218e-01    1.627688e+00   2.691107e-02
  8.101323e-01    1.653809e+00   2.708011e-02
  8.123427e-01    1.619277e+00   2.675020e-02
  8.145532e-01    1.629585e+00   2.678930e-02
  8.167636e-01    1.643950e+00   2.686186e-02
  8.189741e-01    1.636427e+00   2.675567e-02
  8.211845e-01    1.647539e+00   2.680133e-02
  8.233950e-01    1.657936e+00   2.684207e-02
  8.256054e-01    1.624108e+00   2.652279e-02
  8.278159e-01    1.626716e+00   2.650025e-02
  8.300264e-01    1.665740e+00   2.677278e-02
  8.322368e-01    1.650707e+00   2.660843e-02
  8.344473e-01    1.665883e+00   2.668671e-02
  8.366577e-01    1.656118e+00   2.656561e-02
  8.388682e-01    1.615387e+00   2.619494e-02
  8.410786e-01    1.622381e+00   2.620973e-02
  8.432891e-01    1.646288e+00   2.636021e-02
  8.454996e-01    1.642372e+00   2.628716e-02
  8.477100e-01    1.655388e+00   2.634924e-02
  8.499205e-01    1.653391e+00   2.629199e-02
  8.521309e-01    1.630382e+00   2.606770e-02
  8.543414e-01    1.684498e+00   2.645542e-02
  8.565518e-01    1.675627e+00   2.634464e-02
  8.587623e-01    1.644278e+00   2.605639e-02
  8.609727e-01    1.623588e+00   2.585177e-02
  8.631832e-01    1.641952e+00   2.595748e-02
  8.653937e-01    1.656018e+00   2.602837e-02
  8.676041e-01    1.650791e+00   2.594806e-02
  8.698146e-01    1.643552e+00   2.585151e-02
  8.720250e-01    1.623263e+00   2.565233e-02
  8.742355e-01    1.592987e+00   2.537326e-02
  8.764459e-01    1.647752e+00   2.576637e-02
  8.786564e-01    1.615843e+00   2.547764e-02
  8.808669e-01    1.599112e+00   2.530696e-02
  8.830773e-01    1.619291e+00   2.542778e-02
  8.852878e-01    1.633710e+00   2.550247e-02
  8.874982e-01    1.621104e+00   2.536701e-02
  8.897087e-01    1.606076e+00   2.521142e-02
  8.919191e-01    1.605531e+00   2.516934e-02
  8.941296e-01    1.598503e+00   2.507690e-02
  8.963401e-01    1.603038e+00   2.507602e-02
  8.985505e-01    1.601211e+00   2.502471e-02
  9.007610e-01    1.617685e+00   2.511619e-02
  9.029714e-01    1.599864e+00   2.494163e-02
  9.051819e-01    1.602874e+00   2.492782e-02
  9.073923e-01    1.603199e+00   2.489373e-02
  9.096028e-01    1.576280e+00   2.464921e-02
  9.118132e-01    1.574764e+00   2.460142e-02
  9.140237e-01    1.578066e+00   2.459082e-02
  9.162342e-01    1.577078e+00   2.454881e-02
  9.184446e-01    1.607382e+00   2.474770e-02
  9.206551e-01    1.621391e+00   2.481949e-02
  9.228655e-01    1.618977e+00   2.476555e-02
  9.250760e-01    1.608810e+00   2.465224e-02
  9.272864e-01    1.589291e+00   2.446813e-02
  9.294969e-01    1.593289e+00   2.446316e-02
  9.317074e-01    1.601951e+00   2.449491e-02
  9.339178e-01    1.582657e+00   2.431371e-02
  9.361283e-01    1.593251e+00   2.435896e-02
  9.383387e-01    1.637044e+00   2.465789e-02
  9.405492e-01    1.674902e+00   2.490655e-02
  9.427596e-01    1.689123e+00   2.497607e-02
  9.449701e-01    1.677304e+00   2.485472e-02
  9.471805e-01    1.695889e+00   2.495664e-02
  9.493910e-01    1.686178e+00   2.485093e-02
  9.516015e-01    1.687121e+00   2.482317e-02
  9.538119e-01    1.716150e+00   2.500150e-02
  9.560224e-01    1.724759e+00   2.502886e-02
  9.582328e-01    1.729061e+00   2.502643e-02
  9.604433e-01    1.787117e+00   2.540708e-02
  9.626537e-01    1.796466e+00   2.543922e-02
  9.648642e-01    1.813418e+00   2.552394e-02
  9.670747e-01    1.845655e+00   2.571429e-02
  9.692851e-01    1.856677e+00   2.575669e-02
  9.714956e-01    1.913904e+00   2.611374e-02
  9.737060e-01    1.910296e+00   2.605486e-02
  9.759165e-01    1.905504e+00   2.598544e-02
  9.781269e-01    1.948770e+00   2.624444e-02
  9.803374e-01    1.885699e+00   2.578055e-02
  9.825478e-01    1.849860e+00   2.550070e-02
  9.847583e-01    1.837156e+00   2.537848e-02
  9.869688e-01    1.796873e+00   2.506510e-02
  9.891792e-01    1.792176e+00   2.499906e-02
  9.913897e-01    1.735694e+00   2.456877e-02
  9.936001e-01    1.735604e+00   2.453595e-02
  9.958106e-01    1.693862e+00   2.420619e-02
  9.980210e-01    1.630968e+00   2.372170e-02
  1.000231e+00    1.662744e+00   2.408285e-02
  1.002442e+00    1.673271e+00   2.428737e-02
  1.004652e+00    1.665191e+00   2.429624e-02
  1.006863e+00    1.647370e+00   2.421602e-02
  1.009073e+00    1.632465e+00   2.414311e-02
  1.011284e+00    1.636060e+00   2.420202e-02
  1.013494e+00    1.594397e+00   2.391555e-02
  1.015705e+00    1.607485e+00   2.403619e-02
  1.017915e+00    1.718332e+00   2.486820e-02
  1.020126e+00    1.863810e+00   2.591703e-02
  1.022336e+00    1.939774e+00   2.645297e-02
  1.024547e+00    1.816882e+00   2.561351e-02
  1.026757e+00    1.650789e+00   2.442333e-02
  1.028967e+00    1.580653e+00   2.390663e-02
  1.031178e+00    1.576081e+00   2.387824e-02
  1.033388e+00    1.653197e+00   2.446069e-02
  1.035599e+00    1.701061e+00   2.481588e-02
  1.037809e+00    1.713589e+00   2.491055e-02
  1.040020e+00    1.764890e+00   2.528203e-02
  1.042230e+00    1.834455e+00   2.577764e-02
  1.044441e+00    1.788944e+00   2.545565e-02
  1.046651e+00    1.732208e+00   2.504889e-02
  1.048862e+00    1.900039e+00   2.623336e-02
  1.051072e+00    2.064533e+00   2.734265e-02
  1.053282e+00    2.046228e+00   2.722011e-02
  1.055493e+00    1.818677e+00   2.565729e-02
  1.057703e+00    1.615995e+00   2.418378e-02
  1.059914e+00    1.564508e+00   2.379102e-02
  1.062124e+00    1.517559e+00   2.342723e-02
  1.064335e+00    1.545023e+00   2.363474e-02
  1.066545e+00    1.545942e+00   2.363566e-02
  1.068756e+00    1.522433e+00   2.345148e-02
  1.070966e+00    1.505708e+00   2.331570e-02
  1.073177e+00    1.517482e+00   2.340052e-02
  1.075387e+00    1.485337e+00   2.314613e-02
  1.077597e+00    1.432678e+00   2.272494e-02
  1.079808e+00    1.430068e+00   2.257304e-02
  1.082018e+00    1.434561e+00   2.242126e-02
  1.084229e+00    1.433199e+00   2.230158e-02
  1.086439e+00    1.446806e+00   2.232003e-02
  1.088650e+00    1.432554e+00   2.213472e-02
  1.090860e+00    1.433391e+00   2.207405e-02
  1.093071e+00    1.413401e+00   2.185821e-02
  1.095281e+00    1.428875e+00   2.192060e-02
  1.097492e+00    1.444706e+00   2.198682e-02
  1.099702e+00    1.425565e+00   2.178956e-02
  1.101912e+00    1.415401e+00   2.166329e-02
  1.104123e+00    1.425803e+00   2.169470e-02
  1.106333e+00    1.397967e+00   2.143802e-02
  1.108544e+00    1.379852e+00   2.125517e-02
  1.110754e+00    1.412661e+00   2.146357e-02
  1.112965e+00    1.382354e+00   2.119214e-02
  1.115175e+00    1.387706e+00   2.119239e-02
  1.117386e+00    1.409100e+00   2.131597e-02
  1.119596e+00    1.385062e+00   2.109585e-02
  1.121807e+00    1.428916e+00   2.138813e-02
  1.124017e+00    1.402945e+00   2.115630e-02
  1.126228e+00    1.416531e+00   2.122256e-02
  1.128438e+00    1.396267e+00   2.103353e-02
  1.130648e+00    1.399683e+00   2.102491e-02
  1.132859e+00    1.391928e+00   2.093228e-02
  1.135069e+00    1.407545e+00   2.101448e-02
  1.137280e+00    1.383716e+00   2.080291e-02
  1.139490e+00    1.381690e+00   2.075468e-02
  1.141701e+00    1.392349e+00   2.080135e-02
  1.143911e+00    1.415097e+00   2.093838e-02
  1.146122e+00    1.366530e+00   2.054411e-02
  1.148332e+00    1.339527e+00   2.030868e-02
  1.150543e+00    1.359478e+00   2.042872e-02
  1.152753e+00    1.380909e+00   2.055823e-02
  1.154963e+00    1.359673e+00   2.036865e-02
  1.157174e+00    1.378888e+00   2.048185e-02
  1.159384e+00    1.364956e+00   2.034834e-02
  1.161595e+00    1.375589e+00   2.039754e-02
  1.163805e+00    1.359584e+00   2.024939e-02
  1.166016e+00    1.353656e+00   2.017590e-02
  1.168226e+00    1.391620e+00   2.042762e-02
  1.170437e+00    1.414265e+00   2.056406e-02
  1.172647e+00    1.413609e+00   2.052987e-02
  1.174858e+00    1.405568e+00   2.044290e-02
  1.177068e+00    1.384434e+00   2.026014e-02
  1.179278e+00    1.383991e+00   2.022810e-02
  1.181489e+00    1.378956e+00   2.016405e-02
  1.183699e+00    1.392592e+00   2.023561e-02
  1.185910e+00    1.386069e+00   2.016008e-02
  1.188120e+00    1.399255e+00   2.022867e-02
  1.190331e+00    1.358453e+00   1.990475e-02
  1.192541e+00    1.363009e+00   1.991064e-02
  1.194752e+00    1.371488e+00   1.994523e-02
  1.196962e+00    1.367035e+00   1.988694e-02
  1.199173e+00    1.377128e+00   1.993346e-02
  1.201383e+00    1.375875e+00   1.989696e-02
  1.203593e+00    1.380915e+00   1.990828e-02
  1.205804e+00    1.336469e+00   1.955949e-02
  1.208014e+00    1.352504e+00   1.964959e-02
  1.210225e+00    1.337339e+00   1.951392e-02
  1.212435e+00    1.348974e+00   1.957383e-02
  1.214646e+00    1.330414e+00   1.941282e-02
  1.216856e+00    1.323181e+00   1.933473e-02
  1.219067e+00    1.339563e+00   1.942969e-02
  1.221277e+00    1.332512e+00   1.935361e-02
  1.223488e+00    1.361393e+00   1.953639e-02
  1.225698e+00    1.353871e+00   1.945538e-02
  1.227909e+00    1.352759e+00   1.941721e-02
  1.230119e+00    1.318298e+00   1.913681e-02
  1.232329e+00    1.315987e+00   1.908970e-02
  1.234540e+00    1.317367e+00   1.906978e-02
  1.236750e+00    1.321294e+00   1.906825e-02
  1.238961e+00    1.327331e+00   1.908501e-02
  1.241171e+00    1.315933e+00   1.897901e-02
  1.243382e+00    1.322607e+00   1.900381e-02
  1.245592e+00    1.327130e+00   1.901237e-02
  1.247803e+00    1.359453e+00   1.921879e-02
  1.250013e+00    1.348040e+00   1.911441e-02
  1.252224e+00    1.344700e+00   1.906752e-02
  1.254434e+00    1.340676e+00   1.901530e-02
  1.256644e+00    1.332637e+00   1.893515e-02
  1.258855e+00    1.346559e+00   1.901055e-02
  1.261065e+00    1.359166e+00   1.907590e-02
  1.263276e+00    1.342313e+00   1.893438e-02
  1.265486e+00    1.329967e+00   1.882440e-02
  1.267697e+00    1.342080e+00   1.888698e-02
  1.269907e+00    1.372827e+00   1.907920e-02
  1.272118e+00    1.391755e+00   1.918738e-02
  1.274328e+00    1.368090e+00   1.900067e-02
  1.276539e+00    1.355018e+00   1.888684e-02
  1.278749e+00    1.352710e+00   1.884843e-02
  1.280959e+00    1.368670e+00   1.893661e-02
  1.283170e+00    1.382553e+00   1.900971e-02
  1.285380e+00    1.370781e+00   1.890599e-02
  1.287591e+00    1.379803e+00   1.894583e-02
  1.289801e+00    1.366799e+00   1.883499e-02
  1.292012e+00    1.351170e+00   1.870989e-02
  1.294222e+00    1.353096e+00   1.870696e-02
  1.296433e+00    1.350123e+00   1.867079e-02
  1.298643e+00    1.351540e+00   1.866412e-02
  1.300854e+00    1.346435e+00   1.861243e-02
  1.303064e+00    1.359067e+00   1.868024e-02
  1.305274e+00    1.382603e+00   1.881962e-02
  1.307485e+00    1.374217e+00   1.874071e-02
  1.309695e+00    1.367151e+00   1.867011e-02
  1.311906e+00    1.344861e+00   1.849560e-02
  1.314116e+00    1.358934e+00   1.857126e-02
  1.316327e+00    1.364836e+00   1.858974e-02
  1.318537e+00    1.359305e+00   1.853007e-02
  1.320748e+00    1.361650e+00   1.852442e-02
  1.322958e+00    1.351238e+00   1.843290e-02
  1.325169e+00    1.385314e+00   1.864260e-02
  1.327379e+00    1.384588e+00   1.861563e-02
  1.329589e+00    1.388405e+00   1.861988e-02
  1.331800e+00    1.421018e+00   1.881609e-02
  1.334010e+00    1.392129e+00   1.860287e-02
  1.336221e+00    1.374884e+00   1.846534e-02
  1.338431e+00    1.358639e+00   1.833498e-02
  1.340642e+00    1.372342e+00   1.849191e-02
  1.342852e+00    1.357141e+00   1.849015e-02
  1.345063e+00    1.352657e+00   1.850911e-02
  1.347273e+00    1.341538e+00   1.846803e-02
  1.349484e+00    1.329265e+00   1.841080e-02
  1.351694e+00    1.361671e+00   1.865667e-02
  1.353905e+00    1.337248e+00   1.850653e-02
  1.356115e+00    1.331990e+00   1.848504e-02
  1.358325e+00    1.342492e+00   1.857106e-02
  1.360536e+00    1.346038e+00   1.860717e-02
  1.362746e+00    1.335046e+00   1.854055e-02
  1.364957e+00    1.319543e+00   1.844018e-02
  1.367167e+00    1.346739e+00   1.863636e-02
  1.369378e+00    1.343741e+00   1.862164e-02
  1.371588e+00    1.311241e+00   1.840014e-02
  1.373799e+00    1.292383e+00   1.827095e-02
  1.376009e+00    1.309246e+00   1.839311e-02
  1.378220e+00    1.295158e+00   1.829640e-02
  1.380430e+00    1.287649e+00   1.824591e-02
  1.382640e+00    1.325408e+00   1.851241e-02
  1.384851e+00    1.305961e+00   1.837700e-02
  1.387061e+00    1.264622e+00   1.808408e-02
  1.389272e+00    1.297572e+00   1.831837e-02
  1.391482e+00    1.282134e+00   1.820839e-02
  1.393693e+00    1.291916e+00   1.827685e-02
  1.395903e+00    1.299566e+00   1.832936e-02
  1.398114e+00    1.291728e+00   1.827265e-02
  1.400324e+00    1.294646e+00   1.829112e-02
  1.402535e+00    1.288291e+00   1.824385e-02
  1.404745e+00    1.276764e+00   1.815969e-02
  1.406955e+00    1.268615e+00   1.809893e-02
  1.409166e+00    1.288516e+00   1.823703e-02
  1.411376e+00    1.274128e+00   1.813180e-02
  1.413587e+00    1.270143e+00   1.809960e-02
  1.415797e+00    1.265851e+00   1.806547e-02
  1.418008e+00    1.264727e+00   1.801566e-02
  1.420218e+00    1.250574e+00   1.776600e-02
  1.422429e+00    1.241111e+00   1.761431e-02
  1.424639e+00    1.263575e+00   1.770847e-02
  1.426850e+00    1.270649e+00   1.770327e-02
  1.429060e+00    1.263090e+00   1.760168e-02
  1.431270e+00    1.291036e+00   1.775065e-02
  1.433481e+00    1.262349e+00   1.751152e-02
  1.435691e+00    1.278110e+00   1.758193e-02
  1.437902e+00    1.285934e+00   1.759898e-02
  1.440112e+00    1.288684e+00   1.758218e-02
  1.442323e+00    1.290843e+00   1.756360e-02
  1.444533e+00    1.295917e+00   1.756519e-02
  1.446744e+00    1.284724e+00   1.745788e-02
  1.448954e+00    1.302006e+00   1.754430e-02
  1.451165e+00    1.283494e+00   1.738925e-02
  1.453375e+00    1.285322e+00   1.737341e-02
  1.455586e+00    1.272703e+00   1.725972e-02
  1.457796e+00    1.285618e+00   1.731938e-02
  1.460006e+00    1.251749e+00   1.706268e-02
  1.462217e+00    1.263121e+00   1.711386e-02
  1.464427e+00    1.260342e+00   1.706949e-02
  1.466638e+00    1.281871e+00   1.718924e-02
  1.468848e+00    1.241298e+00   1.688996e-02
  1.471059e+00    1.239278e+00   1.685141e-02
  1.473269e+00    1.261461e+00   1.697726e-02
  1.475480e+00    1.267498e+00   1.699408e-02
  1.477690e+00    1.259211e+00   1.691468e-02
  1.479901e+00    1.300093e+00   1.716292e-02
  1.482111e+00    1.269522e+00   1.693662e-02
  1.484321e+00    1.249022e+00   1.677634e-02
  1.486532e+00    1.253713e+00   1.678560e-02
  1.488742e+00    1.263557e+00   1.682872e-02
  1.490953e+00    1.276295e+00   1.689065e-02
  1.493163e+00    1.258350e+00   1.674923e-02
  1.495374e+00    1.290389e+00   1.693939e-02
  1.497584e+00    1.266962e+00   1.676326e-02
  1.499795e+00    1.256412e+00   1.667167e-02
  1.502005e+00    1.273215e+00   1.676101e-02
  1.504216e+00    1.255163e+00   1.662073e-02
  1.506426e+00    1.282768e+00   1.678151e-02
  1.508636e+00    1.248874e+00   1.653795e-02
  1.510847e+00    1.251570e+00   1.653401e-02
  1.513057e+00    1.234051e+00   1.639300e-02
  1.515268e+00    1.255734e+00   1.651067e-02
  1.517478e+00    1.260595e+00   1.651738e-02
  1.519689e+00    1.258894e+00   1.648122e-02
  1.521899e+00    1.270483e+00   1.653366e-02
  1.524110e+00    1.250005e+00   1.637956e-02
  1.526320e+00    1.236505e+00   1.627141e-02
  1.528531e+00    1.249069e+00   1.633409e-02
  1.530741e+00    1.269829e+00   1.645000e-02
  1.532951e+00    1.246123e+00   1.627617e-02
  1.535162e+00    1.227301e+00   1.623860e-02
  1.537372e+00    1.216506e+00   1.623305e-02
  1.539583e+00    1.233274e+00   1.637857e-02
  1.541793e+00    1.256870e+00   1.654147e-02
  1.544004e+00    1.262942e+00   1.658166e-02
  1.546214e+00    1.258576e+00   1.655146e-02
  1.548425e+00    1.241885e+00   1.644160e-02
  1.550635e+00    1.249527e+00   1.650180e-02
  1.552846e+00    1.260392e+00   1.658311e-02
  1.555056e+00    1.246140e+00   1.644759e-02
  1.557266e+00    1.233526e+00   1.625415e-02
  1.559477e+00    1.237767e+00   1.622312e-02
  1.561687e+00    1.220412e+00   1.607862e-02
  1.563898e+00    1.258781e+00   1.631212e-02
  1.566108e+00    1.256422e+00   1.628084e-02
  1.568319e+00    1.239672e+00   1.615633e-02
  1.570529e+00    1.263383e+00   1.628479e-02
  1.572740e+00    1.251301e+00   1.617905e-02
  1.574950e+00    1.238938e+00   1.607268e-02
  1.577161e+00    1.225102e+00   1.595739e-02
  1.579371e+00    1.269383e+00   1.621931e-02
  1.581582e+00    1.277763e+00   1.625275e-02
  1.583792e+00    1.254603e+00   1.608670e-02
  1.586002e+00    1.229700e+00   1.590870e-02
  1.588213e+00    1.241491e+00   1.596759e-02
  1.590423e+00    1.218431e+00   1.579874e-02
  1.592634e+00    1.226569e+00   1.582991e-02
  1.594844e+00    1.229415e+00   1.582700e-02
  1.597055e+00    1.247456e+00   1.592216e-02
  1.599265e+00    1.250662e+00   1.592182e-02
  1.601476e+00    1.257688e+00   1.594603e-02
  1.603686e+00    1.265378e+00   1.597475e-02
  1.605897e+00    1.263338e+00   1.594151e-02
  1.608107e+00    1.243476e+00   1.579609e-02
  1.610317e+00    1.245385e+00   1.578885e-02
  1.612528e+00    1.233732e+00   1.569564e-02
  1.614738e+00    1.214054e+00   1.555116e-02
  1.616949e+00    1.176069e+00   1.528736e-02
  1.619159e+00    1.196874e+00   1.540343e-02
  1.621370e+00    1.211022e+00   1.547583e-02
  1.623580e+00    1.191610e+00   1.533314e-02
  1.625791e+00    1.168071e+00   1.516298e-02
  1.628001e+00    1.190248e+00   1.528807e-02
  1.630212e+00    1.184394e+00   1.523275e-02
  1.632422e+00    1.177190e+00   1.516853e-02
  1.634632e+00    1.173031e+00   1.512446e-02
  1.636843e+00    1.169082e+00   1.508151e-02
  1.639053e+00    1.170067e+00   1.507059e-02
  1.641264e+00    1.184138e+00   1.514373e-02
  1.643474e+00    1.193408e+00   1.518529e-02
  1.645685e+00    1.173217e+00   1.503951e-02
  1.647895e+00    1.141347e+00   1.481734e-02
  1.650106e+00    1.122028e+00   1.467460e-02
  1.652316e+00    1.131885e+00   1.472256e-02
  1.654527e+00    1.128309e+00   1.468273e-02
  1.656737e+00    1.106094e+00   1.452112e-02
  1.658947e+00    1.113797e+00   1.455543e-02
  1.661158e+00    1.145053e+00   1.474186e-02
  1.663368e+00    1.143045e+00   1.471277e-02
  1.665579e+00    1.142192e+00   1.469097e-02
  1.667789e+00    1.138937e+00   1.465361e-02
  1.670000e+00    1.136293e+00   1.462096e-02
  1.672210e+00    1.109236e+00   1.442994e-02
  1.674421e+00    1.102258e+00   1.436920e-02
  1.676631e+00    1.087835e+00   1.425908e-02
  1.678842e+00    1.087907e+00   1.424386e-02
  1.681052e+00    1.100831e+00   1.431279e-02
  1.683263e+00    1.077012e+00   1.414204e-02
  1.685473e+00    1.081010e+00   1.415315e-02
  1.687683e+00    1.075010e+00   1.409846e-02
  1.689894e+00    1.058221e+00   1.397232e-02
  1.692104e+00    1.054030e+00   1.392987e-02
  1.694315e+00    1.059585e+00   1.395211e-02
  1.696525e+00    1.064317e+00   1.396811e-02
  1.698736e+00    1.057953e+00   1.391152e-02
  1.700946e+00    1.045151e+00   1.381207e-02
  1.703157e+00    1.051482e+00   1.383923e-02
  1.705367e+00    1.023606e+00   1.364026e-02
  1.707578e+00    1.034119e+00   1.369565e-02
  1.709788e+00    1.042951e+00   1.373992e-02
  1.711998e+00    1.036784e+00   1.368427e-02
  1.714209e+00    1.043922e+00   1.371682e-02
  1.716419e+00    1.040298e+00   1.367869e-02
  1.718630e+00    1.018721e+00   1.352193e-02
  1.720840e+00    1.010273e+00   1.345165e-02
  1.723051e+00    1.015463e+00   1.347238e-02
  1.725261e+00    1.002718e+00   1.337301e-02
  1.727472e+00    1.011839e+00   1.341956e-02
  1.729682e+00    1.023515e+00   1.348326e-02
  1.731893e+00    1.037123e+00   1.355851e-02
  1.734103e+00    1.010473e+00   1.336939e-02
  1.736313e+00    9.961244e-01   1.326017e-02
  1.738524e+00    9.869479e-01   1.318524e-02
  1.740734e+00    9.714810e-01   1.306801e-02
  1.742945e+00    9.585879e-01   1.296780e-02
  1.745155e+00    9.730154e-01   1.305170e-02
  1.747366e+00    9.633501e-01   1.297310e-02
  1.749576e+00    9.704108e-01   1.300696e-02
  1.751787e+00    9.721833e-01   1.300560e-02
  1.753997e+00    9.520769e-01   1.285718e-02
  1.756208e+00    9.645761e-01   1.292820e-02
  1.758418e+00    9.474579e-01   1.280003e-02
  1.760628e+00    9.398140e-01   1.273512e-02
  1.762839e+00    9.523848e-01   1.280687e-02
  1.765049e+00    9.628767e-01   1.286412e-02
  1.767260e+00    9.408351e-01   1.270335e-02
  1.769470e+00    9.423438e-01   1.270061e-02
  1.771681e+00    9.541952e-01   1.276708e-02
  1.773891e+00    9.543096e-01   1.275477e-02
  1.776102e+00    9.327111e-01   1.259684e-02
  1.778312e+00    9.232904e-01   1.252047e-02
  1.780523e+00    9.226965e-01   1.250384e-02
  1.782733e+00    8.962905e-01   1.231124e-02
  1.784944e+00    9.048666e-01   1.235730e-02
  1.787154e+00    9.257718e-01   1.248676e-02
  1.789364e+00    9.305584e-01   1.250650e-02
  1.791575e+00    9.219230e-01   1.243586e-02
  1.793785e+00    9.242690e-01   1.243924e-02
  1.795996e+00    9.156178e-01   1.236841e-02
  1.798206e+00    9.278646e-01   1.243827e-02
  1.800417e+00    9.515299e-01   1.258297e-02
  1.802627e+00    9.552839e-01   1.259556e-02
  1.804838e+00    9.487728e-01   1.254023e-02
  1.807048e+00    9.297215e-01   1.240070e-02
  1.809259e+00    9.150442e-01   1.228877e-02
  1.811469e+00    9.201232e-01   1.230773e-02
  1.813679e+00    9.210615e-01   1.229887e-02
  1.815890e+00    9.283128e-01   1.233219e-02
  1.818100e+00    9.298686e-01   1.232714e-02
  1.820311e+00    9.188881e-01   1.223917e-02
  1.822521e+00    9.418088e-01   1.237558e-02
  1.824732e+00    9.220939e-01   1.223032e-02
  1.826942e+00    9.069340e-01   1.211690e-02
  1.829153e+00    8.684918e-01   1.184574e-02
  1.831363e+00    8.625268e-01   1.179309e-02
  1.833574e+00    8.618337e-01   1.177680e-02
  1.835784e+00    8.879511e-01   1.194242e-02
  1.837994e+00    8.870230e-01   1.192440e-02
  1.840205e+00    9.236891e-01   1.215689e-02
  1.842415e+00    9.105250e-01   1.205793e-02
  1.844626e+00    8.699480e-01   1.177464e-02
  1.846836e+00    8.893807e-01   1.189385e-02
  1.849047e+00    8.719616e-01   1.176515e-02
  1.851257e+00    8.772658e-01   1.179124e-02
  1.853468e+00    8.771563e-01   1.178162e-02
  1.855678e+00    8.700763e-01   1.172504e-02
  1.857889e+00    8.556295e-01   1.161883e-02
  1.860099e+00    8.555008e-01   1.160931e-02
  1.862309e+00    8.445914e-01   1.152661e-02
  1.864520e+00    8.478599e-01   1.154035e-02
  1.866730e+00    8.495430e-01   1.154244e-02
  1.868941e+00    8.594958e-01   1.159887e-02
  1.871151e+00    8.749438e-01   1.169110e-02
  1.873362e+00    8.665051e-01   1.162314e-02
  1.875572e+00    8.589166e-01   1.156113e-02
  1.877783e+00    8.472475e-01   1.147091e-02
  1.879993e+00    8.487436e-01   1.146985e-02
  1.882204e+00    8.544757e-01   1.149756e-02
  1.884414e+00    8.503591e-01   1.145873e-02
  1.886624e+00    8.528518e-01   1.146437e-02
  1.888835e+00    8.620298e-01   1.151478e-02
  1.891045e+00    8.678173e-01   1.154233e-02
  1.893256e+00    8.307157e-01   1.128185e-02
  1.895466e+00    8.383174e-01   1.132217e-02
  1.897677e+00    8.343206e-01   1.128423e-02
  1.899887e+00    8.388774e-01   1.130400e-02
  1.902098e+00    8.315555e-01   1.124372e-02
  1.904308e+00    8.270141e-01   1.120241e-02
  1.906519e+00    8.309635e-01   1.121830e-02
  1.908729e+00    8.239024e-01   1.115994e-02
  1.910940e+00    8.118796e-01   1.106720e-02
  1.913150e+00    8.254781e-01   1.114891e-02
  1.915360e+00    8.260455e-01   1.114212e-02
  1.917571e+00    8.119777e-01   1.103604e-02
  1.919781e+00    7.874044e-01   1.085728e-02
  1.921992e+00    8.169854e-01   1.104875e-02
  1.924202e+00    8.022578e-01   1.093805e-02
  1.926413e+00    8.089009e-01   1.097299e-02
  1.928623e+00    7.972203e-01   1.088304e-02
  1.930834e+00    8.092836e-01   1.095466e-02
  1.933044e+00    8.044963e-01   1.091161e-02
  1.935255e+00    8.035864e-01   1.089513e-02
  1.937465e+00    8.058363e-01   1.090000e-02
  1.939675e+00    8.191947e-01   1.097903e-02
  1.941886e+00    8.113754e-01   1.091621e-02
  1.944096e+00    7.990900e-01   1.082308e-02
  1.946307e+00    7.980374e-01   1.080564e-02
  1.948517e+00    7.890618e-01   1.073433e-02
  1.950728e+00    7.713041e-01   1.060279e-02
  1.952938e+00    7.675755e-01   1.056722e-02
  1.955149e+00    7.883834e-01   1.069931e-02
  1.957359e+00    7.824003e-01   1.064869e-02
  1.959570e+00    7.802119e-01   1.062301e-02
  1.961780e+00    7.851484e-01   1.064670e-02
  1.963990e+00    7.743238e-01   1.056305e-02
  1.966201e+00    7.734462e-01   1.054711e-02
  1.968411e+00    7.972667e-01   1.069808e-02
  1.970622e+00    7.906754e-01   1.064368e-02
  1.972832e+00    7.879397e-01   1.061526e-02
  1.975043e+00    7.809926e-01   1.055835e-02
  1.977253e+00    7.880457e-01   1.059595e-02
  1.979464e+00    7.918253e-01   1.061124e-02
  1.981674e+00    7.815973e-01   1.053225e-02
  1.983885e+00    7.559605e-01   1.034822e-02
  1.986095e+00    7.675078e-01   1.041731e-02
  1.988305e+00    7.782385e-01   1.048002e-02
  1.990516e+00    7.665108e-01   1.039090e-02
  1.992726e+00    7.602324e-01   1.033870e-02
  1.994937e+00    7.528092e-01   1.027813e-02
  1.997147e+00    7.592739e-01   1.031254e-02
  1.999358e+00    7.670112e-01   1.035515e-02
  2.001568e+00    7.720909e-01   1.037858e-02
  2.003779e+00    7.555264e-01   1.025486e-02
  2.005989e+00    7.673240e-01   1.032262e-02
  2.008200e+00    7.706446e-01   1.033341e-02
  2.010410e+00    7.639489e-01   1.027672e-02
  2.012621e+00    7.580581e-01   1.022539e-02
  2.014831e+00    7.695231e-01   1.029093e-02
  2.017041e+00    7.633920e-01   1.023952e-02
  2.019252e+00    7.569891e-01   1.018656e-02
  2.021462e+00    7.681523e-01   1.025187e-02
  2.023673e+00    7.811021e-01   1.032844e-02
  2.025883e+00    7.704460e-01   1.024818e-02
  2.028094e+00    7.565721e-01   1.014590e-02
  2.030304e+00    7.611283e-01   1.016684e-02
  2.032515e+00    7.667918e-01   1.019528e-02
  2.034725e+00    7.599469e-01   1.014022e-02
  2.036936e+00    7.639478e-01   1.015751e-02
  2.039146e+00    7.510827e-01   1.006208e-02
  2.041356e+00    7.590522e-01   1.010566e-02
  2.043567e+00    7.551187e-01   1.007015e-02
  2.045777e+00    7.602806e-01   1.009523e-02
  2.047988e+00    7.524191e-01   1.003355e-02
  2.050198e+00    7.466667e-01   9.986727e-03
  2.052409e+00    7.433783e-01   9.957090e-03
  2.054619e+00    7.634920e-01   1.008347e-02
  2.056830e+00    7.738901e-01   1.014462e-02
  2.059040e+00    7.735028e-01   1.013446e-02
  2.061251e+00    7.754308e-01   1.013971e-02
  2.063461e+00    7.713085e-01   1.010501e-02
  2.065671e+00    7.741596e-01   1.011482e-02
  2.067882e+00    7.598212e-01   1.001163e-02
  2.070092e+00    7.547269e-01   9.968777e-03
  2.072303e+00    7.645591e-01   1.002424e-02
  2.074513e+00    7.656917e-01   1.002223e-02
  2.076724e+00    7.640312e-01   1.000176e-02
  2.078934e+00    7.569324e-01   9.946128e-03
  2.081145e+00    7.287000e-01   9.749858e-03
  2.083355e+00    7.435522e-01   9.839524e-03
  2.085566e+00    7.544319e-01   9.902277e-03
  2.087776e+00    7.542237e-01   9.891300e-03
  2.089986e+00    7.653205e-01   9.954854e-03
  2.092197e+00    8.058673e-01   1.020577e-02
  2.094407e+00    8.252894e-01   1.031829e-02
  2.096618e+00    7.670324e-01   9.938386e-03
  2.098828e+00    7.347006e-01   9.717309e-03
  2.101039e+00    7.505701e-01   9.812630e-03
  2.103249e+00    7.184777e-01   9.591963e-03
  2.105460e+00    7.166587e-01   9.570872e-03
  2.107670e+00    7.020226e-01   9.464066e-03
  2.109881e+00    7.045541e-01   9.472089e-03
  2.112091e+00    7.160798e-01   9.540321e-03
  2.114301e+00    7.187464e-01   9.549322e-03
  2.116512e+00    7.160431e-01   9.522606e-03
  2.118722e+00    7.053056e-01   9.442221e-03
  2.120933e+00    6.972670e-01   9.379523e-03
  2.123143e+00    7.098554e-01   9.454967e-03
  2.125354e+00    7.108086e-01   9.452832e-03
  2.127564e+00    7.073520e-01   9.421139e-03
  2.129775e+00    7.097639e-01   9.428495e-03
  2.131985e+00    7.104416e-01   9.423965e-03
  2.134196e+00    7.099873e-01   9.412389e-03
  2.136406e+00    7.061977e-01   9.378519e-03
  2.138617e+00    7.119524e-01   9.408200e-03
  2.140827e+00    6.878172e-01   9.263164e-03
  2.143037e+00    7.056563e-01   9.427941e-03
  2.145248e+00    7.187862e-01   9.537475e-03
  2.147458e+00    6.913322e-01   9.368544e-03
  2.149669e+00    6.997823e-01   9.437451e-03
  2.151879e+00    7.100944e-01   9.515996e-03
  2.154090e+00    7.180140e-01   9.576333e-03
  2.156300e+00    7.088527e-01   9.521687e-03
  2.158511e+00    6.957103e-01   9.438301e-03
  2.160721e+00    7.023436e-01   9.487999e-03
  2.162932e+00    6.996115e-01   9.473286e-03
  2.165142e+00    7.050911e-01   9.513344e-03
  2.167352e+00    7.163532e-01   9.591974e-03
  2.169563e+00    6.970554e-01   9.463868e-03
  2.171773e+00    6.905738e-01   9.422186e-03
  2.173984e+00    6.951420e-01   9.454722e-03
  2.176194e+00    6.989579e-01   9.481830e-03
  2.178405e+00    6.943093e-01   9.450964e-03
  2.180615e+00    6.896380e-01   9.419786e-03
  2.182826e+00    6.907013e-01   9.427717e-03
  2.185036e+00    6.960899e-01   9.464490e-03
  2.187247e+00    6.969935e-01   9.470560e-03
  2.189457e+00    6.853302e-01   9.390604e-03
  2.191667e+00    6.803159e-01   9.356000e-03
  2.193878e+00    6.722305e-01   9.299682e-03
  2.196088e+00    6.743515e-01   9.313650e-03
  2.198299e+00    6.868110e-01   9.398214e-03
  2.200509e+00    6.804261e-01   9.353380e-03
  2.202720e+00    6.819411e-01   9.362611e-03
  2.204930e+00    6.837450e-01   9.373777e-03
  2.207141e+00    6.804658e-01   9.350133e-03
  2.209351e+00    7.024029e-01   9.497741e-03
  2.211562e+00    6.909692e-01   9.418508e-03
  2.213772e+00    6.756205e-01   9.257867e-03
  2.215982e+00    6.755912e-01   9.213471e-03
  2.218193e+00    6.796152e-01   9.211137e-03
  2.220403e+00    6.797584e-01   9.187454e-03
  2.222614e+00    6.673564e-01   9.082382e-03
  2.224824e+00    6.970845e-01   9.262759e-03
  2.227035e+00    6.665930e-01   9.040571e-03
  2.229245e+00    6.656563e-01   9.017299e-03
  2.231456e+00    6.776778e-01   9.082681e-03
  2.233666e+00    6.708437e-01   9.021674e-03
  2.235877e+00    6.650471e-01   8.968398e-03
  2.238087e+00    6.735204e-01   9.011840e-03
  2.240298e+00    6.666318e-01   8.951890e-03
  2.242508e+00    6.664269e-01   8.935419e-03
  2.244718e+00    6.657860e-01   8.915348e-03
  2.246929e+00    6.604853e-01   8.865449e-03
  2.249139e+00    6.619781e-01   8.863131e-03
  2.251350e+00    6.661749e-01   8.879471e-03
  2.253560e+00    6.733853e-01   8.915779e-03
  2.255771e+00    6.756705e-01   8.919406e-03
  2.257981e+00    6.796456e-01   8.934301e-03
  2.260192e+00    6.629958e-01   8.813092e-03
  2.262402e+00    6.636621e-01   8.806670e-03
  2.264613e+00    6.605710e-01   8.775325e-03
  2.266823e+00    6.728469e-01   8.846015e-03
  2.269033e+00    6.611819e-01   8.758628e-03
  2.271244e+00    6.649359e-01   8.773063e-03
  2.273454e+00    6.639481e-01   8.756250e-03
  2.275665e+00    6.854212e-01   8.886237e-03
  2.277875e+00    6.787857e-01   8.833078e-03
  2.280086e+00    6.655861e-01   8.736672e-03
  2.282296e+00    6.694306e-01   8.752398e-03
  2.284507e+00    6.731006e-01   8.766116e-03
  2.286717e+00    6.744244e-01   8.765147e-03
  2.288928e+00    6.784310e-01   8.781114e-03
  2.291138e+00    6.632617e-01   8.672931e-03
  2.293348e+00    6.573884e-01   8.624884e-03
  2.295559e+00    6.702071e-01   8.699142e-03
  2.297769e+00    6.620457e-01   8.636734e-03
  2.299980e+00    6.464015e-01   8.524788e-03
  2.302190e+00    6.522937e-01   8.554425e-03
  2.304401e+00    6.556269e-01   8.566916e-03
  2.306611e+00    6.517245e-01   8.532183e-03
  2.308822e+00    6.417764e-01   8.458496e-03
  2.311032e+00    6.520944e-01   8.519751e-03
  2.313243e+00    6.597781e-01   8.563478e-03
  2.315453e+00    6.561653e-01   8.532394e-03
  2.317663e+00    6.547786e-01   8.514202e-03
  2.319874e+00    6.389362e-01   8.401879e-03
  2.322084e+00    6.520925e-01   8.478944e-03
  2.324295e+00    6.441625e-01   8.418997e-03
  2.326505e+00    6.516301e-01   8.458575e-03
  2.328716e+00    6.358886e-01   8.347267e-03
  2.330926e+00    6.375993e-01   8.349729e-03
  2.333137e+00    6.493641e-01   8.417996e-03
  2.335347e+00    6.429842e-01   8.367658e-03
  2.337558e+00    6.371585e-01   8.321455e-03
  2.339768e+00    6.406223e-01   8.335461e-03
  2.341979e+00    6.299603e-01   8.257506e-03
  2.344189e+00    6.255914e-01   8.220508e-03
  2.346399e+00    6.195918e-01   8.172606e-03
  2.348610e+00    6.375760e-01   8.281875e-03
  2.350820e+00    6.348025e-01   8.255699e-03
  2.353031e+00    6.197020e-01   8.148700e-03
  2.355241e+00    6.385227e-01   8.263434e-03
  2.357452e+00    6.366847e-01   8.243082e-03
  2.359662e+00    6.267323e-01   8.170225e-03
  2.361873e+00    6.292115e-01   8.178120e-03
  2.364083e+00    6.335749e-01   8.198426e-03
  2.366294e+00    6.332250e-01   8.188020e-03
  2.368504e+00    6.420818e-01   8.236891e-03
  2.370714e+00    6.321244e-01   8.164701e-03
  2.372925e+00    6.314273e-01   8.152090e-03
  2.375135e+00    6.259224e-01   8.108423e-03
  2.377346e+00    6.211964e-01   8.069801e-03
  2.379556e+00    6.244319e-01   8.082905e-03
  2.381767e+00    6.064840e-01   7.958113e-03
  2.383977e+00    6.251962e-01   8.071990e-03
  2.386188e+00    6.267998e-01   8.074372e-03
  2.388398e+00    6.207058e-01   8.027067e-03
  2.390609e+00    6.095255e-01   7.946751e-03
  2.392819e+00    6.190766e-01   8.000988e-03
  2.395029e+00    6.184774e-01   7.989435e-03
  2.397240e+00    6.146361e-01   7.956708e-03
  2.399450e+00    6.290286e-01   8.041430e-03
  2.401661e+00    6.115592e-01   7.921314e-03
  2.403871e+00    6.134267e-01   7.925613e-03
  2.406082e+00    6.003687e-01   7.833431e-03
  2.408292e+00    6.136264e-01   7.911634e-03
  2.410503e+00    6.103450e-01   7.882939e-03
  2.412713e+00    6.233531e-01   7.958605e-03
  2.414924e+00    6.162155e-01   7.905380e-03
  2.417134e+00    6.055613e-01   7.829082e-03
  2.419344e+00    6.051555e-01   7.819042e-03
  2.421555e+00    5.974809e-01   7.761825e-03
  2.423765e+00    6.062163e-01   7.810913e-03
  2.425976e+00    6.094082e-01   7.823573e-03
  2.428186e+00    6.005013e-01   7.758985e-03
  2.430397e+00    5.867537e-01   7.662235e-03
  2.432607e+00    5.936627e-01   7.699928e-03
  2.434818e+00    5.931446e-01   7.689060e-03
  2.437028e+00    5.862677e-01   7.637247e-03
  2.439239e+00    5.947793e-01   7.684818e-03
  2.441449e+00    5.910538e-01   7.653535e-03
  2.443659e+00    5.846727e-01   7.604794e-03
  2.445870e+00    5.895451e-01   7.648672e-03
  2.448080e+00    5.776258e-01   7.605587e-03
  2.450291e+00    5.971534e-01   7.749965e-03
  2.452501e+00    5.854193e-01   7.684716e-03
  2.454712e+00    5.724389e-01   7.607459e-03
  2.456922e+00    5.825824e-01   7.681245e-03
  2.459133e+00    5.764005e-01   7.645856e-03
  2.461343e+00    5.777575e-01   7.659261e-03
  2.463554e+00    5.704306e-01   7.614012e-03
  2.465764e+00    5.745604e-01   7.644704e-03
  2.467975e+00    5.511634e-01   7.489704e-03
  2.470185e+00    5.460519e-01   7.457111e-03
  2.472395e+00    5.461708e-01   7.459134e-03
  2.474606e+00    5.481597e-01   7.474262e-03
  2.476816e+00    5.477768e-01   7.472381e-03
  2.479027e+00    5.520545e-01   7.502353e-03
  2.481237e+00    5.477182e-01   7.473106e-03
  2.483448e+00    5.376787e-01   7.404603e-03
  2.485658e+00    5.428020e-01   7.439644e-03
  2.487869e+00    5.565855e-01   7.533551e-03
  2.490079e+00    5.462260e-01   7.462607e-03
  2.492290e+00    5.212605e-01   7.289643e-03
  2.494500e+00    5.222425e-01   7.295775e-03
  2.496710e+00    5.336651e-01   7.374424e-03
  2.498921e+00    5.384294e-01   7.406305e-03
  2.501131e+00    5.226482e-01   7.295991e-03
  2.503342e+00    5.415127e-01   7.425241e-03
  2.505552e+00    5.374040e-01   7.395867e-03
  2.507763e+00    5.379544e-01   7.398239e-03
  2.509973e+00    5.191939e-01   7.266710e-03
  2.512184e+00    5.255348e-01   7.309328e-03
  2.514394e+00    5.175629e-01   7.244410e-03
  2.516605e+00    5.198458e-01   7.213600e-03
  2.518815e+00    5.186106e-01   7.176895e-03
  2.521025e+00    5.324337e-01   7.250817e-03
  2.523236e+00    5.386793e-01   7.275009e-03
  2.525446e+00    5.263920e-01   7.175951e-03
  2.527657e+00    5.261644e-01   7.159787e-03
  2.529867e+00    5.103696e-01   7.037511e-03
  2.532078e+00    5.240910e-01   7.116461e-03
  2.534288e+00    5.236248e-01   7.099431e-03
  2.536499e+00    5.316426e-01   7.141547e-03
  2.538709e+00    5.372936e-01   7.168301e-03
  2.540920e+00    5.091404e-01   6.967463e-03
  2.543130e+00    5.149047e-01   6.996520e-03
  2.545340e+00    5.190194e-01   7.014399e-03
  2.547551e+00    5.244377e-01   7.040959e-03
  2.549761e+00    5.232009e-01   7.023066e-03
  2.551972e+00    5.129203e-01   6.944458e-03
  2.554182e+00    5.185871e-01   6.973551e-03
  2.556393e+00    5.187378e-01   6.965486e-03
  2.558603e+00    5.134745e-01   6.921052e-03
  2.560814e+00    5.265536e-01   6.999883e-03
  2.563024e+00    5.288408e-01   7.006413e-03
  2.565235e+00    5.345883e-01   7.034732e-03
  2.567445e+00    5.185910e-01   6.919143e-03
  2.569656e+00    5.190389e-01   6.912353e-03
  2.571866e+00    5.265024e-01   6.952449e-03
  2.574076e+00    5.182402e-01   6.888403e-03
  2.576287e+00    5.149881e-01   6.858451e-03
  2.578497e+00    5.037624e-01   6.775519e-03
  2.580708e+00    4.976160e-01   6.726116e-03
  2.582918e+00    5.118073e-01   6.813608e-03
  2.585129e+00    5.099205e-01   6.793329e-03
  2.587339e+00    5.041676e-01   6.747304e-03
  2.589550e+00    4.980718e-01   6.698939e-03
  2.591760e+00    5.101823e-01   6.772153e-03
  2.593971e+00    5.126585e-01   6.781052e-03
  2.596181e+00    5.220229e-01   6.836414e-03
  2.598391e+00    5.106540e-01   6.756375e-03
  2.600602e+00    5.093086e-01   6.741554e-03
  2.602812e+00    5.056794e-01   6.709995e-03
  2.605023e+00    4.928590e-01   6.617317e-03
  2.607233e+00    5.099497e-01   6.723920e-03
  2.609444e+00    5.055603e-01   6.687719e-03
  2.611654e+00    5.048882e-01   6.675944e-03
  2.613865e+00    5.215892e-01   6.778329e-03
  2.616075e+00    5.141210e-01   6.722439e-03
  2.618286e+00    5.081894e-01   6.676528e-03
  2.620496e+00    5.069612e-01   6.661748e-03
  2.622706e+00    5.102755e-01   6.677712e-03
  2.624917e+00    5.036311e-01   6.628247e-03
  2.627127e+00    5.028189e-01   6.617176e-03
  2.629338e+00    4.922157e-01   6.541125e-03
  2.631548e+00    4.978866e-01   6.572545e-03
  2.633759e+00    5.153622e-01   6.679663e-03
  2.635969e+00    5.160543e-01   6.677375e-03
  2.638180e+00    5.040756e-01   6.592433e-03
  2.640390e+00    4.977896e-01   6.544589e-03
  2.642601e+00    5.144618e-01   6.646542e-03
  2.644811e+00    5.208017e-01   6.680149e-03
  2.647021e+00    5.052315e-01   6.572951e-03
  2.649232e+00    4.989084e-01   6.524959e-03
  2.651442e+00    5.016964e-01   6.536652e-03
  2.653653e+00    4.951502e-01   6.487103e-03
  2.655863e+00    4.941279e-01   6.473746e-03
  2.658074e+00    4.963163e-01   6.481457e-03
  2.660284e+00    4.979888e-01   6.486021e-03
  2.662495e+00    4.888819e-01   6.419743e-03
  2.664705e+00    4.957776e-01   6.458293e-03
  2.666916e+00    4.958964e-01   6.452611e-03
  2.669126e+00    5.021651e-01   6.486762e-03
  2.671337e+00    4.987481e-01   6.458061e-03
  2.673547e+00    5.022259e-01   6.474105e-03
  2.675757e+00    5.051119e-01   6.486176e-03
  2.677968e+00    5.021805e-01   6.460737e-03
  2.680178e+00    4.931576e-01   6.396053e-03
  2.682389e+00    4.862645e-01   6.344841e-03
  2.684599e+00    4.829329e-01   6.316935e-03
  2.686810e+00    4.843994e-01   6.319974e-03
  2.689020e+00    4.923397e-01   6.365255e-03
  2.691231e+00    4.828430e-01   6.297348e-03
  2.693441e+00    4.950062e-01   6.369968e-03
  2.695652e+00    4.961744e-01   6.370966e-03
  2.697862e+00    4.830562e-01   6.279849e-03
  2.700072e+00    4.839872e-01   6.279874e-03
  2.702283e+00    4.860424e-01   6.286981e-03
  2.704493e+00    4.950458e-01   6.338621e-03
  2.706704e+00    4.965916e-01   6.342060e-03
  2.708914e+00    4.937805e-01   6.318079e-03
  2.711125e+00    4.892454e-01   6.282736e-03
  2.713335e+00    5.082003e-01   6.397067e-03
  2.715546e+00    4.991183e-01   6.333125e-03
  2.717756e+00    4.881520e-01   6.257256e-03
  2.719967e+00    4.857408e-01   6.235586e-03
  2.722177e+00    4.784928e-01   6.182792e-03
  2.724387e+00    4.834284e-01   6.208511e-03
  2.726598e+00    4.851401e-01   6.213436e-03
  2.728808e+00    4.889280e-01   6.231467e-03
  2.731019e+00    4.879742e-01   6.219247e-03
  2.733229e+00    4.879533e-01   6.213292e-03
  2.735440e+00    4.742656e-01   6.119319e-03
  2.737650e+00    4.762716e-01   6.126274e-03
  2.739861e+00    4.818856e-01   6.156202e-03
  2.742071e+00    4.920407e-01   6.214950e-03
  2.744282e+00    4.938374e-01   6.219955e-03
  2.746492e+00    5.019068e-01   6.264423e-03
  2.748702e+00    4.811053e-01   6.127340e-03
  2.750913e+00    4.824256e-01   6.129937e-03
  2.753123e+00    4.830648e-01   6.127866e-03
  2.755334e+00    4.877382e-01   6.151318e-03
  2.757544e+00    4.908672e-01   6.165222e-03
  2.759755e+00    4.935866e-01   6.176315e-03
  2.761965e+00    4.776600e-01   6.069884e-03
  2.764176e+00    4.807109e-01   6.083245e-03
  2.766386e+00    4.706515e-01   6.013535e-03
  2.768597e+00    4.692680e-01   5.998873e-03
  2.770807e+00    4.914041e-01   6.132777e-03
  2.773017e+00    4.887781e-01   6.110358e-03
  2.775228e+00    4.726431e-01   6.002900e-03
  2.777438e+00    4.752970e-01   6.013949e-03
  2.779649e+00    4.760568e-01   6.012862e-03
  2.781859e+00    4.816106e-01   6.042055e-03
  2.784070e+00    4.809155e-01   6.031808e-03
  2.786280e+00    4.774951e-01   6.004554e-03
  2.788491e+00    4.786458e-01   6.005933e-03
  2.790701e+00    4.781965e-01   5.997463e-03
  2.792912e+00    4.743989e-01   5.967645e-03
  2.795122e+00    4.738961e-01   5.958759e-03
  2.797333e+00    4.757812e-01   5.965043e-03
  2.799543e+00    4.803130e-01   5.987486e-03
  2.801753e+00    4.630671e-01   5.873240e-03
  2.803964e+00    4.741518e-01   5.937464e-03
  2.806174e+00    4.606163e-01   5.846046e-03
  2.808385e+00    4.761137e-01   5.936769e-03
  2.810595e+00    4.636430e-01   5.851732e-03
  2.812806e+00    4.605051e-01   5.825368e-03
  2.815016e+00    4.652523e-01   5.850628e-03
  2.817227e+00    4.770929e-01   5.950603e-03
  2.819437e+00    4.842229e-01   6.006125e-03
  2.821648e+00    4.730643e-01   5.938802e-03
  2.823858e+00    4.800139e-01   5.987637e-03
  2.826068e+00    4.713454e-01   5.938303e-03
  2.828279e+00    4.687522e-01   5.925971e-03
  2.830489e+00    4.651374e-01   5.906385e-03
  2.832700e+00    4.564368e-01   5.853403e-03
  2.834910e+00    4.602172e-01   5.879615e-03
  2.837121e+00    4.783019e-01   5.995751e-03
  2.839331e+00    4.680962e-01   5.932684e-03
  2.841542e+00    4.614148e-01   5.891198e-03
  2.843752e+00    4.606629e-01   5.887151e-03
  2.845963e+00    4.712220e-01   5.954643e-03
  2.848173e+00    4.682847e-01   5.936144e-03
  2.850383e+00    4.742604e-01   5.974199e-03
  2.852594e+00    4.874849e-01   6.056834e-03
  2.854804e+00    4.742526e-01   5.973562e-03
  2.857015e+00    4.738005e-01   5.970276e-03
  2.859225e+00    4.860624e-01   6.046783e-03
  2.861436e+00    4.553797e-01   5.852184e-03
  2.863646e+00    4.690591e-01   5.939455e-03
  2.865857e+00    4.566091e-01   5.860439e-03
  2.868067e+00    4.675808e-01   5.930652e-03
  2.870278e+00    4.651066e-01   5.914599e-03
  2.872488e+00    4.740714e-01   5.970132e-03
  2.874698e+00    4.744522e-01   5.971500e-03
  2.876909e+00    4.659316e-01   5.916291e-03
  2.879119e+00    4.627571e-01   5.894479e-03
  2.881330e+00    4.665297e-01   5.916982e-03
  2.883540e+00    4.600073e-01   5.874099e-03
  2.885751e+00    4.566356e-01   5.850885e-03
  2.887961e+00    4.683889e-01   5.923800e-03
  2.890172e+00    4.682182e-01   5.921129e-03
  2.892382e+00    4.601401e-01   5.868006e-03
  2.894593e+00    4.763208e-01   5.968449e-03
  2.896803e+00    4.717007e-01   5.937426e-03
  2.899014e+00    4.665048e-01   5.902723e-03
  2.901224e+00    4.634463e-01   5.881322e-03
  2.903434e+00    4.708914e-01   5.926423e-03
  2.905645e+00    4.572400e-01   5.837661e-03
  2.907855e+00    4.638318e-01   5.877489e-03
  2.910066e+00    4.569728e-01   5.831785e-03
  2.912276e+00    4.645024e-01   5.877497e-03
  2.914487e+00    4.713220e-01   5.917998e-03
  2.916697e+00    4.736905e-01   5.930594e-03
  2.918908e+00    4.605638e-01   5.845843e-03
  2.921118e+00    4.554505e-01   5.810605e-03
  2.923329e+00    4.561183e-01   5.812559e-03
  2.925539e+00    4.559470e-01   5.809174e-03
  2.927749e+00    4.637959e-01   5.856640e-03
  2.929960e+00    4.638443e-01   5.854160e-03
  2.932170e+00    4.527984e-01   5.781705e-03
  2.934381e+00    4.559230e-01   5.799189e-03
  2.936591e+00    4.594374e-01   5.818893e-03
  2.938802e+00    4.666711e-01   5.861796e-03
  2.941012e+00    4.594274e-01   5.813784e-03
  2.943223e+00    4.532809e-01   5.772069e-03
  2.945433e+00    4.555087e-01   5.782502e-03
  2.947644e+00    4.504821e-01   5.746386e-03
  2.949854e+00    4.658122e-01   5.839035e-03
  2.952064e+00    4.681041e-01   5.849109e-03
  2.954275e+00    4.497457e-01   5.728868e-03
  2.956485e+00    4.575599e-01   5.774228e-03
  2.958696e+00    4.452466e-01   5.691669e-03
  2.960906e+00    4.610773e-01   5.787765e-03
  2.963117e+00    4.448409e-01   5.680519e-03
  2.965327e+00    4.547636e-01   5.739606e-03
  2.967538e+00    4.685789e-01   5.823180e-03
  2.969748e+00    4.633971e-01   5.788051e-03
  2.971959e+00    4.656292e-01   5.798808e-03
  2.974169e+00    4.552144e-01   5.730999e-03
  2.976379e+00    4.617876e-01   5.769285e-03
  2.978590e+00    4.579694e-01   5.742234e-03
  2.980800e+00    4.579580e-01   5.739363e-03
  2.983011e+00    4.448094e-01   5.653586e-03
  2.985221e+00    4.555440e-01   5.718243e-03
  2.987432e+00    4.594041e-01   5.739290e-03
  2.989642e+00    4.539110e-01   5.702255e-03
  2.991853e+00    4.591584e-01   5.731810e-03
  2.994063e+00    4.662178e-01   5.772758e-03
  2.996274e+00    4.701271e-01   5.793688e-03
  2.998484e+00    4.593754e-01   5.724340e-03
  3.000694e+00    4.483888e-01   5.652031e-03
  3.002905e+00    4.507996e-01   5.664275e-03
  3.005115e+00    4.495557e-01   5.653483e-03
  3.007326e+00    4.428811e-01   5.608253e-03
  3.009536e+00    4.388434e-01   5.579410e-03
  3.011747e+00    4.563144e-01   5.686468e-03
  3.013957e+00    4.630956e-01   5.725350e-03
  3.016168e+00    4.672744e-01   5.747815e-03
  3.018378e+00    4.607619e-01   5.704567e-03
  3.020589e+00    4.527614e-01   5.651596e-03
  3.022799e+00    4.377645e-01   5.554122e-03
  3.025010e+00    4.435094e-01   5.587197e-03
  3.027220e+00    4.518675e-01   5.636518e-03
  3.029430e+00    4.513794e-01   5.630233e-03
  3.031641e+00    4.417793e-01   5.566930e-03
  3.033851e+00    4.498128e-01   5.613802e-03
  3.036062e+00    4.453517e-01   5.583138e-03
  3.038272e+00    4.578257e-01   5.657186e-03
  3.040483e+00    4.543585e-01   5.632490e-03
  3.042693e+00    4.450823e-01   5.571465e-03
  3.044904e+00    4.445775e-01   5.564299e-03
  3.047114e+00    4.458620e-01   5.567567e-03
  3.049325e+00    4.318450e-01   5.475042e-03
  3.051535e+00    4.473186e-01   5.567880e-03
  3.053745e+00    4.469213e-01   5.560687e-03
  3.055956e+00    4.499302e-01   5.574801e-03
  3.058166e+00    4.648696e-01   5.662272e-03
  3.060377e+00    4.503412e-01   5.568318e-03
  3.062587e+00    4.470674e-01   5.543442e-03
  3.064798e+00    4.390796e-01   5.489471e-03
  3.067008e+00    4.493410e-01   5.548522e-03
  3.069219e+00    4.575559e-01   5.594462e-03
  3.071429e+00    4.539834e-01   5.569053e-03
  3.073640e+00    4.501216e-01   5.541991e-03
  3.075850e+00    4.450561e-01   5.507142e-03
  3.078060e+00    4.521722e-01   5.547877e-03
  3.080271e+00    4.463097e-01   5.508342e-03
  3.082481e+00    4.414996e-01   5.475155e-03
  3.084692e+00    4.504386e-01   5.526908e-03
  3.086902e+00    4.555368e-01   5.554836e-03
  3.089113e+00    4.622767e-01   5.592151e-03
  3.091323e+00    4.645242e-01   5.602295e-03
  3.093534e+00    4.426349e-01   5.465359e-03
  3.095744e+00    4.436665e-01   5.468352e-03
  3.097955e+00    4.452063e-01   5.474306e-03
  3.100165e+00    4.510966e-01   5.507038e-03
  3.102375e+00    4.444437e-01   5.462886e-03
  3.104586e+00    4.440085e-01   5.456714e-03
  3.106796e+00    4.476673e-01   5.475631e-03
  3.109007e+00    4.549738e-01   5.516887e-03
  3.111217e+00    4.459207e-01   5.458042e-03
  3.113428e+00    4.510058e-01   5.485614e-03
  3.115638e+00    4.499835e-01   5.476161e-03
  3.117849e+00    4.382203e-01   5.400416e-03
  3.120059e+00    4.525666e-01   5.484600e-03
  3.122270e+00    4.460568e-01   5.441756e-03
  3.124480e+00    4.453552e-01   5.433796e-03
  3.126691e+00    4.459062e-01   5.433579e-03
  3.128901e+00    4.403259e-01   5.396367e-03
  3.131111e+00    4.399680e-01   5.390345e-03
  3.133322e+00    4.541243e-01   5.472901e-03
  3.135532e+00    4.427476e-01   5.400516e-03
  3.137743e+00    4.425290e-01   5.395714e-03
  3.139953e+00    4.397168e-01   5.374861e-03
  3.142164e+00    4.425205e-01   5.404001e-03
  3.144374e+00    4.478289e-01   5.464864e-03
  3.146585e+00    4.523268e-01   5.506988e-03
  3.148795e+00    4.413191e-01   5.450332e-03
  3.151006e+00    4.368158e-01   5.430954e-03
  3.153216e+00    4.387774e-01   5.450228e-03
  3.155426e+00    4.412095e-01   5.471633e-03
  3.157637e+00    4.447508e-01   5.499096e-03
  3.159847e+00    4.403151e-01   5.476472e-03
  3.162058e+00    4.528930e-01   5.558647e-03
  3.164268e+00    4.412698e-01   5.490920e-03
  3.166479e+00    4.470921e-01   5.530700e-03
  3.168689e+00    4.345020e-01   5.455645e-03
  3.170900e+00    4.300888e-01   5.430989e-03
  3.173110e+00    4.363820e-01   5.473419e-03
  3.175321e+00    4.495873e-01   5.558181e-03
  3.177531e+00    4.419712e-01   5.513637e-03
  3.179741e+00    4.287902e-01   5.432853e-03
  3.181952e+00    4.312579e-01   5.450554e-03
  3.184162e+00    4.348335e-01   5.475288e-03
  3.186373e+00    4.378458e-01   5.495814e-03
  3.188583e+00    4.391862e-01   5.506024e-03
  3.190794e+00    4.466531e-01   5.554401e-03
  3.193004e+00    4.442051e-01   5.540413e-03
  3.195215e+00    4.364806e-01   5.493549e-03
  3.197425e+00    4.223109e-01   5.404812e-03
  3.199636e+00    4.429595e-01   5.534593e-03
  3.201846e+00    4.415623e-01   5.525279e-03
  3.204056e+00    4.233797e-01   5.411168e-03
  3.206267e+00    4.314658e-01   5.463457e-03
  3.208477e+00    4.321898e-01   5.468950e-03
  3.210688e+00    4.376056e-01   5.503965e-03
  3.212898e+00    4.265194e-01   5.434383e-03
  3.215109e+00    4.334247e-01   5.478935e-03
  3.217319e+00    4.337552e-01   5.481657e-03
  3.219530e+00    4.334818e-01   5.480332e-03
  3.221740e+00    4.361106e-01   5.497481e-03
  3.223951e+00    4.190504e-01   5.389376e-03
  3.226161e+00    4.284789e-01   5.449801e-03
  3.228372e+00    4.475630e-01   5.570422e-03
  3.230582e+00    4.334179e-01   5.481835e-03
  3.232792e+00    4.263014e-01   5.436860e-03
  3.235003e+00    4.177129e-01   5.382060e-03
  3.237213e+00    4.235426e-01   5.419574e-03
  3.239424e+00    4.217560e-01   5.408135e-03
  3.241634e+00    4.315605e-01   5.470763e-03
  3.243845e+00    4.359331e-01   5.498472e-03
  3.246055e+00    4.296921e-01   5.458715e-03
  3.248266e+00    4.266737e-01   5.439690e-03
  3.250476e+00    4.387580e-01   5.515895e-03
  3.252687e+00    4.191733e-01   5.391299e-03
  3.254897e+00    4.243027e-01   5.424057e-03
  3.257107e+00    4.340038e-01   5.485396e-03
  3.259318e+00    4.344827e-01   5.488216e-03
  3.261528e+00    4.285271e-01   5.450299e-03
  3.263739e+00    4.357549e-01   5.495507e-03
  3.265949e+00    4.331183e-01   5.478748e-03
  3.268160e+00    4.354014e-01   5.492754e-03
  3.270370e+00    4.320024e-01   5.470732e-03
  3.272581e+00    4.386476e-01   5.512385e-03
  3.274791e+00    4.256612e-01   5.429651e-03
  3.277002e+00    4.278171e-01   5.442805e-03
  3.279212e+00    4.225395e-01   5.408754e-03
  3.281422e+00    4.358646e-01   5.492782e-03
  3.283633e+00    4.411534e-01   5.525322e-03
  3.285843e+00    4.337976e-01   5.478736e-03
  3.288054e+00    4.186022e-01   5.380994e-03
  3.290264e+00    4.307947e-01   5.458447e-03
  3.292475e+00    4.201638e-01   5.389889e-03
  3.294685e+00    4.124247e-01   5.339355e-03
  3.296896e+00    4.366333e-01   5.493076e-03
  3.299106e+00    4.240321e-01   5.412674e-03
  3.301317e+00    4.057949e-01   5.294007e-03
  3.303527e+00    4.261128e-01   5.424420e-03
  3.305737e+00    4.284539e-01   5.438268e-03
  3.307948e+00    4.290613e-01   5.441444e-03
  3.310158e+00    4.229147e-01   5.401478e-03
  3.312369e+00    4.223744e-01   5.397156e-03
  3.314579e+00    4.189337e-01   5.374204e-03
  3.316790e+00    4.180943e-01   5.368130e-03
  3.319000e+00    4.287153e-01   5.434669e-03
  3.321211e+00    4.228536e-01   5.396797e-03
  3.323421e+00    4.210922e-01   5.384350e-03
  3.325632e+00    4.233704e-01   5.397991e-03
  3.327842e+00    4.235519e-01   5.398244e-03
  3.330052e+00    4.262926e-01   5.414595e-03
  3.332263e+00    4.144339e-01   5.337764e-03
  3.334473e+00    4.104644e-01   5.311213e-03
  3.336684e+00    4.257773e-01   5.408127e-03
  3.338894e+00    4.196403e-01   5.368149e-03
  3.341105e+00    4.185395e-01   5.359932e-03
  3.343315e+00    4.125828e-01   5.320481e-03
  3.345526e+00    4.120823e-01   5.316391e-03
  3.347736e+00    4.231137e-01   5.385655e-03
  3.349947e+00    4.181451e-01   5.353018e-03
  3.352157e+00    4.180246e-01   5.351077e-03
  3.354368e+00    4.193819e-01   5.358468e-03
  3.356578e+00    4.215870e-01   5.371494e-03
  3.358788e+00    4.282878e-01   5.412678e-03
  3.360999e+00    4.209101e-01   5.364613e-03
  3.363209e+00    4.010774e-01   5.235713e-03
  3.365420e+00    3.973670e-01   5.209948e-03
  3.367630e+00    4.126635e-01   5.308256e-03
  3.369841e+00    4.236780e-01   5.377200e-03
  3.372051e+00    4.188007e-01   5.344195e-03
  3.374262e+00    4.082969e-01   5.274337e-03
  3.376472e+00    4.116699e-01   5.293624e-03
  3.378683e+00    4.242684e-01   5.371508e-03
  3.380893e+00    4.148647e-01   5.309300e-03
  3.383103e+00    4.173838e-01   5.322683e-03
  3.385314e+00    4.108636e-01   5.278748e-03
  3.387524e+00    4.084420e-01   5.260437e-03
  3.389735e+00    4.174055e-01   5.315193e-03
  3.391945e+00    4.239658e-01   5.353107e-03
  3.394156e+00    4.071188e-01   5.241472e-03
  3.396366e+00    4.142421e-01   5.283701e-03
  3.398577e+00    4.137214e-01   5.277338e-03
  3.400787e+00    4.018099e-01   5.212587e-03
  3.402998e+00    4.009631e-01   5.244729e-03
  3.405208e+00    3.993854e-01   5.254898e-03
  3.407418e+00    4.049611e-01   5.307320e-03
  3.409629e+00    4.053020e-01   5.323587e-03
  3.411839e+00    3.880404e-01   5.220626e-03
  3.414050e+00    3.952165e-01   5.279598e-03
  3.416260e+00    3.913859e-01   5.263592e-03
  3.418471e+00    3.914814e-01   5.273613e-03
  3.420681e+00    3.822355e-01   5.219346e-03
  3.422892e+00    3.829351e-01   5.232029e-03
  3.425102e+00    3.984942e-01   5.345177e-03
  3.427313e+00    3.732759e-01   5.180343e-03
  3.429523e+00    3.805568e-01   5.237596e-03
  3.431733e+00    3.819775e-01   5.254019e-03
  3.433944e+00    3.799342e-01   5.246378e-03
  3.436154e+00    3.919097e-01   5.334721e-03
  3.438365e+00    4.009178e-01   5.401779e-03
  3.440575e+00    3.836676e-01   5.290247e-03
  3.442786e+00    3.804351e-01   5.273526e-03
  3.444996e+00    3.821203e-01   5.290724e-03
  3.447207e+00    3.745176e-01   5.243126e-03
  3.449417e+00    3.639992e-01   5.209368e-03
  3.451628e+00    3.600212e-01   5.209895e-03
  3.453838e+00    3.810284e-01   5.381296e-03
  3.456049e+00    3.621837e-01   5.270292e-03
  3.458259e+00    3.766635e-01   5.396820e-03
  3.460469e+00    3.729691e-01   5.390269e-03
  3.462680e+00    3.706763e-01   5.392845e-03
  3.464890e+00    3.748736e-01   5.441305e-03
  3.467101e+00    3.560675e-01   5.320250e-03
  3.469311e+00    3.730511e-01   5.462240e-03
  3.471522e+00    3.983209e-01   5.661133e-03
  3.473732e+00    4.084315e-01   5.749084e-03
  3.475943e+00    4.039586e-01   5.733663e-03
  3.478153e+00    4.127033e-01   5.811310e-03
  3.480364e+00    4.256468e-01   5.917484e-03
  3.482574e+00    4.315789e-01   5.974450e-03
  3.484784e+00    4.322064e-01   5.994061e-03
  3.486995e+00    4.160658e-01   5.896170e-03
  3.489205e+00    4.292842e-01   6.003837e-03
  3.491416e+00    4.391811e-01   6.087803e-03
  3.493626e+00    4.540452e-01   6.204869e-03
  3.495837e+00    4.550168e-01   6.226521e-03
  3.498047e+00    4.526013e-01   6.224549e-03
  3.500258e+00    4.635959e-01   6.314513e-03
  3.502468e+00    4.559341e-01   6.276541e-03
  3.504679e+00    4.657688e-01   6.358434e-03
  3.506889e+00    4.698166e-01   6.400512e-03
  3.509099e+00    4.849311e-01   6.517211e-03
  3.511310e+00    4.907996e-01   6.571224e-03
  3.513520e+00    5.104055e-01   6.716009e-03
  3.515731e+00    4.963380e-01   6.637379e-03
  3.517941e+00    4.959512e-01   6.649197e-03
  3.520152e+00    5.090169e-01   6.750751e-03
  3.522362e+00    5.196406e-01   6.835588e-03
  3.524573e+00    5.153413e-01   6.821682e-03
  3.526783e+00    5.145968e-01   6.830114e-03
  3.528994e+00    5.304642e-01   6.947049e-03
  3.531204e+00    5.430974e-01   7.041987e-03
  3.533414e+00    5.251034e-01   6.936443e-03
  3.535625e+00    5.367112e-01   7.025143e-03
  3.537835e+00    5.338115e-01   7.018246e-03
  3.540046e+00    5.550002e-01   7.165320e-03
  3.542256e+00    5.229545e-01   6.962811e-03
  3.544467e+00    5.514822e-01   7.157905e-03
  3.546677e+00    5.430042e-01   7.110331e-03
  3.548888e+00    5.383654e-01   7.087405e-03
  3.551098e+00    5.541589e-01   7.197990e-03
  3.553309e+00    5.555732e-01   7.215527e-03
  3.555519e+00    5.448974e-01   7.157235e-03
  3.557729e+00    5.262303e-01   7.045211e-03
  3.559940e+00    5.400926e-01   7.148933e-03
  3.562150e+00    5.544492e-01   7.255273e-03
  3.564361e+00    5.359705e-01   7.146682e-03
  3.566571e+00    5.430179e-01   7.207400e-03
  3.568782e+00    5.441227e-01   7.228980e-03
  3.570992e+00    5.441778e-01   7.243188e-03
  3.573203e+00    5.416949e-01   7.240881e-03
  3.575413e+00    5.477726e-01   7.295287e-03
  3.577624e+00    5.417324e-01   7.269181e-03
  3.579834e+00    5.242568e-01   7.164695e-03
  3.582045e+00    5.272139e-01   7.198771e-03
  3.584255e+00    5.516932e-01   7.378269e-03
  3.586465e+00    5.284092e-01   7.234748e-03
  3.588676e+00    5.389547e-01   7.320784e-03
  3.590886e+00    5.377074e-01   7.326037e-03
  3.593097e+00    5.458286e-01   7.395814e-03
  3.595307e+00    5.472174e-01   7.419283e-03
  3.597518e+00    5.298370e-01   7.314643e-03
  3.599728e+00    5.545952e-01   7.497934e-03
  3.601939e+00    5.314313e-01   7.353717e-03
  3.604149e+00    5.318802e-01   7.371138e-03
  3.606360e+00    5.328530e-01   7.392020e-03
  3.608570e+00    5.488973e-01   7.516784e-03
  3.610780e+00    5.633180e-01   7.626276e-03
  3.612991e+00    5.346057e-01   7.439382e-03
  3.615201e+00    5.270885e-01   7.396600e-03
  3.617412e+00    5.504333e-01   7.565988e-03
  3.619622e+00    5.344392e-01   7.461245e-03
  3.621833e+00    5.302582e-01   7.438675e-03
  3.624043e+00    5.511422e-01   7.593388e-03
  3.626254e+00    5.487893e-01   7.587011e-03
  3.628464e+00    5.474946e-01   7.589172e-03
  3.630675e+00    5.492970e-01   7.615955e-03
  3.632885e+00    5.522578e-01   7.651164e-03
  3.635095e+00    5.291371e-01   7.503629e-03
  3.637306e+00    5.383021e-01   7.582737e-03
  3.639516e+00    5.397094e-01   7.607289e-03
  3.641727e+00    5.364046e-01   7.598541e-03
  3.643937e+00    5.408266e-01   7.644501e-03
  3.646148e+00    5.348562e-01   7.616786e-03
  3.648358e+00    5.328297e-01   7.617207e-03
  3.650569e+00    5.231640e-01   7.562407e-03
  3.652779e+00    5.409911e-01   7.705040e-03
  3.654990e+00    5.252087e-01   7.606653e-03
  3.657200e+00    5.374225e-01   7.709459e-03
  3.659410e+00    5.506932e-01   7.819363e-03
  3.661621e+00    5.310386e-01   7.693647e-03
  3.663831e+00    5.422751e-01   7.789872e-03
  3.666042e+00    5.370171e-01   7.767272e-03
  3.668252e+00    5.242831e-01   7.689758e-03
  3.670463e+00    5.301623e-01   7.747965e-03
  3.672673e+00    5.364577e-01   7.809322e-03
  3.674884e+00    5.268615e-01   7.754527e-03
  3.677094e+00    5.262062e-01   7.765131e-03
  3.679305e+00    5.311723e-01   7.817281e-03
  3.681515e+00    5.198725e-01   7.749132e-03
  3.683726e+00    5.218798e-01   7.779749e-03
  3.685936e+00    5.303720e-01   7.858559e-03
  3.688146e+00    5.147681e-01   7.757630e-03
  3.690357e+00    5.333033e-01   7.912117e-03
  3.692567e+00    5.185868e-01   7.818176e-03
  3.694778e+00    5.169173e-01   7.821470e-03
  3.696988e+00    5.264034e-01   7.908897e-03
  3.699199e+00    5.250120e-01   7.914677e-03
  3.701409e+00    5.110422e-01   7.824854e-03
  3.703620e+00    5.317162e-01   7.997909e-03
  3.705830e+00    5.354550e-01   8.042580e-03
  3.708041e+00    5.374889e-01   8.074654e-03
  3.710251e+00    5.458602e-01   8.154369e-03
  3.712461e+00    5.433437e-01   8.152613e-03
  3.714672e+00    5.293705e-01   8.063936e-03
  3.716882e+00    5.248951e-01   8.046553e-03
  3.719093e+00    5.400261e-01   8.179171e-03
  3.721303e+00    5.220711e-01   8.059071e-03
  3.723514e+00    5.033972e-01   7.930633e-03
  3.725724e+00    5.069150e-01   7.975207e-03
  3.727935e+00    5.207839e-01   8.101130e-03
  3.730145e+00    5.020820e-01   7.971389e-03
  3.732356e+00    5.333817e-01   8.233884e-03
  3.734566e+00    5.319067e-01   8.240400e-03
  3.736776e+00    5.092705e-01   8.080765e-03
  3.738987e+00    5.234649e-01   8.210497e-03
  3.741197e+00    5.232780e-01   8.227216e-03
  3.743408e+00    5.127196e-01   8.161847e-03
  3.745618e+00    5.066859e-01   8.131880e-03
  3.747829e+00    4.994254e-01   8.091290e-03
  3.750039e+00    5.125974e-01   8.215640e-03
  3.752250e+00    5.137494e-01   8.243446e-03
  3.754460e+00    5.215382e-01   8.324418e-03
  3.756671e+00    4.982153e-01   8.154788e-03
  3.758881e+00    5.065966e-01   8.241618e-03
  3.761091e+00    5.194002e-01   8.364560e-03
  3.763302e+00    4.913002e-01   8.153853e-03
  3.765512e+00    5.086299e-01   8.315675e-03
  3.767723e+00    5.044124e-01   8.300431e-03
  3.769933e+00    5.278161e-01   8.510598e-03
  3.772144e+00    4.827998e-01   8.158652e-03
  3.774354e+00    5.214182e-01   8.498824e-03
  3.776565e+00    5.304407e-01   8.592407e-03
  3.778775e+00    5.349658e-01   8.649510e-03
  3.780986e+00    5.356794e-01   8.676248e-03
  3.783196e+00    5.186778e-01   8.558013e-03
  3.785407e+00    5.073252e-01   8.484270e-03
  3.787617e+00    5.227500e-01   8.633513e-03
  3.789827e+00    5.176257e-01   8.611892e-03
  3.792038e+00    5.464948e-01   8.870532e-03
  3.794248e+00    5.324707e-01   8.777848e-03
  3.796459e+00    4.857931e-01   8.405269e-03
  3.798669e+00    5.093994e-01   8.628616e-03
  3.800880e+00    5.103693e-01   8.658457e-03
  3.803090e+00    5.134023e-01   8.706295e-03
  3.805301e+00    5.031938e-01   8.641417e-03
  3.807511e+00    5.305150e-01   8.895638e-03
  3.809722e+00    5.087949e-01   8.734023e-03
  3.811932e+00    5.172306e-01   8.828747e-03
  3.814142e+00    5.157140e-01   8.839059e-03
  3.816353e+00    5.224652e-01   8.920098e-03
  3.818563e+00    5.021234e-01   8.767890e-03
  3.820774e+00    5.018049e-01   8.788345e-03
  3.822984e+00    5.158825e-01   8.934588e-03
  3.825195e+00    5.000355e-01   8.820026e-03
  3.827405e+00    5.052952e-01   8.890417e-03
  3.829616e+00    4.850474e-01   8.734236e-03
  3.831826e+00    4.987518e-01   8.880904e-03
  3.834037e+00    4.938555e-01   8.861633e-03
  3.836247e+00    5.105368e-01   9.035114e-03
  3.838457e+00    4.901083e-01   8.877376e-03
  3.840668e+00    5.215462e-01   9.183415e-03
  3.842878e+00    4.897974e-01   8.925001e-03
  3.845089e+00    4.855304e-01   8.911240e-03
  3.847299e+00    4.881177e-01   8.960595e-03
  3.849510e+00    5.156627e-01   9.236312e-03
  3.851720e+00    4.736532e-01   8.873083e-03
  3.853931e+00    4.811506e-01   8.961729e-03
  3.856141e+00    5.075791e-01   9.223821e-03
  3.858352e+00    4.892598e-01   9.074994e-03
  3.860562e+00    5.011638e-01   9.204170e-03
  3.862772e+00    5.256646e-01   9.446681e-03
  3.864983e+00    5.129555e-01   9.351842e-03
  3.867193e+00    5.063099e-01   9.311079e-03
  3.869404e+00    5.088913e-01   9.354956e-03
  3.871614e+00    4.893144e-01   9.193115e-03
  3.873825e+00    4.912564e-01   9.231567e-03
  3.876035e+00    5.087469e-01   9.415420e-03
  3.878246e+00    5.290185e-01   9.627843e-03
  3.880456e+00    5.019326e-01   9.407496e-03
  3.882667e+00    5.066008e-01   9.480815e-03
  3.884877e+00    5.112009e-01   9.554087e-03
  3.887087e+00    5.177144e-01   9.645524e-03
  3.889298e+00    5.196632e-01   9.694868e-03
  3.891508e+00    4.992774e-01   9.533610e-03
  3.893719e+00    5.040329e-01   9.610345e-03
  3.895929e+00    4.912169e-01   9.518795e-03
  3.898140e+00    4.556389e-01   9.198183e-03
  3.900350e+00    4.872745e-01   9.544097e-03
  3.902561e+00    4.881401e-01   9.584899e-03
  3.904771e+00    5.076580e-01   9.808047e-03
  3.906982e+00    4.939021e-01   9.707601e-03
  3.909192e+00    4.651925e-01   9.453888e-03
  3.911403e+00    4.864216e-01   9.701034e-03
  3.913613e+00    4.945945e-01   9.816749e-03
  3.915823e+00    4.798670e-01   9.703981e-03
  3.918034e+00    4.985105e-01   9.926244e-03
  3.920244e+00    5.126505e-01   1.010268e-02
  3.922455e+00    5.132697e-01   1.014576e-02
  3.924665e+00    4.968839e-01   1.001935e-02
  3.926876e+00    4.894388e-01   9.981055e-03
  3.929086e+00    5.073022e-01   1.019973e-02
  3.931297e+00    4.974656e-01   1.013554e-02
  3.933507e+00    4.866252e-01   1.005335e-02
  3.935718e+00    5.244153e-01   1.046626e-02
  3.937928e+00    4.971069e-01   1.021989e-02
  3.940138e+00    4.997285e-01   1.027646e-02
  3.942349e+00    4.770454e-01   1.007006e-02
  3.944559e+00    5.078897e-01   1.042117e-02
  3.946770e+00    4.841751e-01   1.020503e-02
  3.948980e+00    5.106054e-01   1.051140e-02
  3.951191e+00    5.027692e-01   1.046177e-02
  3.953401e+00    4.916023e-01   1.037643e-02
  3.955612e+00    4.957428e-01   1.045206e-02
  3.957822e+00    4.663034e-01   1.016792e-02
  3.960033e+00    4.870654e-01   1.042450e-02
  3.962243e+00    5.142743e-01   1.074546e-02
  3.964453e+00    5.014156e-01   1.064400e-02
  3.966664e+00    4.965401e-01   1.062586e-02
  3.968874e+00    4.944754e-01   1.063243e-02
  3.971085e+00    4.977137e-01   1.068933e-02
  3.973295e+00    4.878310e-01   1.060429e-02
  3.975506e+00    4.673836e-01   1.040076e-02
  3.977716e+00    5.084392e-01   1.087054e-02
  3.979927e+00    4.769702e-01   1.055062e-02
  3.982137e+00    4.960692e-01   1.078237e-02
  3.984348e+00    4.743398e-01   1.056589e-02
  3.986558e+00    4.981527e-01   1.085049e-02
  3.988768e+00    4.743906e-01   1.061122e-02
  3.990979e+00    5.089443e-01   1.101422e-02
  3.993189e+00    4.919448e-01   1.085199e-02
  3.995400e+00    5.109829e-01   1.108407e-02
  3.997610e+00    5.062418e-01   1.106305e-02
  3.999821e+00    4.829208e-01   1.084265e-02
  4.002031e+00    5.034814e-01   1.111015e-02
  4.004242e+00    5.066248e-01   1.118423e-02
  4.006452e+00    4.809417e-01   1.093617e-02
  4.008663e+00    5.010335e-01   1.120296e-02
  4.010873e+00    4.688585e-01   1.087666e-02
  4.013084e+00    5.133286e-01   1.142282e-02
  4.015294e+00    4.925881e-01   1.123108e-02
  4.017504e+00    4.958588e-01   1.131063e-02
  4.019715e+00    4.947720e-01   1.134117e-02
  4.021925e+00    5.030642e-01   1.147971e-02
  4.024136e+00    4.796651e-01   1.125298e-02
  4.026346e+00    5.148826e-01   1.170423e-02
  4.028557e+00    5.037516e-01   1.162234e-02
  4.030767e+00    4.702911e-01   1.127474e-02
  4.032978e+00    4.931951e-01   1.159267e-02
  4.035188e+00    4.886923e-01   1.158608e-02
  4.037399e+00    4.618040e-01   1.130949e-02
  4.039609e+00    4.676651e-01   1.142776e-02
  4.041819e+00    4.992766e-01   1.185736e-02
  4.044030e+00    4.762876e-01   1.163064e-02
  4.046240e+00    4.921265e-01   1.187274e-02
  4.048451e+00    4.886986e-01   1.188264e-02
  4.050661e+00    4.888247e-01   1.193588e-02
  4.052872e+00    4.759984e-01   1.183059e-02
  4.055082e+00    4.778682e-01   1.190707e-02
  4.057293e+00    4.798548e-01   1.198544e-02
  4.059503e+00    5.092289e-01   1.240287e-02
  4.061714e+00    5.044346e-01   1.240221e-02
  4.063924e+00    4.904836e-01   1.228676e-02
  4.066134e+00    4.835933e-01   1.225759e-02
  4.068345e+00    4.899468e-01   1.239733e-02
  4.070555e+00    4.861212e-01   1.240837e-02
  4.072766e+00    4.543729e-01   1.205547e-02
  4.074976e+00    4.609579e-01   1.220278e-02
  4.077187e+00    5.326090e-01   1.318243e-02
  4.079397e+00    5.312760e-01   1.323310e-02
  4.081608e+00    5.088142e-01   1.301772e-02
  4.083818e+00    4.786406e-01   1.269152e-02
  4.086029e+00    4.597317e-01   1.250382e-02
  4.088239e+00    4.901908e-01   1.298095e-02
  4.090449e+00    4.840131e-01   1.296887e-02
  4.092660e+00    4.795322e-01   1.297960e-02
  4.094870e+00    4.841762e-01   1.311495e-02
  4.097081e+00    4.800507e-01   1.313040e-02
  4.099291e+00    5.021259e-01   1.348461e-02
  4.101502e+00    4.620054e-01   1.298291e-02
  4.103712e+00    4.970984e-01   1.351700e-02
  4.105923e+00    4.966378e-01   1.356308e-02
  4.108133e+00    4.989428e-01   1.364703e-02
  4.110344e+00    5.048502e-01   1.378007e-02
  4.112554e+00    4.929962e-01   1.367108e-02
  4.114764e+00    4.942933e-01   1.374410e-02
  4.116975e+00    4.908105e-01   1.374947e-02
  4.119185e+00    4.906164e-01   1.380284e-02
  4.121396e+00    4.809125e-01   1.372184e-02
  4.123606e+00    5.033194e-01   1.409558e-02
  4.125817e+00    4.618766e-01   1.355926e-02
  4.128027e+00    4.648938e-01   1.366097e-02
  4.130238e+00    4.775507e-01   1.390490e-02
  4.132448e+00    4.838710e-01   1.405741e-02
  4.134659e+00    5.193112e-01   1.462584e-02
  4.136869e+00    4.903095e-01   1.427469e-02
  4.139080e+00    5.260984e-01   1.485343e-02
  4.141290e+00    5.079422e-01   1.465954e-02
  4.143500e+00    4.798608e-01   1.431404e-02
  4.145711e+00    5.108715e-01   1.483845e-02
  4.147921e+00    4.345023e-01   1.374735e-02
  4.150132e+00    4.388908e-01   1.388237e-02
  4.152342e+00    5.187555e-01   1.516583e-02
  4.154553e+00    4.631154e-01   1.439774e-02
  4.156763e+00    4.737765e-01   1.463444e-02
  4.158974e+00    4.817551e-01   1.483131e-02
  4.161184e+00    4.608165e-01   1.457761e-02
  4.163395e+00    4.827722e-01   1.499666e-02
  4.165605e+00    4.892225e-01   1.517524e-02
  4.167815e+00    4.435531e-01   1.452506e-02
  4.170026e+00    4.645342e-01   1.494271e-02
  4.172236e+00    5.403620e-01   1.620326e-02
  4.174447e+00    5.285860e-01   1.611341e-02
  4.176657e+00    4.750495e-01   1.535879e-02
  4.178868e+00    5.364529e-01   1.641371e-02
  4.181078e+00    4.918763e-01   1.580545e-02
  4.183289e+00    5.510885e-01   1.682561e-02
  4.185499e+00    5.127807e-01   1.632606e-02
  4.187710e+00    4.389338e-01   1.519334e-02
  4.189920e+00    4.419120e-01   1.533641e-02
  4.192130e+00    5.237378e-01   1.679808e-02
  4.194341e+00    4.878752e-01   1.631226e-02
  4.196551e+00    4.982329e-01   1.658881e-02
  4.198762e+00    5.123677e-01   1.692946e-02
  4.200972e+00    4.922415e-01   1.670094e-02
  4.203183e+00    4.608808e-01   1.626643e-02
  4.205393e+00    5.295754e-01   1.755303e-02
  4.207604e+00    5.169012e-01   1.746008e-02
  4.209814e+00    5.107133e-01   1.747388e-02
  4.212025e+00    4.289942e-01   1.612890e-02
  4.214235e+00    4.758316e-01   1.710668e-02
  4.216445e+00    4.800032e-01   1.730580e-02
  4.218656e+00    4.919279e-01   1.765056e-02
  4.220866e+00    5.107528e-01   1.811877e-02
  4.223077e+00    4.361003e-01   1.687111e-02
  4.225287e+00    4.511055e-01   1.729338e-02
  4.227498e+00    4.569477e-01   1.754200e-02
  4.229708e+00    4.654355e-01   1.784776e-02
  4.231919e+00    5.076566e-01   1.879396e-02
  4.234129e+00    5.129536e-01   1.905034e-02
  4.236340e+00    5.082549e-01   1.912505e-02
  4.238550e+00    4.475442e-01   1.810510e-02
  4.240761e+00    4.337202e-01   1.798071e-02
  4.242971e+00    4.532730e-01   1.854965e-02
  4.245181e+00    5.171072e-01   1.999892e-02
  4.247392e+00    5.125481e-01   2.009692e-02
  4.249602e+00    4.707941e-01   1.945231e-02
  4.251813e+00    4.302464e-01   1.877899e-02
  4.254023e+00    4.007423e-01   1.830620e-02
  4.256234e+00    5.050108e-01   2.076956e-02
  4.258444e+00    5.199775e-01   2.129604e-02
  4.260655e+00    4.460554e-01   1.994120e-02
  4.262865e+00    4.569356e-01   2.041144e-02
  4.265076e+00    4.359725e-01   2.016481e-02
  4.267286e+00    4.309992e-01   2.028700e-02
  4.269496e+00    4.150151e-01   2.015067e-02
  4.271707e+00    4.260292e-01   2.066782e-02
  4.273917e+00    4.656235e-01   2.188653e-02
  4.276128e+00    4.083805e-01   2.076961e-02
  4.278338e+00    4.694869e-01   2.256626e-02
  4.280549e+00    4.388168e-01   2.212956e-02
  4.282759e+00    4.592993e-01   2.296609e-02
  4.284970e+00    4.388828e-01   2.278194e-02
  4.287180e+00    4.498191e-01   2.334033e-02
  4.289391e+00    4.489504e-01   2.349269e-02
  4.291601e+00    5.186851e-01   2.545314e-02
  4.293811e+00    4.524407e-01   2.395853e-02
  4.296022e+00    4.291901e-01   2.352182e-02
  4.298232e+00    4.866982e-01   2.525808e-02
  4.300443e+00    4.671673e-01   2.495046e-02
  4.302653e+00    4.563609e-01   2.487365e-02
  4.304864e+00    4.394094e-01   2.461835e-02
  4.307074e+00    5.457424e-01   2.768297e-02
  4.309285e+00    4.703065e-01   2.593149e-02
  4.311495e+00    4.505721e-01   2.561976e-02
  4.313706e+00    4.562182e-01   2.602172e-02
  4.315916e+00    3.656336e-01   2.352438e-02
  4.318126e+00    5.352451e-01   2.874408e-02
  4.320337e+00    4.723096e-01   2.727505e-02
  4.322547e+00    4.543975e-01   2.703655e-02
  4.324758e+00    4.676952e-01   2.771416e-02
  4.326968e+00    5.259582e-01   2.972045e-02
  4.329179e+00    5.196038e-01   2.986646e-02
  4.331389e+00    4.501028e-01   2.811723e-02
  4.333600e+00    4.504154e-01   2.846403e-02
  4.335810e+00    4.478647e-01   2.871961e-02
  4.338021e+00    4.927770e-01   3.051170e-02
  4.340231e+00    5.250370e-01   3.188879e-02
  4.342442e+00    4.660142e-01   3.044752e-02
  4.344652e+00    3.588360e-01   2.707984e-02
  4.346862e+00    3.136864e-01   2.567385e-02
  4.349073e+00    4.606090e-01   3.156242e-02
  4.351283e+00    4.423431e-01   3.139300e-02
  4.353494e+00    5.723406e-01   3.626039e-02
  4.355704e+00    5.669307e-01   3.667054e-02
  4.357915e+00    3.867086e-01   3.079004e-02
  4.360125e+00    4.561478e-01   3.401108e-02
  4.362336e+00    4.185855e-01   3.317352e-02
  4.364546e+00    4.250244e-01   3.403871e-02
  4.366757e+00    4.411653e-01   3.536718e-02
  4.368967e+00    4.639729e-01   3.699378e-02
  4.371177e+00    5.337639e-01   4.052079e-02
  4.373388e+00    4.717855e-01   3.894887e-02
  4.375598e+00    4.671121e-01   3.963950e-02
  4.377809e+00    4.623062e-01   4.043249e-02
  4.380019e+00    5.044463e-01   4.329867e-02
  4.382230e+00    3.828824e-01   3.877217e-02
  4.384440e+00    5.102996e-01   4.605257e-02
  4.386651e+00    3.938226e-01   4.170319e-02
  4.388861e+00    3.650186e-01   4.149507e-02
  4.391072e+00    5.008691e-01   5.031683e-02
  4.393282e+00    4.729955e-01   5.078895e-02
  4.395492e+00    3.003564e-01   4.215119e-02
  4.397703e+00    3.216510e-01   4.561789e-02
  4.399913e+00    2.823310e-01   4.489709e-02
  4.402124e+00    5.296738e-01   6.498460e-02
  4.404334e+00    4.703940e-01   6.509807e-02
  4.406545e+00    1.729054e-01   4.241312e-02
  4.408755e+00    2.190163e-01   5.175540e-02
  4.410966e+00    3.185558e-01   6.908630e-02
  4.413176e+00    2.714109e-01   7.217689e-02
  4.415387e+00   -3.083477e-01            nan
  4.417597e+00   -1.854592e+00            nan
  4.419807e+00   -1.824666e-01            nan
