# == pyFAI calibration ==
# Distance Sample to Detector: 0.216 m
# PONI: 1.166e-01, 1.308e-01 m
# Rotations: 0.000000 0.000000 0.000000 rad
# 
# == Fit2d calibration ==
# Distance Sample-beamCenter: 216.000 mm
# Center: x=1744.293, y=1555.000 pix
# Tilt: 0.000 deg  TiltPlanRot: 0.000 deg
# 
# Detector Eiger 9M	 PixelSize= 7.500e-05, 7.500e-05 m
#    Detector has a mask: True 
#    Detector has a dark current: False 
#    detector has a flat field: False 
# 
# Wavelength: 9.8e-11 m
# Mask applied: from detector
# Dark current applied: False
# Flat field applied: False
# Polarization factor: None
# Normalization factor: 1.0
# 
# Headers of the input frame:
# {
# "_array_data.header_convention": "SLS_1.0",
# "_array_data.header_contents": "# Detector: Dectris Eiger 9M, S/N E-18-0102\r\n# Pixel_size 75e-6 m x 75e-6 m\r\n# Silicon sensor, thickness 0.000450 m\r\n# Exposure_time 0.024997 s\r\n# Exposure_period 0.025000 s\r\n# Count_cutoff 62318 counts\r\n# Wavelength 0.980106 A\r\n# Detector_distance 0.215992 m\r\n# Beam_xy (1555, 1744) pixels\r\n# Start_angle 0.000000 deg.\r\n# Angle_increment 0.000000 deg.",
# "Content-Type": "application/octet-stream;",
# "conversions": "x-CBF_BYTE_OFFSET",
# "Content-Transfer-Encoding": "BINARY",
# "X-Binary-Size": "10166592",
# "X-Binary-ID": "1",
# "X-Binary-Element-Type": "signed 32-bit integer",
# "X-Binary-Element-Byte-Order": "LITTLE_ENDIAN",
# "Content-MD5": "3VloklrHKSlBKnLnEiFogw==",
# "X-Binary-Number-of-Elements": "10166590",
# "X-Binary-Size-Fastest-Dimension": "3110",
# "X-Binary-Size-Second-Dimension": "3269",
# "X-Binary-Size-Padding": "4095"
# }
# --> H:/Proxima2a_2019-04-05/RAW_DATA/C5_gel17_position5/C5_mesh_1_data.cbf/C5_mesh_1_data.cbf000064.dat
#        q_A^-1              I           sigma 
  1.105228e-03    1.358062e+00   6.305894e-01
  3.315685e-03    1.872214e+00   4.501146e-01
  5.526141e-03    1.756007e+00   3.370818e-01
  7.736597e-03    1.183393e+00   2.337678e-01
  9.947054e-03    1.232710e+00   2.103328e-01
  1.215751e-02    1.423719e+00   2.043999e-01
  1.436797e-02    1.476680e+00   1.914781e-01
  1.657842e-02    1.314789e+00   1.681792e-01
  1.878888e-02    1.630353e+00   1.759156e-01
  2.099934e-02    1.396263e+00   1.540231e-01
  2.320979e-02    1.244241e+00   1.382882e-01
  2.542025e-02    1.320026e+00   1.361133e-01
  2.763070e-02    1.347841e+00   1.319197e-01
  2.984116e-02    1.214611e+00   1.205022e-01
  3.205162e-02    1.358158e+00   1.229593e-01
  3.426207e-02    1.276490e+00   1.152879e-01
  3.647253e-02    1.491928e+00   1.207991e-01
  3.868299e-02    1.588928e+00   1.210592e-01
  4.089344e-02    1.496509e+00   1.142669e-01
  4.310390e-02    1.505382e+00   1.116214e-01
  4.531436e-02    1.433464e+00   1.062329e-01
  4.752481e-02    1.394258e+00   1.023035e-01
  4.973527e-02    1.264593e+00   9.524171e-02
  5.194572e-02    1.399625e+00   9.804123e-02
  5.415618e-02    1.532343e+00   1.004655e-01
  5.636664e-02    1.383267e+00   9.356605e-02
  5.857709e-02    1.390840e+00   9.203502e-02
  6.078755e-02    1.514542e+00   9.427529e-02
  6.299801e-02    1.529971e+00   9.307607e-02
  6.520846e-02    1.407841e+00   8.775817e-02
  6.741892e-02    1.435562e+00   8.714867e-02
  6.962938e-02    1.528102e+00   8.847948e-02
  7.183983e-02    1.426321e+00   8.415516e-02
  7.405029e-02    1.338137e+00   8.028446e-02
  7.626074e-02    1.401511e+00   8.096335e-02
  7.847120e-02    1.417964e+00   8.027986e-02
  8.068166e-02    1.420012e+00   7.922903e-02
  8.289211e-02    1.421447e+00   7.820455e-02
  8.510257e-02    1.384525e+00   7.617278e-02
  8.731303e-02    1.394609e+00   7.547289e-02
  8.952348e-02    1.427242e+00   7.540434e-02
  9.173394e-02    1.444220e+00   7.492910e-02
  9.394439e-02    1.406023e+00   7.305427e-02
  9.615485e-02    1.380601e+00   7.155231e-02
  9.836531e-02    1.514668e+00   7.409706e-02
  1.005758e-01    1.588066e+00   7.503325e-02
  1.027862e-01    1.480770e+00   7.166906e-02
  1.049967e-01    1.439741e+00   6.992012e-02
  1.072071e-01    1.461908e+00   6.972535e-02
  1.094176e-01    1.500304e+00   6.991687e-02
  1.116280e-01    1.456102e+00   6.819236e-02
  1.138385e-01    1.462879e+00   6.768268e-02
  1.160490e-01    1.495774e+00   6.778367e-02
  1.182594e-01    1.505515e+00   6.736400e-02
  1.204699e-01    1.624360e+00   6.932691e-02
  1.226803e-01    1.584756e+00   6.785402e-02
  1.248908e-01    1.532886e+00   6.614037e-02
  1.271012e-01    1.493907e+00   6.472247e-02
  1.293117e-01    1.511666e+00   6.454635e-02
  1.315222e-01    1.519172e+00   6.415889e-02
  1.337326e-01    1.456972e+00   6.230907e-02
  1.359431e-01    1.569528e+00   6.470895e-02
  1.381535e-01    1.514061e+00   6.440837e-02
  1.403640e-01    1.568755e+00   6.584445e-02
  1.425744e-01    1.595811e+00   6.651594e-02
  1.447849e-01    1.520782e+00   6.494841e-02
  1.469953e-01    1.499462e+00   6.445114e-02
  1.492058e-01    1.546529e+00   6.537880e-02
  1.514163e-01    1.484922e+00   6.395698e-02
  1.536267e-01    1.476696e+00   6.365505e-02
  1.558372e-01    1.536059e+00   6.477858e-02
  1.580476e-01    1.492961e+00   6.370839e-02
  1.602581e-01    1.521116e+00   6.414299e-02
  1.624685e-01    1.536784e+00   6.429594e-02
  1.646790e-01    1.599980e+00   6.541626e-02
  1.668895e-01    1.651026e+00   6.625968e-02
  1.690999e-01    1.701212e+00   6.705720e-02
  1.713104e-01    1.703951e+00   6.690290e-02
  1.735208e-01    1.772251e+00   6.801839e-02
  1.757313e-01    1.787988e+00   6.810562e-02
  1.779417e-01    1.755762e+00   6.726895e-02
  1.801522e-01    1.780367e+00   6.752293e-02
  1.823626e-01    1.862949e+00   6.884122e-02
  1.845731e-01    1.909350e+00   6.946755e-02
  1.867836e-01    1.968948e+00   7.030533e-02
  1.889940e-01    1.929290e+00   6.936627e-02
  1.912045e-01    1.984194e+00   7.011145e-02
  1.934149e-01    1.954053e+00   6.934403e-02
  1.956254e-01    1.927168e+00   6.863821e-02
  1.978358e-01    1.963711e+00   6.904849e-02
  2.000463e-01    1.948235e+00   6.854793e-02
  2.022568e-01    1.945846e+00   6.828105e-02
  2.044672e-01    1.943862e+00   6.801243e-02
  2.066777e-01    1.930725e+00   6.755725e-02
  2.088881e-01    1.873554e+00   6.633177e-02
  2.110986e-01    1.898551e+00   6.654384e-02
  2.133090e-01    1.920140e+00   6.670354e-02
  2.155195e-01    2.034252e+00   6.842928e-02
  2.177300e-01    1.967135e+00   6.676231e-02
  2.199404e-01    1.900161e+00   6.388700e-02
  2.221509e-01    1.903389e+00   6.289128e-02
  2.243613e-01    1.925631e+00   6.245572e-02
  2.265718e-01    2.038891e+00   6.355787e-02
  2.287822e-01    2.011384e+00   6.250285e-02
  2.309927e-01    2.102436e+00   6.331976e-02
  2.332031e-01    2.161154e+00   6.364843e-02
  2.354136e-01    2.188014e+00   6.352368e-02
  2.376241e-01    2.104577e+00   6.181716e-02
  2.398345e-01    2.061849e+00   6.073358e-02
  2.420450e-01    2.122903e+00   6.118578e-02
  2.442554e-01    2.109499e+00   6.057214e-02
  2.464659e-01    2.042631e+00   5.920421e-02
  2.486763e-01    2.124960e+00   5.998863e-02
  2.508868e-01    2.007658e+00   5.794155e-02
  2.530973e-01    1.996243e+00   5.741838e-02
  2.553077e-01    2.075339e+00   5.818972e-02
  2.575182e-01    2.101126e+00   5.820372e-02
  2.597286e-01    2.058372e+00   5.727364e-02
  2.619391e-01    1.998518e+00   5.610988e-02
  2.641495e-01    2.067912e+00   5.675980e-02
  2.663600e-01    2.030380e+00   5.593310e-02
  2.685704e-01    1.977506e+00   5.490075e-02
  2.707809e-01    2.040582e+00   5.547344e-02
  2.729914e-01    2.056898e+00   5.540453e-02
  2.752018e-01    1.912864e+00   5.315141e-02
  2.774123e-01    1.986836e+00   5.389263e-02
  2.796227e-01    2.016399e+00   5.402355e-02
  2.818332e-01    1.976189e+00   5.321540e-02
  2.840436e-01    1.934331e+00   5.239359e-02
  2.862541e-01    1.904338e+00   5.173589e-02
  2.884646e-01    1.948135e+00   5.207910e-02
  2.906750e-01    1.950917e+00   5.186916e-02
  2.928855e-01    1.962339e+00   5.177975e-02
  2.950959e-01    1.907928e+00   5.082230e-02
  2.973064e-01    1.910619e+00   5.062955e-02
  2.995168e-01    1.932366e+00   5.068626e-02
  3.017273e-01    1.887234e+00   4.987004e-02
  3.039377e-01    1.809345e+00   4.861626e-02
  3.061482e-01    1.891424e+00   4.949170e-02
  3.083587e-01    1.880957e+00   4.914095e-02
  3.105691e-01    1.801442e+00   4.788563e-02
  3.127796e-01    1.868648e+00   4.856563e-02
  3.149900e-01    1.805754e+00   4.754246e-02
  3.172005e-01    1.836641e+00   4.775124e-02
  3.194109e-01    1.849472e+00   4.771995e-02
  3.216214e-01    1.863675e+00   4.770736e-02
  3.238319e-01    1.853219e+00   4.738485e-02
  3.260423e-01    1.877047e+00   4.749858e-02
  3.282528e-01    1.840068e+00   4.684116e-02
  3.304632e-01    1.790679e+00   4.602924e-02
  3.326737e-01    1.741034e+00   4.520961e-02
  3.348841e-01    1.773066e+00   4.544666e-02
  3.370946e-01    1.787666e+00   4.546171e-02
  3.393050e-01    1.832265e+00   4.585096e-02
  3.415155e-01    1.839826e+00   4.577273e-02
  3.437260e-01    1.809693e+00   4.522808e-02
  3.459364e-01    1.779552e+00   4.468397e-02
  3.481469e-01    1.795255e+00   4.471683e-02
  3.503573e-01    1.776488e+00   4.432046e-02
  3.525678e-01    1.784690e+00   4.426434e-02
  3.547782e-01    1.741146e+00   4.356300e-02
  3.569887e-01    1.776281e+00   4.384442e-02
  3.591992e-01    1.787043e+00   4.382145e-02
  3.614096e-01    1.718150e+00   4.281947e-02
  3.636201e-01    1.793375e+00   4.359306e-02
  3.658305e-01    1.775937e+00   4.323265e-02
  3.680410e-01    1.722539e+00   4.243128e-02
  3.702514e-01    1.763572e+00   4.278931e-02
  3.724619e-01    1.751899e+00   4.250223e-02
  3.746724e-01    1.736755e+00   4.217694e-02
  3.768828e-01    1.760532e+00   4.232178e-02
  3.790933e-01    1.762775e+00   4.221074e-02
  3.813037e-01    1.775833e+00   4.222816e-02
  3.835142e-01    1.744612e+00   4.171785e-02
  3.857246e-01    1.737407e+00   4.149688e-02
  3.879351e-01    1.781256e+00   4.188126e-02
  3.901455e-01    1.762092e+00   4.152276e-02
  3.923560e-01    1.768820e+00   4.146972e-02
  3.945665e-01    1.743016e+00   4.103558e-02
  3.967769e-01    1.790122e+00   4.145614e-02
  3.989874e-01    1.801354e+00   4.145616e-02
  4.011978e-01    1.750055e+00   4.073594e-02
  4.034083e-01    1.708208e+00   4.012241e-02
  4.056187e-01    1.742432e+00   4.039751e-02
  4.078292e-01    1.756231e+00   4.043442e-02
  4.100397e-01    1.774138e+00   4.051595e-02
  4.122501e-01    1.743125e+00   4.004014e-02
  4.144606e-01    1.728601e+00   3.975471e-02
  4.166710e-01    1.796068e+00   4.040262e-02
  4.188815e-01    1.760088e+00   3.987774e-02
  4.210919e-01    1.712456e+00   3.921917e-02
  4.233024e-01    1.759295e+00   3.963498e-02
  4.255128e-01    1.745059e+00   3.936020e-02
  4.277233e-01    1.776405e+00   3.959802e-02
  4.299338e-01    1.816356e+00   3.992562e-02
  4.321442e-01    1.777614e+00   3.938451e-02
  4.343547e-01    1.734074e+00   3.878919e-02
  4.365651e-01    1.746304e+00   3.881512e-02
  4.387756e-01    1.743206e+00   3.867211e-02
  4.409860e-01    1.684363e+00   3.790847e-02
  4.431965e-01    1.741601e+00   3.844061e-02
  4.454070e-01    1.718448e+00   3.807802e-02
  4.476174e-01    1.696843e+00   3.773399e-02
  4.498279e-01    1.717358e+00   3.785813e-02
  4.520383e-01    1.719275e+00   3.777529e-02
  4.542488e-01    1.749192e+00   3.799981e-02
  4.564592e-01    1.702874e+00   3.739274e-02
  4.586697e-01    1.739183e+00   3.768897e-02
  4.608801e-01    1.725053e+00   3.743503e-02
  4.630906e-01    1.676274e+00   3.680426e-02
  4.653011e-01    1.704288e+00   3.701291e-02
  4.675115e-01    1.693074e+00   3.679380e-02
  4.697220e-01    1.684066e+00   3.659970e-02
  4.719324e-01    1.700873e+00   3.668674e-02
  4.741429e-01    1.720099e+00   3.679843e-02
  4.763533e-01    1.713389e+00   3.663244e-02
  4.785638e-01    1.715793e+00   3.656344e-02
  4.807743e-01    1.683305e+00   3.612352e-02
  4.829847e-01    1.726189e+00   3.648835e-02
  4.851952e-01    1.724418e+00   3.637736e-02
  4.874056e-01    1.704134e+00   3.607158e-02
  4.896161e-01    1.685885e+00   3.578896e-02
  4.918265e-01    1.621804e+00   3.501502e-02
  4.940370e-01    1.626362e+00   3.497760e-02
  4.962475e-01    1.672228e+00   3.537982e-02
  4.984579e-01    1.635101e+00   3.489865e-02
  5.006684e-01    1.669526e+00   3.517810e-02
  5.028788e-01    1.657911e+00   3.497061e-02
  5.050893e-01    1.626412e+00   3.455255e-02
  5.072997e-01    1.658734e+00   3.480992e-02
  5.095102e-01    1.638430e+00   3.451337e-02
  5.117206e-01    1.602554e+00   3.405224e-02
  5.139311e-01    1.646016e+00   3.442923e-02
  5.161416e-01    1.645195e+00   3.433931e-02
  5.183520e-01    1.599353e+00   3.377705e-02
  5.205625e-01    1.624681e+00   3.396368e-02
  5.227729e-01    1.685787e+00   3.451580e-02
  5.249834e-01    1.678683e+00   3.436305e-02
  5.271938e-01    1.673434e+00   3.422924e-02
  5.294043e-01    1.674954e+00   3.416573e-02
  5.316148e-01    1.710310e+00   3.444538e-02
  5.338252e-01    1.746579e+00   3.472914e-02
  5.360357e-01    1.744998e+00   3.463440e-02
  5.382461e-01    1.689926e+00   3.400644e-02
  5.404566e-01    1.700655e+00   3.403657e-02
  5.426670e-01    1.746840e+00   3.441792e-02
  5.448775e-01    1.751358e+00   3.438542e-02
  5.470879e-01    1.727099e+00   3.407029e-02
  5.492984e-01    1.767011e+00   3.438509e-02
  5.515089e-01    1.727791e+00   3.392594e-02
  5.537193e-01    1.731013e+00   3.388273e-02
  5.559298e-01    1.765538e+00   3.414391e-02
  5.581402e-01    1.724977e+00   3.367568e-02
  5.603507e-01    1.735648e+00   3.370615e-02
  5.625611e-01    1.753883e+00   3.380923e-02
  5.647716e-01    1.763337e+00   3.382663e-02
  5.669821e-01    1.776333e+00   3.387785e-02
  5.691925e-01    1.755686e+00   3.360812e-02
  5.714030e-01    1.698519e+00   3.298594e-02
  5.736134e-01    1.719378e+00   3.311727e-02
  5.758239e-01    1.702077e+00   3.287991e-02
  5.780343e-01    1.675540e+00   3.255358e-02
  5.802448e-01    1.645448e+00   3.219240e-02
  5.824552e-01    1.649183e+00   3.216130e-02
  5.846657e-01    1.610728e+00   3.171786e-02
  5.868762e-01    1.590845e+00   3.145587e-02
  5.890866e-01    1.604669e+00   3.152667e-02
  5.912971e-01    1.649876e+00   3.190151e-02
  5.935075e-01    1.589463e+00   3.124730e-02
  5.957180e-01    1.591850e+00   3.120658e-02
  5.979284e-01    1.571225e+00   3.094047e-02
  6.001389e-01    1.578690e+00   3.095072e-02
  6.023494e-01    1.619694e+00   3.128645e-02
  6.045598e-01    1.651663e+00   3.152937e-02
  6.067703e-01    1.624063e+00   3.120196e-02
  6.089807e-01    1.617848e+00   3.107958e-02
  6.111912e-01    1.636883e+00   3.119946e-02
  6.134016e-01    1.620398e+00   3.098004e-02
  6.156121e-01    1.669844e+00   3.138665e-02
  6.178226e-01    1.640292e+00   3.104610e-02
  6.200330e-01    1.663018e+00   3.119875e-02
  6.222435e-01    1.706114e+00   3.153782e-02
  6.244539e-01    1.708916e+00   3.150191e-02
  6.266644e-01    1.693198e+00   3.129555e-02
  6.288748e-01    1.682645e+00   3.113713e-02
  6.310853e-01    1.656989e+00   3.083886e-02
  6.332957e-01    1.671061e+00   3.090972e-02
  6.355062e-01    1.701653e+00   3.113078e-02
  6.377167e-01    1.685613e+00   3.092426e-02
  6.399271e-01    1.676038e+00   3.077724e-02
  6.421376e-01    1.638423e+00   3.037181e-02
  6.443480e-01    1.675487e+00   3.065500e-02
  6.465585e-01    1.665672e+00   3.050718e-02
  6.487689e-01    1.706660e+00   3.082193e-02
  6.509794e-01    1.672819e+00   3.045729e-02
  6.531899e-01    1.583832e+00   2.958038e-02
  6.554003e-01    1.547218e+00   2.918150e-02
  6.576108e-01    1.566765e+00   2.931057e-02
  6.598212e-01    1.578439e+00   2.936491e-02
  6.620317e-01    1.578632e+00   2.931227e-02
  6.642421e-01    1.567737e+00   2.915691e-02
  6.664526e-01    1.551497e+00   2.895204e-02
  6.686630e-01    1.612822e+00   2.946412e-02
  6.708735e-01    1.597405e+00   2.926916e-02
  6.730840e-01    1.608992e+00   2.932158e-02
  6.752944e-01    1.584491e+00   2.904456e-02
  6.775049e-01    1.555123e+00   2.872188e-02
  6.797153e-01    1.565891e+00   2.876895e-02
  6.819258e-01    1.581082e+00   2.885603e-02
  6.841362e-01    1.605183e+00   2.902285e-02
  6.863467e-01    1.567016e+00   2.862437e-02
  6.885572e-01    1.591861e+00   2.879869e-02
  6.907676e-01    1.595534e+00   2.878024e-02
  6.929781e-01    1.588903e+00   2.866933e-02
  6.951885e-01    1.557250e+00   2.833206e-02
  6.973990e-01    1.556629e+00   2.827632e-02
  6.996094e-01    1.552558e+00   2.818965e-02
  7.018199e-01    1.574068e+00   2.833443e-02
  7.040303e-01    1.594745e+00   2.846982e-02
  7.062408e-01    1.591229e+00   2.838862e-02
  7.084513e-01    1.598417e+00   2.840316e-02
  7.106617e-01    1.590595e+00   2.828436e-02
  7.128722e-01    1.587387e+00   2.820692e-02
  7.150826e-01    1.595856e+00   2.823334e-02
  7.172931e-01    1.612303e+00   2.832951e-02
  7.195035e-01    1.555483e+00   2.777804e-02
  7.217140e-01    1.521506e+00   2.752156e-02
  7.239245e-01    1.557251e+00   2.806844e-02
  7.261349e-01    1.601638e+00   2.857522e-02
  7.283454e-01    1.547226e+00   2.815739e-02
  7.305558e-01    1.560597e+00   2.833255e-02
  7.327663e-01    1.565749e+00   2.842164e-02
  7.349767e-01    1.583220e+00   2.859621e-02
  7.371872e-01    1.564309e+00   2.841376e-02
  7.393976e-01    1.579062e+00   2.853315e-02
  7.416081e-01    1.554284e+00   2.829235e-02
  7.438186e-01    1.519709e+00   2.783410e-02
  7.460290e-01    1.531400e+00   2.765079e-02
  7.482395e-01    1.518309e+00   2.736427e-02
  7.504499e-01    1.517022e+00   2.721891e-02
  7.526604e-01    1.523192e+00   2.715958e-02
  7.548708e-01    1.536951e+00   2.719362e-02
  7.570813e-01    1.542633e+00   2.719340e-02
  7.592918e-01    1.521882e+00   2.697530e-02
  7.615022e-01    1.529923e+00   2.701315e-02
  7.637127e-01    1.536749e+00   2.704095e-02
  7.659231e-01    1.562963e+00   2.723874e-02
  7.681336e-01    1.511735e+00   2.675767e-02
  7.703440e-01    1.535383e+00   2.693530e-02
  7.725545e-01    1.552723e+00   2.705631e-02
  7.747650e-01    1.576155e+00   2.722148e-02
  7.769754e-01    1.555298e+00   2.698841e-02
  7.791859e-01    1.556033e+00   2.694163e-02
  7.813963e-01    1.536059e+00   2.671627e-02
  7.836068e-01    1.591455e+00   2.714163e-02
  7.858172e-01    1.616137e+00   2.730017e-02
  7.880277e-01    1.657823e+00   2.759741e-02
  7.902381e-01    1.639056e+00   2.739091e-02
  7.924486e-01    1.657561e+00   2.749407e-02
  7.946591e-01    1.644117e+00   2.733340e-02
  7.968695e-01    1.642362e+00   2.726993e-02
  7.990800e-01    1.591778e+00   2.679874e-02
  8.012904e-01    1.555956e+00   2.644961e-02
  8.035009e-01    1.597283e+00   2.675088e-02
  8.057113e-01    1.637254e+00   2.703670e-02
  8.079218e-01    1.640130e+00   2.701374e-02
  8.101323e-01    1.623845e+00   2.683367e-02
  8.123427e-01    1.621176e+00   2.676587e-02
  8.145532e-01    1.651795e+00   2.697124e-02
  8.167636e-01    1.646999e+00   2.688677e-02
  8.189741e-01    1.647955e+00   2.684974e-02
  8.211845e-01    1.618790e+00   2.656649e-02
  8.233950e-01    1.595155e+00   2.632894e-02
  8.256054e-01    1.593905e+00   2.627501e-02
  8.278159e-01    1.590258e+00   2.620161e-02
  8.300264e-01    1.583098e+00   2.610019e-02
  8.322368e-01    1.639100e+00   2.651470e-02
  8.344473e-01    1.592839e+00   2.609511e-02
  8.366577e-01    1.614494e+00   2.622962e-02
  8.388682e-01    1.601600e+00   2.608293e-02
  8.410786e-01    1.591223e+00   2.595684e-02
  8.432891e-01    1.539629e+00   2.549201e-02
  8.454996e-01    1.577681e+00   2.576424e-02
  8.477100e-01    1.608642e+00   2.597455e-02
  8.499205e-01    1.583818e+00   2.573287e-02
  8.521309e-01    1.600652e+00   2.582893e-02
  8.543414e-01    1.580838e+00   2.562853e-02
  8.565518e-01    1.578852e+00   2.557254e-02
  8.587623e-01    1.575890e+00   2.550876e-02
  8.609727e-01    1.587934e+00   2.556635e-02
  8.631832e-01    1.586831e+00   2.551806e-02
  8.653937e-01    1.588343e+00   2.549099e-02
  8.676041e-01    1.591804e+00   2.548023e-02
  8.698146e-01    1.571033e+00   2.527477e-02
  8.720250e-01    1.558536e+00   2.513566e-02
  8.742355e-01    1.545322e+00   2.499079e-02
  8.764459e-01    1.512394e+00   2.468538e-02
  8.786564e-01    1.555375e+00   2.499637e-02
  8.808669e-01    1.570932e+00   2.508298e-02
  8.830773e-01    1.557119e+00   2.493488e-02
  8.852878e-01    1.515164e+00   2.455977e-02
  8.874982e-01    1.577438e+00   2.502302e-02
  8.897087e-01    1.575147e+00   2.496749e-02
  8.919191e-01    1.568887e+00   2.488045e-02
  8.941296e-01    1.552855e+00   2.471627e-02
  8.963401e-01    1.533825e+00   2.452868e-02
  8.985505e-01    1.581433e+00   2.486969e-02
  9.007610e-01    1.577158e+00   2.479959e-02
  9.029714e-01    1.576093e+00   2.475563e-02
  9.051819e-01    1.607749e+00   2.496571e-02
  9.073923e-01    1.549882e+00   2.447630e-02
  9.096028e-01    1.522910e+00   2.422832e-02
  9.118132e-01    1.581884e+00   2.465696e-02
  9.140237e-01    1.585170e+00   2.464611e-02
  9.162342e-01    1.574834e+00   2.453135e-02
  9.184446e-01    1.564526e+00   2.441556e-02
  9.206551e-01    1.584048e+00   2.453202e-02
  9.228655e-01    1.558123e+00   2.429565e-02
  9.250760e-01    1.614114e+00   2.469283e-02
  9.272864e-01    1.626701e+00   2.475442e-02
  9.294969e-01    1.634024e+00   2.477391e-02
  9.317074e-01    1.617734e+00   2.461529e-02
  9.339178e-01    1.606699e+00   2.449769e-02
  9.361283e-01    1.568400e+00   2.416826e-02
  9.383387e-01    1.598607e+00   2.436669e-02
  9.405492e-01    1.594647e+00   2.430253e-02
  9.427596e-01    1.580702e+00   2.416119e-02
  9.449701e-01    1.605984e+00   2.432056e-02
  9.471805e-01    1.640609e+00   2.454651e-02
  9.493910e-01    1.627579e+00   2.441530e-02
  9.516015e-01    1.634293e+00   2.443144e-02
  9.538119e-01    1.635606e+00   2.440776e-02
  9.560224e-01    1.690194e+00   2.477677e-02
  9.582328e-01    1.710492e+00   2.489169e-02
  9.604433e-01    1.731332e+00   2.500740e-02
  9.626537e-01    1.730431e+00   2.496728e-02
  9.648642e-01    1.772076e+00   2.523130e-02
  9.670747e-01    1.841192e+00   2.568320e-02
  9.692851e-01    1.835974e+00   2.561269e-02
  9.714956e-01    1.799648e+00   2.532229e-02
  9.737060e-01    1.800730e+00   2.529662e-02
  9.759165e-01    1.834284e+00   2.549520e-02
  9.781269e-01    1.837436e+00   2.548374e-02
  9.803374e-01    1.849627e+00   2.553276e-02
  9.825478e-01    1.795478e+00   2.512308e-02
  9.847583e-01    1.797448e+00   2.510270e-02
  9.869688e-01    1.827375e+00   2.527694e-02
  9.891792e-01    1.812492e+00   2.514034e-02
  9.913897e-01    1.795518e+00   2.498858e-02
  9.936001e-01    1.744620e+00   2.459962e-02
  9.958106e-01    1.702418e+00   2.426723e-02
  9.980210e-01    1.691338e+00   2.415674e-02
  1.000231e+00    1.664543e+00   2.409591e-02
  1.002442e+00    1.621811e+00   2.391100e-02
  1.004652e+00    1.581194e+00   2.367551e-02
  1.006863e+00    1.601368e+00   2.387552e-02
  1.009073e+00    1.560693e+00   2.360643e-02
  1.011284e+00    1.545855e+00   2.352536e-02
  1.013494e+00    1.524392e+00   2.338462e-02
  1.015705e+00    1.516274e+00   2.334433e-02
  1.017915e+00    1.534051e+00   2.349695e-02
  1.020126e+00    1.495474e+00   2.321532e-02
  1.022336e+00    1.494642e+00   2.322027e-02
  1.024547e+00    1.487095e+00   2.317259e-02
  1.026757e+00    1.438179e+00   2.279634e-02
  1.028967e+00    1.461679e+00   2.298930e-02
  1.031178e+00    1.487274e+00   2.319577e-02
  1.033388e+00    1.496945e+00   2.327606e-02
  1.035599e+00    1.471314e+00   2.307931e-02
  1.037809e+00    1.483413e+00   2.317720e-02
  1.040020e+00    1.460470e+00   2.299853e-02
  1.042230e+00    1.472956e+00   2.309852e-02
  1.044441e+00    1.450748e+00   2.292353e-02
  1.046651e+00    1.478872e+00   2.314481e-02
  1.048862e+00    1.479599e+00   2.314973e-02
  1.051072e+00    1.463225e+00   2.301896e-02
  1.053282e+00    1.436623e+00   2.280781e-02
  1.055493e+00    1.434731e+00   2.278857e-02
  1.057703e+00    1.438312e+00   2.281550e-02
  1.059914e+00    1.457402e+00   2.296221e-02
  1.062124e+00    1.459705e+00   2.297633e-02
  1.064335e+00    1.432737e+00   2.275973e-02
  1.066545e+00    1.427409e+00   2.271147e-02
  1.068756e+00    1.451469e+00   2.289838e-02
  1.070966e+00    1.430996e+00   2.272991e-02
  1.073177e+00    1.426345e+00   2.268694e-02
  1.075387e+00    1.443700e+00   2.281938e-02
  1.077597e+00    1.433676e+00   2.273287e-02
  1.079808e+00    1.395663e+00   2.229987e-02
  1.082018e+00    1.379244e+00   2.198472e-02
  1.084229e+00    1.400607e+00   2.204654e-02
  1.086439e+00    1.421829e+00   2.212652e-02
  1.088650e+00    1.416954e+00   2.201386e-02
  1.090860e+00    1.400901e+00   2.182245e-02
  1.093071e+00    1.395579e+00   2.171995e-02
  1.095281e+00    1.403304e+00   2.172359e-02
  1.097492e+00    1.409625e+00   2.171822e-02
  1.099702e+00    1.397322e+00   2.157263e-02
  1.101912e+00    1.400557e+00   2.154940e-02
  1.104123e+00    1.390761e+00   2.142645e-02
  1.106333e+00    1.411395e+00   2.154071e-02
  1.108544e+00    1.412291e+00   2.150358e-02
  1.110754e+00    1.420395e+00   2.152225e-02
  1.112965e+00    1.446467e+00   2.167799e-02
  1.115175e+00    1.428783e+00   2.150378e-02
  1.117386e+00    1.420838e+00   2.140456e-02
  1.119596e+00    1.391479e+00   2.114468e-02
  1.121807e+00    1.385973e+00   2.106429e-02
  1.124017e+00    1.400620e+00   2.113876e-02
  1.126228e+00    1.388726e+00   2.101324e-02
  1.128438e+00    1.381526e+00   2.092222e-02
  1.130648e+00    1.370467e+00   2.080433e-02
  1.132859e+00    1.368631e+00   2.075638e-02
  1.135069e+00    1.328360e+00   2.041481e-02
  1.137280e+00    1.362171e+00   2.064030e-02
  1.139490e+00    1.379738e+00   2.074000e-02
  1.141701e+00    1.362387e+00   2.057635e-02
  1.143911e+00    1.340616e+00   2.037990e-02
  1.146122e+00    1.356216e+00   2.046641e-02
  1.148332e+00    1.361781e+00   2.047669e-02
  1.150543e+00    1.354013e+00   2.038764e-02
  1.152753e+00    1.325873e+00   2.014438e-02
  1.154963e+00    1.368681e+00   2.043601e-02
  1.157174e+00    1.353720e+00   2.029407e-02
  1.159384e+00    1.358564e+00   2.030065e-02
  1.161595e+00    1.347090e+00   2.018514e-02
  1.163805e+00    1.339526e+00   2.009944e-02
  1.166016e+00    1.332020e+00   2.001401e-02
  1.168226e+00    1.342402e+00   2.006314e-02
  1.170437e+00    1.369901e+00   2.023894e-02
  1.172647e+00    1.357976e+00   2.012185e-02
  1.174858e+00    1.374126e+00   2.021294e-02
  1.177068e+00    1.387764e+00   2.028450e-02
  1.179278e+00    1.367469e+00   2.010698e-02
  1.181489e+00    1.396950e+00   2.029521e-02
  1.183699e+00    1.364893e+00   2.003334e-02
  1.185910e+00    1.341601e+00   1.983408e-02
  1.188120e+00    1.318778e+00   1.963832e-02
  1.190331e+00    1.338381e+00   1.975716e-02
  1.192541e+00    1.295731e+00   1.941303e-02
  1.194752e+00    1.291233e+00   1.935287e-02
  1.196962e+00    1.324532e+00   1.957532e-02
  1.199173e+00    1.367107e+00   1.986079e-02
  1.201383e+00    1.360344e+00   1.978435e-02
  1.203593e+00    1.357198e+00   1.973658e-02
  1.205804e+00    1.334170e+00   1.954266e-02
  1.208014e+00    1.301328e+00   1.927427e-02
  1.210225e+00    1.307592e+00   1.929566e-02
  1.212435e+00    1.314883e+00   1.932493e-02
  1.214646e+00    1.319282e+00   1.933140e-02
  1.216856e+00    1.333902e+00   1.941291e-02
  1.219067e+00    1.284127e+00   1.902342e-02
  1.221277e+00    1.305012e+00   1.915284e-02
  1.223488e+00    1.333645e+00   1.933627e-02
  1.225698e+00    1.296662e+00   1.903992e-02
  1.227909e+00    1.295477e+00   1.900163e-02
  1.230119e+00    1.317957e+00   1.913432e-02
  1.232329e+00    1.341066e+00   1.927073e-02
  1.234540e+00    1.340166e+00   1.923409e-02
  1.236750e+00    1.332442e+00   1.914853e-02
  1.238961e+00    1.303216e+00   1.891084e-02
  1.241171e+00    1.330010e+00   1.908026e-02
  1.243382e+00    1.309341e+00   1.890825e-02
  1.245592e+00    1.365806e+00   1.928742e-02
  1.247803e+00    1.355018e+00   1.918742e-02
  1.250013e+00    1.314694e+00   1.887653e-02
  1.252224e+00    1.295331e+00   1.871421e-02
  1.254434e+00    1.334672e+00   1.897267e-02
  1.256644e+00    1.383125e+00   1.929048e-02
  1.258855e+00    1.353726e+00   1.906111e-02
  1.261065e+00    1.348537e+00   1.900115e-02
  1.263276e+00    1.350067e+00   1.898900e-02
  1.265486e+00    1.355987e+00   1.900764e-02
  1.267697e+00    1.386552e+00   1.919736e-02
  1.269907e+00    1.382389e+00   1.914556e-02
  1.272118e+00    1.352541e+00   1.891514e-02
  1.274328e+00    1.351129e+00   1.888251e-02
  1.276539e+00    1.349548e+00   1.884868e-02
  1.278749e+00    1.370642e+00   1.897294e-02
  1.280959e+00    1.404777e+00   1.918476e-02
  1.283170e+00    1.473200e+00   1.962298e-02
  1.285380e+00    1.495582e+00   1.974787e-02
  1.287591e+00    1.463801e+00   1.951403e-02
  1.289801e+00    1.341416e+00   1.865931e-02
  1.292012e+00    1.314180e+00   1.845200e-02
  1.294222e+00    1.330494e+00   1.855006e-02
  1.296433e+00    1.351867e+00   1.868284e-02
  1.298643e+00    1.349580e+00   1.865058e-02
  1.300854e+00    1.341712e+00   1.857977e-02
  1.303064e+00    1.332202e+00   1.849470e-02
  1.305274e+00    1.351293e+00   1.860530e-02
  1.307485e+00    1.342901e+00   1.852596e-02
  1.309695e+00    1.337423e+00   1.846598e-02
  1.311906e+00    1.364634e+00   1.863107e-02
  1.314116e+00    1.338892e+00   1.843381e-02
  1.316327e+00    1.353413e+00   1.851177e-02
  1.318537e+00    1.371155e+00   1.861066e-02
  1.320748e+00    1.367575e+00   1.856465e-02
  1.322958e+00    1.375267e+00   1.859609e-02
  1.325169e+00    1.371915e+00   1.855222e-02
  1.327379e+00    1.359148e+00   1.844381e-02
  1.329589e+00    1.382289e+00   1.857884e-02
  1.331800e+00    1.382703e+00   1.856067e-02
  1.334010e+00    1.372209e+00   1.846931e-02
  1.336221e+00    1.344331e+00   1.825900e-02
  1.338431e+00    1.344005e+00   1.823598e-02
  1.340642e+00    1.352787e+00   1.835968e-02
  1.342852e+00    1.345865e+00   1.841317e-02
  1.345063e+00    1.341555e+00   1.843299e-02
  1.347273e+00    1.343324e+00   1.848030e-02
  1.349484e+00    1.334028e+00   1.844377e-02
  1.351694e+00    1.351437e+00   1.858642e-02
  1.353905e+00    1.328212e+00   1.844391e-02
  1.356115e+00    1.283056e+00   1.814232e-02
  1.358325e+00    1.300969e+00   1.828159e-02
  1.360536e+00    1.354142e+00   1.866308e-02
  1.362746e+00    1.369398e+00   1.877757e-02
  1.364957e+00    1.376793e+00   1.883594e-02
  1.367167e+00    1.359722e+00   1.872599e-02
  1.369378e+00    1.376735e+00   1.884885e-02
  1.371588e+00    1.351439e+00   1.868007e-02
  1.373799e+00    1.345932e+00   1.864561e-02
  1.376009e+00    1.383518e+00   1.890763e-02
  1.378220e+00    1.344482e+00   1.864153e-02
  1.380430e+00    1.358775e+00   1.874307e-02
  1.382640e+00    1.398167e+00   1.901376e-02
  1.384851e+00    1.362880e+00   1.877320e-02
  1.387061e+00    1.323191e+00   1.849812e-02
  1.389272e+00    1.323426e+00   1.849996e-02
  1.391482e+00    1.312734e+00   1.842442e-02
  1.393693e+00    1.290009e+00   1.826335e-02
  1.395903e+00    1.283386e+00   1.821491e-02
  1.398114e+00    1.286340e+00   1.823450e-02
  1.400324e+00    1.259197e+00   1.803897e-02
  1.402535e+00    1.261789e+00   1.805522e-02
  1.404745e+00    1.241515e+00   1.790726e-02
  1.406955e+00    1.241357e+00   1.790344e-02
  1.409166e+00    1.256982e+00   1.801248e-02
  1.411376e+00    1.270927e+00   1.810900e-02
  1.413587e+00    1.269886e+00   1.809778e-02
  1.415797e+00    1.234904e+00   1.784329e-02
  1.418008e+00    1.244884e+00   1.787377e-02
  1.420218e+00    1.225247e+00   1.758518e-02
  1.422429e+00    1.218141e+00   1.745056e-02
  1.424639e+00    1.238577e+00   1.753241e-02
  1.426850e+00    1.280111e+00   1.776907e-02
  1.429060e+00    1.253191e+00   1.753259e-02
  1.431270e+00    1.246907e+00   1.744463e-02
  1.433481e+00    1.267633e+00   1.754813e-02
  1.435691e+00    1.270748e+00   1.753122e-02
  1.437902e+00    1.261925e+00   1.743392e-02
  1.440112e+00    1.257298e+00   1.736676e-02
  1.442323e+00    1.260594e+00   1.735657e-02
  1.444533e+00    1.267107e+00   1.736886e-02
  1.446744e+00    1.245862e+00   1.719180e-02
  1.448954e+00    1.234141e+00   1.708097e-02
  1.451165e+00    1.243342e+00   1.711507e-02
  1.453375e+00    1.253515e+00   1.715711e-02
  1.455586e+00    1.222125e+00   1.691328e-02
  1.457796e+00    1.232907e+00   1.696062e-02
  1.460006e+00    1.230402e+00   1.691655e-02
  1.462217e+00    1.223598e+00   1.684398e-02
  1.464427e+00    1.245148e+00   1.696629e-02
  1.466638e+00    1.284417e+00   1.720629e-02
  1.468848e+00    1.264579e+00   1.704762e-02
  1.471059e+00    1.266883e+00   1.703807e-02
  1.473269e+00    1.229285e+00   1.675935e-02
  1.475480e+00    1.244716e+00   1.684066e-02
  1.477690e+00    1.238810e+00   1.677712e-02
  1.479901e+00    1.232623e+00   1.671164e-02
  1.482111e+00    1.256549e+00   1.684983e-02
  1.484321e+00    1.267993e+00   1.690328e-02
  1.486532e+00    1.253949e+00   1.678720e-02
  1.488742e+00    1.234807e+00   1.663617e-02
  1.490953e+00    1.270551e+00   1.685259e-02
  1.493163e+00    1.234676e+00   1.659094e-02
  1.495374e+00    1.239970e+00   1.660517e-02
  1.497584e+00    1.233504e+00   1.654041e-02
  1.499795e+00    1.250088e+00   1.662967e-02
  1.502005e+00    1.242713e+00   1.655902e-02
  1.504216e+00    1.230614e+00   1.645740e-02
  1.506426e+00    1.221634e+00   1.637674e-02
  1.508636e+00    1.238554e+00   1.646947e-02
  1.510847e+00    1.228037e+00   1.637782e-02
  1.513057e+00    1.199235e+00   1.616012e-02
  1.515268e+00    1.220593e+00   1.627800e-02
  1.517478e+00    1.237942e+00   1.636830e-02
  1.519689e+00    1.245974e+00   1.639644e-02
  1.521899e+00    1.243563e+00   1.635754e-02
  1.524110e+00    1.245757e+00   1.635170e-02
  1.526320e+00    1.258442e+00   1.641509e-02
  1.528531e+00    1.253781e+00   1.636490e-02
  1.530741e+00    1.244408e+00   1.628450e-02
  1.532951e+00    1.225450e+00   1.614060e-02
  1.535162e+00    1.211353e+00   1.613275e-02
  1.537372e+00    1.233869e+00   1.634848e-02
  1.539583e+00    1.220109e+00   1.629093e-02
  1.541793e+00    1.202548e+00   1.618008e-02
  1.544004e+00    1.216679e+00   1.627510e-02
  1.546214e+00    1.247165e+00   1.647625e-02
  1.548425e+00    1.228827e+00   1.635494e-02
  1.550635e+00    1.212484e+00   1.625535e-02
  1.552846e+00    1.234682e+00   1.641310e-02
  1.555056e+00    1.235664e+00   1.637830e-02
  1.557266e+00    1.241630e+00   1.630746e-02
  1.559477e+00    1.244277e+00   1.626572e-02
  1.561687e+00    1.261030e+00   1.634399e-02
  1.563898e+00    1.227013e+00   1.610500e-02
  1.566108e+00    1.221835e+00   1.605519e-02
  1.568319e+00    1.202223e+00   1.591043e-02
  1.570529e+00    1.209623e+00   1.593455e-02
  1.572740e+00    1.223998e+00   1.600157e-02
  1.574950e+00    1.216782e+00   1.592831e-02
  1.577161e+00    1.212166e+00   1.587293e-02
  1.579371e+00    1.242200e+00   1.604471e-02
  1.581582e+00    1.253616e+00   1.609845e-02
  1.583792e+00    1.242710e+00   1.601026e-02
  1.586002e+00    1.219783e+00   1.584445e-02
  1.588213e+00    1.222771e+00   1.584672e-02
  1.590423e+00    1.239009e+00   1.593158e-02
  1.592634e+00    1.213521e+00   1.574551e-02
  1.594844e+00    1.214974e+00   1.573377e-02
  1.597055e+00    1.194224e+00   1.557874e-02
  1.599265e+00    1.230345e+00   1.579195e-02
  1.601476e+00    1.246091e+00   1.587234e-02
  1.603686e+00    1.241522e+00   1.582346e-02
  1.605897e+00    1.223186e+00   1.568613e-02
  1.608107e+00    1.215899e+00   1.561995e-02
  1.610317e+00    1.251887e+00   1.582998e-02
  1.612528e+00    1.289665e+00   1.604747e-02
  1.614738e+00    1.349942e+00   1.639838e-02
  1.616949e+00    1.285468e+00   1.598259e-02
  1.619159e+00    1.224503e+00   1.558023e-02
  1.621370e+00    1.213629e+00   1.549248e-02
  1.623580e+00    1.209511e+00   1.544787e-02
  1.625791e+00    1.212469e+00   1.544847e-02
  1.628001e+00    1.189425e+00   1.528281e-02
  1.630212e+00    1.154877e+00   1.504174e-02
  1.632422e+00    1.168548e+00   1.511274e-02
  1.634632e+00    1.171963e+00   1.511758e-02
  1.636843e+00    1.148802e+00   1.495013e-02
  1.639053e+00    1.144441e+00   1.490465e-02
  1.641264e+00    1.146404e+00   1.490051e-02
  1.643474e+00    1.127527e+00   1.476019e-02
  1.645685e+00    1.125556e+00   1.473084e-02
  1.647895e+00    1.146750e+00   1.485237e-02
  1.650106e+00    1.148060e+00   1.484386e-02
  1.652316e+00    1.138324e+00   1.476439e-02
  1.654527e+00    1.113538e+00   1.458630e-02
  1.656737e+00    1.109459e+00   1.454319e-02
  1.658947e+00    1.113222e+00   1.455169e-02
  1.661158e+00    1.118169e+00   1.456778e-02
  1.663368e+00    1.112103e+00   1.451227e-02
  1.665579e+00    1.090191e+00   1.435266e-02
  1.667789e+00    1.112896e+00   1.448511e-02
  1.670000e+00    1.095481e+00   1.435601e-02
  1.672210e+00    1.075570e+00   1.420927e-02
  1.674421e+00    1.072734e+00   1.417543e-02
  1.676631e+00    1.084869e+00   1.423963e-02
  1.678842e+00    1.056816e+00   1.403888e-02
  1.681052e+00    1.045303e+00   1.394712e-02
  1.683263e+00    1.066023e+00   1.406971e-02
  1.685473e+00    1.085457e+00   1.418221e-02
  1.687683e+00    1.079721e+00   1.412933e-02
  1.689894e+00    1.050987e+00   1.392449e-02
  1.692104e+00    1.046432e+00   1.387957e-02
  1.694315e+00    1.059882e+00   1.395406e-02
  1.696525e+00    1.026151e+00   1.371538e-02
  1.698736e+00    1.044219e+00   1.382091e-02
  1.700946e+00    1.056510e+00   1.388693e-02
  1.703157e+00    1.023209e+00   1.365192e-02
  1.705367e+00    1.016470e+00   1.359261e-02
  1.707578e+00    1.048627e+00   1.379139e-02
  1.709788e+00    1.031739e+00   1.366587e-02
  1.711998e+00    1.016912e+00   1.355250e-02
  1.714209e+00    9.970723e-01   1.340549e-02
  1.716419e+00    1.011714e+00   1.348944e-02
  1.718630e+00    1.050121e+00   1.372870e-02
  1.720840e+00    1.039449e+00   1.364454e-02
  1.723051e+00    9.908144e-01   1.330785e-02
  1.725261e+00    1.009307e+00   1.341687e-02
  1.727472e+00    9.838712e-01   1.323283e-02
  1.729682e+00    9.519239e-01   1.300316e-02
  1.731893e+00    9.502268e-01   1.297807e-02
  1.734103e+00    9.590155e-01   1.302453e-02
  1.736313e+00    9.646001e-01   1.304866e-02
  1.738524e+00    9.662983e-01   1.304657e-02
  1.740734e+00    9.748716e-01   1.309078e-02
  1.742945e+00    9.554695e-01   1.294670e-02
  1.745155e+00    9.331638e-01   1.278163e-02
  1.747366e+00    9.362426e-01   1.278927e-02
  1.749576e+00    9.450687e-01   1.283600e-02
  1.751787e+00    9.564530e-01   1.289994e-02
  1.753997e+00    9.550947e-01   1.287756e-02
  1.756208e+00    9.380105e-01   1.274893e-02
  1.758418e+00    9.291807e-01   1.267595e-02
  1.760628e+00    9.249345e-01   1.263392e-02
  1.762839e+00    9.179840e-01   1.257345e-02
  1.765049e+00    9.323505e-01   1.265857e-02
  1.767260e+00    8.937043e-01   1.238106e-02
  1.769470e+00    9.062620e-01   1.245509e-02
  1.771681e+00    9.256203e-01   1.257447e-02
  1.773891e+00    9.163608e-01   1.249860e-02
  1.776102e+00    9.016883e-01   1.238556e-02
  1.778312e+00    9.196365e-01   1.249567e-02
  1.780523e+00    9.055612e-01   1.238719e-02
  1.782733e+00    9.156796e-01   1.244367e-02
  1.784944e+00    9.107475e-01   1.239742e-02
  1.787154e+00    8.782476e-01   1.216204e-02
  1.789364e+00    8.805934e-01   1.216612e-02
  1.791575e+00    8.809977e-01   1.215670e-02
  1.793785e+00    8.772525e-01   1.211873e-02
  1.795996e+00    8.758356e-01   1.209674e-02
  1.798206e+00    8.858462e-01   1.215337e-02
  1.800417e+00    8.671203e-01   1.201191e-02
  1.802627e+00    8.681788e-01   1.200760e-02
  1.804838e+00    8.959819e-01   1.218634e-02
  1.807048e+00    8.819418e-01   1.207785e-02
  1.809259e+00    8.813276e-01   1.206025e-02
  1.811469e+00    8.640578e-01   1.192687e-02
  1.813679e+00    8.566633e-01   1.186113e-02
  1.815890e+00    8.374093e-01   1.171283e-02
  1.818100e+00    8.504344e-01   1.178887e-02
  1.820311e+00    8.490331e-01   1.176474e-02
  1.822521e+00    8.545743e-01   1.178854e-02
  1.824732e+00    8.688112e-01   1.187168e-02
  1.826942e+00    8.650423e-01   1.183375e-02
  1.829153e+00    8.412326e-01   1.165835e-02
  1.831363e+00    8.406116e-01   1.164229e-02
  1.833574e+00    8.547750e-01   1.172847e-02
  1.835784e+00    8.429320e-01   1.163576e-02
  1.837994e+00    8.442503e-01   1.163335e-02
  1.840205e+00    8.529316e-01   1.168199e-02
  1.842415e+00    8.542516e-01   1.167938e-02
  1.844626e+00    8.478029e-01   1.162380e-02
  1.846836e+00    8.729839e-01   1.178367e-02
  1.849047e+00    9.118313e-01   1.203112e-02
  1.851257e+00    8.741788e-01   1.177048e-02
  1.853468e+00    8.562024e-01   1.164007e-02
  1.855678e+00    8.243105e-01   1.141251e-02
  1.857889e+00    8.277967e-01   1.142828e-02
  1.860099e+00    8.225105e-01   1.138325e-02
  1.862309e+00    8.419911e-01   1.150886e-02
  1.864520e+00    8.327909e-01   1.143733e-02
  1.866730e+00    8.519048e-01   1.155849e-02
  1.868941e+00    8.351440e-01   1.143338e-02
  1.871151e+00    8.325733e-01   1.140451e-02
  1.873362e+00    8.108935e-01   1.124397e-02
  1.875572e+00    8.312247e-01   1.137323e-02
  1.877783e+00    8.102121e-01   1.121740e-02
  1.879993e+00    8.211592e-01   1.128191e-02
  1.882204e+00    8.388410e-01   1.139190e-02
  1.884414e+00    8.246932e-01   1.128446e-02
  1.886624e+00    8.114833e-01   1.118288e-02
  1.888835e+00    8.136480e-01   1.118699e-02
  1.891045e+00    8.307577e-01   1.129315e-02
  1.893256e+00    8.290446e-01   1.127051e-02
  1.895466e+00    8.183579e-01   1.118657e-02
  1.897677e+00    8.201534e-01   1.118802e-02
  1.899887e+00    8.176857e-01   1.116030e-02
  1.902098e+00    8.207855e-01   1.117067e-02
  1.904308e+00    8.242271e-01   1.118352e-02
  1.906519e+00    8.052781e-01   1.104355e-02
  1.908729e+00    8.014272e-01   1.100667e-02
  1.910940e+00    8.143650e-01   1.108412e-02
  1.913150e+00    8.002447e-01   1.097719e-02
  1.915360e+00    8.094666e-01   1.102974e-02
  1.917571e+00    8.043405e-01   1.098401e-02
  1.919781e+00    7.897334e-01   1.087334e-02
  1.921992e+00    7.897142e-01   1.086277e-02
  1.924202e+00    8.059270e-01   1.096303e-02
  1.926413e+00    8.017262e-01   1.092422e-02
  1.928623e+00    7.951675e-01   1.086903e-02
  1.930834e+00    7.923378e-01   1.083937e-02
  1.933044e+00    7.991323e-01   1.087516e-02
  1.935255e+00    7.960939e-01   1.084423e-02
  1.937465e+00    8.012657e-01   1.086904e-02
  1.939675e+00    7.957199e-01   1.082060e-02
  1.941886e+00    7.898281e-01   1.077027e-02
  1.944096e+00    8.047026e-01   1.086102e-02
  1.946307e+00    7.914035e-01   1.076064e-02
  1.948517e+00    7.809581e-01   1.067906e-02
  1.950728e+00    7.814935e-01   1.067259e-02
  1.952938e+00    7.699265e-01   1.058339e-02
  1.955149e+00    7.814051e-01   1.065186e-02
  1.957359e+00    7.905484e-01   1.070398e-02
  1.959570e+00    7.773094e-01   1.060324e-02
  1.961780e+00    7.793445e-01   1.060728e-02
  1.963990e+00    7.636102e-01   1.048972e-02
  1.966201e+00    7.722724e-01   1.053910e-02
  1.968411e+00    7.876874e-01   1.063361e-02
  1.970622e+00    8.118346e-01   1.078515e-02
  1.972832e+00    7.815666e-01   1.057226e-02
  1.975043e+00    7.819318e-01   1.056470e-02
  1.977253e+00    7.655885e-01   1.044390e-02
  1.979464e+00    7.472647e-01   1.030833e-02
  1.981674e+00    7.817958e-01   1.053358e-02
  1.983885e+00    7.651185e-01   1.041071e-02
  1.986095e+00    7.446715e-01   1.026118e-02
  1.988305e+00    7.590659e-01   1.035010e-02
  1.990516e+00    7.784966e-01   1.047183e-02
  1.992726e+00    7.588274e-01   1.032915e-02
  1.994937e+00    7.620117e-01   1.034076e-02
  1.997147e+00    7.618789e-01   1.033022e-02
  1.999358e+00    7.503315e-01   1.024195e-02
  2.001568e+00    7.530206e-01   1.024960e-02
  2.003779e+00    7.598450e-01   1.028413e-02
  2.005989e+00    7.573888e-01   1.025558e-02
  2.008200e+00    7.586606e-01   1.025275e-02
  2.010410e+00    7.484123e-01   1.017168e-02
  2.012621e+00    7.407917e-01   1.010827e-02
  2.014831e+00    7.705454e-01   1.029776e-02
  2.017041e+00    7.702510e-01   1.028540e-02
  2.019252e+00    7.656424e-01   1.024463e-02
  2.021462e+00    7.502516e-01   1.013172e-02
  2.023673e+00    7.480787e-01   1.010774e-02
  2.025883e+00    7.646066e-01   1.020927e-02
  2.028094e+00    7.637070e-01   1.019362e-02
  2.030304e+00    7.508641e-01   1.009807e-02
  2.032515e+00    7.497404e-01   1.008128e-02
  2.034725e+00    7.510648e-01   1.008078e-02
  2.036936e+00    7.563875e-01   1.010713e-02
  2.039146e+00    7.374558e-01   9.970384e-03
  2.041356e+00    7.466230e-01   1.002259e-02
  2.043567e+00    7.400329e-01   9.969039e-03
  2.045777e+00    7.308901e-01   9.898183e-03
  2.047988e+00    7.552489e-01   1.005238e-02
  2.050198e+00    7.465492e-01   9.985950e-03
  2.052409e+00    7.373961e-01   9.916951e-03
  2.054619e+00    7.406827e-01   9.931711e-03
  2.056830e+00    7.526497e-01   1.000443e-02
  2.059040e+00    7.358463e-01   9.884709e-03
  2.061251e+00    7.172279e-01   9.751754e-03
  2.063461e+00    7.270954e-01   9.811110e-03
  2.065671e+00    7.343497e-01   9.851316e-03
  2.067882e+00    7.170097e-01   9.725496e-03
  2.070092e+00    7.180431e-01   9.723487e-03
  2.072303e+00    7.209679e-01   9.734288e-03
  2.074513e+00    7.350419e-01   9.819575e-03
  2.076724e+00    7.370359e-01   9.823482e-03
  2.078934e+00    7.257022e-01   9.738775e-03
  2.081145e+00    7.030270e-01   9.576572e-03
  2.083355e+00    7.193057e-01   9.677766e-03
  2.085566e+00    7.141786e-01   9.634490e-03
  2.087776e+00    7.161899e-01   9.638676e-03
  2.089986e+00    7.112172e-01   9.596538e-03
  2.092197e+00    7.167720e-01   9.625116e-03
  2.094407e+00    7.027796e-01   9.521687e-03
  2.096618e+00    7.057106e-01   9.532800e-03
  2.098828e+00    7.044587e-01   9.515228e-03
  2.101039e+00    7.165705e-01   9.587788e-03
  2.103249e+00    7.096611e-01   9.532923e-03
  2.105460e+00    7.082204e-01   9.514359e-03
  2.107670e+00    7.034622e-01   9.473758e-03
  2.109881e+00    7.106988e-01   9.513305e-03
  2.112091e+00    7.044274e-01   9.462394e-03
  2.114301e+00    7.023281e-01   9.439630e-03
  2.116512e+00    6.853828e-01   9.316493e-03
  2.118722e+00    7.086235e-01   9.464393e-03
  2.120933e+00    6.915528e-01   9.341024e-03
  2.123143e+00    6.907720e-01   9.327006e-03
  2.125354e+00    6.958120e-01   9.352582e-03
  2.127564e+00    6.965387e-01   9.348853e-03
  2.129775e+00    6.843327e-01   9.258041e-03
  2.131985e+00    6.911728e-01   9.295287e-03
  2.134196e+00    6.920291e-01   9.292575e-03
  2.136406e+00    6.967173e-01   9.315372e-03
  2.138617e+00    6.882065e-01   9.249950e-03
  2.140827e+00    6.981493e-01   9.332492e-03
  2.143037e+00    6.846759e-01   9.286743e-03
  2.145248e+00    6.756243e-01   9.246683e-03
  2.147458e+00    6.725952e-01   9.240705e-03
  2.149669e+00    6.968509e-01   9.417667e-03
  2.151879e+00    6.889755e-01   9.373430e-03
  2.154090e+00    6.853148e-01   9.355730e-03
  2.156300e+00    6.863577e-01   9.369385e-03
  2.158511e+00    6.804242e-01   9.334029e-03
  2.160721e+00    6.844975e-01   9.366685e-03
  2.162932e+00    6.892182e-01   9.402660e-03
  2.165142e+00    6.890450e-01   9.404469e-03
  2.167352e+00    6.822170e-01   9.360654e-03
  2.169563e+00    6.872029e-01   9.396729e-03
  2.171773e+00    6.759664e-01   9.322012e-03
  2.173984e+00    6.805353e-01   9.354855e-03
  2.176194e+00    6.580265e-01   9.200037e-03
  2.178405e+00    6.624633e-01   9.231648e-03
  2.180615e+00    6.694400e-01   9.280828e-03
  2.182826e+00    6.694214e-01   9.281345e-03
  2.185036e+00    6.738669e-01   9.312192e-03
  2.187247e+00    6.479685e-01   9.131429e-03
  2.189457e+00    6.639115e-01   9.242673e-03
  2.191667e+00    6.767671e-01   9.331571e-03
  2.193878e+00    6.692818e-01   9.279255e-03
  2.196088e+00    6.837258e-01   9.378167e-03
  2.198299e+00    6.819396e-01   9.364826e-03
  2.200509e+00    6.835066e-01   9.374522e-03
  2.202720e+00    6.774811e-01   9.331969e-03
  2.204930e+00    6.671275e-01   9.259149e-03
  2.207141e+00    6.734040e-01   9.301499e-03
  2.209351e+00    6.722990e-01   9.291983e-03
  2.211562e+00    6.689554e-01   9.267258e-03
  2.213772e+00    6.651030e-01   9.185518e-03
  2.215982e+00    6.558714e-01   9.078009e-03
  2.218193e+00    6.538141e-01   9.034606e-03
  2.220403e+00    6.648564e-01   9.086182e-03
  2.222614e+00    6.482424e-01   8.951380e-03
  2.224824e+00    6.543924e-01   8.974636e-03
  2.227035e+00    6.593415e-01   8.991245e-03
  2.229245e+00    6.493868e-01   8.906431e-03
  2.231456e+00    6.615081e-01   8.973662e-03
  2.233666e+00    6.604561e-01   8.951550e-03
  2.235877e+00    6.683578e-01   8.990695e-03
  2.238087e+00    6.653405e-01   8.956943e-03
  2.240298e+00    6.601490e-01   8.908272e-03
  2.242508e+00    6.473348e-01   8.806494e-03
  2.244718e+00    6.476547e-01   8.793105e-03
  2.246929e+00    6.673878e-01   8.911651e-03
  2.249139e+00    6.552317e-01   8.817856e-03
  2.251350e+00    6.490964e-01   8.764920e-03
  2.253560e+00    6.498311e-01   8.758465e-03
  2.255771e+00    6.490513e-01   8.741941e-03
  2.257981e+00    6.571667e-01   8.785300e-03
  2.260192e+00    6.500719e-01   8.726770e-03
  2.262402e+00    6.622389e-01   8.797224e-03
  2.264613e+00    6.526533e-01   8.722578e-03
  2.266823e+00    6.362620e-01   8.602175e-03
  2.269033e+00    6.412933e-01   8.625891e-03
  2.271244e+00    6.594526e-01   8.736792e-03
  2.273454e+00    6.854728e-01   8.897047e-03
  2.275665e+00    6.844115e-01   8.879712e-03
  2.277875e+00    6.656420e-01   8.747139e-03
  2.280086e+00    6.485237e-01   8.623970e-03
  2.282296e+00    6.466225e-01   8.601999e-03
  2.284507e+00    6.396317e-01   8.545404e-03
  2.286717e+00    6.345854e-01   8.502317e-03
  2.288928e+00    6.419227e-01   8.541576e-03
  2.291138e+00    6.476868e-01   8.570489e-03
  2.293348e+00    6.467305e-01   8.554692e-03
  2.295559e+00    6.468490e-01   8.546205e-03
  2.297769e+00    6.497815e-01   8.556361e-03
  2.299980e+00    6.545799e-01   8.578537e-03
  2.302190e+00    6.418841e-01   8.485908e-03
  2.304401e+00    6.325094e-01   8.414530e-03
  2.306611e+00    6.283370e-01   8.377692e-03
  2.308822e+00    6.323405e-01   8.396071e-03
  2.311032e+00    6.519490e-01   8.518800e-03
  2.313243e+00    6.376332e-01   8.418550e-03
  2.315453e+00    6.333601e-01   8.382815e-03
  2.317663e+00    6.405244e-01   8.420999e-03
  2.319874e+00    6.251813e-01   8.310963e-03
  2.322084e+00    6.537792e-01   8.489875e-03
  2.324295e+00    6.519628e-01   8.469848e-03
  2.326505e+00    6.262134e-01   8.291948e-03
  2.328716e+00    6.489426e-01   8.432514e-03
  2.330926e+00    6.544287e-01   8.459212e-03
  2.333137e+00    6.348104e-01   8.323136e-03
  2.335347e+00    6.255264e-01   8.253273e-03
  2.337558e+00    6.420921e-01   8.353608e-03
  2.339768e+00    6.237525e-01   8.224982e-03
  2.341979e+00    6.245618e-01   8.222046e-03
  2.344189e+00    6.304274e-01   8.252205e-03
  2.346399e+00    6.341618e-01   8.268135e-03
  2.348610e+00    6.377743e-01   8.283184e-03
  2.350820e+00    6.386403e-01   8.280601e-03
  2.353031e+00    6.233158e-01   8.172434e-03
  2.355241e+00    6.143537e-01   8.105539e-03
  2.357452e+00    6.237286e-01   8.158777e-03
  2.359662e+00    6.220462e-01   8.139617e-03
  2.361873e+00    6.309205e-01   8.189223e-03
  2.364083e+00    6.120905e-01   8.058232e-03
  2.366294e+00    6.148835e-01   8.068556e-03
  2.368504e+00    6.155774e-01   8.065111e-03
  2.370714e+00    6.129744e-01   8.040063e-03
  2.372925e+00    6.123883e-01   8.028248e-03
  2.375135e+00    6.190813e-01   8.063978e-03
  2.377346e+00    6.093964e-01   7.992812e-03
  2.379556e+00    6.103331e-01   7.991113e-03
  2.381767e+00    6.230393e-01   8.065995e-03
  2.383977e+00    6.164410e-01   8.015290e-03
  2.386188e+00    6.161725e-01   8.005623e-03
  2.388398e+00    6.143443e-01   7.985824e-03
  2.390609e+00    6.118568e-01   7.961925e-03
  2.392819e+00    6.288872e-01   8.064141e-03
  2.395029e+00    6.155772e-01   7.970681e-03
  2.397240e+00    6.246940e-01   8.021548e-03
  2.399450e+00    6.124238e-01   7.934599e-03
  2.401661e+00    5.974903e-01   7.829664e-03
  2.403871e+00    5.962411e-01   7.813801e-03
  2.406082e+00    5.986515e-01   7.822220e-03
  2.408292e+00    5.986223e-01   7.814302e-03
  2.410503e+00    6.014137e-01   7.825062e-03
  2.412713e+00    5.919175e-01   7.755334e-03
  2.414924e+00    5.897279e-01   7.733604e-03
  2.417134e+00    5.907462e-01   7.732720e-03
  2.419344e+00    5.872197e-01   7.702301e-03
  2.421555e+00    5.826383e-01   7.664797e-03
  2.423765e+00    6.133913e-01   7.857000e-03
  2.425976e+00    5.807598e-01   7.637493e-03
  2.428186e+00    5.792924e-01   7.620712e-03
  2.430397e+00    5.976581e-01   7.733091e-03
  2.432607e+00    5.973974e-01   7.724128e-03
  2.434818e+00    5.904034e-01   7.671269e-03
  2.437028e+00    5.884750e-01   7.651610e-03
  2.439239e+00    5.858687e-01   7.627052e-03
  2.441449e+00    5.728234e-01   7.534572e-03
  2.443659e+00    5.773306e-01   7.556896e-03
  2.445870e+00    5.695952e-01   7.518142e-03
  2.448080e+00    5.649993e-01   7.522000e-03
  2.450291e+00    5.659080e-01   7.544509e-03
  2.452501e+00    5.582318e-01   7.504142e-03
  2.454712e+00    5.431381e-01   7.410198e-03
  2.456922e+00    5.564688e-01   7.507124e-03
  2.459133e+00    5.572324e-01   7.517651e-03
  2.461343e+00    5.500169e-01   7.473124e-03
  2.463554e+00    5.545190e-01   7.507068e-03
  2.465764e+00    5.353326e-01   7.379120e-03
  2.467975e+00    5.450804e-01   7.448262e-03
  2.470185e+00    5.329011e-01   7.366752e-03
  2.472395e+00    5.387872e-01   7.408562e-03
  2.474606e+00    5.262412e-01   7.323299e-03
  2.476816e+00    5.281450e-01   7.337261e-03
  2.479027e+00    5.418703e-01   7.432819e-03
  2.481237e+00    5.315154e-01   7.361757e-03
  2.483448e+00    5.298802e-01   7.350700e-03
  2.485658e+00    5.322766e-01   7.367166e-03
  2.487869e+00    5.376606e-01   7.404363e-03
  2.490079e+00    5.500516e-01   7.488680e-03
  2.492290e+00    5.397615e-01   7.417888e-03
  2.494500e+00    5.297186e-01   7.347805e-03
  2.496710e+00    5.244790e-01   7.310709e-03
  2.498921e+00    5.229253e-01   7.298875e-03
  2.501131e+00    5.271645e-01   7.327452e-03
  2.503342e+00    5.064131e-01   7.180575e-03
  2.505552e+00    5.145677e-01   7.237015e-03
  2.507763e+00    5.110769e-01   7.211054e-03
  2.509973e+00    5.208276e-01   7.278123e-03
  2.512184e+00    5.142953e-01   7.230753e-03
  2.514394e+00    5.218658e-01   7.274447e-03
  2.516605e+00    5.270165e-01   7.263186e-03
  2.518815e+00    5.208595e-01   7.192442e-03
  2.521025e+00    5.271266e-01   7.214593e-03
  2.523236e+00    5.218639e-01   7.160565e-03
  2.525446e+00    5.229664e-01   7.152558e-03
  2.527657e+00    5.121087e-01   7.063508e-03
  2.529867e+00    5.052001e-01   7.001782e-03
  2.532078e+00    5.197594e-01   7.086994e-03
  2.534288e+00    5.144612e-01   7.037039e-03
  2.536499e+00    5.042243e-01   6.954972e-03
  2.538709e+00    4.966967e-01   6.892155e-03
  2.540920e+00    5.119106e-01   6.986375e-03
  2.543130e+00    5.180807e-01   7.018070e-03
  2.545340e+00    5.099806e-01   6.953064e-03
  2.547551e+00    4.941104e-01   6.834353e-03
  2.549761e+00    4.907094e-01   6.801488e-03
  2.551972e+00    5.071974e-01   6.905601e-03
  2.554182e+00    5.037673e-01   6.873189e-03
  2.556393e+00    5.037751e-01   6.864293e-03
  2.558603e+00    5.098864e-01   6.896829e-03
  2.560814e+00    5.017737e-01   6.833200e-03
  2.563024e+00    4.974986e-01   6.795621e-03
  2.565235e+00    4.987939e-01   6.795129e-03
  2.567445e+00    4.991312e-01   6.788087e-03
  2.569656e+00    5.023981e-01   6.800639e-03
  2.571866e+00    5.013891e-01   6.784620e-03
  2.574076e+00    4.978892e-01   6.751793e-03
  2.576287e+00    4.941319e-01   6.718122e-03
  2.578497e+00    5.021268e-01   6.764519e-03
  2.580708e+00    5.025505e-01   6.759375e-03
  2.582918e+00    5.149292e-01   6.834365e-03
  2.585129e+00    5.002007e-01   6.728281e-03
  2.587339e+00    4.945652e-01   6.682727e-03
  2.589550e+00    5.061781e-01   6.753232e-03
  2.591760e+00    4.936474e-01   6.661521e-03
  2.593971e+00    5.057931e-01   6.735483e-03
  2.596181e+00    5.090753e-01   6.751106e-03
  2.598391e+00    4.858899e-01   6.590524e-03
  2.600602e+00    4.871874e-01   6.593513e-03
  2.602812e+00    5.016260e-01   6.683036e-03
  2.605023e+00    4.939289e-01   6.624514e-03
  2.607233e+00    4.892664e-01   6.586148e-03
  2.609444e+00    4.862382e-01   6.558670e-03
  2.611654e+00    4.941339e-01   6.604468e-03
  2.613865e+00    4.892225e-01   6.564647e-03
  2.616075e+00    5.018984e-01   6.642045e-03
  2.618286e+00    4.978587e-01   6.608314e-03
  2.620496e+00    5.003332e-01   6.618056e-03
  2.622706e+00    5.041526e-01   6.637526e-03
  2.624917e+00    4.971740e-01   6.585629e-03
  2.627127e+00    4.930184e-01   6.552364e-03
  2.629338e+00    4.897455e-01   6.524684e-03
  2.631548e+00    4.875829e-01   6.504199e-03
  2.633759e+00    4.883024e-01   6.501940e-03
  2.635969e+00    4.871083e-01   6.487410e-03
  2.638180e+00    4.811512e-01   6.440754e-03
  2.640390e+00    4.948785e-01   6.525433e-03
  2.642601e+00    4.934472e-01   6.509386e-03
  2.644811e+00    4.906618e-01   6.483969e-03
  2.647021e+00    4.909475e-01   6.479355e-03
  2.649232e+00    4.843995e-01   6.429394e-03
  2.651442e+00    4.867314e-01   6.438424e-03
  2.653653e+00    4.825490e-01   6.404018e-03
  2.655863e+00    4.880823e-01   6.434022e-03
  2.658074e+00    4.884615e-01   6.429970e-03
  2.660284e+00    4.864358e-01   6.410335e-03
  2.662495e+00    4.930088e-01   6.446773e-03
  2.664705e+00    5.016679e-01   6.496551e-03
  2.666916e+00    4.958850e-01   6.452534e-03
  2.669126e+00    4.930747e-01   6.427799e-03
  2.671337e+00    4.956498e-01   6.437958e-03
  2.673547e+00    4.822781e-01   6.344242e-03
  2.675757e+00    4.822744e-01   6.337840e-03
  2.677968e+00    4.871469e-01   6.363298e-03
  2.680178e+00    4.941677e-01   6.402596e-03
  2.682389e+00    4.901793e-01   6.370319e-03
  2.684599e+00    4.817259e-01   6.309050e-03
  2.686810e+00    4.839937e-01   6.317316e-03
  2.689020e+00    4.857042e-01   6.322229e-03
  2.691231e+00    4.831052e-01   6.299035e-03
  2.693441e+00    4.919108e-01   6.350040e-03
  2.695652e+00    4.927985e-01   6.349244e-03
  2.697862e+00    4.761041e-01   6.234501e-03
  2.700072e+00    4.685331e-01   6.178807e-03
  2.702283e+00    4.767904e-01   6.226847e-03
  2.704493e+00    4.885392e-01   6.296826e-03
  2.706704e+00    4.913780e-01   6.308679e-03
  2.708914e+00    4.841987e-01   6.256478e-03
  2.711125e+00    4.774497e-01   6.206547e-03
  2.713335e+00    4.722434e-01   6.166625e-03
  2.715546e+00    4.544477e-01   6.043061e-03
  2.717756e+00    4.843901e-01   6.233096e-03
  2.719967e+00    4.635840e-01   6.091707e-03
  2.722177e+00    4.755772e-01   6.163923e-03
  2.724387e+00    4.747711e-01   6.152669e-03
  2.726598e+00    4.714462e-01   6.125113e-03
  2.728808e+00    4.798805e-01   6.173550e-03
  2.731019e+00    4.744344e-01   6.132353e-03
  2.733229e+00    4.807009e-01   6.166941e-03
  2.735440e+00    4.702847e-01   6.093581e-03
  2.737650e+00    4.726948e-01   6.103228e-03
  2.739861e+00    4.718240e-01   6.091602e-03
  2.742071e+00    4.660881e-01   6.048826e-03
  2.744282e+00    4.679641e-01   6.054824e-03
  2.746492e+00    4.704267e-01   6.064795e-03
  2.748702e+00    4.632012e-01   6.012233e-03
  2.750913e+00    4.749908e-01   6.082507e-03
  2.753123e+00    4.716150e-01   6.054827e-03
  2.755334e+00    4.672756e-01   6.020894e-03
  2.757544e+00    4.749266e-01   6.064293e-03
  2.759755e+00    4.663972e-01   6.003799e-03
  2.761965e+00    4.771084e-01   6.066360e-03
  2.764176e+00    4.765324e-01   6.056760e-03
  2.766386e+00    4.653998e-01   5.979882e-03
  2.768597e+00    4.577843e-01   5.925029e-03
  2.770807e+00    4.659186e-01   5.971638e-03
  2.773017e+00    4.637530e-01   5.951861e-03
  2.775228e+00    4.805122e-01   6.052664e-03
  2.777438e+00    4.717075e-01   5.991198e-03
  2.779649e+00    4.664876e-01   5.952135e-03
  2.781859e+00    4.683546e-01   5.958307e-03
  2.784070e+00    4.738719e-01   5.987481e-03
  2.786280e+00    4.625143e-01   5.909612e-03
  2.788491e+00    4.654916e-01   5.922830e-03
  2.790701e+00    4.664765e-01   5.923504e-03
  2.792912e+00    4.685968e-01   5.931042e-03
  2.795122e+00    4.712689e-01   5.942225e-03
  2.797333e+00    4.528480e-01   5.819509e-03
  2.799543e+00    4.744641e-01   5.950910e-03
  2.801753e+00    4.697764e-01   5.915640e-03
  2.803964e+00    4.759564e-01   5.948740e-03
  2.806174e+00    4.685583e-01   5.896232e-03
  2.808385e+00    4.701251e-01   5.899319e-03
  2.810595e+00    4.690886e-01   5.885987e-03
  2.812806e+00    4.725725e-01   5.901214e-03
  2.815016e+00    4.515266e-01   5.763679e-03
  2.817227e+00    4.641346e-01   5.869245e-03
  2.819437e+00    4.670475e-01   5.898640e-03
  2.821648e+00    4.505770e-01   5.795937e-03
  2.823858e+00    4.619827e-01   5.874099e-03
  2.826068e+00    4.567299e-01   5.845506e-03
  2.828279e+00    4.542934e-01   5.833856e-03
  2.830489e+00    4.612294e-01   5.881512e-03
  2.832700e+00    4.595734e-01   5.873476e-03
  2.834910e+00    4.622090e-01   5.892327e-03
  2.837121e+00    4.688455e-01   5.936198e-03
  2.839331e+00    4.594017e-01   5.877323e-03
  2.841542e+00    4.562565e-01   5.858161e-03
  2.843752e+00    4.530660e-01   5.838420e-03
  2.845963e+00    4.603046e-01   5.885262e-03
  2.848173e+00    4.628652e-01   5.901693e-03
  2.850383e+00    4.483092e-01   5.808451e-03
  2.852594e+00    4.654729e-01   5.918506e-03
  2.854804e+00    4.621856e-01   5.897080e-03
  2.857015e+00    4.512443e-01   5.826430e-03
  2.859225e+00    4.502724e-01   5.819905e-03
  2.861436e+00    4.644943e-01   5.910438e-03
  2.863646e+00    4.625314e-01   5.898001e-03
  2.865857e+00    4.524220e-01   5.833508e-03
  2.868067e+00    4.623388e-01   5.897309e-03
  2.870278e+00    4.550536e-01   5.850332e-03
  2.872488e+00    4.423161e-01   5.766732e-03
  2.874698e+00    4.363134e-01   5.726445e-03
  2.876909e+00    4.542366e-01   5.841557e-03
  2.879119e+00    4.639203e-01   5.901892e-03
  2.881330e+00    4.567332e-01   5.854531e-03
  2.883540e+00    4.510581e-01   5.816671e-03
  2.885751e+00    4.606047e-01   5.876265e-03
  2.887961e+00    4.502793e-01   5.808162e-03
  2.890172e+00    4.502877e-01   5.806631e-03
  2.892382e+00    4.503689e-01   5.805378e-03
  2.894593e+00    4.408627e-01   5.742000e-03
  2.896803e+00    4.562643e-01   5.839464e-03
  2.899014e+00    4.513613e-01   5.806118e-03
  2.901224e+00    4.509189e-01   5.801294e-03
  2.903434e+00    4.555990e-01   5.829394e-03
  2.905645e+00    4.499603e-01   5.791011e-03
  2.907855e+00    4.412275e-01   5.732467e-03
  2.910066e+00    4.523012e-01   5.801910e-03
  2.912276e+00    4.410394e-01   5.727135e-03
  2.914487e+00    4.580046e-01   5.833803e-03
  2.916697e+00    4.528197e-01   5.798455e-03
  2.918908e+00    4.544192e-01   5.806720e-03
  2.921118e+00    4.463608e-01   5.752335e-03
  2.923329e+00    4.400028e-01   5.708943e-03
  2.925539e+00    4.431319e-01   5.726967e-03
  2.927749e+00    4.465149e-01   5.746496e-03
  2.929960e+00    4.405869e-01   5.705494e-03
  2.932170e+00    4.595876e-01   5.824891e-03
  2.934381e+00    4.414479e-01   5.706396e-03
  2.936591e+00    4.332907e-01   5.650898e-03
  2.938802e+00    4.384178e-01   5.681577e-03
  2.941012e+00    4.492548e-01   5.749050e-03
  2.943223e+00    4.498259e-01   5.750029e-03
  2.945433e+00    4.481235e-01   5.735439e-03
  2.947644e+00    4.419245e-01   5.691553e-03
  2.949854e+00    4.433050e-01   5.696214e-03
  2.952064e+00    4.490198e-01   5.728640e-03
  2.954275e+00    4.412556e-01   5.674536e-03
  2.956485e+00    4.380029e-01   5.649470e-03
  2.958696e+00    4.493496e-01   5.717841e-03
  2.960906e+00    4.385563e-01   5.644647e-03
  2.963117e+00    4.376993e-01   5.634731e-03
  2.965327e+00    4.497024e-01   5.707577e-03
  2.967538e+00    4.463493e-01   5.683376e-03
  2.969748e+00    4.548979e-01   5.734732e-03
  2.971959e+00    4.433388e-01   5.658292e-03
  2.974169e+00    4.545087e-01   5.726571e-03
  2.976379e+00    4.349619e-01   5.599207e-03
  2.978590e+00    4.332323e-01   5.584998e-03
  2.980800e+00    4.385112e-01   5.616169e-03
  2.983011e+00    4.453861e-01   5.657251e-03
  2.985221e+00    4.533096e-01   5.704205e-03
  2.987432e+00    4.421527e-01   5.630509e-03
  2.989642e+00    4.431783e-01   5.634435e-03
  2.991853e+00    4.386820e-01   5.602559e-03
  2.994063e+00    4.347835e-01   5.574748e-03
  2.996274e+00    4.331912e-01   5.561444e-03
  2.998484e+00    4.481554e-01   5.653987e-03
  3.000694e+00    4.332248e-01   5.555637e-03
  3.002905e+00    4.456435e-01   5.631787e-03
  3.005115e+00    4.407724e-01   5.597978e-03
  3.007326e+00    4.487878e-01   5.645528e-03
  3.009536e+00    4.421390e-01   5.600328e-03
  3.011747e+00    4.474553e-01   5.630999e-03
  3.013957e+00    4.431985e-01   5.601007e-03
  3.016168e+00    4.359900e-01   5.552077e-03
  3.018378e+00    4.367728e-01   5.554064e-03
  3.020589e+00    4.492100e-01   5.629395e-03
  3.022799e+00    4.456577e-01   5.603950e-03
  3.025010e+00    4.410218e-01   5.571529e-03
  3.027220e+00    4.353955e-01   5.532839e-03
  3.029430e+00    4.401217e-01   5.559554e-03
  3.031641e+00    4.370209e-01   5.536880e-03
  3.033851e+00    4.326397e-01   5.505597e-03
  3.036062e+00    4.425631e-01   5.565627e-03
  3.038272e+00    4.419017e-01   5.557931e-03
  3.040483e+00    4.524696e-01   5.620764e-03
  3.042693e+00    4.485573e-01   5.593179e-03
  3.044904e+00    4.464122e-01   5.575776e-03
  3.047114e+00    4.375347e-01   5.515317e-03
  3.049325e+00    4.354299e-01   5.497711e-03
  3.051535e+00    4.500486e-01   5.584863e-03
  3.053745e+00    4.389238e-01   5.510710e-03
  3.055956e+00    4.457633e-01   5.548929e-03
  3.058166e+00    4.438103e-01   5.532530e-03
  3.060377e+00    4.425895e-01   5.520183e-03
  3.062587e+00    4.400434e-01   5.499717e-03
  3.064798e+00    4.305898e-01   5.436153e-03
  3.067008e+00    4.304428e-01   5.430597e-03
  3.069219e+00    4.307478e-01   5.428100e-03
  3.071429e+00    4.400125e-01   5.482686e-03
  3.073640e+00    4.318345e-01   5.428250e-03
  3.075850e+00    4.305281e-01   5.416511e-03
  3.078060e+00    4.422691e-01   5.486780e-03
  3.080271e+00    4.385691e-01   5.460369e-03
  3.082481e+00    4.396838e-01   5.463875e-03
  3.084692e+00    4.507641e-01   5.528912e-03
  3.086902e+00    4.431088e-01   5.478544e-03
  3.089113e+00    4.421950e-01   5.469326e-03
  3.091323e+00    4.456592e-01   5.487374e-03
  3.093534e+00    4.325348e-01   5.402627e-03
  3.095744e+00    4.358094e-01   5.419719e-03
  3.097955e+00    4.457318e-01   5.477529e-03
  3.100165e+00    4.412076e-01   5.446339e-03
  3.102375e+00    4.627589e-01   5.574306e-03
  3.104586e+00    4.320816e-01   5.382951e-03
  3.106796e+00    4.259013e-01   5.340840e-03
  3.109007e+00    4.531128e-01   5.505589e-03
  3.111217e+00    4.438422e-01   5.445306e-03
  3.113428e+00    4.349693e-01   5.387211e-03
  3.115638e+00    4.373972e-01   5.399042e-03
  3.117849e+00    4.339665e-01   5.374134e-03
  3.120059e+00    4.378258e-01   5.394534e-03
  3.122270e+00    4.407439e-01   5.409263e-03
  3.124480e+00    4.293820e-01   5.335444e-03
  3.126691e+00    4.437317e-01   5.420323e-03
  3.128901e+00    4.435182e-01   5.415875e-03
  3.131111e+00    4.433587e-01   5.411086e-03
  3.133322e+00    4.374341e-01   5.371397e-03
  3.135532e+00    4.414164e-01   5.392382e-03
  3.137743e+00    4.419833e-01   5.392387e-03
  3.139953e+00    4.263414e-01   5.292488e-03
  3.142164e+00    4.378639e-01   5.375475e-03
  3.144374e+00    4.319755e-01   5.367292e-03
  3.146585e+00    4.281088e-01   5.357517e-03
  3.148795e+00    4.282355e-01   5.368942e-03
  3.151006e+00    4.324721e-01   5.403868e-03
  3.153216e+00    4.216225e-01   5.342639e-03
  3.155426e+00    4.236221e-01   5.361465e-03
  3.157637e+00    4.307062e-01   5.411571e-03
  3.159847e+00    4.362150e-01   5.450913e-03
  3.162058e+00    4.298984e-01   5.415705e-03
  3.164268e+00    4.203254e-01   5.359014e-03
  3.166479e+00    4.397607e-01   5.485171e-03
  3.168689e+00    4.319249e-01   5.439426e-03
  3.170900e+00    4.231338e-01   5.386902e-03
  3.173110e+00    4.204491e-01   5.372589e-03
  3.175321e+00    4.236897e-01   5.395715e-03
  3.177531e+00    4.164536e-01   5.352095e-03
  3.179741e+00    4.450606e-01   5.534950e-03
  3.181952e+00    4.408569e-01   5.510902e-03
  3.184162e+00    4.206496e-01   5.385245e-03
  3.186373e+00    4.231346e-01   5.402703e-03
  3.188583e+00    4.268827e-01   5.428343e-03
  3.190794e+00    4.295764e-01   5.447187e-03
  3.193004e+00    4.212098e-01   5.395123e-03
  3.195215e+00    4.095654e-01   5.321450e-03
  3.197425e+00    4.363928e-01   5.494190e-03
  3.199636e+00    4.270376e-01   5.434224e-03
  3.201846e+00    4.305942e-01   5.456208e-03
  3.204056e+00    4.280870e-01   5.441175e-03
  3.206267e+00    4.192251e-01   5.385397e-03
  3.208477e+00    4.307847e-01   5.460052e-03
  3.210688e+00    4.254416e-01   5.426942e-03
  3.212898e+00    4.180210e-01   5.379960e-03
  3.215109e+00    4.218872e-01   5.405522e-03
  3.217319e+00    4.173780e-01   5.377183e-03
  3.219530e+00    4.132095e-01   5.350657e-03
  3.221740e+00    4.122764e-01   5.345156e-03
  3.223951e+00    4.127970e-01   5.348990e-03
  3.226161e+00    4.136143e-01   5.354467e-03
  3.228372e+00    4.089434e-01   5.324653e-03
  3.230582e+00    4.088074e-01   5.323928e-03
  3.232792e+00    3.984104e-01   5.255986e-03
  3.235003e+00    4.259440e-01   5.434809e-03
  3.237213e+00    4.233209e-01   5.418170e-03
  3.239424e+00    4.055876e-01   5.303462e-03
  3.241634e+00    4.209357e-01   5.402981e-03
  3.243845e+00    4.333779e-01   5.482350e-03
  3.246055e+00    4.209199e-01   5.402702e-03
  3.248266e+00    4.014614e-01   5.276547e-03
  3.250476e+00    4.139687e-01   5.357792e-03
  3.252687e+00    4.182812e-01   5.385548e-03
  3.254897e+00    4.165321e-01   5.374175e-03
  3.257107e+00    4.048642e-01   5.298051e-03
  3.259318e+00    4.251270e-01   5.428778e-03
  3.261528e+00    4.244765e-01   5.424497e-03
  3.263739e+00    4.087229e-01   5.322336e-03
  3.265949e+00    4.121342e-01   5.344369e-03
  3.268160e+00    4.292833e-01   5.454011e-03
  3.270370e+00    4.258407e-01   5.431594e-03
  3.272581e+00    4.217507e-01   5.405168e-03
  3.274791e+00    4.181478e-01   5.381508e-03
  3.277002e+00    4.207090e-01   5.397410e-03
  3.279212e+00    4.103054e-01   5.329879e-03
  3.281422e+00    4.166847e-01   5.370581e-03
  3.283633e+00    4.149765e-01   5.358889e-03
  3.285843e+00    4.112512e-01   5.334439e-03
  3.288054e+00    4.095915e-01   5.322751e-03
  3.290264e+00    4.156753e-01   5.361840e-03
  3.292475e+00    4.117423e-01   5.335562e-03
  3.294685e+00    4.122197e-01   5.338048e-03
  3.296896e+00    4.023642e-01   5.273105e-03
  3.299106e+00    4.116769e-01   5.333224e-03
  3.301317e+00    4.146975e-01   5.351758e-03
  3.303527e+00    4.248721e-01   5.416534e-03
  3.305737e+00    4.141216e-01   5.346540e-03
  3.307948e+00    4.082047e-01   5.307551e-03
  3.310158e+00    4.213884e-01   5.391705e-03
  3.312369e+00    4.275680e-01   5.430233e-03
  3.314579e+00    4.069659e-01   5.296898e-03
  3.316790e+00    4.250590e-01   5.412637e-03
  3.319000e+00    4.084529e-01   5.304721e-03
  3.321211e+00    4.174718e-01   5.362324e-03
  3.323421e+00    4.229349e-01   5.396120e-03
  3.325632e+00    4.037349e-01   5.271338e-03
  3.327842e+00    3.985895e-01   5.236736e-03
  3.330052e+00    4.373360e-01   5.484273e-03
  3.332263e+00    4.256188e-01   5.409318e-03
  3.334473e+00    4.147680e-01   5.338996e-03
  3.336684e+00    4.169950e-01   5.352041e-03
  3.338894e+00    4.261849e-01   5.409859e-03
  3.341105e+00    4.119338e-01   5.317461e-03
  3.343315e+00    4.050151e-01   5.271466e-03
  3.345526e+00    4.180048e-01   5.354457e-03
  3.347736e+00    4.225308e-01   5.381957e-03
  3.349947e+00    4.214980e-01   5.374437e-03
  3.352157e+00    4.050498e-01   5.267366e-03
  3.354368e+00    4.126282e-01   5.315138e-03
  3.356578e+00    4.091445e-01   5.291651e-03
  3.358788e+00    4.117694e-01   5.307285e-03
  3.360999e+00    4.023989e-01   5.245314e-03
  3.363209e+00    3.955224e-01   5.199311e-03
  3.365420e+00    4.140261e-01   5.318029e-03
  3.367630e+00    4.034121e-01   5.248460e-03
  3.369841e+00    3.990871e-01   5.218802e-03
  3.372051e+00    4.054119e-01   5.258077e-03
  3.374262e+00    4.121778e-01   5.299330e-03
  3.376472e+00    4.075795e-01   5.267275e-03
  3.378683e+00    4.066913e-01   5.259058e-03
  3.380893e+00    4.001217e-01   5.214119e-03
  3.383103e+00    3.838301e-01   5.104247e-03
  3.385314e+00    3.995577e-01   5.205602e-03
  3.387524e+00    4.010302e-01   5.212492e-03
  3.389735e+00    3.953409e-01   5.172819e-03
  3.391945e+00    4.082963e-01   5.253240e-03
  3.394156e+00    4.014454e-01   5.204810e-03
  3.396366e+00    3.957787e-01   5.164634e-03
  3.398577e+00    3.973478e-01   5.171835e-03
  3.400787e+00    3.943219e-01   5.163791e-03
  3.402998e+00    3.912865e-01   5.181050e-03
  3.405208e+00    3.849164e-01   5.158848e-03
  3.407418e+00    3.797899e-01   5.139744e-03
  3.409629e+00    3.701839e-01   5.087718e-03
  3.411839e+00    3.744057e-01   5.128070e-03
  3.414050e+00    3.709610e-01   5.115041e-03
  3.416260e+00    3.743114e-01   5.147478e-03
  3.418471e+00    3.780529e-01   5.182371e-03
  3.420681e+00    3.845338e-01   5.235017e-03
  3.422892e+00    3.873007e-01   5.261775e-03
  3.425102e+00    3.887623e-01   5.279498e-03
  3.427313e+00    3.856851e-01   5.265741e-03
  3.429523e+00    3.655623e-01   5.133389e-03
  3.431733e+00    3.718700e-01   5.184025e-03
  3.433944e+00    3.819277e-01   5.260125e-03
  3.436154e+00    3.699574e-01   5.183176e-03
  3.438365e+00    3.585874e-01   5.108673e-03
  3.440575e+00    3.587636e-01   5.115650e-03
  3.442786e+00    3.535243e-01   5.083586e-03
  3.444996e+00    3.739724e-01   5.234005e-03
  3.447207e+00    3.625194e-01   5.158455e-03
  3.449417e+00    3.505769e-01   5.112420e-03
  3.451628e+00    3.532808e-01   5.160909e-03
  3.453838e+00    3.627611e-01   5.250712e-03
  3.456049e+00    3.594307e-01   5.250210e-03
  3.458259e+00    3.545301e-01   5.235876e-03
  3.460469e+00    3.556019e-01   5.263283e-03
  3.462680e+00    3.516229e-01   5.252408e-03
  3.464890e+00    3.551740e-01   5.296391e-03
  3.467101e+00    3.648014e-01   5.385099e-03
  3.469311e+00    3.773998e-01   5.493990e-03
  3.471522e+00    3.794154e-01   5.525150e-03
  3.473732e+00    3.889919e-01   5.610624e-03
  3.475943e+00    3.901133e-01   5.634514e-03
  3.478153e+00    4.101391e-01   5.793259e-03
  3.480364e+00    3.962775e-01   5.709685e-03
  3.482574e+00    3.974047e-01   5.733036e-03
  3.484784e+00    3.983214e-01   5.754280e-03
  3.486995e+00    4.130097e-01   5.874457e-03
  3.489205e+00    4.239307e-01   5.966313e-03
  3.491416e+00    4.194849e-01   5.949717e-03
  3.493626e+00    4.476836e-01   6.161237e-03
  3.495837e+00    4.419068e-01   6.136161e-03
  3.498047e+00    4.417745e-01   6.149668e-03
  3.500258e+00    4.593796e-01   6.285700e-03
  3.502468e+00    4.525194e-01   6.253004e-03
  3.504679e+00    4.666273e-01   6.364300e-03
  3.506889e+00    4.646728e-01   6.365363e-03
  3.509099e+00    4.887788e-01   6.543025e-03
  3.511310e+00    4.707693e-01   6.435760e-03
  3.513520e+00    4.733039e-01   6.467311e-03
  3.515731e+00    4.835711e-01   6.551430e-03
  3.517941e+00    4.821614e-01   6.556130e-03
  3.520152e+00    4.910814e-01   6.630744e-03
  3.522362e+00    4.948046e-01   6.670243e-03
  3.524573e+00    4.978722e-01   6.705025e-03
  3.526783e+00    4.977942e-01   6.717724e-03
  3.528994e+00    4.993100e-01   6.739957e-03
  3.531204e+00    5.112360e-01   6.832283e-03
  3.533414e+00    5.280439e-01   6.955824e-03
  3.535625e+00    5.292712e-01   6.976286e-03
  3.537835e+00    5.371472e-01   7.040139e-03
  3.540046e+00    5.483450e-01   7.122227e-03
  3.542256e+00    5.385476e-01   7.065854e-03
  3.544467e+00    5.301535e-01   7.018146e-03
  3.546677e+00    5.314323e-01   7.034149e-03
  3.548888e+00    5.313872e-01   7.041307e-03
  3.551098e+00    5.290148e-01   7.032833e-03
  3.553309e+00    5.293615e-01   7.043235e-03
  3.555519e+00    5.467129e-01   7.169144e-03
  3.557729e+00    5.298057e-01   7.069079e-03
  3.559940e+00    5.258110e-01   7.053814e-03
  3.562150e+00    5.365921e-01   7.137473e-03
  3.564361e+00    5.351318e-01   7.141076e-03
  3.566571e+00    5.460569e-01   7.227537e-03
  3.568782e+00    5.326758e-01   7.152556e-03
  3.570992e+00    5.244251e-01   7.110520e-03
  3.573203e+00    5.404814e-01   7.232752e-03
  3.575413e+00    5.027434e-01   6.989034e-03
  3.577624e+00    5.337216e-01   7.215188e-03
  3.579834e+00    5.229087e-01   7.155506e-03
  3.582045e+00    5.228021e-01   7.168578e-03
  3.584255e+00    5.459130e-01   7.339522e-03
  3.586465e+00    5.191147e-01   7.170830e-03
  3.588676e+00    5.276254e-01   7.243429e-03
  3.590886e+00    5.305882e-01   7.277378e-03
  3.593097e+00    5.468092e-01   7.402437e-03
  3.595307e+00    5.345510e-01   7.332928e-03
  3.597518e+00    5.279226e-01   7.301432e-03
  3.599728e+00    5.120318e-01   7.204472e-03
  3.601939e+00    5.314789e-01   7.354006e-03
  3.604149e+00    5.345385e-01   7.389561e-03
  3.606360e+00    5.159120e-01   7.273556e-03
  3.608570e+00    5.197969e-01   7.314842e-03
  3.610780e+00    5.246397e-01   7.359777e-03
  3.612991e+00    5.419317e-01   7.490159e-03
  3.615201e+00    5.412661e-01   7.495443e-03
  3.617412e+00    5.442868e-01   7.523622e-03
  3.619622e+00    5.371776e-01   7.480361e-03
  3.621833e+00    5.095263e-01   7.291795e-03
  3.624043e+00    5.213361e-01   7.385226e-03
  3.626254e+00    5.265796e-01   7.431888e-03
  3.628464e+00    5.227112e-01   7.415417e-03
  3.630675e+00    5.163496e-01   7.384013e-03
  3.632885e+00    5.165409e-01   7.399619e-03
  3.635095e+00    5.336933e-01   7.535820e-03
  3.637306e+00    5.510793e-01   7.672227e-03
  3.639516e+00    5.332786e-01   7.561832e-03
  3.641727e+00    5.100045e-01   7.409214e-03
  3.643937e+00    5.331089e-01   7.589744e-03
  3.646148e+00    5.380538e-01   7.639502e-03
  3.648358e+00    5.494985e-01   7.735431e-03
  3.650569e+00    5.554698e-01   7.792395e-03
  3.652779e+00    5.366449e-01   7.674049e-03
  3.654990e+00    5.373772e-01   7.694237e-03
  3.657200e+00    5.245345e-01   7.616502e-03
  3.659410e+00    5.310425e-01   7.678602e-03
  3.661621e+00    5.198822e-01   7.612365e-03
  3.663831e+00    5.293828e-01   7.696714e-03
  3.666042e+00    5.471990e-01   7.840563e-03
  3.668252e+00    5.152459e-01   7.623171e-03
  3.670463e+00    5.515441e-01   7.902654e-03
  3.672673e+00    5.287269e-01   7.752897e-03
  3.674884e+00    5.387565e-01   7.841532e-03
  3.677094e+00    5.295362e-01   7.789704e-03
  3.679305e+00    5.304229e-01   7.811730e-03
  3.681515e+00    5.185241e-01   7.739125e-03
  3.683726e+00    5.106127e-01   7.695316e-03
  3.685936e+00    5.121057e-01   7.722022e-03
  3.688146e+00    5.030686e-01   7.668989e-03
  3.690357e+00    5.193549e-01   7.807932e-03
  3.692567e+00    5.160273e-01   7.798883e-03
  3.694778e+00    5.208552e-01   7.851175e-03
  3.696988e+00    5.118266e-01   7.798650e-03
  3.699199e+00    5.193498e-01   7.871863e-03
  3.701409e+00    5.323334e-01   7.986164e-03
  3.703620e+00    5.167689e-01   7.884730e-03
  3.705830e+00    5.338128e-01   8.030245e-03
  3.708041e+00    5.343285e-01   8.050866e-03
  3.710251e+00    5.212539e-01   7.968462e-03
  3.712461e+00    5.190231e-01   7.968048e-03
  3.714672e+00    5.114498e-01   7.926291e-03
  3.716882e+00    5.160242e-01   7.978249e-03
  3.719093e+00    5.318747e-01   8.117229e-03
  3.721303e+00    5.061259e-01   7.935052e-03
  3.723514e+00    5.023997e-01   7.922718e-03
  3.725724e+00    5.119547e-01   8.014784e-03
  3.727935e+00    5.037640e-01   7.967656e-03
  3.730145e+00    4.939564e-01   7.906632e-03
  3.732356e+00    4.938579e-01   7.922955e-03
  3.734566e+00    5.249174e-01   8.186047e-03
  3.736776e+00    4.881514e-01   7.911458e-03
  3.738987e+00    5.249611e-01   8.222171e-03
  3.741197e+00    4.967881e-01   8.016362e-03
  3.743408e+00    4.797283e-01   7.894871e-03
  3.745618e+00    4.986897e-01   8.067423e-03
  3.747829e+00    4.993843e-01   8.090941e-03
  3.750039e+00    5.187705e-01   8.264977e-03
  3.752250e+00    5.179523e-01   8.277105e-03
  3.754460e+00    4.981119e-01   8.135367e-03
  3.756671e+00    4.853531e-01   8.048771e-03
  3.758881e+00    5.305208e-01   8.433999e-03
  3.761091e+00    5.200552e-01   8.369820e-03
  3.763302e+00    4.952501e-01   8.186572e-03
  3.765512e+00    4.841468e-01   8.113074e-03
  3.767723e+00    5.031329e-01   8.289930e-03
  3.769933e+00    4.768521e-01   8.089270e-03
  3.772144e+00    4.751923e-01   8.094144e-03
  3.774354e+00    4.975977e-01   8.302404e-03
  3.776565e+00    5.046906e-01   8.381264e-03
  3.778775e+00    4.824543e-01   8.214056e-03
  3.780986e+00    4.957631e-01   8.346722e-03
  3.783196e+00    5.105194e-01   8.490371e-03
  3.785407e+00    5.268999e-01   8.646475e-03
  3.787617e+00    4.927915e-01   8.382488e-03
  3.789827e+00    4.806304e-01   8.298437e-03
  3.792038e+00    5.015857e-01   8.498233e-03
  3.794248e+00    5.023289e-01   8.525767e-03
  3.796459e+00    4.899517e-01   8.441166e-03
  3.798669e+00    5.098008e-01   8.631984e-03
  3.800880e+00    5.210745e-01   8.748820e-03
  3.803090e+00    5.095167e-01   8.673271e-03
  3.805301e+00    5.003252e-01   8.616785e-03
  3.807511e+00    4.997351e-01   8.633728e-03
  3.809722e+00    5.015737e-01   8.671772e-03
  3.811932e+00    5.233861e-01   8.881158e-03
  3.814142e+00    5.030537e-01   8.729871e-03
  3.816353e+00    5.146730e-01   8.853339e-03
  3.818563e+00    4.943593e-01   8.699868e-03
  3.820774e+00    5.008866e-01   8.780276e-03
  3.822984e+00    5.057567e-01   8.846465e-03
  3.825195e+00    4.953938e-01   8.779033e-03
  3.827405e+00    4.838459e-01   8.699655e-03
  3.829616e+00    4.807957e-01   8.695841e-03
  3.831826e+00    4.765237e-01   8.680803e-03
  3.834037e+00    4.887044e-01   8.815267e-03
  3.836247e+00    4.671681e-01   8.642903e-03
  3.838457e+00    4.745197e-01   8.734957e-03
  3.840668e+00    4.938733e-01   8.936547e-03
  3.842878e+00    5.013200e-01   9.029288e-03
  3.845089e+00    5.017046e-01   9.058521e-03
  3.847299e+00    4.663506e-01   8.758497e-03
  3.849510e+00    5.155542e-01   9.235337e-03
  3.851720e+00    5.160993e-01   9.262081e-03
  3.853931e+00    4.993130e-01   9.129327e-03
  3.856141e+00    4.828973e-01   8.996839e-03
  3.858352e+00    4.849174e-01   9.034581e-03
  3.860562e+00    4.539014e-01   8.759510e-03
  3.862772e+00    4.792585e-01   9.020019e-03
  3.864983e+00    4.746082e-01   8.995499e-03
  3.867193e+00    5.056224e-01   9.304734e-03
  3.869404e+00    4.830174e-01   9.114051e-03
  3.871614e+00    4.800717e-01   9.105821e-03
  3.873825e+00    4.904439e-01   9.223963e-03
  3.876035e+00    5.023423e-01   9.355958e-03
  3.878246e+00    5.105450e-01   9.458286e-03
  3.880456e+00    4.806750e-01   9.206082e-03
  3.882667e+00    5.129706e-01   9.540217e-03
  3.884877e+00    5.181922e-01   9.619243e-03
  3.887087e+00    5.091910e-01   9.565773e-03
  3.889298e+00    4.896094e-01   9.410400e-03
  3.891508e+00    5.117863e-01   9.652277e-03
  3.893719e+00    4.980985e-01   9.553595e-03
  3.895929e+00    4.876362e-01   9.484041e-03
  3.898140e+00    4.860567e-01   9.500181e-03
  3.900350e+00    5.034959e-01   9.701706e-03
  3.902561e+00    4.825474e-01   9.529857e-03
  3.904771e+00    4.735792e-01   9.473114e-03
  3.906982e+00    5.074282e-01   9.839590e-03
  3.909192e+00    4.962995e-01   9.764862e-03
  3.911403e+00    4.819641e-01   9.656472e-03
  3.913613e+00    5.072774e-01   9.941794e-03
  3.915823e+00    4.941523e-01   9.847423e-03
  3.918034e+00    4.550757e-01   9.483971e-03
  3.920244e+00    4.820163e-01   9.796193e-03
  3.922455e+00    4.743952e-01   9.754041e-03
  3.924665e+00    4.489855e-01   9.524114e-03
  3.926876e+00    4.680016e-01   9.760042e-03
  3.929086e+00    4.882347e-01   1.000619e-02
  3.931297e+00    4.833792e-01   9.991050e-03
  3.933507e+00    4.617623e-01   9.793176e-03
  3.935718e+00    4.590697e-01   9.792457e-03
  3.937928e+00    4.873342e-01   1.011892e-02
  3.940138e+00    4.773752e-01   1.004396e-02
  3.942349e+00    4.881676e-01   1.018680e-02
  3.944559e+00    4.780938e-01   1.011092e-02
  3.946770e+00    4.528941e-01   9.869889e-03
  3.948980e+00    4.917466e-01   1.031536e-02
  3.951191e+00    4.942460e-01   1.037274e-02
  3.953401e+00    4.795410e-01   1.024834e-02
  3.955612e+00    4.635434e-01   1.010694e-02
  3.957822e+00    4.379144e-01   9.853582e-03
  3.960033e+00    4.527662e-01   1.005071e-02
  3.962243e+00    4.707748e-01   1.028098e-02
  3.964453e+00    4.765814e-01   1.037704e-02
  3.966664e+00    4.635167e-01   1.026649e-02
  3.968874e+00    4.703484e-01   1.036969e-02
  3.971085e+00    4.687110e-01   1.037328e-02
  3.973295e+00    4.767087e-01   1.048265e-02
  3.975506e+00    4.448004e-01   1.014644e-02
  3.977716e+00    4.750494e-01   1.050745e-02
  3.979927e+00    4.621558e-01   1.038556e-02
  3.982137e+00    4.666100e-01   1.045729e-02
  3.984348e+00    4.662180e-01   1.047506e-02
  3.986558e+00    4.707289e-01   1.054755e-02
  3.988768e+00    4.834898e-01   1.071256e-02
  3.990979e+00    4.711808e-01   1.059775e-02
  3.993189e+00    4.644361e-01   1.054420e-02
  3.995400e+00    4.409942e-01   1.029704e-02
  3.997610e+00    4.555872e-01   1.049494e-02
  3.999821e+00    4.478310e-01   1.044136e-02
  4.002031e+00    4.726889e-01   1.076501e-02
  4.004242e+00    4.558484e-01   1.060895e-02
  4.006452e+00    4.655787e-01   1.076012e-02
  4.008663e+00    4.704175e-01   1.085524e-02
  4.010873e+00    4.919418e-01   1.114116e-02
  4.013084e+00    4.575682e-01   1.078468e-02
  4.015294e+00    4.815323e-01   1.110434e-02
  4.017504e+00    4.797944e-01   1.112589e-02
  4.019715e+00    4.581414e-01   1.091331e-02
  4.021925e+00    4.774898e-01   1.118409e-02
  4.024136e+00    4.805307e-01   1.126307e-02
  4.026346e+00    4.641952e-01   1.111330e-02
  4.028557e+00    4.863999e-01   1.142035e-02
  4.030767e+00    4.648798e-01   1.120974e-02
  4.032978e+00    4.756554e-01   1.138466e-02
  4.035188e+00    4.419866e-01   1.101861e-02
  4.037399e+00    4.464492e-01   1.111978e-02
  4.039609e+00    4.570418e-01   1.129722e-02
  4.041819e+00    4.749919e-01   1.156541e-02
  4.044030e+00    4.361182e-01   1.112941e-02
  4.046240e+00    4.346731e-01   1.115828e-02
  4.048451e+00    4.530776e-01   1.144124e-02
  4.050661e+00    4.807643e-01   1.183706e-02
  4.052872e+00    4.501935e-01   1.150557e-02
  4.055082e+00    4.525717e-01   1.158765e-02
  4.057293e+00    4.815254e-01   1.200612e-02
  4.059503e+00    4.837790e-01   1.208920e-02
  4.061714e+00    4.348086e-01   1.151445e-02
  4.063924e+00    4.536934e-01   1.181689e-02
  4.066134e+00    4.359596e-01   1.163829e-02
  4.068345e+00    4.643475e-01   1.206908e-02
  4.070555e+00    5.149985e-01   1.277158e-02
  4.072766e+00    4.584228e-01   1.210907e-02
  4.074976e+00    4.725737e-01   1.235570e-02
  4.077187e+00    5.023946e-01   1.280296e-02
  4.079397e+00    4.923474e-01   1.273920e-02
  4.081608e+00    4.816082e-01   1.266488e-02
  4.083818e+00    4.940857e-01   1.289457e-02
  4.086029e+00    4.615321e-01   1.252837e-02
  4.088239e+00    4.607984e-01   1.258573e-02
  4.090449e+00    4.769030e-01   1.287311e-02
  4.092660e+00    4.930353e-01   1.316123e-02
  4.094870e+00    4.439582e-01   1.255858e-02
  4.097081e+00    4.255504e-01   1.236264e-02
  4.099291e+00    4.256630e-01   1.241532e-02
  4.101502e+00    4.884973e-01   1.334998e-02
  4.103712e+00    4.837471e-01   1.333432e-02
  4.105923e+00    4.831928e-01   1.337829e-02
  4.108133e+00    4.782492e-01   1.336096e-02
  4.110344e+00    4.519828e-01   1.303859e-02
  4.112554e+00    4.634336e-01   1.325492e-02
  4.114764e+00    4.322655e-01   1.285281e-02
  4.116975e+00    4.900852e-01   1.373930e-02
  4.119185e+00    4.831614e-01   1.369743e-02
  4.121396e+00    4.783605e-01   1.368549e-02
  4.123606e+00    4.825276e-01   1.380128e-02
  4.125817e+00    4.781262e-01   1.379585e-02
  4.128027e+00    4.866184e-01   1.397645e-02
  4.130238e+00    4.526368e-01   1.353743e-02
  4.132448e+00    4.618172e-01   1.373327e-02
  4.134659e+00    4.634208e-01   1.381626e-02
  4.136869e+00    4.906624e-01   1.427995e-02
  4.139080e+00    5.338537e-01   1.496234e-02
  4.141290e+00    5.112266e-01   1.470694e-02
  4.143500e+00    4.544396e-01   1.392976e-02
  4.145711e+00    4.941676e-01   1.459381e-02
  4.147921e+00    4.841352e-01   1.451130e-02
  4.150132e+00    4.780055e-01   1.448778e-02
  4.152342e+00    4.904888e-01   1.474691e-02
  4.154553e+00    5.256343e-01   1.533890e-02
  4.156763e+00    4.357339e-01   1.403449e-02
  4.158974e+00    5.095298e-01   1.525299e-02
  4.161184e+00    4.522737e-01   1.444177e-02
  4.163395e+00    5.004846e-01   1.526925e-02
  4.165605e+00    4.976898e-01   1.530607e-02
  4.167815e+00    4.625793e-01   1.483326e-02
  4.170026e+00    4.811858e-01   1.520833e-02
  4.172236e+00    4.339943e-01   1.452128e-02
  4.174447e+00    4.495414e-01   1.485947e-02
  4.176657e+00    4.899852e-01   1.559842e-02
  4.178868e+00    4.706467e-01   1.537415e-02
  4.181078e+00    4.557353e-01   1.521376e-02
  4.183289e+00    4.506802e-01   1.521560e-02
  4.185499e+00    4.958273e-01   1.605391e-02
  4.187710e+00    4.341805e-01   1.511079e-02
  4.189920e+00    4.257884e-01   1.505423e-02
  4.192130e+00    4.821492e-01   1.611727e-02
  4.194341e+00    5.006316e-01   1.652410e-02
  4.196551e+00    4.743564e-01   1.618673e-02
  4.198762e+00    4.817979e-01   1.641644e-02
  4.200972e+00    4.871738e-01   1.661488e-02
  4.203183e+00    4.344500e-01   1.579332e-02
  4.205393e+00    5.067957e-01   1.717115e-02
  4.207604e+00    5.008497e-01   1.718683e-02
  4.209814e+00    5.014483e-01   1.731484e-02
  4.212025e+00    4.851552e-01   1.715208e-02
  4.214235e+00    4.835267e-01   1.724434e-02
  4.216445e+00    4.448338e-01   1.665990e-02
  4.218656e+00    4.236428e-01   1.638014e-02
  4.220866e+00    3.908747e-01   1.585029e-02
  4.223077e+00    4.437516e-01   1.701827e-02
  4.225287e+00    4.263687e-01   1.681257e-02
  4.227498e+00    4.471682e-01   1.735312e-02
  4.229708e+00    4.731816e-01   1.799578e-02
  4.231919e+00    4.852624e-01   1.837465e-02
  4.234129e+00    5.041550e-01   1.888630e-02
  4.236340e+00    4.470996e-01   1.793786e-02
  4.238550e+00    4.458969e-01   1.807142e-02
  4.240761e+00    4.839809e-01   1.899392e-02
  4.242971e+00    4.522973e-01   1.853009e-02
  4.245181e+00    4.465306e-01   1.858409e-02
  4.247392e+00    4.066616e-01   1.790123e-02
  4.249602e+00    4.533660e-01   1.908856e-02
  4.251813e+00    4.632766e-01   1.948646e-02
  4.254023e+00    4.455681e-01   1.930291e-02
  4.256234e+00    4.751956e-01   2.014749e-02
  4.258444e+00    4.994706e-01   2.087166e-02
  4.260655e+00    4.932329e-01   2.096928e-02
  4.262865e+00    4.259594e-01   1.970767e-02
  4.265076e+00    4.175507e-01   1.973415e-02
  4.267286e+00    4.084838e-01   1.975000e-02
  4.269496e+00    4.340313e-01   2.060673e-02
  4.271707e+00    3.845301e-01   1.963591e-02
  4.273917e+00    4.064611e-01   2.044846e-02
  4.276128e+00    4.688815e-01   2.225480e-02
  4.278338e+00    4.337596e-01   2.169126e-02
  4.280549e+00    3.880024e-01   2.080899e-02
  4.282759e+00    4.802341e-01   2.348331e-02
  4.284970e+00    4.886166e-01   2.403809e-02
  4.287180e+00    4.404506e-01   2.309594e-02
  4.289391e+00    4.610625e-01   2.380774e-02
  4.291601e+00    4.550357e-01   2.384026e-02
  4.293811e+00    3.684354e-01   2.162011e-02
  4.296022e+00    4.398395e-01   2.381156e-02
  4.298232e+00    5.206851e-01   2.612541e-02
  4.300443e+00    4.448441e-01   2.434734e-02
  4.302653e+00    3.241382e-01   2.096264e-02
  4.304864e+00    4.195044e-01   2.405392e-02
  4.307074e+00    5.054484e-01   2.664155e-02
  4.309285e+00    4.738700e-01   2.602991e-02
  4.311495e+00    5.033115e-01   2.707693e-02
  4.313706e+00    4.670366e-01   2.632834e-02
  4.315916e+00    4.450228e-01   2.595352e-02
  4.318126e+00    4.709650e-01   2.696270e-02
  4.320337e+00    3.311073e-01   2.283766e-02
  4.322547e+00    4.245965e-01   2.613404e-02
  4.324758e+00    4.232194e-01   2.636342e-02
  4.326968e+00    5.295365e-01   2.982155e-02
  4.329179e+00    5.618430e-01   3.105673e-02
  4.331389e+00    3.868305e-01   2.606704e-02
  4.333600e+00    3.140855e-01   2.376835e-02
  4.335810e+00    4.244365e-01   2.795861e-02
  4.338021e+00    3.695921e-01   2.642383e-02
  4.340231e+00    3.541535e-01   2.619103e-02
  4.342442e+00    4.816812e-01   3.095376e-02
  4.344652e+00    4.163628e-01   2.917004e-02
  4.346862e+00    4.033627e-01   2.911299e-02
  4.349073e+00    4.901526e-01   3.255947e-02
  4.351283e+00    4.377818e-01   3.123109e-02
  4.353494e+00    4.482575e-01   3.209013e-02
  4.355704e+00    4.260924e-01   3.179056e-02
  4.357915e+00    4.577883e-01   3.350052e-02
  4.360125e+00    4.779838e-01   3.481543e-02
  4.362336e+00    4.880084e-01   3.582067e-02
  4.364546e+00    3.399238e-01   3.043897e-02
  4.366757e+00    4.878659e-01   3.719268e-02
  4.368967e+00    2.859358e-01   2.904050e-02
  4.371177e+00    3.953962e-01   3.487672e-02
  4.373388e+00    3.316693e-01   3.265632e-02
  4.375598e+00    5.840220e-01   4.432191e-02
  4.377809e+00    3.795358e-01   3.663605e-02
  4.380019e+00    3.856855e-01   3.785793e-02
  4.382230e+00    4.897424e-01   4.385349e-02
  4.384440e+00    3.603643e-01   3.869796e-02
  4.386651e+00    4.603992e-01   4.508933e-02
  4.388861e+00    5.426999e-01   5.059959e-02
  4.391072e+00    4.999594e-01   5.026931e-02
  4.393282e+00    4.628949e-01   5.024309e-02
  4.395492e+00    3.109407e-01   4.288827e-02
  4.397703e+00    4.564343e-01   5.434007e-02
  4.399913e+00    3.826587e-01   5.227125e-02
  4.402124e+00    4.091733e-01   5.711488e-02
  4.404334e+00    2.793535e-01   5.017069e-02
  4.406545e+00    2.063762e-01   4.632152e-02
  4.408755e+00    4.887162e-01   7.731739e-02
  4.410966e+00    3.054613e-01   6.765819e-02
  4.413176e+00    2.679586e-01   7.171857e-02
  4.415387e+00   -3.118202e-01            nan
  4.417597e+00   -1.961897e+00            nan
  4.419807e+00    1.372970e-01   1.330704e-01
