# == pyFAI calibration ==
# Distance Sample to Detector: 0.216 m
# PONI: 1.166e-01, 1.308e-01 m
# Rotations: 0.000000 0.000000 0.000000 rad
# 
# == Fit2d calibration ==
# Distance Sample-beamCenter: 216.000 mm
# Center: x=1744.293, y=1555.000 pix
# Tilt: 0.000 deg  TiltPlanRot: 0.000 deg
# 
# Detector Eiger 9M	 PixelSize= 7.500e-05, 7.500e-05 m
#    Detector has a mask: True 
#    Detector has a dark current: False 
#    detector has a flat field: False 
# 
# Wavelength: 9.8e-11 m
# Mask applied: from detector
# Dark current applied: False
# Flat field applied: False
# Polarization factor: None
# Normalization factor: 1.0
# 
# Headers of the input frame:
# {
# "_array_data.header_convention": "SLS_1.0",
# "_array_data.header_contents": "# Detector: Dectris Eiger 9M, S/N E-18-0102\r\n# Pixel_size 75e-6 m x 75e-6 m\r\n# Silicon sensor, thickness 0.000450 m\r\n# Exposure_time 0.024997 s\r\n# Exposure_period 0.025000 s\r\n# Count_cutoff 62318 counts\r\n# Wavelength 0.980106 A\r\n# Detector_distance 0.215992 m\r\n# Beam_xy (1555, 1744) pixels\r\n# Start_angle 0.000000 deg.\r\n# Angle_increment 0.000000 deg.",
# "Content-Type": "application/octet-stream;",
# "conversions": "x-CBF_BYTE_OFFSET",
# "Content-Transfer-Encoding": "BINARY",
# "X-Binary-Size": "10166594",
# "X-Binary-ID": "1",
# "X-Binary-Element-Type": "signed 32-bit integer",
# "X-Binary-Element-Byte-Order": "LITTLE_ENDIAN",
# "Content-MD5": "BEFnv7b89Yvu3EFblNK1Mw==",
# "X-Binary-Number-of-Elements": "10166590",
# "X-Binary-Size-Fastest-Dimension": "3110",
# "X-Binary-Size-Second-Dimension": "3269",
# "X-Binary-Size-Padding": "4095"
# }
# --> H:/Proxima2a_2019-04-05/RAW_DATA/C5_gel17_position5/C5_mesh_1_data.cbf/C5_mesh_1_data.cbf000065.dat
#        q_A^-1              I           sigma 
  1.105228e-03    1.814204e+00   7.288362e-01
  3.315685e-03    1.990931e+00   4.641662e-01
  5.526141e-03    1.472494e+00   3.086731e-01
  7.736597e-03    1.036109e+00   2.187374e-01
  9.947054e-03    1.410228e+00   2.249682e-01
  1.215751e-02    1.385248e+00   2.016195e-01
  1.436797e-02    1.442225e+00   1.892310e-01
  1.657842e-02    1.485470e+00   1.787625e-01
  1.878888e-02    1.386758e+00   1.622422e-01
  2.099934e-02    1.539434e+00   1.617270e-01
  2.320979e-02    1.419263e+00   1.476945e-01
  2.542025e-02    1.175776e+00   1.284611e-01
  2.763070e-02    1.299157e+00   1.295153e-01
  2.984116e-02    1.441175e+00   1.312607e-01
  3.205162e-02    1.389006e+00   1.243479e-01
  3.426207e-02    1.532442e+00   1.263185e-01
  3.647253e-02    1.522181e+00   1.220177e-01
  3.868299e-02    1.484069e+00   1.169964e-01
  4.089344e-02    1.470820e+00   1.132819e-01
  4.310390e-02    1.416233e+00   1.082658e-01
  4.531436e-02    1.536951e+00   1.100008e-01
  4.752481e-02    1.466981e+00   1.049376e-01
  4.973527e-02    1.363336e+00   9.889023e-02
  5.194572e-02    1.329819e+00   9.556507e-02
  5.415618e-02    1.313691e+00   9.302195e-02
  5.636664e-02    1.381975e+00   9.352232e-02
  5.857709e-02    1.455083e+00   9.413660e-02
  6.078755e-02    1.441611e+00   9.197746e-02
  6.299801e-02    1.424269e+00   8.980333e-02
  6.520846e-02    1.458748e+00   8.933074e-02
  6.741892e-02    1.335278e+00   8.404960e-02
  6.962938e-02    1.396752e+00   8.459134e-02
  7.183983e-02    1.442253e+00   8.462386e-02
  7.405029e-02    1.401981e+00   8.217740e-02
  7.626074e-02    1.396048e+00   8.080543e-02
  7.847120e-02    1.462161e+00   8.152139e-02
  8.068166e-02    1.395895e+00   7.855333e-02
  8.289211e-02    1.414455e+00   7.801198e-02
  8.510257e-02    1.506385e+00   7.945428e-02
  8.731303e-02    1.502464e+00   7.833696e-02
  8.952348e-02    1.520925e+00   7.783975e-02
  9.173394e-02    1.509534e+00   7.660467e-02
  9.394439e-02    1.486793e+00   7.512330e-02
  9.615485e-02    1.447148e+00   7.325650e-02
  9.836531e-02    1.384582e+00   7.084379e-02
  1.005758e-01    1.442981e+00   7.152364e-02
  1.027862e-01    1.501982e+00   7.218055e-02
  1.049967e-01    1.519942e+00   7.184120e-02
  1.072071e-01    1.424048e+00   6.881659e-02
  1.094176e-01    1.546976e+00   7.099603e-02
  1.116280e-01    1.667867e+00   7.298278e-02
  1.138385e-01    1.620706e+00   7.124025e-02
  1.160490e-01    1.594348e+00   6.998155e-02
  1.182594e-01    1.555205e+00   6.846667e-02
  1.204699e-01    1.540090e+00   6.750464e-02
  1.226803e-01    1.603438e+00   6.825279e-02
  1.248908e-01    1.627587e+00   6.815282e-02
  1.271012e-01    1.513164e+00   6.513829e-02
  1.293117e-01    1.543997e+00   6.523295e-02
  1.315222e-01    1.575659e+00   6.534079e-02
  1.337326e-01    1.455207e+00   6.227130e-02
  1.359431e-01    1.580913e+00   6.494320e-02
  1.381535e-01    1.672147e+00   6.768738e-02
  1.403640e-01    1.662732e+00   6.778800e-02
  1.425744e-01    1.583331e+00   6.625532e-02
  1.447849e-01    1.682565e+00   6.831574e-02
  1.469953e-01    1.612168e+00   6.682950e-02
  1.492058e-01    1.573494e+00   6.594630e-02
  1.514163e-01    1.510790e+00   6.451165e-02
  1.536267e-01    1.540765e+00   6.502127e-02
  1.558372e-01    1.571315e+00   6.551778e-02
  1.580476e-01    1.638628e+00   6.674404e-02
  1.602581e-01    1.656217e+00   6.693089e-02
  1.624685e-01    1.647326e+00   6.656823e-02
  1.646790e-01    1.731146e+00   6.804486e-02
  1.668895e-01    1.682196e+00   6.688224e-02
  1.690999e-01    1.610554e+00   6.524599e-02
  1.713104e-01    1.756420e+00   6.792516e-02
  1.735208e-01    1.753852e+00   6.766440e-02
  1.757313e-01    1.782264e+00   6.799649e-02
  1.779417e-01    1.893252e+00   6.985315e-02
  1.801522e-01    1.898980e+00   6.973593e-02
  1.823626e-01    1.873271e+00   6.903169e-02
  1.845731e-01    1.920771e+00   6.967502e-02
  1.867836e-01    1.872743e+00   6.856621e-02
  1.889940e-01    1.875812e+00   6.839813e-02
  1.912045e-01    1.881386e+00   6.827092e-02
  1.934149e-01    1.916639e+00   6.867698e-02
  1.956254e-01    1.934310e+00   6.876527e-02
  1.978358e-01    2.036870e+00   7.032294e-02
  2.000463e-01    1.951496e+00   6.860529e-02
  2.022568e-01    1.818675e+00   6.601209e-02
  2.044672e-01    1.851938e+00   6.638481e-02
  2.066777e-01    1.929437e+00   6.753471e-02
  2.088881e-01    1.904377e+00   6.687517e-02
  2.110986e-01    1.892483e+00   6.643742e-02
  2.133090e-01    1.980073e+00   6.773654e-02
  2.155195e-01    1.983119e+00   6.756378e-02
  2.177300e-01    2.003700e+00   6.737994e-02
  2.199404e-01    1.931989e+00   6.441984e-02
  2.221509e-01    1.899383e+00   6.282507e-02
  2.243613e-01    1.863536e+00   6.144048e-02
  2.265718e-01    1.869889e+00   6.086677e-02
  2.287822e-01    1.952181e+00   6.157612e-02
  2.309927e-01    2.035244e+00   6.229972e-02
  2.332031e-01    2.122490e+00   6.307650e-02
  2.354136e-01    2.124063e+00   6.258847e-02
  2.376241e-01    2.079327e+00   6.144520e-02
  2.398345e-01    2.095859e+00   6.123241e-02
  2.420450e-01    2.137075e+00   6.138969e-02
  2.442554e-01    2.165281e+00   6.136779e-02
  2.464659e-01    2.065383e+00   5.953304e-02
  2.486763e-01    2.073755e+00   5.926143e-02
  2.508868e-01    2.095091e+00   5.918976e-02
  2.530973e-01    2.145256e+00   5.952286e-02
  2.553077e-01    2.094482e+00   5.845749e-02
  2.575182e-01    2.043489e+00   5.739989e-02
  2.597286e-01    2.051461e+00   5.717739e-02
  2.619391e-01    2.122689e+00   5.782671e-02
  2.641495e-01    2.079337e+00   5.691639e-02
  2.663600e-01    2.111180e+00   5.703516e-02
  2.685704e-01    2.068932e+00   5.615553e-02
  2.707809e-01    2.029811e+00   5.532685e-02
  2.729914e-01    2.012797e+00   5.480737e-02
  2.752018e-01    1.987891e+00   5.418373e-02
  2.774123e-01    1.953220e+00   5.343479e-02
  2.796227e-01    1.961210e+00   5.327911e-02
  2.818332e-01    1.971328e+00   5.314988e-02
  2.840436e-01    2.007286e+00   5.337248e-02
  2.862541e-01    1.965253e+00   5.255683e-02
  2.884646e-01    1.925655e+00   5.177777e-02
  2.906750e-01    1.935864e+00   5.166867e-02
  2.928855e-01    1.912370e+00   5.111622e-02
  2.950959e-01    1.979712e+00   5.176953e-02
  2.973064e-01    1.943554e+00   5.106406e-02
  2.995168e-01    1.954705e+00   5.097839e-02
  3.017273e-01    1.914130e+00   5.022413e-02
  3.039377e-01    1.903955e+00   4.987112e-02
  3.061482e-01    1.948837e+00   5.023725e-02
  3.083587e-01    1.891021e+00   4.927223e-02
  3.105691e-01    1.937865e+00   4.966573e-02
  3.127796e-01    1.939420e+00   4.947678e-02
  3.149900e-01    1.868450e+00   4.836074e-02
  3.172005e-01    1.885279e+00   4.837940e-02
  3.194109e-01    1.859445e+00   4.784843e-02
  3.216214e-01    1.832523e+00   4.730698e-02
  3.238319e-01    1.860724e+00   4.748071e-02
  3.260423e-01    1.813262e+00   4.668457e-02
  3.282528e-01    1.780644e+00   4.607859e-02
  3.304632e-01    1.784987e+00   4.595601e-02
  3.326737e-01    1.816384e+00   4.617755e-02
  3.348841e-01    1.823402e+00   4.608726e-02
  3.370946e-01    1.865433e+00   4.644002e-02
  3.393050e-01    1.773970e+00   4.511569e-02
  3.415155e-01    1.800568e+00   4.528174e-02
  3.437260e-01    1.796979e+00   4.506893e-02
  3.459364e-01    1.752164e+00   4.433876e-02
  3.481469e-01    1.811623e+00   4.492023e-02
  3.503573e-01    1.805301e+00   4.467843e-02
  3.525678e-01    1.775309e+00   4.414787e-02
  3.547782e-01    1.739036e+00   4.353658e-02
  3.569887e-01    1.819648e+00   4.437640e-02
  3.591992e-01    1.819283e+00   4.421498e-02
  3.614096e-01    1.767551e+00   4.343069e-02
  3.636201e-01    1.783893e+00   4.347768e-02
  3.658305e-01    1.761141e+00   4.305216e-02
  3.680410e-01    1.792100e+00   4.327954e-02
  3.702514e-01    1.793636e+00   4.315249e-02
  3.724619e-01    1.805748e+00   4.315049e-02
  3.746724e-01    1.806350e+00   4.301369e-02
  3.768828e-01    1.789270e+00   4.266581e-02
  3.790933e-01    1.746111e+00   4.201074e-02
  3.813037e-01    1.728445e+00   4.166093e-02
  3.835142e-01    1.792861e+00   4.229079e-02
  3.857246e-01    1.774717e+00   4.194008e-02
  3.879351e-01    1.713580e+00   4.107798e-02
  3.901455e-01    1.742977e+00   4.129690e-02
  3.923560e-01    1.741521e+00   4.114849e-02
  3.945665e-01    1.750667e+00   4.112554e-02
  3.967769e-01    1.752489e+00   4.101809e-02
  3.989874e-01    1.778966e+00   4.119774e-02
  4.011978e-01    1.714235e+00   4.031689e-02
  4.034083e-01    1.768546e+00   4.082486e-02
  4.056187e-01    1.757355e+00   4.057014e-02
  4.078292e-01    1.738981e+00   4.023535e-02
  4.100397e-01    1.726117e+00   3.996386e-02
  4.122501e-01    1.800058e+00   4.068874e-02
  4.144606e-01    1.857733e+00   4.121288e-02
  4.166710e-01    1.789718e+00   4.033114e-02
  4.188815e-01    1.778883e+00   4.009009e-02
  4.210919e-01    1.759435e+00   3.975349e-02
  4.233024e-01    1.770903e+00   3.976552e-02
  4.255128e-01    1.741989e+00   3.932558e-02
  4.277233e-01    1.729862e+00   3.907583e-02
  4.299338e-01    1.778526e+00   3.950765e-02
  4.321442e-01    1.791725e+00   3.954051e-02
  4.343547e-01    1.820542e+00   3.974451e-02
  4.365651e-01    1.729818e+00   3.863150e-02
  4.387756e-01    1.760183e+00   3.885994e-02
  4.409860e-01    1.726127e+00   3.837558e-02
  4.431965e-01    1.754411e+00   3.858173e-02
  4.454070e-01    1.696811e+00   3.783753e-02
  4.476174e-01    1.705332e+00   3.782826e-02
  4.498279e-01    1.749100e+00   3.820639e-02
  4.520383e-01    1.754462e+00   3.815989e-02
  4.542488e-01    1.727672e+00   3.776534e-02
  4.564592e-01    1.686801e+00   3.721584e-02
  4.586697e-01    1.708723e+00   3.735748e-02
  4.608801e-01    1.713706e+00   3.731170e-02
  4.630906e-01    1.689479e+00   3.694893e-02
  4.653011e-01    1.710014e+00   3.707505e-02
  4.675115e-01    1.699718e+00   3.686592e-02
  4.697220e-01    1.685068e+00   3.661060e-02
  4.719324e-01    1.713025e+00   3.681757e-02
  4.741429e-01    1.697550e+00   3.655645e-02
  4.763533e-01    1.698108e+00   3.646872e-02
  4.785638e-01    1.664453e+00   3.601225e-02
  4.807743e-01    1.704117e+00   3.634615e-02
  4.829847e-01    1.669087e+00   3.587976e-02
  4.851952e-01    1.677735e+00   3.588158e-02
  4.874056e-01    1.671148e+00   3.572077e-02
  4.896161e-01    1.649042e+00   3.539573e-02
  4.918265e-01    1.659331e+00   3.541781e-02
  4.940370e-01    1.659055e+00   3.532743e-02
  4.962475e-01    1.664040e+00   3.529309e-02
  4.984579e-01    1.656104e+00   3.512204e-02
  5.006684e-01    1.670191e+00   3.518511e-02
  5.028788e-01    1.676541e+00   3.516653e-02
  5.050893e-01    1.666247e+00   3.497312e-02
  5.072997e-01    1.657569e+00   3.479769e-02
  5.095102e-01    1.680445e+00   3.495305e-02
  5.117206e-01    1.735787e+00   3.543950e-02
  5.139311e-01    1.696157e+00   3.494969e-02
  5.161416e-01    1.647335e+00   3.436163e-02
  5.183520e-01    1.689130e+00   3.471211e-02
  5.205625e-01    1.641838e+00   3.414256e-02
  5.227729e-01    1.634697e+00   3.398877e-02
  5.249834e-01    1.663588e+00   3.420819e-02
  5.271938e-01    1.695245e+00   3.445157e-02
  5.294043e-01    1.722372e+00   3.464597e-02
  5.316148e-01    1.754643e+00   3.488895e-02
  5.338252e-01    1.777553e+00   3.503574e-02
  5.360357e-01    1.731811e+00   3.450328e-02
  5.382461e-01    1.711329e+00   3.422110e-02
  5.404566e-01    1.730520e+00   3.433414e-02
  5.426670e-01    1.737354e+00   3.432434e-02
  5.448775e-01    1.793810e+00   3.479966e-02
  5.470879e-01    1.774176e+00   3.453152e-02
  5.492984e-01    1.735276e+00   3.407490e-02
  5.515089e-01    1.781443e+00   3.444863e-02
  5.537193e-01    1.775004e+00   3.431058e-02
  5.559298e-01    1.775325e+00   3.423841e-02
  5.581402e-01    1.743020e+00   3.385135e-02
  5.603507e-01    1.738691e+00   3.373569e-02
  5.625611e-01    1.802860e+00   3.427804e-02
  5.647716e-01    1.775982e+00   3.394770e-02
  5.669821e-01    1.766156e+00   3.378068e-02
  5.691925e-01    1.780491e+00   3.384467e-02
  5.714030e-01    1.781535e+00   3.378243e-02
  5.736134e-01    1.719114e+00   3.311475e-02
  5.758239e-01    1.673066e+00   3.259847e-02
  5.780343e-01    1.714813e+00   3.293288e-02
  5.802448e-01    1.675219e+00   3.248232e-02
  5.824552e-01    1.672513e+00   3.238798e-02
  5.846657e-01    1.625685e+00   3.186478e-02
  5.868762e-01    1.613116e+00   3.167528e-02
  5.890866e-01    1.610265e+00   3.158161e-02
  5.912971e-01    1.629903e+00   3.170783e-02
  5.935075e-01    1.597296e+00   3.132419e-02
  5.957180e-01    1.631528e+00   3.159311e-02
  5.979284e-01    1.606483e+00   3.128570e-02
  6.001389e-01    1.591687e+00   3.107787e-02
  6.023494e-01    1.599195e+00   3.108783e-02
  6.045598e-01    1.617031e+00   3.119706e-02
  6.067703e-01    1.629265e+00   3.125189e-02
  6.089807e-01    1.657364e+00   3.145686e-02
  6.111912e-01    1.672194e+00   3.153418e-02
  6.134016e-01    1.677898e+00   3.152494e-02
  6.156121e-01    1.645105e+00   3.115327e-02
  6.178226e-01    1.676487e+00   3.138676e-02
  6.200330e-01    1.637771e+00   3.096104e-02
  6.222435e-01    1.689219e+00   3.138126e-02
  6.244539e-01    1.673742e+00   3.117604e-02
  6.266644e-01    1.687620e+00   3.124392e-02
  6.288748e-01    1.710287e+00   3.139186e-02
  6.310853e-01    1.713981e+00   3.136471e-02
  6.332957e-01    1.702850e+00   3.120235e-02
  6.355062e-01    1.682864e+00   3.095844e-02
  6.377167e-01    1.714293e+00   3.118624e-02
  6.399271e-01    1.687161e+00   3.087919e-02
  6.421376e-01    1.725256e+00   3.116623e-02
  6.443480e-01    1.706832e+00   3.094043e-02
  6.465585e-01    1.704552e+00   3.086117e-02
  6.487689e-01    1.682824e+00   3.060595e-02
  6.509794e-01    1.691887e+00   3.063037e-02
  6.531899e-01    1.644560e+00   3.014215e-02
  6.554003e-01    1.614017e+00   2.980478e-02
  6.576108e-01    1.594101e+00   2.956516e-02
  6.598212e-01    1.592533e+00   2.949573e-02
  6.620317e-01    1.594150e+00   2.945598e-02
  6.642421e-01    1.595305e+00   2.941215e-02
  6.664526e-01    1.568924e+00   2.911420e-02
  6.686630e-01    1.642011e+00   2.972952e-02
  6.708735e-01    1.609424e+00   2.937909e-02
  6.730840e-01    1.563694e+00   2.890588e-02
  6.752944e-01    1.598102e+00   2.916902e-02
  6.775049e-01    1.616034e+00   2.927897e-02
  6.797153e-01    1.599353e+00   2.907472e-02
  6.819258e-01    1.615164e+00   2.916538e-02
  6.841362e-01    1.593873e+00   2.892043e-02
  6.863467e-01    1.581162e+00   2.875328e-02
  6.885572e-01    1.594102e+00   2.881896e-02
  6.907676e-01    1.616939e+00   2.897263e-02
  6.929781e-01    1.621161e+00   2.895891e-02
  6.951885e-01    1.591051e+00   2.863789e-02
  6.973990e-01    1.576213e+00   2.845363e-02
  6.996094e-01    1.594021e+00   2.856358e-02
  7.018199e-01    1.614473e+00   2.869578e-02
  7.040303e-01    1.594317e+00   2.846601e-02
  7.062408e-01    1.558964e+00   2.809934e-02
  7.084513e-01    1.557355e+00   2.803596e-02
  7.106617e-01    1.568758e+00   2.808952e-02
  7.128722e-01    1.561994e+00   2.798040e-02
  7.150826e-01    1.564522e+00   2.795479e-02
  7.172931e-01    1.559810e+00   2.786452e-02
  7.195035e-01    1.599589e+00   2.816908e-02
  7.217140e-01    1.571643e+00   2.797136e-02
  7.239245e-01    1.538594e+00   2.789981e-02
  7.261349e-01    1.538003e+00   2.800178e-02
  7.283454e-01    1.571135e+00   2.837412e-02
  7.305558e-01    1.559474e+00   2.832236e-02
  7.327663e-01    1.552463e+00   2.830083e-02
  7.349767e-01    1.512082e+00   2.794637e-02
  7.371872e-01    1.554950e+00   2.832862e-02
  7.393976e-01    1.560595e+00   2.836582e-02
  7.416081e-01    1.597964e+00   2.868713e-02
  7.438186e-01    1.569402e+00   2.828552e-02
  7.460290e-01    1.558763e+00   2.789673e-02
  7.482395e-01    1.544833e+00   2.760226e-02
  7.504499e-01    1.520306e+00   2.724837e-02
  7.526604e-01    1.532389e+00   2.724144e-02
  7.548708e-01    1.546629e+00   2.727912e-02
  7.570813e-01    1.540858e+00   2.717775e-02
  7.592918e-01    1.529691e+00   2.704442e-02
  7.615022e-01    1.507674e+00   2.681601e-02
  7.637127e-01    1.542061e+00   2.708765e-02
  7.659231e-01    1.551358e+00   2.713743e-02
  7.681336e-01    1.553057e+00   2.712089e-02
  7.703440e-01    1.535446e+00   2.693587e-02
  7.725545e-01    1.558683e+00   2.710817e-02
  7.747650e-01    1.584937e+00   2.729721e-02
  7.769754e-01    1.591656e+00   2.730204e-02
  7.791859e-01    1.566635e+00   2.703325e-02
  7.813963e-01    1.596925e+00   2.724044e-02
  7.836068e-01    1.637866e+00   2.753455e-02
  7.858172e-01    1.651609e+00   2.759815e-02
  7.880277e-01    1.646243e+00   2.750086e-02
  7.902381e-01    1.709001e+00   2.796923e-02
  7.924486e-01    1.677478e+00   2.765878e-02
  7.946591e-01    1.625485e+00   2.717808e-02
  7.968695e-01    1.626394e+00   2.713704e-02
  7.990800e-01    1.614856e+00   2.699229e-02
  8.012904e-01    1.601153e+00   2.683101e-02
  8.035009e-01    1.635360e+00   2.706788e-02
  8.057113e-01    1.612005e+00   2.682741e-02
  8.079218e-01    1.599361e+00   2.667589e-02
  8.101323e-01    1.606201e+00   2.668746e-02
  8.123427e-01    1.623210e+00   2.678267e-02
  8.145532e-01    1.638312e+00   2.686093e-02
  8.167636e-01    1.672212e+00   2.709177e-02
  8.189741e-01    1.718703e+00   2.742003e-02
  8.211845e-01    1.661226e+00   2.691245e-02
  8.233950e-01    1.643527e+00   2.672517e-02
  8.256054e-01    1.626174e+00   2.653965e-02
  8.278159e-01    1.673639e+00   2.687974e-02
  8.300264e-01    1.636462e+00   2.653646e-02
  8.322368e-01    1.641222e+00   2.653187e-02
  8.344473e-01    1.604952e+00   2.619413e-02
  8.366577e-01    1.654007e+00   2.654864e-02
  8.388682e-01    1.633460e+00   2.634107e-02
  8.410786e-01    1.609495e+00   2.610545e-02
  8.432891e-01    1.615983e+00   2.611646e-02
  8.454996e-01    1.598368e+00   2.593263e-02
  8.477100e-01    1.588782e+00   2.581370e-02
  8.499205e-01    1.595495e+00   2.582756e-02
  8.521309e-01    1.595219e+00   2.578506e-02
  8.543414e-01    1.611183e+00   2.587332e-02
  8.565518e-01    1.613157e+00   2.584886e-02
  8.587623e-01    1.642318e+00   2.604084e-02
  8.609727e-01    1.636382e+00   2.595345e-02
  8.631832e-01    1.622354e+00   2.580212e-02
  8.653937e-01    1.616630e+00   2.571696e-02
  8.676041e-01    1.604614e+00   2.558257e-02
  8.698146e-01    1.600278e+00   2.550892e-02
  8.720250e-01    1.588428e+00   2.537558e-02
  8.742355e-01    1.562454e+00   2.512893e-02
  8.764459e-01    1.577672e+00   2.521249e-02
  8.786564e-01    1.589184e+00   2.526658e-02
  8.808669e-01    1.603715e+00   2.534335e-02
  8.830773e-01    1.552016e+00   2.489400e-02
  8.852878e-01    1.539953e+00   2.475987e-02
  8.874982e-01    1.537047e+00   2.470060e-02
  8.897087e-01    1.545688e+00   2.473290e-02
  8.919191e-01    1.561610e+00   2.482267e-02
  8.941296e-01    1.539873e+00   2.461274e-02
  8.963401e-01    1.550050e+00   2.465807e-02
  8.985505e-01    1.597619e+00   2.499664e-02
  9.007610e-01    1.602882e+00   2.500100e-02
  9.029714e-01    1.600781e+00   2.494877e-02
  9.051819e-01    1.620440e+00   2.506404e-02
  9.073923e-01    1.583993e+00   2.474419e-02
  9.096028e-01    1.607450e+00   2.489171e-02
  9.118132e-01    1.630605e+00   2.503379e-02
  9.140237e-01    1.624888e+00   2.495298e-02
  9.162342e-01    1.606624e+00   2.477770e-02
  9.184446e-01    1.606695e+00   2.474242e-02
  9.206551e-01    1.603791e+00   2.468441e-02
  9.228655e-01    1.602928e+00   2.464249e-02
  9.250760e-01    1.599082e+00   2.457760e-02
  9.272864e-01    1.602133e+00   2.456677e-02
  9.294969e-01    1.600866e+00   2.452127e-02
  9.317074e-01    1.599660e+00   2.447739e-02
  9.339178e-01    1.595650e+00   2.441330e-02
  9.361283e-01    1.640254e+00   2.471567e-02
  9.383387e-01    1.614799e+00   2.448981e-02
  9.405492e-01    1.606318e+00   2.439130e-02
  9.427596e-01    1.583628e+00   2.418355e-02
  9.449701e-01    1.630430e+00   2.450494e-02
  9.471805e-01    1.678693e+00   2.482978e-02
  9.493910e-01    1.680787e+00   2.481117e-02
  9.516015e-01    1.665782e+00   2.466569e-02
  9.538119e-01    1.658953e+00   2.458134e-02
  9.560224e-01    1.699477e+00   2.484473e-02
  9.582328e-01    1.727177e+00   2.501280e-02
  9.604433e-01    1.700060e+00   2.478054e-02
  9.626537e-01    1.678591e+00   2.459045e-02
  9.648642e-01    1.730364e+00   2.493259e-02
  9.670747e-01    1.747599e+00   2.502191e-02
  9.692851e-01    1.768159e+00   2.513520e-02
  9.714956e-01    1.806589e+00   2.537106e-02
  9.737060e-01    1.810467e+00   2.536494e-02
  9.759165e-01    1.804538e+00   2.528763e-02
  9.781269e-01    1.932172e+00   2.613241e-02
  9.803374e-01    1.929097e+00   2.607551e-02
  9.825478e-01    1.881746e+00   2.571955e-02
  9.847583e-01    1.826609e+00   2.530553e-02
  9.869688e-01    1.856003e+00   2.547416e-02
  9.891792e-01    1.885992e+00   2.564502e-02
  9.913897e-01    1.970656e+00   2.617891e-02
  9.936001e-01    1.948891e+00   2.599991e-02
  9.958106e-01    1.829959e+00   2.515987e-02
  9.980210e-01    1.727040e+00   2.441037e-02
  1.000231e+00    1.666873e+00   2.411278e-02
  1.002442e+00    1.664877e+00   2.422636e-02
  1.004652e+00    1.610733e+00   2.389565e-02
  1.006863e+00    1.579894e+00   2.371491e-02
  1.009073e+00    1.548932e+00   2.351730e-02
  1.011284e+00    1.576737e+00   2.375917e-02
  1.013494e+00    1.612923e+00   2.405408e-02
  1.015705e+00    1.584032e+00   2.386024e-02
  1.017915e+00    1.514793e+00   2.334901e-02
  1.020126e+00    1.505256e+00   2.329111e-02
  1.022336e+00    1.494290e+00   2.321756e-02
  1.024547e+00    1.495309e+00   2.323646e-02
  1.026757e+00    1.537550e+00   2.357074e-02
  1.028967e+00    1.507933e+00   2.335022e-02
  1.031178e+00    1.506283e+00   2.334354e-02
  1.033388e+00    1.518275e+00   2.344131e-02
  1.035599e+00    1.489535e+00   2.322178e-02
  1.037809e+00    1.495225e+00   2.326929e-02
  1.040020e+00    1.463781e+00   2.302458e-02
  1.042230e+00    1.482000e+00   2.316933e-02
  1.044441e+00    1.455059e+00   2.295757e-02
  1.046651e+00    1.477151e+00   2.313135e-02
  1.048862e+00    1.488462e+00   2.321895e-02
  1.051072e+00    1.519957e+00   2.346095e-02
  1.053282e+00    1.496169e+00   2.327571e-02
  1.055493e+00    1.471712e+00   2.308040e-02
  1.057703e+00    1.469498e+00   2.306154e-02
  1.059914e+00    1.438369e+00   2.281178e-02
  1.062124e+00    1.428244e+00   2.272737e-02
  1.064335e+00    1.444503e+00   2.285298e-02
  1.066545e+00    1.448532e+00   2.287890e-02
  1.068756e+00    1.462809e+00   2.298765e-02
  1.070966e+00    1.457536e+00   2.293971e-02
  1.073177e+00    1.423187e+00   2.266185e-02
  1.075387e+00    1.384142e+00   2.234374e-02
  1.077597e+00    1.406963e+00   2.252006e-02
  1.079808e+00    1.445958e+00   2.269810e-02
  1.082018e+00    1.457293e+00   2.259820e-02
  1.084229e+00    1.440396e+00   2.235751e-02
  1.086439e+00    1.428751e+00   2.218033e-02
  1.088650e+00    1.416841e+00   2.201299e-02
  1.090860e+00    1.432351e+00   2.206603e-02
  1.093071e+00    1.433879e+00   2.201598e-02
  1.095281e+00    1.407477e+00   2.175587e-02
  1.097492e+00    1.392813e+00   2.158832e-02
  1.099702e+00    1.412590e+00   2.169016e-02
  1.101912e+00    1.435548e+00   2.181694e-02
  1.104123e+00    1.438005e+00   2.178733e-02
  1.106333e+00    1.421302e+00   2.161620e-02
  1.108544e+00    1.450872e+00   2.179529e-02
  1.110754e+00    1.464411e+00   2.185318e-02
  1.112965e+00    1.470314e+00   2.185595e-02
  1.115175e+00    1.489328e+00   2.195467e-02
  1.117386e+00    1.423542e+00   2.142492e-02
  1.119596e+00    1.454520e+00   2.161833e-02
  1.121807e+00    1.424086e+00   2.135197e-02
  1.124017e+00    1.415458e+00   2.125043e-02
  1.126228e+00    1.400258e+00   2.110032e-02
  1.128438e+00    1.390192e+00   2.098772e-02
  1.130648e+00    1.377035e+00   2.085413e-02
  1.132859e+00    1.385859e+00   2.088659e-02
  1.135069e+00    1.361412e+00   2.066724e-02
  1.137280e+00    1.350530e+00   2.055193e-02
  1.139490e+00    1.369382e+00   2.066202e-02
  1.141701e+00    1.348618e+00   2.047209e-02
  1.143911e+00    1.353175e+00   2.047514e-02
  1.146122e+00    1.336313e+00   2.031568e-02
  1.148332e+00    1.360477e+00   2.046687e-02
  1.150543e+00    1.363589e+00   2.045960e-02
  1.152753e+00    1.363868e+00   2.043098e-02
  1.154963e+00    1.361809e+00   2.038464e-02
  1.157174e+00    1.368043e+00   2.040115e-02
  1.159384e+00    1.345052e+00   2.019943e-02
  1.161595e+00    1.368359e+00   2.034387e-02
  1.163805e+00    1.370115e+00   2.032764e-02
  1.166016e+00    1.366970e+00   2.027488e-02
  1.168226e+00    1.384228e+00   2.037331e-02
  1.170437e+00    1.377376e+00   2.029409e-02
  1.172647e+00    1.378660e+00   2.027451e-02
  1.174858e+00    1.365588e+00   2.015006e-02
  1.177068e+00    1.357052e+00   2.005879e-02
  1.179278e+00    1.373750e+00   2.015311e-02
  1.181489e+00    1.369618e+00   2.009568e-02
  1.183699e+00    1.329833e+00   1.977437e-02
  1.185910e+00    1.364638e+00   2.000363e-02
  1.188120e+00    1.353858e+00   1.989781e-02
  1.190331e+00    1.344156e+00   1.979973e-02
  1.192541e+00    1.364770e+00   1.992348e-02
  1.194752e+00    1.351632e+00   1.980035e-02
  1.196962e+00    1.325189e+00   1.958020e-02
  1.199173e+00    1.318726e+00   1.950619e-02
  1.201383e+00    1.353879e+00   1.973728e-02
  1.203593e+00    1.344835e+00   1.964647e-02
  1.205804e+00    1.341434e+00   1.959578e-02
  1.208014e+00    1.335770e+00   1.952765e-02
  1.210225e+00    1.354678e+00   1.964001e-02
  1.212435e+00    1.348023e+00   1.956696e-02
  1.214646e+00    1.326349e+00   1.938312e-02
  1.216856e+00    1.331086e+00   1.939240e-02
  1.219067e+00    1.333813e+00   1.938795e-02
  1.221277e+00    1.338843e+00   1.939954e-02
  1.223488e+00    1.339155e+00   1.937616e-02
  1.225698e+00    1.347736e+00   1.941125e-02
  1.227909e+00    1.326045e+00   1.922454e-02
  1.230119e+00    1.309964e+00   1.907621e-02
  1.232329e+00    1.348584e+00   1.932468e-02
  1.234540e+00    1.343194e+00   1.925580e-02
  1.236750e+00    1.342742e+00   1.922239e-02
  1.238961e+00    1.324037e+00   1.906132e-02
  1.241171e+00    1.333832e+00   1.910765e-02
  1.243382e+00    1.353000e+00   1.922091e-02
  1.245592e+00    1.345595e+00   1.914419e-02
  1.247803e+00    1.349132e+00   1.914569e-02
  1.250013e+00    1.339896e+00   1.905659e-02
  1.252224e+00    1.325732e+00   1.893256e-02
  1.254434e+00    1.358972e+00   1.914460e-02
  1.256644e+00    1.369815e+00   1.919746e-02
  1.258855e+00    1.352682e+00   1.905375e-02
  1.261065e+00    1.368840e+00   1.914365e-02
  1.263276e+00    1.398934e+00   1.932960e-02
  1.265486e+00    1.395693e+00   1.928393e-02
  1.267697e+00    1.354023e+00   1.897084e-02
  1.269907e+00    1.367558e+00   1.904257e-02
  1.272118e+00    1.387087e+00   1.915515e-02
  1.274328e+00    1.397289e+00   1.920237e-02
  1.276539e+00    1.401161e+00   1.920572e-02
  1.278749e+00    1.418618e+00   1.930214e-02
  1.280959e+00    1.388686e+00   1.907460e-02
  1.283170e+00    1.357255e+00   1.883500e-02
  1.285380e+00    1.361629e+00   1.884277e-02
  1.287591e+00    1.344463e+00   1.870163e-02
  1.289801e+00    1.350693e+00   1.872369e-02
  1.292012e+00    1.335179e+00   1.859884e-02
  1.294222e+00    1.333429e+00   1.857051e-02
  1.296433e+00    1.350173e+00   1.867114e-02
  1.298643e+00    1.333671e+00   1.854032e-02
  1.300854e+00    1.345491e+00   1.860590e-02
  1.303064e+00    1.334762e+00   1.851247e-02
  1.305274e+00    1.346618e+00   1.857308e-02
  1.307485e+00    1.360205e+00   1.864492e-02
  1.309695e+00    1.391260e+00   1.883398e-02
  1.311906e+00    1.382995e+00   1.875602e-02
  1.314116e+00    1.350391e+00   1.851279e-02
  1.316327e+00    1.341444e+00   1.842975e-02
  1.318537e+00    1.358438e+00   1.852415e-02
  1.320748e+00    1.360419e+00   1.851602e-02
  1.322958e+00    1.363225e+00   1.851449e-02
  1.325169e+00    1.367783e+00   1.852425e-02
  1.327379e+00    1.355713e+00   1.842050e-02
  1.329589e+00    1.362315e+00   1.844411e-02
  1.331800e+00    1.384586e+00   1.857331e-02
  1.334010e+00    1.378609e+00   1.851232e-02
  1.336221e+00    1.399838e+00   1.863213e-02
  1.338431e+00    1.391040e+00   1.855234e-02
  1.340642e+00    1.366760e+00   1.845426e-02
  1.342852e+00    1.364845e+00   1.854256e-02
  1.345063e+00    1.353376e+00   1.851403e-02
  1.347273e+00    1.360635e+00   1.859898e-02
  1.349484e+00    1.366556e+00   1.866726e-02
  1.351694e+00    1.407361e+00   1.896709e-02
  1.353905e+00    1.402296e+00   1.895128e-02
  1.356115e+00    1.422921e+00   1.910558e-02
  1.358325e+00    1.454727e+00   1.933176e-02
  1.360536e+00    1.470324e+00   1.944724e-02
  1.362746e+00    1.448547e+00   1.931262e-02
  1.364957e+00    1.420227e+00   1.913075e-02
  1.367167e+00    1.414166e+00   1.909721e-02
  1.369378e+00    1.393879e+00   1.896587e-02
  1.371588e+00    1.366153e+00   1.878147e-02
  1.373799e+00    1.326651e+00   1.851161e-02
  1.376009e+00    1.334737e+00   1.857129e-02
  1.378220e+00    1.367130e+00   1.879787e-02
  1.380430e+00    1.360885e+00   1.875763e-02
  1.382640e+00    1.373298e+00   1.884389e-02
  1.384851e+00    1.329000e+00   1.853840e-02
  1.387061e+00    1.301350e+00   1.834480e-02
  1.389272e+00    1.308885e+00   1.839804e-02
  1.391482e+00    1.312301e+00   1.842136e-02
  1.393693e+00    1.308624e+00   1.839465e-02
  1.395903e+00    1.310437e+00   1.840589e-02
  1.398114e+00    1.285588e+00   1.822915e-02
  1.400324e+00    1.276501e+00   1.816250e-02
  1.402535e+00    1.253766e+00   1.799772e-02
  1.404745e+00    1.272211e+00   1.812726e-02
  1.406955e+00    1.275605e+00   1.814874e-02
  1.409166e+00    1.295535e+00   1.828662e-02
  1.411376e+00    1.270187e+00   1.810375e-02
  1.413587e+00    1.255599e+00   1.799567e-02
  1.415797e+00    1.289484e+00   1.823334e-02
  1.418008e+00    1.257594e+00   1.796479e-02
  1.420218e+00    1.238824e+00   1.768235e-02
  1.422429e+00    1.253740e+00   1.770370e-02
  1.424639e+00    1.263012e+00   1.770453e-02
  1.426850e+00    1.288187e+00   1.782503e-02
  1.429060e+00    1.270909e+00   1.765608e-02
  1.431270e+00    1.295622e+00   1.778215e-02
  1.433481e+00    1.288457e+00   1.769168e-02
  1.435691e+00    1.272984e+00   1.754664e-02
  1.437902e+00    1.291324e+00   1.763581e-02
  1.440112e+00    1.289137e+00   1.758528e-02
  1.442323e+00    1.279694e+00   1.748757e-02
  1.444533e+00    1.287600e+00   1.750873e-02
  1.446744e+00    1.265941e+00   1.732979e-02
  1.448954e+00    1.244516e+00   1.715261e-02
  1.451165e+00    1.248636e+00   1.715147e-02
  1.453375e+00    1.258855e+00   1.719360e-02
  1.455586e+00    1.243282e+00   1.705906e-02
  1.457796e+00    1.237614e+00   1.699296e-02
  1.460006e+00    1.258955e+00   1.711171e-02
  1.462217e+00    1.257613e+00   1.707649e-02
  1.464427e+00    1.270921e+00   1.714100e-02
  1.466638e+00    1.230966e+00   1.684447e-02
  1.468848e+00    1.283714e+00   1.717608e-02
  1.471059e+00    1.298250e+00   1.724771e-02
  1.473269e+00    1.278470e+00   1.709134e-02
  1.475480e+00    1.269253e+00   1.700584e-02
  1.477690e+00    1.274870e+00   1.701953e-02
  1.479901e+00    1.260467e+00   1.689936e-02
  1.482111e+00    1.244821e+00   1.677101e-02
  1.484321e+00    1.301321e+00   1.712396e-02
  1.486532e+00    1.272422e+00   1.691040e-02
  1.488742e+00    1.249925e+00   1.673770e-02
  1.490953e+00    1.248453e+00   1.670540e-02
  1.493163e+00    1.245997e+00   1.666683e-02
  1.495374e+00    1.238377e+00   1.659450e-02
  1.497584e+00    1.261689e+00   1.672831e-02
  1.499795e+00    1.242282e+00   1.657768e-02
  1.502005e+00    1.235258e+00   1.650926e-02
  1.504216e+00    1.240058e+00   1.652043e-02
  1.506426e+00    1.234997e+00   1.646606e-02
  1.508636e+00    1.254925e+00   1.657795e-02
  1.510847e+00    1.263134e+00   1.661021e-02
  1.513057e+00    1.265998e+00   1.660384e-02
  1.515268e+00    1.260948e+00   1.654494e-02
  1.517478e+00    1.246094e+00   1.642209e-02
  1.519689e+00    1.269705e+00   1.655185e-02
  1.521899e+00    1.271956e+00   1.654322e-02
  1.524110e+00    1.281162e+00   1.658244e-02
  1.526320e+00    1.243514e+00   1.631746e-02
  1.528531e+00    1.233716e+00   1.623341e-02
  1.530741e+00    1.236810e+00   1.623472e-02
  1.532951e+00    1.237538e+00   1.621999e-02
  1.535162e+00    1.241601e+00   1.633294e-02
  1.537372e+00    1.225457e+00   1.629266e-02
  1.539583e+00    1.235619e+00   1.639413e-02
  1.541793e+00    1.242357e+00   1.644571e-02
  1.544004e+00    1.228243e+00   1.635227e-02
  1.546214e+00    1.239666e+00   1.642664e-02
  1.548425e+00    1.243010e+00   1.644904e-02
  1.550635e+00    1.229065e+00   1.636613e-02
  1.552846e+00    1.209680e+00   1.624608e-02
  1.555056e+00    1.200089e+00   1.614081e-02
  1.557266e+00    1.206228e+00   1.607330e-02
  1.559477e+00    1.197938e+00   1.595997e-02
  1.561687e+00    1.236268e+00   1.618272e-02
  1.563898e+00    1.227402e+00   1.610755e-02
  1.566108e+00    1.260193e+00   1.630523e-02
  1.568319e+00    1.247151e+00   1.620502e-02
  1.570529e+00    1.224061e+00   1.602936e-02
  1.572740e+00    1.275517e+00   1.633484e-02
  1.574950e+00    1.248096e+00   1.613198e-02
  1.577161e+00    1.247937e+00   1.610543e-02
  1.579371e+00    1.251578e+00   1.610517e-02
  1.581582e+00    1.254439e+00   1.610373e-02
  1.583792e+00    1.233423e+00   1.595032e-02
  1.586002e+00    1.256764e+00   1.608281e-02
  1.588213e+00    1.266303e+00   1.612636e-02
  1.590423e+00    1.231361e+00   1.588234e-02
  1.592634e+00    1.217731e+00   1.577279e-02
  1.594844e+00    1.227779e+00   1.581646e-02
  1.597055e+00    1.264460e+00   1.603030e-02
  1.599265e+00    1.333818e+00   1.644261e-02
  1.601476e+00    1.293480e+00   1.617137e-02
  1.603686e+00    1.285323e+00   1.610015e-02
  1.605897e+00    1.260629e+00   1.592442e-02
  1.608107e+00    1.270153e+00   1.596463e-02
  1.610317e+00    1.285254e+00   1.603957e-02
  1.612528e+00    1.324850e+00   1.626492e-02
  1.614738e+00    1.317252e+00   1.619862e-02
  1.616949e+00    1.286889e+00   1.599141e-02
  1.619159e+00    1.235279e+00   1.564864e-02
  1.621370e+00    1.251481e+00   1.573222e-02
  1.623580e+00    1.249847e+00   1.570335e-02
  1.625791e+00    1.227955e+00   1.554681e-02
  1.628001e+00    1.201458e+00   1.535991e-02
  1.630212e+00    1.193530e+00   1.529137e-02
  1.632422e+00    1.187725e+00   1.523625e-02
  1.634632e+00    1.205770e+00   1.533408e-02
  1.636843e+00    1.146852e+00   1.493744e-02
  1.639053e+00    1.139501e+00   1.487244e-02
  1.641264e+00    1.138859e+00   1.485139e-02
  1.643474e+00    1.137396e+00   1.482464e-02
  1.645685e+00    1.136228e+00   1.480053e-02
  1.647895e+00    1.139024e+00   1.480224e-02
  1.650106e+00    1.149758e+00   1.485484e-02
  1.652316e+00    1.119035e+00   1.463875e-02
  1.654527e+00    1.118523e+00   1.461891e-02
  1.656737e+00    1.115621e+00   1.458352e-02
  1.658947e+00    1.134748e+00   1.469170e-02
  1.661158e+00    1.129506e+00   1.464145e-02
  1.663368e+00    1.114093e+00   1.452525e-02
  1.665579e+00    1.126401e+00   1.458906e-02
  1.667789e+00    1.116344e+00   1.450756e-02
  1.670000e+00    1.134632e+00   1.461024e-02
  1.672210e+00    1.105997e+00   1.440888e-02
  1.674421e+00    1.094889e+00   1.432106e-02
  1.676631e+00    1.087827e+00   1.425904e-02
  1.678842e+00    1.083338e+00   1.421392e-02
  1.681052e+00    1.081088e+00   1.418386e-02
  1.683263e+00    1.077098e+00   1.414261e-02
  1.685473e+00    1.046262e+00   1.392383e-02
  1.687683e+00    1.050814e+00   1.393889e-02
  1.689894e+00    1.045452e+00   1.388777e-02
  1.692104e+00    1.057859e+00   1.395514e-02
  1.694315e+00    1.060279e+00   1.395667e-02
  1.696525e+00    1.047682e+00   1.385854e-02
  1.698736e+00    1.024965e+00   1.369290e-02
  1.700946e+00    1.039714e+00   1.377609e-02
  1.703157e+00    1.032700e+00   1.371508e-02
  1.705367e+00    1.031399e+00   1.369208e-02
  1.707578e+00    1.041208e+00   1.374252e-02
  1.709788e+00    1.020512e+00   1.359132e-02
  1.711998e+00    9.980921e-01   1.342650e-02
  1.714209e+00    1.007737e+00   1.347699e-02
  1.716419e+00    1.013259e+00   1.349975e-02
  1.718630e+00    1.032370e+00   1.361217e-02
  1.720840e+00    1.042408e+00   1.366393e-02
  1.723051e+00    1.000463e+00   1.337252e-02
  1.725261e+00    9.901372e-01   1.328884e-02
  1.727472e+00    9.974999e-01   1.332414e-02
  1.729682e+00    9.878738e-01   1.324643e-02
  1.731893e+00    9.915727e-01   1.325743e-02
  1.734103e+00    9.738020e-01   1.312455e-02
  1.736313e+00    9.871028e-01   1.319998e-02
  1.738524e+00    9.862825e-01   1.318079e-02
  1.740734e+00    9.791579e-01   1.311953e-02
  1.742945e+00    9.828449e-01   1.313085e-02
  1.745155e+00    9.888839e-01   1.315770e-02
  1.747366e+00    9.729426e-01   1.303752e-02
  1.749576e+00    9.481725e-01   1.285710e-02
  1.751787e+00    9.301741e-01   1.272147e-02
  1.753997e+00    9.510388e-01   1.285019e-02
  1.756208e+00    9.414819e-01   1.277249e-02
  1.758418e+00    9.459193e-01   1.278961e-02
  1.760628e+00    9.335271e-01   1.269247e-02
  1.762839e+00    9.438302e-01   1.274922e-02
  1.765049e+00    9.469645e-01   1.275738e-02
  1.767260e+00    9.324974e-01   1.264693e-02
  1.769470e+00    9.372352e-01   1.266614e-02
  1.771681e+00    9.179471e-01   1.252226e-02
  1.773891e+00    9.295297e-01   1.258806e-02
  1.776102e+00    9.285489e-01   1.256870e-02
  1.778312e+00    9.273733e-01   1.254812e-02
  1.780523e+00    8.923776e-01   1.229670e-02
  1.782733e+00    8.867876e-01   1.224578e-02
  1.784944e+00    8.988040e-01   1.231585e-02
  1.787154e+00    8.981207e-01   1.229886e-02
  1.789364e+00    8.980331e-01   1.228601e-02
  1.791575e+00    8.816710e-01   1.216134e-02
  1.793785e+00    8.986170e-01   1.226540e-02
  1.795996e+00    9.110054e-01   1.233723e-02
  1.798206e+00    9.044884e-01   1.228058e-02
  1.800417e+00    9.044762e-01   1.226792e-02
  1.802627e+00    8.913183e-01   1.216656e-02
  1.804838e+00    8.997694e-01   1.221209e-02
  1.807048e+00    9.179695e-01   1.232206e-02
  1.809259e+00    9.650198e-01   1.261986e-02
  1.811469e+00    9.657856e-01   1.260945e-02
  1.813679e+00    9.031053e-01   1.217842e-02
  1.815890e+00    8.693199e-01   1.193391e-02
  1.818100e+00    8.623640e-01   1.187126e-02
  1.820311e+00    8.664821e-01   1.188503e-02
  1.822521e+00    8.707098e-01   1.189930e-02
  1.824732e+00    8.824039e-01   1.196420e-02
  1.826942e+00    8.759021e-01   1.190779e-02
  1.829153e+00    8.496030e-01   1.171620e-02
  1.831363e+00    8.498826e-01   1.170633e-02
  1.833574e+00    8.732013e-01   1.185421e-02
  1.835784e+00    8.739015e-01   1.184757e-02
  1.837994e+00    8.913059e-01   1.195316e-02
  1.840205e+00    8.838974e-01   1.189216e-02
  1.842415e+00    8.785440e-01   1.184427e-02
  1.844626e+00    9.004151e-01   1.197903e-02
  1.846836e+00    9.244078e-01   1.212579e-02
  1.849047e+00    9.228271e-01   1.210345e-02
  1.851257e+00    8.977565e-01   1.192816e-02
  1.853468e+00    8.775179e-01   1.178406e-02
  1.855678e+00    8.592764e-01   1.165205e-02
  1.857889e+00    8.687142e-01   1.170733e-02
  1.860099e+00    8.363527e-01   1.147866e-02
  1.862309e+00    8.452593e-01   1.153115e-02
  1.864520e+00    8.659710e-01   1.166296e-02
  1.866730e+00    8.394264e-01   1.147353e-02
  1.868941e+00    8.362723e-01   1.144109e-02
  1.871151e+00    8.453820e-01   1.149190e-02
  1.873362e+00    8.472639e-01   1.149337e-02
  1.875572e+00    8.297015e-01   1.136280e-02
  1.877783e+00    8.454555e-01   1.145875e-02
  1.879993e+00    8.467903e-01   1.145666e-02
  1.882204e+00    8.376169e-01   1.138358e-02
  1.884414e+00    8.329031e-01   1.134049e-02
  1.886624e+00    8.335785e-01   1.133410e-02
  1.888835e+00    8.209429e-01   1.123703e-02
  1.891045e+00    8.194124e-01   1.121579e-02
  1.893256e+00    8.312456e-01   1.128544e-02
  1.895466e+00    8.397501e-01   1.133184e-02
  1.897677e+00    8.292531e-01   1.124992e-02
  1.899887e+00    8.440895e-01   1.133906e-02
  1.902098e+00    8.525409e-01   1.138470e-02
  1.904308e+00    8.277691e-01   1.120754e-02
  1.906519e+00    8.159620e-01   1.111655e-02
  1.908729e+00    8.178861e-01   1.111912e-02
  1.910940e+00    8.194713e-01   1.111882e-02
  1.913150e+00    8.244494e-01   1.114197e-02
  1.915360e+00    8.253672e-01   1.113753e-02
  1.917571e+00    8.195820e-01   1.108760e-02
  1.919781e+00    8.116887e-01   1.102343e-02
  1.921992e+00    8.569211e-01   1.131555e-02
  1.924202e+00    8.718885e-01   1.140286e-02
  1.926413e+00    8.224826e-01   1.106475e-02
  1.928623e+00    8.005970e-01   1.090606e-02
  1.930834e+00    8.204027e-01   1.102966e-02
  1.933044e+00    8.382300e-01   1.113801e-02
  1.935255e+00    8.240886e-01   1.103326e-02
  1.937465e+00    8.078498e-01   1.091361e-02
  1.939675e+00    7.907683e-01   1.078688e-02
  1.941886e+00    7.984434e-01   1.082885e-02
  1.944096e+00    8.056915e-01   1.086770e-02
  1.946307e+00    7.746864e-01   1.064638e-02
  1.948517e+00    7.883505e-01   1.072948e-02
  1.950728e+00    7.778027e-01   1.064736e-02
  1.952938e+00    7.875032e-01   1.070351e-02
  1.955149e+00    7.815582e-01   1.065291e-02
  1.957359e+00    7.867085e-01   1.067796e-02
  1.959570e+00    7.985957e-01   1.074744e-02
  1.961780e+00    7.819667e-01   1.062511e-02
  1.963990e+00    7.846256e-01   1.063309e-02
  1.966201e+00    7.790905e-01   1.058553e-02
  1.968411e+00    7.781961e-01   1.056936e-02
  1.970622e+00    7.833710e-01   1.059440e-02
  1.972832e+00    7.965654e-01   1.067318e-02
  1.975043e+00    8.076724e-01   1.073719e-02
  1.977253e+00    7.932250e-01   1.063072e-02
  1.979464e+00    7.874138e-01   1.058164e-02
  1.981674e+00    7.845759e-01   1.055229e-02
  1.983885e+00    7.794403e-01   1.050770e-02
  1.986095e+00    7.659428e-01   1.040670e-02
  1.988305e+00    7.731519e-01   1.044569e-02
  1.990516e+00    7.892811e-01   1.054411e-02
  1.992726e+00    7.832694e-01   1.049418e-02
  1.994937e+00    7.839904e-01   1.048883e-02
  1.997147e+00    7.807114e-01   1.045711e-02
  1.999358e+00    7.649525e-01   1.034125e-02
  2.001568e+00    7.740590e-01   1.039180e-02
  2.003779e+00    7.675135e-01   1.033590e-02
  2.005989e+00    7.600085e-01   1.027331e-02
  2.008200e+00    7.526746e-01   1.021222e-02
  2.010410e+00    7.777579e-01   1.036917e-02
  2.012621e+00    7.796213e-01   1.036980e-02
  2.014831e+00    7.788047e-01   1.035282e-02
  2.017041e+00    7.678410e-01   1.026930e-02
  2.019252e+00    7.673153e-01   1.025581e-02
  2.021462e+00    7.647310e-01   1.022902e-02
  2.023673e+00    7.571430e-01   1.016881e-02
  2.025883e+00    7.616571e-01   1.018956e-02
  2.028094e+00    7.413330e-01   1.004318e-02
  2.030304e+00    7.519059e-01   1.010508e-02
  2.032515e+00    7.517669e-01   1.009490e-02
  2.034725e+00    7.467344e-01   1.005167e-02
  2.036936e+00    7.667753e-01   1.017630e-02
  2.039146e+00    7.391197e-01   9.981630e-03
  2.041356e+00    7.482069e-01   1.003320e-02
  2.043567e+00    7.678217e-01   1.015449e-02
  2.045777e+00    7.565871e-01   1.007068e-02
  2.047988e+00    7.668926e-01   1.012959e-02
  2.050198e+00    7.359759e-01   9.914978e-03
  2.052409e+00    7.441244e-01   9.962084e-03
  2.054619e+00    7.491702e-01   9.988472e-03
  2.056830e+00    7.404696e-01   9.923144e-03
  2.059040e+00    7.375284e-01   9.895994e-03
  2.061251e+00    7.278542e-01   9.823725e-03
  2.063461e+00    7.486868e-01   9.955725e-03
  2.065671e+00    7.383864e-01   9.878354e-03
  2.067882e+00    7.324362e-01   9.829558e-03
  2.070092e+00    7.429501e-01   9.890688e-03
  2.072303e+00    7.395009e-01   9.858614e-03
  2.074513e+00    7.382184e-01   9.840777e-03
  2.076724e+00    7.352529e-01   9.811610e-03
  2.078934e+00    7.037135e-01   9.590078e-03
  2.081145e+00    7.344070e-01   9.787964e-03
  2.083355e+00    7.443044e-01   9.844507e-03
  2.085566e+00    7.281676e-01   9.728389e-03
  2.087776e+00    7.079365e-01   9.582993e-03
  2.089986e+00    7.051687e-01   9.555633e-03
  2.092197e+00    7.238541e-01   9.672541e-03
  2.094407e+00    7.320836e-01   9.718181e-03
  2.096618e+00    7.218500e-01   9.641180e-03
  2.098828e+00    7.169914e-01   9.599508e-03
  2.101039e+00    7.192246e-01   9.605523e-03
  2.103249e+00    7.312402e-01   9.676768e-03
  2.105460e+00    7.208799e-01   9.599027e-03
  2.107670e+00    7.080738e-01   9.504766e-03
  2.109881e+00    7.012436e-01   9.449809e-03
  2.112091e+00    7.157083e-01   9.537846e-03
  2.114301e+00    7.083959e-01   9.480326e-03
  2.116512e+00    7.061784e-01   9.456769e-03
  2.118722e+00    7.125906e-01   9.490855e-03
  2.120933e+00    7.055126e-01   9.434823e-03
  2.123143e+00    7.058946e-01   9.428555e-03
  2.125354e+00    6.936366e-01   9.337954e-03
  2.127564e+00    6.929878e-01   9.324983e-03
  2.129775e+00    6.943292e-01   9.325424e-03
  2.131985e+00    6.968055e-01   9.333080e-03
  2.134196e+00    6.938581e-01   9.304849e-03
  2.136406e+00    7.211716e-01   9.477422e-03
  2.138617e+00    7.029704e-01   9.348665e-03
  2.140827e+00    7.065300e-01   9.388328e-03
  2.143037e+00    7.077996e-01   9.442255e-03
  2.145248e+00    7.154100e-01   9.515043e-03
  2.147458e+00    6.877668e-01   9.344370e-03
  2.149669e+00    6.729458e-01   9.254718e-03
  2.151879e+00    6.950957e-01   9.414964e-03
  2.154090e+00    6.958842e-01   9.427598e-03
  2.156300e+00    7.032071e-01   9.483688e-03
  2.158511e+00    6.960673e-01   9.440727e-03
  2.160721e+00    6.878241e-01   9.389417e-03
  2.162932e+00    6.955788e-01   9.445946e-03
  2.165142e+00    6.976833e-01   9.463234e-03
  2.167352e+00    7.113308e-01   9.558291e-03
  2.169563e+00    6.902110e-01   9.417293e-03
  2.171773e+00    6.739143e-01   9.307844e-03
  2.173984e+00    6.913317e-01   9.428767e-03
  2.176194e+00    6.771132e-01   9.332502e-03
  2.178405e+00    6.793830e-01   9.348805e-03
  2.180615e+00    6.774423e-01   9.336133e-03
  2.182826e+00    6.824561e-01   9.371268e-03
  2.185036e+00    6.964421e-01   9.466887e-03
  2.187247e+00    6.814660e-01   9.364488e-03
  2.189457e+00    6.882752e-01   9.410740e-03
  2.191667e+00    6.905662e-01   9.426227e-03
  2.193878e+00    6.863769e-01   9.397020e-03
  2.196088e+00    6.818748e-01   9.365465e-03
  2.198299e+00    6.828321e-01   9.370953e-03
  2.200509e+00    6.874377e-01   9.401443e-03
  2.202720e+00    6.601248e-01   9.211661e-03
  2.204930e+00    6.696197e-01   9.276414e-03
  2.207141e+00    6.719502e-01   9.291464e-03
  2.209351e+00    6.805131e-01   9.348566e-03
  2.211562e+00    7.024735e-01   9.496571e-03
  2.213772e+00    7.105806e-01   9.494380e-03
  2.215982e+00    6.660048e-01   9.147888e-03
  2.218193e+00    6.594231e-01   9.073272e-03
  2.220403e+00    6.533802e-01   9.007418e-03
  2.222614e+00    6.677629e-01   9.085161e-03
  2.224824e+00    6.643628e-01   9.042753e-03
  2.227035e+00    6.610976e-01   9.003205e-03
  2.229245e+00    6.638570e-01   9.005117e-03
  2.231456e+00    6.703827e-01   9.033648e-03
  2.233666e+00    6.814194e-01   9.092507e-03
  2.235877e+00    6.807039e-01   9.073356e-03
  2.238087e+00    6.739162e-01   9.014494e-03
  2.240298e+00    6.658806e-01   8.946847e-03
  2.242508e+00    6.725990e-01   8.976699e-03
  2.244718e+00    6.680718e-01   8.930622e-03
  2.246929e+00    6.741617e-01   8.956779e-03
  2.249139e+00    6.588615e-01   8.842246e-03
  2.251350e+00    6.611830e-01   8.846140e-03
  2.253560e+00    6.626413e-01   8.844377e-03
  2.255771e+00    6.574395e-01   8.798239e-03
  2.257981e+00    6.583363e-01   8.793138e-03
  2.260192e+00    6.447862e-01   8.691213e-03
  2.262402e+00    6.652771e-01   8.817369e-03
  2.264613e+00    6.578832e-01   8.757466e-03
  2.266823e+00    6.537166e-01   8.719359e-03
  2.269033e+00    6.712879e-01   8.825291e-03
  2.271244e+00    6.934125e-01   8.958945e-03
  2.273454e+00    6.912833e-01   8.934683e-03
  2.275665e+00    7.087523e-01   9.036222e-03
  2.277875e+00    7.077215e-01   9.019376e-03
  2.280086e+00    7.011508e-01   8.967057e-03
  2.282296e+00    6.825165e-01   8.837542e-03
  2.284507e+00    6.508132e-01   8.619777e-03
  2.286717e+00    6.598005e-01   8.669591e-03
  2.288928e+00    6.336648e-01   8.486463e-03
  2.291138e+00    6.548340e-01   8.617646e-03
  2.293348e+00    6.479281e-01   8.562603e-03
  2.295559e+00    6.463781e-01   8.543103e-03
  2.297769e+00    6.462070e-01   8.532783e-03
  2.299980e+00    6.503409e-01   8.550733e-03
  2.302190e+00    6.467604e-01   8.518049e-03
  2.304401e+00    6.646993e-01   8.625994e-03
  2.306611e+00    6.365387e-01   8.432202e-03
  2.308822e+00    6.464391e-01   8.489151e-03
  2.311032e+00    6.554552e-01   8.541681e-03
  2.313243e+00    6.501526e-01   8.500795e-03
  2.315453e+00    6.300932e-01   8.361167e-03
  2.317663e+00    6.304211e-01   8.354336e-03
  2.319874e+00    6.341574e-01   8.370386e-03
  2.322084e+00    6.518168e-01   8.477151e-03
  2.324295e+00    6.430526e-01   8.411756e-03
  2.326505e+00    6.348679e-01   8.349065e-03
  2.328716e+00    6.421022e-01   8.387946e-03
  2.330926e+00    6.345857e-01   8.329983e-03
  2.333137e+00    6.388948e-01   8.349857e-03
  2.335347e+00    6.345022e-01   8.312275e-03
  2.337558e+00    6.299036e-01   8.273950e-03
  2.339768e+00    6.443640e-01   8.359754e-03
  2.341979e+00    6.528445e-01   8.406145e-03
  2.344189e+00    6.459260e-01   8.353045e-03
  2.346399e+00    6.404813e-01   8.309230e-03
  2.348610e+00    6.298732e-01   8.231717e-03
  2.350820e+00    6.220738e-01   8.172499e-03
  2.353031e+00    6.303620e-01   8.218488e-03
  2.355241e+00    6.242682e-01   8.170682e-03
  2.357452e+00    6.305494e-01   8.203272e-03
  2.359662e+00    6.292655e-01   8.186706e-03
  2.361873e+00    6.242480e-01   8.145822e-03
  2.364083e+00    6.151646e-01   8.078422e-03
  2.366294e+00    6.322230e-01   8.181533e-03
  2.368504e+00    6.221157e-01   8.107838e-03
  2.370714e+00    6.178384e-01   8.071906e-03
  2.372925e+00    6.065043e-01   7.989584e-03
  2.375135e+00    5.979825e-01   7.925376e-03
  2.377346e+00    6.062973e-01   7.972441e-03
  2.379556e+00    6.164196e-01   8.030879e-03
  2.381767e+00    5.927015e-01   7.867166e-03
  2.383977e+00    6.150645e-01   8.006311e-03
  2.386188e+00    6.140012e-01   7.991523e-03
  2.388398e+00    6.168631e-01   8.002155e-03
  2.390609e+00    6.260445e-01   8.053727e-03
  2.392819e+00    6.135400e-01   7.965138e-03
  2.395029e+00    6.064436e-01   7.911315e-03
  2.397240e+00    6.273853e-01   8.038815e-03
  2.399450e+00    6.110309e-01   7.925562e-03
  2.401661e+00    5.968699e-01   7.825597e-03
  2.403871e+00    5.930793e-01   7.793065e-03
  2.406082e+00    6.062559e-01   7.871736e-03
  2.408292e+00    6.024555e-01   7.839289e-03
  2.410503e+00    5.917585e-01   7.761996e-03
  2.412713e+00    5.944802e-01   7.772102e-03
  2.414924e+00    6.041935e-01   7.827867e-03
  2.417134e+00    5.880190e-01   7.714864e-03
  2.419344e+00    5.968493e-01   7.765188e-03
  2.421555e+00    6.032933e-01   7.799482e-03
  2.423765e+00    6.026087e-01   7.787638e-03
  2.425976e+00    5.968829e-01   7.742772e-03
  2.428186e+00    5.819544e-01   7.638213e-03
  2.430397e+00    5.885496e-01   7.673938e-03
  2.432607e+00    5.976790e-01   7.725942e-03
  2.434818e+00    5.965970e-01   7.711400e-03
  2.437028e+00    5.941570e-01   7.688465e-03
  2.439239e+00    5.875814e-01   7.638183e-03
  2.441449e+00    5.879097e-01   7.633153e-03
  2.443659e+00    5.791316e-01   7.568673e-03
  2.445870e+00    5.633850e-01   7.477050e-03
  2.448080e+00    5.789517e-01   7.614303e-03
  2.450291e+00    5.729574e-01   7.591348e-03
  2.452501e+00    5.693384e-01   7.578431e-03
  2.454712e+00    5.669605e-01   7.570958e-03
  2.456922e+00    5.589843e-01   7.524083e-03
  2.459133e+00    5.477824e-01   7.453637e-03
  2.461343e+00    5.533665e-01   7.495830e-03
  2.463554e+00    5.573061e-01   7.525915e-03
  2.465764e+00    5.428342e-01   7.430647e-03
  2.467975e+00    5.348940e-01   7.378325e-03
  2.470185e+00    5.397577e-01   7.413995e-03
  2.472395e+00    5.552755e-01   7.521059e-03
  2.474606e+00    5.500956e-01   7.487447e-03
  2.476816e+00    5.446788e-01   7.451211e-03
  2.479027e+00    5.608824e-01   7.562100e-03
  2.481237e+00    5.585930e-01   7.546932e-03
  2.483448e+00    5.421017e-01   7.435007e-03
  2.485658e+00    5.479761e-01   7.475016e-03
  2.487869e+00    5.499945e-01   7.488817e-03
  2.490079e+00    5.331777e-01   7.372936e-03
  2.492290e+00    5.285052e-01   7.340107e-03
  2.494500e+00    5.417978e-01   7.431112e-03
  2.496710e+00    5.424293e-01   7.434750e-03
  2.498921e+00    5.384900e-01   7.406708e-03
  2.501131e+00    5.301549e-01   7.348214e-03
  2.503342e+00    5.188049e-01   7.267891e-03
  2.505552e+00    5.234377e-01   7.299124e-03
  2.507763e+00    5.207595e-01   7.279047e-03
  2.509973e+00    5.125796e-01   7.220272e-03
  2.512184e+00    5.090546e-01   7.193801e-03
  2.514394e+00    5.112933e-01   7.200400e-03
  2.516605e+00    5.226569e-01   7.233076e-03
  2.518815e+00    5.219576e-01   7.200023e-03
  2.521025e+00    5.197207e-01   7.163720e-03
  2.523236e+00    5.266364e-01   7.193243e-03
  2.525446e+00    5.101172e-01   7.064155e-03
  2.527657e+00    5.178273e-01   7.102827e-03
  2.529867e+00    5.073353e-01   7.016562e-03
  2.532078e+00    5.298132e-01   7.155189e-03
  2.534288e+00    5.335456e-01   7.166387e-03
  2.536499e+00    5.120070e-01   7.008445e-03
  2.538709e+00    5.214728e-01   7.061937e-03
  2.540920e+00    5.255793e-01   7.079060e-03
  2.543130e+00    5.227334e-01   7.049506e-03
  2.545340e+00    5.110013e-01   6.960021e-03
  2.547551e+00    5.018495e-01   6.887659e-03
  2.549761e+00    5.153095e-01   6.969889e-03
  2.551972e+00    5.222974e-01   7.007645e-03
  2.554182e+00    5.254917e-01   7.019822e-03
  2.556393e+00    5.224062e-01   6.990076e-03
  2.558603e+00    5.139992e-01   6.924596e-03
  2.560814e+00    5.051780e-01   6.856333e-03
  2.563024e+00    5.029669e-01   6.832870e-03
  2.565235e+00    5.082825e-01   6.859458e-03
  2.567445e+00    5.097651e-01   6.860011e-03
  2.569656e+00    5.075967e-01   6.835731e-03
  2.571866e+00    5.126315e-01   6.860266e-03
  2.574076e+00    5.129227e-01   6.852967e-03
  2.576287e+00    5.028456e-01   6.777102e-03
  2.578497e+00    5.153814e-01   6.853203e-03
  2.580708e+00    5.147262e-01   6.840789e-03
  2.582918e+00    5.029171e-01   6.754191e-03
  2.585129e+00    4.835815e-01   6.615560e-03
  2.587339e+00    4.895785e-01   6.648943e-03
  2.589550e+00    4.935669e-01   6.668573e-03
  2.591760e+00    4.958142e-01   6.676136e-03
  2.593971e+00    4.994274e-01   6.692958e-03
  2.596181e+00    4.943708e-01   6.652881e-03
  2.598391e+00    5.156019e-01   6.789028e-03
  2.600602e+00    5.039763e-01   6.706175e-03
  2.602812e+00    5.008366e-01   6.677782e-03
  2.605023e+00    4.913293e-01   6.607047e-03
  2.607233e+00    4.852809e-01   6.559269e-03
  2.609444e+00    4.944767e-01   6.614001e-03
  2.611654e+00    4.910491e-01   6.583814e-03
  2.613865e+00    5.080659e-01   6.689882e-03
  2.616075e+00    4.972143e-01   6.610980e-03
  2.618286e+00    4.869836e-01   6.535748e-03
  2.620496e+00    4.955128e-01   6.586096e-03
  2.622706e+00    4.963297e-01   6.585825e-03
  2.624917e+00    4.961560e-01   6.578871e-03
  2.627127e+00    5.122092e-01   6.678674e-03
  2.629338e+00    5.075685e-01   6.642358e-03
  2.631548e+00    4.984379e-01   6.576193e-03
  2.633759e+00    4.975822e-01   6.563430e-03
  2.635969e+00    4.914600e-01   6.516323e-03
  2.638180e+00    4.856259e-01   6.470643e-03
  2.640390e+00    4.911526e-01   6.500829e-03
  2.642601e+00    5.081784e-01   6.605809e-03
  2.644811e+00    5.095136e-01   6.607381e-03
  2.647021e+00    4.849795e-01   6.439856e-03
  2.649232e+00    4.893148e-01   6.461922e-03
  2.651442e+00    4.897882e-01   6.458612e-03
  2.653653e+00    4.864642e-01   6.429948e-03
  2.655863e+00    4.850039e-01   6.413695e-03
  2.658074e+00    4.875936e-01   6.424255e-03
  2.660284e+00    4.978357e-01   6.485013e-03
  2.662495e+00    5.013415e-01   6.501033e-03
  2.664705e+00    4.893746e-01   6.416467e-03
  2.666916e+00    4.834918e-01   6.371391e-03
  2.669126e+00    4.888220e-01   6.400004e-03
  2.671337e+00    4.832430e-01   6.356896e-03
  2.673547e+00    4.804541e-01   6.332216e-03
  2.675757e+00    4.917272e-01   6.399649e-03
  2.677968e+00    5.031091e-01   6.466713e-03
  2.680178e+00    5.012701e-01   6.448437e-03
  2.682389e+00    4.768756e-01   6.283290e-03
  2.684599e+00    4.971912e-01   6.409511e-03
  2.686810e+00    4.933311e-01   6.377968e-03
  2.689020e+00    4.983170e-01   6.403787e-03
  2.691231e+00    4.904621e-01   6.346827e-03
  2.693441e+00    4.884424e-01   6.327610e-03
  2.695652e+00    4.872721e-01   6.313541e-03
  2.697862e+00    4.794292e-01   6.256238e-03
  2.700072e+00    4.853410e-01   6.288643e-03
  2.702283e+00    4.819711e-01   6.260606e-03
  2.704493e+00    4.736165e-01   6.199914e-03
  2.706704e+00    4.735439e-01   6.193134e-03
  2.708914e+00    4.740686e-01   6.190681e-03
  2.711125e+00    4.930208e-01   6.306929e-03
  2.713335e+00    4.880502e-01   6.268980e-03
  2.715546e+00    4.845549e-01   6.240025e-03
  2.717756e+00    4.963100e-01   6.309321e-03
  2.719967e+00    4.975380e-01   6.310856e-03
  2.722177e+00    4.847548e-01   6.223121e-03
  2.724387e+00    4.798477e-01   6.185472e-03
  2.726598e+00    4.828662e-01   6.198860e-03
  2.728808e+00    4.790665e-01   6.168306e-03
  2.731019e+00    4.791706e-01   6.162889e-03
  2.733229e+00    4.836183e-01   6.185629e-03
  2.735440e+00    4.877215e-01   6.205518e-03
  2.737650e+00    4.768279e-01   6.129851e-03
  2.739861e+00    4.790627e-01   6.138156e-03
  2.742071e+00    4.764978e-01   6.116008e-03
  2.744282e+00    4.805875e-01   6.135937e-03
  2.746492e+00    4.839768e-01   6.151514e-03
  2.748702e+00    4.783325e-01   6.109651e-03
  2.750913e+00    4.776643e-01   6.099614e-03
  2.753123e+00    4.729043e-01   6.063087e-03
  2.755334e+00    4.612648e-01   5.982053e-03
  2.757544e+00    4.682572e-01   6.021562e-03
  2.759755e+00    4.688927e-01   6.019824e-03
  2.761965e+00    4.763063e-01   6.061276e-03
  2.764176e+00    4.780619e-01   6.066459e-03
  2.766386e+00    4.637219e-01   5.969096e-03
  2.768597e+00    4.768195e-01   6.046947e-03
  2.770807e+00    4.863605e-01   6.101237e-03
  2.773017e+00    4.667754e-01   5.971238e-03
  2.775228e+00    4.755675e-01   6.021434e-03
  2.777438e+00    4.830998e-01   6.063106e-03
  2.779649e+00    4.891208e-01   6.094819e-03
  2.781859e+00    4.788694e-01   6.024839e-03
  2.784070e+00    4.804111e-01   6.028635e-03
  2.786280e+00    4.855857e-01   6.055207e-03
  2.788491e+00    4.814076e-01   6.023246e-03
  2.790701e+00    4.826747e-01   6.025475e-03
  2.792912e+00    4.754956e-01   5.974544e-03
  2.795122e+00    4.658021e-01   5.907654e-03
  2.797333e+00    4.691463e-01   5.923302e-03
  2.799543e+00    4.741161e-01   5.948734e-03
  2.801753e+00    4.793741e-01   5.975757e-03
  2.803964e+00    4.804866e-01   5.976983e-03
  2.806174e+00    4.782726e-01   5.957047e-03
  2.808385e+00    4.648979e-01   5.866434e-03
  2.810595e+00    4.605609e-01   5.832238e-03
  2.812806e+00    4.762025e-01   5.923819e-03
  2.815016e+00    4.658842e-01   5.854602e-03
  2.817227e+00    4.695861e-01   5.903614e-03
  2.819437e+00    4.658654e-01   5.891184e-03
  2.821648e+00    4.551715e-01   5.825393e-03
  2.823858e+00    4.721810e-01   5.938586e-03
  2.826068e+00    4.663932e-01   5.907021e-03
  2.828279e+00    4.630125e-01   5.889577e-03
  2.830489e+00    4.726882e-01   5.954120e-03
  2.832700e+00    4.632514e-01   5.896945e-03
  2.834910e+00    4.693188e-01   5.937470e-03
  2.837121e+00    4.775388e-01   5.990978e-03
  2.839331e+00    4.712974e-01   5.952929e-03
  2.841542e+00    4.653987e-01   5.916569e-03
  2.843752e+00    4.637107e-01   5.906605e-03
  2.845963e+00    4.728273e-01   5.964773e-03
  2.848173e+00    4.617794e-01   5.894780e-03
  2.850383e+00    4.600416e-01   5.883964e-03
  2.852594e+00    4.556549e-01   5.855754e-03
  2.854804e+00    4.596815e-01   5.881076e-03
  2.857015e+00    4.536138e-01   5.841719e-03
  2.859225e+00    4.462499e-01   5.793848e-03
  2.861436e+00    4.449225e-01   5.784592e-03
  2.863646e+00    4.586186e-01   5.872979e-03
  2.865857e+00    4.541580e-01   5.844693e-03
  2.868067e+00    4.562971e-01   5.858665e-03
  2.870278e+00    4.536254e-01   5.841129e-03
  2.872488e+00    4.612989e-01   5.889169e-03
  2.874698e+00    4.478380e-01   5.801602e-03
  2.876909e+00    4.466754e-01   5.792738e-03
  2.879119e+00    4.505791e-01   5.816398e-03
  2.881330e+00    4.652648e-01   5.908944e-03
  2.883540e+00    4.547826e-01   5.840652e-03
  2.885751e+00    4.473719e-01   5.791237e-03
  2.887961e+00    4.507852e-01   5.811423e-03
  2.890172e+00    4.485328e-01   5.795309e-03
  2.892382e+00    4.506514e-01   5.807187e-03
  2.894593e+00    4.610905e-01   5.872254e-03
  2.896803e+00    4.590334e-01   5.857162e-03
  2.899014e+00    4.568391e-01   5.841244e-03
  2.901224e+00    4.538223e-01   5.819935e-03
  2.903434e+00    4.492267e-01   5.788501e-03
  2.905645e+00    4.355273e-01   5.697364e-03
  2.907855e+00    4.524710e-01   5.805055e-03
  2.910066e+00    4.501976e-01   5.788391e-03
  2.912276e+00    4.453716e-01   5.755200e-03
  2.914487e+00    4.462213e-01   5.758268e-03
  2.916697e+00    4.423620e-01   5.731114e-03
  2.918908e+00    4.504977e-01   5.781594e-03
  2.921118e+00    4.522266e-01   5.790013e-03
  2.923329e+00    4.462529e-01   5.749346e-03
  2.925539e+00    4.526243e-01   5.787976e-03
  2.927749e+00    4.586281e-01   5.823920e-03
  2.929960e+00    4.550224e-01   5.798216e-03
  2.932170e+00    4.606486e-01   5.831610e-03
  2.934381e+00    4.512486e-01   5.769392e-03
  2.936591e+00    4.447217e-01   5.724952e-03
  2.938802e+00    4.323307e-01   5.642015e-03
  2.941012e+00    4.514226e-01   5.762890e-03
  2.943223e+00    4.546078e-01   5.780514e-03
  2.945433e+00    4.409543e-01   5.689380e-03
  2.947644e+00    4.415689e-01   5.689248e-03
  2.949854e+00    4.480350e-01   5.726536e-03
  2.952064e+00    4.519226e-01   5.747113e-03
  2.954275e+00    4.476698e-01   5.715629e-03
  2.956485e+00    4.525541e-01   5.742555e-03
  2.958696e+00    4.562173e-01   5.761364e-03
  2.960906e+00    4.463506e-01   5.694598e-03
  2.963117e+00    4.414185e-01   5.658608e-03
  2.965327e+00    4.603383e-01   5.774682e-03
  2.967538e+00    4.425857e-01   5.659379e-03
  2.969748e+00    4.481349e-01   5.691933e-03
  2.971959e+00    4.617922e-01   5.774845e-03
  2.974169e+00    4.549731e-01   5.729507e-03
  2.976379e+00    4.441831e-01   5.658234e-03
  2.978590e+00    4.442024e-01   5.655275e-03
  2.980800e+00    4.404280e-01   5.628433e-03
  2.983011e+00    4.486520e-01   5.677953e-03
  2.985221e+00    4.474299e-01   5.667085e-03
  2.987432e+00    4.525104e-01   5.696074e-03
  2.989642e+00    4.397126e-01   5.612364e-03
  2.991853e+00    4.414400e-01   5.620135e-03
  2.994063e+00    4.371061e-01   5.589631e-03
  2.996274e+00    4.440573e-01   5.630744e-03
  2.998484e+00    4.447379e-01   5.632395e-03
  3.000694e+00    4.503870e-01   5.664606e-03
  3.002905e+00    4.479288e-01   5.646218e-03
  3.005115e+00    4.462328e-01   5.632551e-03
  3.007326e+00    4.493644e-01   5.649142e-03
  3.009536e+00    4.488813e-01   5.642865e-03
  3.011747e+00    4.519714e-01   5.659346e-03
  3.013957e+00    4.398760e-01   5.579986e-03
  3.016168e+00    4.502095e-01   5.641868e-03
  3.018378e+00    4.474764e-01   5.621727e-03
  3.020589e+00    4.371644e-01   5.553400e-03
  3.022799e+00    4.392230e-01   5.563350e-03
  3.025010e+00    4.435267e-01   5.587326e-03
  3.027220e+00    4.475387e-01   5.609441e-03
  3.029430e+00    4.438966e-01   5.583369e-03
  3.031641e+00    4.454808e-01   5.590207e-03
  3.033851e+00    4.393979e-01   5.548432e-03
  3.036062e+00    4.358318e-01   5.523144e-03
  3.038272e+00    4.527800e-01   5.625918e-03
  3.040483e+00    4.400260e-01   5.542947e-03
  3.042693e+00    4.494890e-01   5.598966e-03
  3.044904e+00    4.482062e-01   5.586979e-03
  3.047114e+00    4.399243e-01   5.530357e-03
  3.049325e+00    4.448425e-01   5.556820e-03
  3.051535e+00    4.422874e-01   5.536494e-03
  3.053745e+00    4.346108e-01   5.483563e-03
  3.055956e+00    4.452136e-01   5.545510e-03
  3.058166e+00    4.436145e-01   5.531314e-03
  3.060377e+00    4.440573e-01   5.529321e-03
  3.062587e+00    4.488075e-01   5.554216e-03
  3.064798e+00    4.285875e-01   5.423507e-03
  3.067008e+00    4.376273e-01   5.475709e-03
  3.069219e+00    4.482884e-01   5.537523e-03
  3.071429e+00    4.508412e-01   5.549748e-03
  3.073640e+00    4.512458e-01   5.548893e-03
  3.075850e+00    4.470756e-01   5.519634e-03
  3.078060e+00    4.422460e-01   5.486655e-03
  3.080271e+00    4.415773e-01   5.479039e-03
  3.082481e+00    4.451334e-01   5.497646e-03
  3.084692e+00    4.251212e-01   5.369361e-03
  3.086902e+00    4.294305e-01   5.393302e-03
  3.089113e+00    4.388303e-01   5.448494e-03
  3.091323e+00    4.555657e-01   5.547991e-03
  3.093534e+00    4.486295e-01   5.502250e-03
  3.095744e+00    4.476339e-01   5.492750e-03
  3.097955e+00    4.436646e-01   5.464812e-03
  3.100165e+00    4.532542e-01   5.520195e-03
  3.102375e+00    4.551697e-01   5.528413e-03
  3.104586e+00    4.469192e-01   5.474572e-03
  3.106796e+00    4.364243e-01   5.406446e-03
  3.109007e+00    4.303851e-01   5.365731e-03
  3.111217e+00    4.422162e-01   5.435309e-03
  3.113428e+00    4.432440e-01   5.438224e-03
  3.115638e+00    4.325007e-01   5.368729e-03
  3.117849e+00    4.343227e-01   5.376329e-03
  3.120059e+00    4.440077e-01   5.432507e-03
  3.122270e+00    4.447530e-01   5.433786e-03
  3.124480e+00    4.350396e-01   5.370503e-03
  3.126691e+00    4.329824e-01   5.354247e-03
  3.128901e+00    4.432130e-01   5.414020e-03
  3.131111e+00    4.309065e-01   5.334570e-03
  3.133322e+00    4.358221e-01   5.361473e-03
  3.135532e+00    4.459922e-01   5.420265e-03
  3.137743e+00    4.349971e-01   5.349607e-03
  3.139953e+00    4.289085e-01   5.308390e-03
  3.142164e+00    4.409605e-01   5.394453e-03
  3.144374e+00    4.281675e-01   5.343576e-03
  3.146585e+00    4.300047e-01   5.369381e-03
  3.148795e+00    4.319968e-01   5.392452e-03
  3.151006e+00    4.407205e-01   5.455167e-03
  3.153216e+00    4.340402e-01   5.420735e-03
  3.155426e+00    4.318137e-01   5.413065e-03
  3.157637e+00    4.314605e-01   5.416308e-03
  3.159847e+00    4.425192e-01   5.490159e-03
  3.162058e+00    4.400107e-01   5.479024e-03
  3.164268e+00    4.324650e-01   5.435858e-03
  3.166479e+00    4.339196e-01   5.448610e-03
  3.168689e+00    4.406662e-01   5.494204e-03
  3.170900e+00    4.317728e-01   5.441603e-03
  3.173110e+00    4.351300e-01   5.465588e-03
  3.175321e+00    4.385409e-01   5.489460e-03
  3.177531e+00    4.306627e-01   5.442655e-03
  3.179741e+00    4.268084e-01   5.420274e-03
  3.181952e+00    4.286465e-01   5.434021e-03
  3.184162e+00    4.489647e-01   5.563556e-03
  3.186373e+00    4.251055e-01   5.415264e-03
  3.188583e+00    4.384327e-01   5.501300e-03
  3.190794e+00    4.105510e-01   5.325206e-03
  3.193004e+00    4.247497e-01   5.417717e-03
  3.195215e+00    4.359773e-01   5.490363e-03
  3.197425e+00    4.184218e-01   5.379897e-03
  3.199636e+00    4.175107e-01   5.373252e-03
  3.201846e+00    4.312764e-01   5.460516e-03
  3.204056e+00    4.558670e-01   5.614951e-03
  3.206267e+00    4.434530e-01   5.538834e-03
  3.208477e+00    4.149819e-01   5.358991e-03
  3.210688e+00    4.187043e-01   5.383775e-03
  3.212898e+00    4.322718e-01   5.470895e-03
  3.215109e+00    4.288163e-01   5.449736e-03
  3.217319e+00    4.254645e-01   5.429042e-03
  3.219530e+00    4.229828e-01   5.413548e-03
  3.221740e+00    4.089026e-01   5.323247e-03
  3.223951e+00    4.145592e-01   5.360393e-03
  3.226161e+00    4.155327e-01   5.366858e-03
  3.228372e+00    4.359265e-01   5.497522e-03
  3.230582e+00    4.221071e-01   5.409830e-03
  3.232792e+00    4.191167e-01   5.390842e-03
  3.235003e+00    4.295918e-01   5.458031e-03
  3.237213e+00    4.330021e-01   5.479768e-03
  3.239424e+00    4.344343e-01   5.488836e-03
  3.241634e+00    4.239692e-01   5.422431e-03
  3.243845e+00    4.101883e-01   5.333652e-03
  3.246055e+00    4.138982e-01   5.357440e-03
  3.248266e+00    4.023218e-01   5.282196e-03
  3.250476e+00    4.169471e-01   5.377024e-03
  3.252687e+00    4.221395e-01   5.410343e-03
  3.254897e+00    4.199623e-01   5.396244e-03
  3.257107e+00    4.237443e-01   5.420170e-03
  3.259318e+00    4.331042e-01   5.479496e-03
  3.261528e+00    4.103026e-01   5.333160e-03
  3.263739e+00    4.178046e-01   5.381128e-03
  3.265949e+00    4.203584e-01   5.397434e-03
  3.268160e+00    4.326198e-01   5.475180e-03
  3.270370e+00    4.205669e-01   5.397854e-03
  3.272581e+00    4.275151e-01   5.441974e-03
  3.274791e+00    4.212072e-01   5.401157e-03
  3.277002e+00    4.192238e-01   5.387872e-03
  3.279212e+00    4.233401e-01   5.413878e-03
  3.281422e+00    4.233716e-01   5.413496e-03
  3.283633e+00    4.294957e-01   5.451829e-03
  3.285843e+00    4.288760e-01   5.447566e-03
  3.288054e+00    4.288375e-01   5.446362e-03
  3.290264e+00    4.166963e-01   5.368412e-03
  3.292475e+00    4.080907e-01   5.311859e-03
  3.294685e+00    4.260588e-01   5.426912e-03
  3.296896e+00    4.184627e-01   5.377560e-03
  3.299106e+00    4.066724e-01   5.300725e-03
  3.301317e+00    4.267452e-01   5.428907e-03
  3.303527e+00    4.293449e-01   5.445003e-03
  3.305737e+00    4.229704e-01   5.403329e-03
  3.307948e+00    4.231234e-01   5.403682e-03
  3.310158e+00    4.075004e-01   5.302119e-03
  3.312369e+00    4.239747e-01   5.407359e-03
  3.314579e+00    4.220776e-01   5.394349e-03
  3.316790e+00    4.102277e-01   5.317379e-03
  3.319000e+00    4.183685e-01   5.368698e-03
  3.321211e+00    4.184286e-01   5.368481e-03
  3.323421e+00    4.206079e-01   5.381250e-03
  3.325632e+00    4.116049e-01   5.322450e-03
  3.327842e+00    4.242796e-01   5.402867e-03
  3.330052e+00    4.313793e-01   5.446806e-03
  3.332263e+00    4.109929e-01   5.315560e-03
  3.334473e+00    4.185193e-01   5.363083e-03
  3.336684e+00    4.147911e-01   5.337896e-03
  3.338894e+00    4.076387e-01   5.290834e-03
  3.341105e+00    4.252497e-01   5.402699e-03
  3.343315e+00    4.232875e-01   5.389091e-03
  3.345526e+00    4.282050e-01   5.419380e-03
  3.347736e+00    4.210532e-01   5.372545e-03
  3.349947e+00    4.070287e-01   5.281386e-03
  3.352157e+00    4.299170e-01   5.426639e-03
  3.354368e+00    4.303005e-01   5.427763e-03
  3.356578e+00    4.247407e-01   5.391567e-03
  3.358788e+00    4.133800e-01   5.317647e-03
  3.360999e+00    4.234110e-01   5.380521e-03
  3.363209e+00    4.049427e-01   5.260875e-03
  3.365420e+00    4.191197e-01   5.350656e-03
  3.367630e+00    4.036375e-01   5.249897e-03
  3.369841e+00    4.063419e-01   5.266047e-03
  3.372051e+00    4.135761e-01   5.310738e-03
  3.374262e+00    4.236213e-01   5.372405e-03
  3.376472e+00    4.122033e-01   5.297061e-03
  3.378683e+00    4.189330e-01   5.337620e-03
  3.380893e+00    4.141191e-01   5.304528e-03
  3.383103e+00    4.219676e-01   5.351828e-03
  3.385314e+00    4.254636e-01   5.371702e-03
  3.387524e+00    4.200638e-01   5.334769e-03
  3.389735e+00    4.209347e-01   5.337624e-03
  3.391945e+00    4.069904e-01   5.244841e-03
  3.394156e+00    4.100736e-01   5.260461e-03
  3.396366e+00    4.045395e-01   5.221455e-03
  3.398577e+00    4.166156e-01   5.295767e-03
  3.400787e+00    4.106937e-01   5.269880e-03
  3.402998e+00    4.049411e-01   5.270695e-03
  3.405208e+00    3.919327e-01   5.205645e-03
  3.407418e+00    3.904095e-01   5.211100e-03
  3.409629e+00    3.925526e-01   5.239186e-03
  3.411839e+00    3.930303e-01   5.254062e-03
  3.414050e+00    3.995574e-01   5.308527e-03
  3.416260e+00    4.097350e-01   5.385550e-03
  3.418471e+00    3.978409e-01   5.316276e-03
  3.420681e+00    3.917189e-01   5.283698e-03
  3.422892e+00    3.823746e-01   5.228217e-03
  3.425102e+00    3.835270e-01   5.243829e-03
  3.427313e+00    3.842603e-01   5.256000e-03
  3.429523e+00    3.730792e-01   5.185903e-03
  3.431733e+00    3.712359e-01   5.179602e-03
  3.433944e+00    3.781675e-01   5.234164e-03
  3.436154e+00    3.867829e-01   5.299724e-03
  3.438365e+00    3.699232e-01   5.188779e-03
  3.440575e+00    3.726911e-01   5.214020e-03
  3.442786e+00    3.709112e-01   5.207082e-03
  3.444996e+00    3.659827e-01   5.177818e-03
  3.447207e+00    3.606347e-01   5.145006e-03
  3.449417e+00    3.667882e-01   5.229285e-03
  3.451628e+00    3.527038e-01   5.156695e-03
  3.453838e+00    3.665970e-01   5.278394e-03
  3.456049e+00    3.676749e-01   5.310100e-03
  3.458259e+00    3.615001e-01   5.287078e-03
  3.460469e+00    3.661089e-01   5.340469e-03
  3.462680e+00    3.700040e-01   5.387953e-03
  3.464890e+00    3.528097e-01   5.278738e-03
  3.467101e+00    3.643827e-01   5.382006e-03
  3.469311e+00    3.753465e-01   5.479045e-03
  3.471522e+00    3.859056e-01   5.572189e-03
  3.473732e+00    3.946881e-01   5.651546e-03
  3.475943e+00    3.922080e-01   5.649650e-03
  3.478153e+00    4.002513e-01   5.722972e-03
  3.480364e+00    4.072722e-01   5.788361e-03
  3.482574e+00    4.072069e-01   5.803290e-03
  3.484784e+00    4.303512e-01   5.981179e-03
  3.486995e+00    4.374396e-01   6.045685e-03
  3.489205e+00    4.311235e-01   6.016743e-03
  3.491416e+00    4.225901e-01   5.971685e-03
  3.493626e+00    4.238645e-01   5.995125e-03
  3.495837e+00    4.364613e-01   6.098198e-03
  3.498047e+00    4.655676e-01   6.313103e-03
  3.500258e+00    4.493371e-01   6.216649e-03
  3.502468e+00    4.490083e-01   6.228673e-03
  3.504679e+00    4.477005e-01   6.233917e-03
  3.506889e+00    4.475569e-01   6.247032e-03
  3.509099e+00    4.628871e-01   6.367342e-03
  3.511310e+00    4.860930e-01   6.539662e-03
  3.513520e+00    4.824389e-01   6.529410e-03
  3.515731e+00    4.948729e-01   6.627548e-03
  3.517941e+00    4.884818e-01   6.598965e-03
  3.520152e+00    5.071795e-01   6.738538e-03
  3.522362e+00    5.002533e-01   6.706866e-03
  3.524573e+00    5.104356e-01   6.789122e-03
  3.526783e+00    5.104313e-01   6.802430e-03
  3.528994e+00    5.271284e-01   6.925165e-03
  3.531204e+00    5.166016e-01   6.868084e-03
  3.533414e+00    5.159263e-01   6.875528e-03
  3.535625e+00    5.407344e-01   7.051438e-03
  3.537835e+00    5.333934e-01   7.015522e-03
  3.540046e+00    5.418301e-01   7.079770e-03
  3.542256e+00    5.209820e-01   6.949669e-03
  3.544467e+00    5.281538e-01   7.004887e-03
  3.546677e+00    5.318856e-01   7.037162e-03
  3.548888e+00    5.291983e-01   7.026773e-03
  3.551098e+00    5.318633e-01   7.051756e-03
  3.553309e+00    5.341513e-01   7.075015e-03
  3.555519e+00    5.390643e-01   7.118814e-03
  3.557729e+00    5.380628e-01   7.123961e-03
  3.559940e+00    5.344545e-01   7.111568e-03
  3.562150e+00    5.336770e-01   7.118041e-03
  3.564361e+00    5.562438e-01   7.280575e-03
  3.566571e+00    5.436390e-01   7.211566e-03
  3.568782e+00    5.179495e-01   7.052944e-03
  3.570992e+00    5.429827e-01   7.235222e-03
  3.573203e+00    5.392967e-01   7.224845e-03
  3.575413e+00    5.250333e-01   7.142278e-03
  3.577624e+00    5.458319e-01   7.296598e-03
  3.579834e+00    5.424640e-01   7.288057e-03
  3.582045e+00    5.458673e-01   7.325017e-03
  3.584255e+00    5.542166e-01   7.395141e-03
  3.586465e+00    5.146264e-01   7.139760e-03
  3.588676e+00    5.373126e-01   7.309620e-03
  3.590886e+00    5.268039e-01   7.251398e-03
  3.593097e+00    5.160359e-01   7.191139e-03
  3.595307e+00    5.118771e-01   7.175707e-03
  3.597518e+00    5.089097e-01   7.168727e-03
  3.599728e+00    5.254361e-01   7.298170e-03
  3.601939e+00    5.190053e-01   7.267208e-03
  3.604149e+00    5.111792e-01   7.226294e-03
  3.606360e+00    5.308287e-01   7.377962e-03
  3.608570e+00    5.126362e-01   7.264272e-03
  3.610780e+00    5.359688e-01   7.438818e-03
  3.612991e+00    5.162515e-01   7.310560e-03
  3.615201e+00    5.192728e-01   7.341562e-03
  3.617412e+00    5.426952e-01   7.512629e-03
  3.619622e+00    5.457979e-01   7.540074e-03
  3.621833e+00    5.648285e-01   7.677361e-03
  3.624043e+00    5.248269e-01   7.409909e-03
  3.626254e+00    5.019055e-01   7.255700e-03
  3.628464e+00    5.139508e-01   7.352992e-03
  3.630675e+00    5.449954e-01   7.586048e-03
  3.632885e+00    5.421770e-01   7.581021e-03
  3.635095e+00    5.412795e-01   7.589225e-03
  3.637306e+00    5.414432e-01   7.604852e-03
  3.639516e+00    5.227793e-01   7.487006e-03
  3.641727e+00    5.343668e-01   7.584136e-03
  3.643937e+00    5.268140e-01   7.544775e-03
  3.646148e+00    5.278195e-01   7.566534e-03
  3.648358e+00    5.136952e-01   7.479188e-03
  3.650569e+00    5.271963e-01   7.591475e-03
  3.652779e+00    5.365686e-01   7.673483e-03
  3.654990e+00    5.350257e-01   7.677390e-03
  3.657200e+00    5.168999e-01   7.560879e-03
  3.659410e+00    5.238246e-01   7.626213e-03
  3.661621e+00    5.326567e-01   7.705334e-03
  3.663831e+00    5.171613e-01   7.607382e-03
  3.666042e+00    5.286163e-01   7.706230e-03
  3.668252e+00    5.372372e-01   7.784197e-03
  3.670463e+00    5.320518e-01   7.761764e-03
  3.672673e+00    5.285110e-01   7.751271e-03
  3.674884e+00    5.170501e-01   7.682006e-03
  3.677094e+00    5.096539e-01   7.642005e-03
  3.679305e+00    5.247500e-01   7.769865e-03
  3.681515e+00    5.399274e-01   7.897198e-03
  3.683726e+00    5.195067e-01   7.762056e-03
  3.685936e+00    5.254794e-01   7.822224e-03
  3.688146e+00    5.175586e-01   7.778628e-03
  3.690357e+00    5.304753e-01   7.891085e-03
  3.692567e+00    5.439215e-01   8.006886e-03
  3.694778e+00    5.111148e-01   7.777450e-03
  3.696988e+00    5.069135e-01   7.761121e-03
  3.699199e+00    5.240585e-01   7.907474e-03
  3.701409e+00    5.063888e-01   7.789136e-03
  3.703620e+00    5.285949e-01   7.974396e-03
  3.705830e+00    5.330813e-01   8.024781e-03
  3.708041e+00    5.113166e-01   7.875595e-03
  3.710251e+00    4.943783e-01   7.760328e-03
  3.712461e+00    5.017575e-01   7.834380e-03
  3.714672e+00    5.150914e-01   7.954442e-03
  3.716882e+00    5.164129e-01   7.981276e-03
  3.719093e+00    5.339928e-01   8.133330e-03
  3.721303e+00    5.266324e-01   8.094201e-03
  3.723514e+00    5.107540e-01   7.988373e-03
  3.725724e+00    5.112163e-01   8.008990e-03
  3.727935e+00    5.225949e-01   8.115176e-03
  3.730145e+00    4.984711e-01   7.942680e-03
  3.732356e+00    4.982668e-01   7.958285e-03
  3.734566e+00    5.031109e-01   8.014174e-03
  3.736776e+00    5.151781e-01   8.127521e-03
  3.738987e+00    5.002317e-01   8.026218e-03
  3.741197e+00    5.176578e-01   8.182915e-03
  3.743408e+00    5.273983e-01   8.277840e-03
  3.745618e+00    5.246701e-01   8.274921e-03
  3.747829e+00    5.298494e-01   8.334106e-03
  3.750039e+00    5.236757e-01   8.303981e-03
  3.752250e+00    5.154443e-01   8.256999e-03
  3.754460e+00    4.999211e-01   8.150112e-03
  3.756671e+00    5.087985e-01   8.240906e-03
  3.758881e+00    5.222914e-01   8.368323e-03
  3.761091e+00    5.304459e-01   8.453013e-03
  3.763302e+00    5.130008e-01   8.331976e-03
  3.765512e+00    5.088999e-01   8.317911e-03
  3.767723e+00    5.066260e-01   8.318660e-03
  3.769933e+00    4.975509e-01   8.262952e-03
  3.772144e+00    4.897630e-01   8.217290e-03
  3.774354e+00    4.839977e-01   8.188221e-03
  3.776565e+00    5.180892e-01   8.491737e-03
  3.778775e+00    5.199608e-01   8.527364e-03
  3.780986e+00    4.990665e-01   8.374490e-03
  3.783196e+00    4.914359e-01   8.330222e-03
  3.785407e+00    5.209853e-01   8.597726e-03
  3.787617e+00    5.140432e-01   8.561348e-03
  3.789827e+00    4.750783e-01   8.250398e-03
  3.792038e+00    4.974287e-01   8.462965e-03
  3.794248e+00    4.901274e-01   8.421547e-03
  3.796459e+00    4.798783e-01   8.353960e-03
  3.798669e+00    4.872763e-01   8.439134e-03
  3.800880e+00    4.985565e-01   8.557705e-03
  3.803090e+00    4.997571e-01   8.589819e-03
  3.805301e+00    4.932343e-01   8.555498e-03
  3.807511e+00    4.856430e-01   8.511110e-03
  3.809722e+00    4.916066e-01   8.585234e-03
  3.811932e+00    4.770865e-01   8.479210e-03
  3.814142e+00    4.984106e-01   8.689477e-03
  3.816353e+00    5.007699e-01   8.732953e-03
  3.818563e+00    4.889894e-01   8.652474e-03
  3.820774e+00    4.863678e-01   8.652098e-03
  3.822984e+00    4.966335e-01   8.766319e-03
  3.825195e+00    5.007861e-01   8.826635e-03
  3.827405e+00    5.159102e-01   8.983267e-03
  3.829616e+00    5.171560e-01   9.018672e-03
  3.831826e+00    4.996187e-01   8.888644e-03
  3.834037e+00    4.903154e-01   8.829865e-03
  3.836247e+00    4.763695e-01   8.727536e-03
  3.838457e+00    4.857475e-01   8.837773e-03
  3.840668e+00    4.841045e-01   8.847712e-03
  3.842878e+00    5.018257e-01   9.033811e-03
  3.845089e+00    4.754425e-01   8.818256e-03
  3.847299e+00    4.918300e-01   8.994577e-03
  3.849510e+00    5.098144e-01   9.183776e-03
  3.851720e+00    4.989786e-01   9.107159e-03
  3.853931e+00    5.213641e-01   9.328724e-03
  3.856141e+00    4.842713e-01   9.009600e-03
  3.858352e+00    4.855682e-01   9.040698e-03
  3.860562e+00    4.635262e-01   8.851848e-03
  3.862772e+00    5.007922e-01   9.220438e-03
  3.864983e+00    5.091009e-01   9.316625e-03
  3.867193e+00    5.000703e-01   9.253567e-03
  3.869404e+00    4.740551e-01   9.029041e-03
  3.871614e+00    4.871577e-01   9.172820e-03
  3.873825e+00    5.003625e-01   9.316744e-03
  3.876035e+00    5.043393e-01   9.374578e-03
  3.878246e+00    5.041571e-01   9.398901e-03
  3.880456e+00    5.022076e-01   9.409986e-03
  3.882667e+00    4.968561e-01   9.389267e-03
  3.884877e+00    4.888709e-01   9.343067e-03
  3.887087e+00    4.892889e-01   9.377037e-03
  3.889298e+00    4.714011e-01   9.233696e-03
  3.891508e+00    4.690061e-01   9.240126e-03
  3.893719e+00    4.606204e-01   9.187085e-03
  3.895929e+00    4.489577e-01   9.100183e-03
  3.898140e+00    4.780065e-01   9.421137e-03
  3.900350e+00    5.020297e-01   9.687591e-03
  3.902561e+00    4.965525e-01   9.667100e-03
  3.904771e+00    4.897173e-01   9.633240e-03
  3.906982e+00    4.823353e-01   9.593213e-03
  3.909192e+00    4.576431e-01   9.376834e-03
  3.911403e+00    4.729734e-01   9.566022e-03
  3.913613e+00    4.761786e-01   9.632271e-03
  3.915823e+00    5.139185e-01   1.004231e-02
  3.918034e+00    4.823247e-01   9.763845e-03
  3.920244e+00    4.642950e-01   9.614420e-03
  3.922455e+00    4.942083e-01   9.955584e-03
  3.924665e+00    5.131150e-01   1.018161e-02
  3.926876e+00    4.876268e-01   9.962634e-03
  3.929086e+00    4.757848e-01   9.877801e-03
  3.931297e+00    4.880047e-01   1.003863e-02
  3.933507e+00    4.926071e-01   1.011500e-02
  3.935718e+00    4.860857e-01   1.007655e-02
  3.937928e+00    4.881162e-01   1.012697e-02
  3.940138e+00    4.872417e-01   1.014730e-02
  3.942349e+00    4.878386e-01   1.018338e-02
  3.944559e+00    4.698684e-01   1.002347e-02
  3.946770e+00    5.052750e-01   1.042506e-02
  3.948980e+00    4.933609e-01   1.033237e-02
  3.951191e+00    4.909574e-01   1.033813e-02
  3.953401e+00    4.856551e-01   1.031353e-02
  3.955612e+00    4.635120e-01   1.010648e-02
  3.957822e+00    4.762215e-01   1.027552e-02
  3.960033e+00    4.940165e-01   1.049862e-02
  3.962243e+00    4.715626e-01   1.028968e-02
  3.964453e+00    4.630426e-01   1.022857e-02
  3.966664e+00    4.636688e-01   1.026808e-02
  3.968874e+00    4.599671e-01   1.025467e-02
  3.971085e+00    4.694262e-01   1.038115e-02
  3.973295e+00    4.734654e-01   1.044693e-02
  3.975506e+00    4.991475e-01   1.074832e-02
  3.977716e+00    5.003006e-01   1.078324e-02
  3.979927e+00    4.957916e-01   1.075683e-02
  3.982137e+00    4.684299e-01   1.047771e-02
  3.984348e+00    4.643857e-01   1.045435e-02
  3.986558e+00    4.806726e-01   1.065843e-02
  3.988768e+00    5.092477e-01   1.099420e-02
  3.990979e+00    4.628147e-01   1.050327e-02
  3.993189e+00    4.723154e-01   1.063322e-02
  3.995400e+00    5.078197e-01   1.104973e-02
  3.997610e+00    4.730204e-01   1.069385e-02
  3.999821e+00    4.915892e-01   1.093957e-02
  4.002031e+00    4.670337e-01   1.070043e-02
  4.004242e+00    5.149451e-01   1.127567e-02
  4.006452e+00    4.686893e-01   1.079600e-02
  4.008663e+00    4.793422e-01   1.095785e-02
  4.010873e+00    4.882825e-01   1.109949e-02
  4.013084e+00    5.163077e-01   1.145599e-02
  4.015294e+00    5.239964e-01   1.158361e-02
  4.017504e+00    4.919724e-01   1.126626e-02
  4.019715e+00    4.661551e-01   1.100839e-02
  4.021925e+00    4.689810e-01   1.108397e-02
  4.024136e+00    4.867589e-01   1.133583e-02
  4.026346e+00    4.892881e-01   1.140973e-02
  4.028557e+00    4.599169e-01   1.110512e-02
  4.030767e+00    4.846587e-01   1.144559e-02
  4.032978e+00    5.099414e-01   1.178795e-02
  4.035188e+00    4.649312e-01   1.130092e-02
  4.037399e+00    4.668001e-01   1.137037e-02
  4.039609e+00    4.885269e-01   1.167992e-02
  4.041819e+00    4.655139e-01   1.144942e-02
  4.044030e+00    4.822928e-01   1.170369e-02
  4.046240e+00    5.046622e-01   1.202310e-02
  4.048451e+00    4.548760e-01   1.146410e-02
  4.050661e+00    4.554780e-01   1.152155e-02
  4.052872e+00    4.721380e-01   1.178265e-02
  4.055082e+00    4.805650e-01   1.194053e-02
  4.057293e+00    4.594497e-01   1.172780e-02
  4.059503e+00    4.945674e-01   1.222307e-02
  4.061714e+00    4.758003e-01   1.204513e-02
  4.063924e+00    4.261949e-01   1.145325e-02
  4.066134e+00    4.622282e-01   1.198382e-02
  4.068345e+00    4.534077e-01   1.192591e-02
  4.070555e+00    4.805167e-01   1.233674e-02
  4.072766e+00    4.436855e-01   1.191273e-02
  4.074976e+00    4.833412e-01   1.249572e-02
  4.077187e+00    5.016692e-01   1.279380e-02
  4.079397e+00    4.803227e-01   1.258248e-02
  4.081608e+00    4.920890e-01   1.280205e-02
  4.083818e+00    4.613670e-01   1.246019e-02
  4.086029e+00    5.125113e-01   1.320224e-02
  4.088239e+00    4.792147e-01   1.283471e-02
  4.090449e+00    4.998411e-01   1.317918e-02
  4.092660e+00    4.626103e-01   1.274859e-02
  4.094870e+00    4.903932e-01   1.319896e-02
  4.097081e+00    4.386674e-01   1.255160e-02
  4.099291e+00    4.751563e-01   1.311746e-02
  4.101502e+00    4.817916e-01   1.325790e-02
  4.103712e+00    5.051400e-01   1.362598e-02
  4.105923e+00    4.601141e-01   1.305493e-02
  4.108133e+00    4.408920e-01   1.282857e-02
  4.110344e+00    4.608648e-01   1.316601e-02
  4.112554e+00    4.896255e-01   1.362417e-02
  4.114764e+00    4.910418e-01   1.369889e-02
  4.116975e+00    4.686883e-01   1.343622e-02
  4.119185e+00    4.794415e-01   1.364450e-02
  4.121396e+00    4.621662e-01   1.345183e-02
  4.123606e+00    4.976916e-01   1.401652e-02
  4.125817e+00    5.124734e-01   1.428272e-02
  4.128027e+00    5.002601e-01   1.417091e-02
  4.130238e+00    4.583138e-01   1.362216e-02
  4.132448e+00    4.344223e-01   1.331975e-02
  4.134659e+00    4.573557e-01   1.372544e-02
  4.136869e+00    5.302296e-01   1.484463e-02
  4.139080e+00    4.875065e-01   1.429814e-02
  4.141290e+00    4.915578e-01   1.442110e-02
  4.143500e+00    4.461845e-01   1.380282e-02
  4.145711e+00    4.832899e-01   1.443229e-02
  4.147921e+00    5.210026e-01   1.505341e-02
  4.150132e+00    5.384833e-01   1.537719e-02
  4.152342e+00    5.065108e-01   1.498568e-02
  4.154553e+00    5.301787e-01   1.540501e-02
  4.156763e+00    4.582148e-01   1.439217e-02
  4.158974e+00    4.831782e-01   1.485333e-02
  4.161184e+00    4.632626e-01   1.461599e-02
  4.163395e+00    4.809411e-01   1.496849e-02
  4.165605e+00    4.874674e-01   1.514790e-02
  4.167815e+00    4.446518e-01   1.454315e-02
  4.170026e+00    4.664824e-01   1.497391e-02
  4.172236e+00    4.402578e-01   1.462586e-02
  4.174447e+00    4.541671e-01   1.493564e-02
  4.176657e+00    5.090584e-01   1.589922e-02
  4.178868e+00    4.359495e-01   1.479664e-02
  4.181078e+00    4.390808e-01   1.493296e-02
  4.183289e+00    4.655156e-01   1.546419e-02
  4.185499e+00    5.131815e-01   1.633239e-02
  4.187710e+00    4.776577e-01   1.584931e-02
  4.189920e+00    4.371970e-01   1.525425e-02
  4.192130e+00    5.321323e-01   1.693228e-02
  4.194341e+00    4.754994e-01   1.610402e-02
  4.196551e+00    4.756099e-01   1.620782e-02
  4.198762e+00    5.417780e-01   1.740836e-02
  4.200972e+00    5.163100e-01   1.710454e-02
  4.203183e+00    4.693094e-01   1.641467e-02
  4.205393e+00    5.004861e-01   1.706410e-02
  4.207604e+00    4.647689e-01   1.655623e-02
  4.209814e+00    4.309983e-01   1.605242e-02
  4.212025e+00    4.810212e-01   1.707870e-02
  4.214235e+00    5.044246e-01   1.761319e-02
  4.216445e+00    5.415636e-01   1.838215e-02
  4.218656e+00    4.524806e-01   1.692836e-02
  4.220866e+00    4.732081e-01   1.743973e-02
  4.223077e+00    5.203189e-01   1.842817e-02
  4.225287e+00    4.300062e-01   1.688432e-02
  4.227498e+00    4.796828e-01   1.797285e-02
  4.229708e+00    4.585689e-01   1.771569e-02
  4.231919e+00    4.271424e-01   1.723948e-02
  4.234129e+00    4.529239e-01   1.790074e-02
  4.236340e+00    4.567561e-01   1.813065e-02
  4.238550e+00    4.964946e-01   1.906927e-02
  4.240761e+00    4.894398e-01   1.910051e-02
  4.242971e+00    4.938203e-01   1.936187e-02
  4.245181e+00    4.958066e-01   1.958289e-02
  4.247392e+00    4.751649e-01   1.935004e-02
  4.249602e+00    4.741543e-01   1.952154e-02
  4.251813e+00    4.642044e-01   1.950615e-02
  4.254023e+00    3.879046e-01   1.801041e-02
  4.256234e+00    4.727548e-01   2.009548e-02
  4.258444e+00    4.716759e-01   2.028289e-02
  4.260655e+00    4.362547e-01   1.972078e-02
  4.262865e+00    3.889590e-01   1.883225e-02
  4.265076e+00    4.478519e-01   2.043735e-02
  4.267286e+00    4.415260e-01   2.053311e-02
  4.269496e+00    5.192693e-01   2.253999e-02
  4.271707e+00    4.233967e-01   2.060443e-02
  4.273917e+00    5.206752e-01   2.314379e-02
  4.276128e+00    3.994248e-01   2.054084e-02
  4.278338e+00    4.511110e-01   2.212050e-02
  4.280549e+00    4.055112e-01   2.127311e-02
  4.282759e+00    5.037637e-01   2.405171e-02
  4.284970e+00    4.763408e-01   2.373412e-02
  4.287180e+00    4.368578e-01   2.300168e-02
  4.289391e+00    4.921177e-01   2.459655e-02
  4.291601e+00    4.373002e-01   2.337119e-02
  4.293811e+00    4.202055e-01   2.308928e-02
  4.296022e+00    4.724242e-01   2.467790e-02
  4.298232e+00    4.435108e-01   2.411112e-02
  4.300443e+00    5.033579e-01   2.589857e-02
  4.302653e+00    4.915989e-01   2.581671e-02
  4.304864e+00    4.788271e-01   2.569877e-02
  4.307074e+00    4.608669e-01   2.543936e-02
  4.309285e+00    4.043478e-01   2.404525e-02
  4.311495e+00    4.187536e-01   2.469746e-02
  4.313706e+00    4.112201e-01   2.470537e-02
  4.315916e+00    3.909341e-01   2.432462e-02
  4.318126e+00    4.492431e-01   2.633418e-02
  4.320337e+00    4.396254e-01   2.631453e-02
  4.322547e+00    4.253967e-01   2.615840e-02
  4.324758e+00    5.074819e-01   2.886862e-02
  4.326968e+00    5.117107e-01   2.931603e-02
  4.329179e+00    4.924212e-01   2.907434e-02
  4.331389e+00    5.231275e-01   3.031277e-02
  4.333600e+00    4.406065e-01   2.815234e-02
  4.335810e+00    4.185413e-01   2.776351e-02
  4.338021e+00    4.145063e-01   2.798366e-02
  4.340231e+00    4.288610e-01   2.882149e-02
  4.342442e+00    4.294443e-01   2.922683e-02
  4.344652e+00    4.109035e-01   2.897904e-02
  4.346862e+00    4.045162e-01   2.915327e-02
  4.349073e+00    4.380614e-01   3.078242e-02
  4.351283e+00    2.821650e-01   2.507250e-02
  4.353494e+00    3.764977e-01   2.940852e-02
  4.355704e+00    4.922974e-01   3.417181e-02
  4.357915e+00    4.841937e-01   3.445212e-02
  4.360125e+00    5.589449e-01   3.764908e-02
  4.362336e+00    4.230743e-01   3.335184e-02
  4.364546e+00    4.505116e-01   3.504280e-02
  4.366757e+00    5.427629e-01   3.922876e-02
  4.368967e+00    3.591488e-01   3.254886e-02
  4.371177e+00    4.430636e-01   3.691761e-02
  4.373388e+00    4.747266e-01   3.906981e-02
  4.375598e+00    3.646238e-01   3.502373e-02
  4.377809e+00    3.166489e-01   3.346015e-02
  4.380019e+00    4.142561e-01   3.923677e-02
  4.382230e+00    3.402019e-01   3.654870e-02
  4.384440e+00    4.080409e-01   4.117928e-02
  4.386651e+00    4.712323e-01   4.561771e-02
  4.388861e+00    4.994783e-01   4.854157e-02
  4.391072e+00    4.519249e-01   4.779543e-02
  4.393282e+00    3.578187e-01   4.417221e-02
  4.395492e+00    4.634602e-01   5.236084e-02
  4.397703e+00    2.170679e-01   3.747671e-02
  4.399913e+00    1.683998e-01   3.467881e-02
  4.402124e+00    2.184165e-01   4.172795e-02
  4.404334e+00    4.097742e-01   6.075660e-02
  4.406545e+00    2.971853e-02   1.759928e-02
  4.408755e+00    3.307266e-01   6.359913e-02
  4.410966e+00    3.365034e-01   7.101011e-02
  4.413176e+00    2.650761e-01   7.134354e-02
  4.415387e+00   -7.033450e-01            nan
  4.417597e+00   -1.731232e+00            nan
  4.419807e+00   -1.939845e-01            nan
