# == pyFAI calibration ==
# Distance Sample to Detector: 0.216 m
# PONI: 1.166e-01, 1.308e-01 m
# Rotations: 0.000000 0.000000 0.000000 rad
# 
# == Fit2d calibration ==
# Distance Sample-beamCenter: 216.000 mm
# Center: x=1744.293, y=1555.000 pix
# Tilt: 0.000 deg  TiltPlanRot: 0.000 deg
# 
# Detector Eiger 9M	 PixelSize= 7.500e-05, 7.500e-05 m
#    Detector has a mask: True 
#    Detector has a dark current: False 
#    detector has a flat field: False 
# 
# Wavelength: 9.8e-11 m
# Mask applied: from detector
# Dark current applied: False
# Flat field applied: False
# Polarization factor: None
# Normalization factor: 1.0
# 
# Headers of the input frame:
# {
# "_array_data.header_convention": "SLS_1.0",
# "_array_data.header_contents": "# Detector: Dectris Eiger 9M, S/N E-18-0102\r\n# Pixel_size 75e-6 m x 75e-6 m\r\n# Silicon sensor, thickness 0.000450 m\r\n# Exposure_time 0.024997 s\r\n# Exposure_period 0.025000 s\r\n# Count_cutoff 62318 counts\r\n# Wavelength 0.980106 A\r\n# Detector_distance 0.215992 m\r\n# Beam_xy (1555, 1744) pixels\r\n# Start_angle 0.000000 deg.\r\n# Angle_increment 0.000000 deg.",
# "Content-Type": "application/octet-stream;",
# "conversions": "x-CBF_BYTE_OFFSET",
# "Content-Transfer-Encoding": "BINARY",
# "X-Binary-Size": "10166600",
# "X-Binary-ID": "1",
# "X-Binary-Element-Type": "signed 32-bit integer",
# "X-Binary-Element-Byte-Order": "LITTLE_ENDIAN",
# "Content-MD5": "ehzrezG0FoRb8Ac/I37cPA==",
# "X-Binary-Number-of-Elements": "10166590",
# "X-Binary-Size-Fastest-Dimension": "3110",
# "X-Binary-Size-Second-Dimension": "3269",
# "X-Binary-Size-Padding": "4095"
# }
# --> H:/Proxima2a_2019-04-05/RAW_DATA/C5_gel17_position5/C5_mesh_1_data.cbf/C5_mesh_1_data.cbf000001.dat
#        q_A^-1              I           sigma 
  1.105228e-03    1.317696e+00   6.211473e-01
  3.315685e-03    7.418167e-01   2.833308e-01
  5.526141e-03    9.341546e-01   2.458564e-01
  7.736597e-03    1.121483e+00   2.275708e-01
  9.947054e-03    1.225982e+00   2.097580e-01
  1.215751e-02    1.381788e+00   2.013675e-01
  1.436797e-02    1.337763e+00   1.822491e-01
  1.657842e-02    1.237478e+00   1.631598e-01
  1.878888e-02    1.209090e+00   1.514931e-01
  2.099934e-02    1.160920e+00   1.404440e-01
  2.320979e-02    1.127094e+00   1.316172e-01
  2.542025e-02    1.034217e+00   1.204801e-01
  2.763070e-02    1.062417e+00   1.171218e-01
  2.984116e-02    1.197473e+00   1.196491e-01
  3.205162e-02    1.202370e+00   1.156925e-01
  3.426207e-02    1.252478e+00   1.141984e-01
  3.647253e-02    1.082441e+00   1.028944e-01
  3.868299e-02    1.189348e+00   1.047370e-01
  4.089344e-02    1.205062e+00   1.025381e-01
  4.310390e-02    1.208497e+00   1.000107e-01
  4.531436e-02    1.228675e+00   9.835225e-02
  4.752481e-02    1.308802e+00   9.911879e-02
  4.973527e-02    1.283662e+00   9.595711e-02
  5.194572e-02    1.308738e+00   9.480458e-02
  5.415618e-02    1.332956e+00   9.370154e-02
  5.636664e-02    1.285045e+00   9.018294e-02
  5.857709e-02    1.218936e+00   8.615986e-02
  6.078755e-02    1.163904e+00   8.264488e-02
  6.299801e-02    1.151601e+00   8.075090e-02
  6.520846e-02    1.237399e+00   8.227457e-02
  6.741892e-02    1.184277e+00   7.915467e-02
  6.962938e-02    1.202819e+00   7.849942e-02
  7.183983e-02    1.224818e+00   7.798441e-02
  7.405029e-02    1.274818e+00   7.836196e-02
  7.626074e-02    1.283677e+00   7.748509e-02
  7.847120e-02    1.373313e+00   7.900576e-02
  8.068166e-02    1.249273e+00   7.431338e-02
  8.289211e-02    1.292787e+00   7.458135e-02
  8.510257e-02    1.204764e+00   7.105596e-02
  8.731303e-02    1.238799e+00   7.113201e-02
  8.952348e-02    1.310520e+00   7.225524e-02
  9.173394e-02    1.314300e+00   7.147943e-02
  9.394439e-02    1.327165e+00   7.097605e-02
  9.615485e-02    1.300922e+00   6.945691e-02
  9.836531e-02    1.266739e+00   6.776195e-02
  1.005758e-01    1.336240e+00   6.882744e-02
  1.027862e-01    1.296658e+00   6.706574e-02
  1.049967e-01    1.237444e+00   6.482205e-02
  1.072071e-01    1.264601e+00   6.484962e-02
  1.094176e-01    1.301310e+00   6.511525e-02
  1.116280e-01    1.339461e+00   6.540406e-02
  1.138385e-01    1.260820e+00   6.283474e-02
  1.160490e-01    1.279723e+00   6.269746e-02
  1.182594e-01    1.314971e+00   6.295693e-02
  1.204699e-01    1.340414e+00   6.297671e-02
  1.226803e-01    1.314053e+00   6.178755e-02
  1.248908e-01    1.420431e+00   6.366806e-02
  1.271012e-01    1.351614e+00   6.156299e-02
  1.293117e-01    1.369387e+00   6.143372e-02
  1.315222e-01    1.409481e+00   6.179920e-02
  1.337326e-01    1.382012e+00   6.068503e-02
  1.359431e-01    1.336918e+00   5.972170e-02
  1.381535e-01    1.321098e+00   6.016418e-02
  1.403640e-01    1.400088e+00   6.220414e-02
  1.425744e-01    1.363785e+00   6.149049e-02
  1.447849e-01    1.368907e+00   6.162002e-02
  1.469953e-01    1.375447e+00   6.172837e-02
  1.492058e-01    1.371629e+00   6.157099e-02
  1.514163e-01    1.343420e+00   6.083340e-02
  1.536267e-01    1.350657e+00   6.087793e-02
  1.558372e-01    1.373288e+00   6.125033e-02
  1.580476e-01    1.351497e+00   6.061499e-02
  1.602581e-01    1.413341e+00   6.182887e-02
  1.624685e-01    1.413379e+00   6.166045e-02
  1.646790e-01    1.467707e+00   6.265390e-02
  1.668895e-01    1.503320e+00   6.322634e-02
  1.690999e-01    1.489301e+00   6.274188e-02
  1.713104e-01    1.475884e+00   6.226480e-02
  1.735208e-01    1.553381e+00   6.367996e-02
  1.757313e-01    1.555785e+00   6.352948e-02
  1.779417e-01    1.574733e+00   6.370674e-02
  1.801522e-01    1.612456e+00   6.425995e-02
  1.823626e-01    1.611865e+00   6.403429e-02
  1.845731e-01    1.565954e+00   6.291130e-02
  1.867836e-01    1.656422e+00   6.448466e-02
  1.889940e-01    1.710833e+00   6.532107e-02
  1.912045e-01    1.726587e+00   6.540202e-02
  1.934149e-01    1.646985e+00   6.366282e-02
  1.956254e-01    1.722100e+00   6.488363e-02
  1.978358e-01    1.788010e+00   6.588709e-02
  2.000463e-01    1.764141e+00   6.522897e-02
  2.022568e-01    1.714082e+00   6.408577e-02
  2.044672e-01    1.706588e+00   6.372650e-02
  2.066777e-01    1.727994e+00   6.391206e-02
  2.088881e-01    1.722714e+00   6.360555e-02
  2.110986e-01    1.791325e+00   6.463739e-02
  2.133090e-01    1.740145e+00   6.350023e-02
  2.155195e-01    1.719278e+00   6.290896e-02
  2.177300e-01    1.658177e+00   6.129567e-02
  2.199404e-01    1.619638e+00   5.898290e-02
  2.221509e-01    1.630998e+00   5.821748e-02
  2.243613e-01    1.654420e+00   5.789067e-02
  2.265718e-01    1.705491e+00   5.812956e-02
  2.287822e-01    1.813484e+00   5.934843e-02
  2.309927e-01    1.814766e+00   5.882855e-02
  2.332031e-01    1.866214e+00   5.914605e-02
  2.354136e-01    1.764597e+00   5.704706e-02
  2.376241e-01    1.800901e+00   5.718360e-02
  2.398345e-01    1.827893e+00   5.718416e-02
  2.420450e-01    1.916863e+00   5.814081e-02
  2.442554e-01    1.876541e+00   5.712976e-02
  2.464659e-01    1.801373e+00   5.559804e-02
  2.486763e-01    1.889244e+00   5.656365e-02
  2.508868e-01    1.886820e+00   5.617077e-02
  2.530973e-01    1.856982e+00   5.537938e-02
  2.553077e-01    1.823459e+00   5.454436e-02
  2.575182e-01    1.842166e+00   5.449907e-02
  2.597286e-01    1.821261e+00   5.387397e-02
  2.619391e-01    1.762048e+00   5.268586e-02
  2.641495e-01    1.788332e+00   5.278360e-02
  2.663600e-01    1.788662e+00   5.249818e-02
  2.685704e-01    1.696924e+00   5.085698e-02
  2.707809e-01    1.711283e+00   5.080063e-02
  2.729914e-01    1.659429e+00   4.976434e-02
  2.752018e-01    1.746817e+00   5.079210e-02
  2.774123e-01    1.751614e+00   5.060199e-02
  2.796227e-01    1.756824e+00   5.042652e-02
  2.818332e-01    1.713638e+00   4.955444e-02
  2.840436e-01    1.707309e+00   4.922307e-02
  2.862541e-01    1.714302e+00   4.908667e-02
  2.884646e-01    1.737972e+00   4.918983e-02
  2.906750e-01    1.732218e+00   4.887550e-02
  2.928855e-01    1.719990e+00   4.847702e-02
  2.950959e-01    1.636520e+00   4.706890e-02
  2.973064e-01    1.620542e+00   4.662804e-02
  2.995168e-01    1.681081e+00   4.727590e-02
  3.017273e-01    1.708393e+00   4.744828e-02
  3.039377e-01    1.622560e+00   4.603851e-02
  3.061482e-01    1.647606e+00   4.619177e-02
  3.083587e-01    1.614839e+00   4.553222e-02
  3.105691e-01    1.563520e+00   4.461149e-02
  3.127796e-01    1.647647e+00   4.560341e-02
  3.149900e-01    1.646974e+00   4.540415e-02
  3.172005e-01    1.661185e+00   4.541314e-02
  3.194109e-01    1.608987e+00   4.450947e-02
  3.216214e-01    1.624397e+00   4.453962e-02
  3.238319e-01    1.612855e+00   4.420527e-02
  3.260423e-01    1.610063e+00   4.399105e-02
  3.282528e-01    1.600181e+00   4.368126e-02
  3.304632e-01    1.620372e+00   4.378570e-02
  3.326737e-01    1.565788e+00   4.287396e-02
  3.348841e-01    1.531103e+00   4.223203e-02
  3.370946e-01    1.588639e+00   4.285635e-02
  3.393050e-01    1.584925e+00   4.264407e-02
  3.415155e-01    1.560916e+00   4.216074e-02
  3.437260e-01    1.567788e+00   4.209683e-02
  3.459364e-01    1.547465e+00   4.166839e-02
  3.481469e-01    1.553027e+00   4.159083e-02
  3.503573e-01    1.585243e+00   4.186691e-02
  3.525678e-01    1.616585e+00   4.212810e-02
  3.547782e-01    1.557841e+00   4.120611e-02
  3.569887e-01    1.591392e+00   4.149992e-02
  3.591992e-01    1.569498e+00   4.106762e-02
  3.614096e-01    1.555167e+00   4.073796e-02
  3.636201e-01    1.571744e+00   4.081060e-02
  3.658305e-01    1.509846e+00   3.986247e-02
  3.680410e-01    1.577386e+00   4.060417e-02
  3.702514e-01    1.548110e+00   4.009033e-02
  3.724619e-01    1.525695e+00   3.966349e-02
  3.746724e-01    1.564105e+00   4.002568e-02
  3.768828e-01    1.514668e+00   3.925552e-02
  3.790933e-01    1.519361e+00   3.918816e-02
  3.813037e-01    1.533652e+00   3.924322e-02
  3.835142e-01    1.512354e+00   3.884179e-02
  3.857246e-01    1.527312e+00   3.890706e-02
  3.879351e-01    1.523687e+00   3.873510e-02
  3.901455e-01    1.559997e+00   3.906911e-02
  3.923560e-01    1.571731e+00   3.909117e-02
  3.945665e-01    1.535455e+00   3.851487e-02
  3.967769e-01    1.592623e+00   3.910246e-02
  3.989874e-01    1.532269e+00   3.823465e-02
  4.011978e-01    1.521398e+00   3.798160e-02
  4.034083e-01    1.520245e+00   3.785067e-02
  4.056187e-01    1.530430e+00   3.786024e-02
  4.078292e-01    1.518798e+00   3.760195e-02
  4.100397e-01    1.538284e+00   3.772686e-02
  4.122501e-01    1.538500e+00   3.761663e-02
  4.144606e-01    1.532364e+00   3.743022e-02
  4.166710e-01    1.538784e+00   3.739700e-02
  4.188815e-01    1.565460e+00   3.760835e-02
  4.210919e-01    1.571853e+00   3.757462e-02
  4.233024e-01    1.565722e+00   3.739097e-02
  4.255128e-01    1.532043e+00   3.687972e-02
  4.277233e-01    1.578275e+00   3.732450e-02
  4.299338e-01    1.530987e+00   3.665530e-02
  4.321442e-01    1.547100e+00   3.674226e-02
  4.343547e-01    1.560164e+00   3.679273e-02
  4.365651e-01    1.534349e+00   3.638340e-02
  4.387756e-01    1.599557e+00   3.704446e-02
  4.409860e-01    1.575121e+00   3.665857e-02
  4.431965e-01    1.525591e+00   3.597785e-02
  4.454070e-01    1.458833e+00   3.508399e-02
  4.476174e-01    1.508380e+00   3.557682e-02
  4.498279e-01    1.561791e+00   3.610273e-02
  4.520383e-01    1.543325e+00   3.579019e-02
  4.542488e-01    1.473579e+00   3.487784e-02
  4.564592e-01    1.470170e+00   3.474398e-02
  4.586697e-01    1.492039e+00   3.490855e-02
  4.608801e-01    1.493430e+00   3.483128e-02
  4.630906e-01    1.468085e+00   3.444300e-02
  4.653011e-01    1.497404e+00   3.469376e-02
  4.675115e-01    1.467085e+00   3.425029e-02
  4.697220e-01    1.450627e+00   3.396847e-02
  4.719324e-01    1.471004e+00   3.411771e-02
  4.741429e-01    1.518128e+00   3.457060e-02
  4.763533e-01    1.458570e+00   3.379884e-02
  4.785638e-01    1.437025e+00   3.346160e-02
  4.807743e-01    1.470139e+00   3.375885e-02
  4.829847e-01    1.484421e+00   3.383676e-02
  4.851952e-01    1.466805e+00   3.355028e-02
  4.874056e-01    1.450891e+00   3.328361e-02
  4.896161e-01    1.467478e+00   3.339035e-02
  4.918265e-01    1.457824e+00   3.319767e-02
  4.940370e-01    1.473188e+00   3.328976e-02
  4.962475e-01    1.475911e+00   3.323823e-02
  4.984579e-01    1.460582e+00   3.298368e-02
  5.006684e-01    1.448015e+00   3.276140e-02
  5.028788e-01    1.465308e+00   3.287660e-02
  5.050893e-01    1.470420e+00   3.285378e-02
  5.072997e-01    1.466849e+00   3.273463e-02
  5.095102e-01    1.458885e+00   3.256746e-02
  5.117206e-01    1.411893e+00   3.196246e-02
  5.139311e-01    1.459727e+00   3.242246e-02
  5.161416e-01    1.478218e+00   3.255008e-02
  5.183520e-01    1.433502e+00   3.197782e-02
  5.205625e-01    1.416570e+00   3.171390e-02
  5.227729e-01    1.449271e+00   3.200306e-02
  5.249834e-01    1.441112e+00   3.183876e-02
  5.271938e-01    1.477772e+00   3.216596e-02
  5.294043e-01    1.491850e+00   3.224422e-02
  5.316148e-01    1.534318e+00   3.262505e-02
  5.338252e-01    1.527223e+00   3.247515e-02
  5.360357e-01    1.518735e+00   3.231106e-02
  5.382461e-01    1.498743e+00   3.202512e-02
  5.404566e-01    1.483624e+00   3.179068e-02
  5.426670e-01    1.469407e+00   3.156669e-02
  5.448775e-01    1.477528e+00   3.158310e-02
  5.470879e-01    1.479740e+00   3.153625e-02
  5.492984e-01    1.495903e+00   3.163748e-02
  5.515089e-01    1.536843e+00   3.199639e-02
  5.537193e-01    1.496721e+00   3.150641e-02
  5.559298e-01    1.545707e+00   3.194758e-02
  5.581402e-01    1.533839e+00   3.175519e-02
  5.603507e-01    1.546168e+00   3.181315e-02
  5.625611e-01    1.596882e+00   3.226052e-02
  5.647716e-01    1.573984e+00   3.195887e-02
  5.669821e-01    1.514349e+00   3.128000e-02
  5.691925e-01    1.505047e+00   3.111685e-02
  5.714030e-01    1.497836e+00   3.097603e-02
  5.736134e-01    1.472427e+00   3.064684e-02
  5.758239e-01    1.479880e+00   3.065875e-02
  5.780343e-01    1.443486e+00   3.021534e-02
  5.802448e-01    1.433625e+00   3.004894e-02
  5.824552e-01    1.425019e+00   2.989574e-02
  5.846657e-01    1.416912e+00   2.974844e-02
  5.868762e-01    1.382204e+00   2.932066e-02
  5.890866e-01    1.435465e+00   2.981822e-02
  5.912971e-01    1.435449e+00   2.975634e-02
  5.935075e-01    1.416812e+00   2.950144e-02
  5.957180e-01    1.409400e+00   2.936379e-02
  5.979284e-01    1.415837e+00   2.937070e-02
  6.001389e-01    1.412258e+00   2.927382e-02
  6.023494e-01    1.406040e+00   2.915001e-02
  6.045598e-01    1.350534e+00   2.851067e-02
  6.067703e-01    1.379673e+00   2.875863e-02
  6.089807e-01    1.437383e+00   2.929493e-02
  6.111912e-01    1.441486e+00   2.927814e-02
  6.134016e-01    1.457300e+00   2.937959e-02
  6.156121e-01    1.444682e+00   2.919398e-02
  6.178226e-01    1.445437e+00   2.914378e-02
  6.200330e-01    1.478888e+00   2.942094e-02
  6.222435e-01    1.469103e+00   2.926537e-02
  6.244539e-01    1.491483e+00   2.942967e-02
  6.266644e-01    1.495791e+00   2.941468e-02
  6.288748e-01    1.481682e+00   2.921863e-02
  6.310853e-01    1.465835e+00   2.900555e-02
  6.332957e-01    1.488105e+00   2.916861e-02
  6.355062e-01    1.473946e+00   2.897313e-02
  6.377167e-01    1.459583e+00   2.877630e-02
  6.399271e-01    1.471896e+00   2.884205e-02
  6.421376e-01    1.451423e+00   2.858610e-02
  6.443480e-01    1.480901e+00   2.881999e-02
  6.465585e-01    1.460993e+00   2.857139e-02
  6.487689e-01    1.435736e+00   2.826988e-02
  6.509794e-01    1.409653e+00   2.795905e-02
  6.531899e-01    1.409879e+00   2.790873e-02
  6.554003e-01    1.390655e+00   2.766569e-02
  6.576108e-01    1.415856e+00   2.786325e-02
  6.598212e-01    1.397652e+00   2.763215e-02
  6.620317e-01    1.355107e+00   2.715787e-02
  6.642421e-01    1.408553e+00   2.763701e-02
  6.664526e-01    1.399257e+00   2.749495e-02
  6.686630e-01    1.382810e+00   2.728233e-02
  6.708735e-01    1.348890e+00   2.689621e-02
  6.730840e-01    1.378387e+00   2.713912e-02
  6.752944e-01    1.398912e+00   2.729071e-02
  6.775049e-01    1.413925e+00   2.738697e-02
  6.797153e-01    1.373687e+00   2.694557e-02
  6.819258e-01    1.373576e+00   2.689588e-02
  6.841362e-01    1.400461e+00   2.710900e-02
  6.863467e-01    1.344519e+00   2.651445e-02
  6.885572e-01    1.361032e+00   2.662897e-02
  6.907676e-01    1.408898e+00   2.704464e-02
  6.929781e-01    1.374040e+00   2.666053e-02
  6.951885e-01    1.343685e+00   2.631767e-02
  6.973990e-01    1.356841e+00   2.639946e-02
  6.996094e-01    1.368750e+00   2.646840e-02
  7.018199e-01    1.385307e+00   2.658126e-02
  7.040303e-01    1.363365e+00   2.632360e-02
  7.062408e-01    1.369205e+00   2.633372e-02
  7.084513e-01    1.363211e+00   2.623030e-02
  7.106617e-01    1.392381e+00   2.646338e-02
  7.128722e-01    1.399884e+00   2.648869e-02
  7.150826e-01    1.382153e+00   2.627504e-02
  7.172931e-01    1.349760e+00   2.592054e-02
  7.195035e-01    1.357193e+00   2.594714e-02
  7.217140e-01    1.350343e+00   2.592736e-02
  7.239245e-01    1.332102e+00   2.596020e-02
  7.261349e-01    1.343650e+00   2.617281e-02
  7.283454e-01    1.352868e+00   2.632955e-02
  7.305558e-01    1.319352e+00   2.605077e-02
  7.327663e-01    1.328605e+00   2.618100e-02
  7.349767e-01    1.356591e+00   2.647049e-02
  7.371872e-01    1.359366e+00   2.648718e-02
  7.393976e-01    1.353645e+00   2.641815e-02
  7.416081e-01    1.381180e+00   2.667035e-02
  7.438186e-01    1.386678e+00   2.658796e-02
  7.460290e-01    1.335576e+00   2.582246e-02
  7.482395e-01    1.328576e+00   2.559748e-02
  7.504499e-01    1.333806e+00   2.552238e-02
  7.526604e-01    1.336665e+00   2.544233e-02
  7.548708e-01    1.359840e+00   2.557884e-02
  7.570813e-01    1.358233e+00   2.551641e-02
  7.592918e-01    1.363052e+00   2.552888e-02
  7.615022e-01    1.350164e+00   2.537663e-02
  7.637127e-01    1.337180e+00   2.522408e-02
  7.659231e-01    1.379791e+00   2.559289e-02
  7.681336e-01    1.358153e+00   2.536207e-02
  7.703440e-01    1.376711e+00   2.550555e-02
  7.725545e-01    1.363222e+00   2.535159e-02
  7.747650e-01    1.365086e+00   2.533332e-02
  7.769754e-01    1.352411e+00   2.516662e-02
  7.791859e-01    1.343990e+00   2.503875e-02
  7.813963e-01    1.369111e+00   2.522267e-02
  7.836068e-01    1.389646e+00   2.536244e-02
  7.858172e-01    1.410632e+00   2.550546e-02
  7.880277e-01    1.379611e+00   2.517547e-02
  7.902381e-01    1.387016e+00   2.519708e-02
  7.924486e-01    1.407585e+00   2.533621e-02
  7.946591e-01    1.416448e+00   2.537041e-02
  7.968695e-01    1.414874e+00   2.531096e-02
  7.990800e-01    1.410465e+00   2.522632e-02
  8.012904e-01    1.400421e+00   2.509287e-02
  8.035009e-01    1.376055e+00   2.482934e-02
  8.057113e-01    1.369504e+00   2.472733e-02
  8.079218e-01    1.413324e+00   2.507647e-02
  8.101323e-01    1.431678e+00   2.519592e-02
  8.123427e-01    1.412964e+00   2.498804e-02
  8.145532e-01    1.419233e+00   2.500055e-02
  8.167636e-01    1.436761e+00   2.511217e-02
  8.189741e-01    1.398446e+00   2.473377e-02
  8.211845e-01    1.412185e+00   2.481329e-02
  8.233950e-01    1.427696e+00   2.490863e-02
  8.256054e-01    1.417688e+00   2.478005e-02
  8.278159e-01    1.391586e+00   2.451032e-02
  8.300264e-01    1.454255e+00   2.501555e-02
  8.322368e-01    1.412898e+00   2.461726e-02
  8.344473e-01    1.400663e+00   2.447034e-02
  8.366577e-01    1.401210e+00   2.443572e-02
  8.388682e-01    1.449176e+00   2.481074e-02
  8.410786e-01    1.429384e+00   2.460146e-02
  8.432891e-01    1.406830e+00   2.436783e-02
  8.454996e-01    1.374897e+00   2.405155e-02
  8.477100e-01    1.382372e+00   2.407857e-02
  8.499205e-01    1.374586e+00   2.397296e-02
  8.521309e-01    1.399186e+00   2.414880e-02
  8.543414e-01    1.409508e+00   2.419991e-02
  8.565518e-01    1.369035e+00   2.381282e-02
  8.587623e-01    1.352674e+00   2.363323e-02
  8.609727e-01    1.363846e+00   2.369382e-02
  8.631832e-01    1.378107e+00   2.378066e-02
  8.653937e-01    1.382549e+00   2.378235e-02
  8.676041e-01    1.408359e+00   2.396709e-02
  8.698146e-01    1.404041e+00   2.389375e-02
  8.720250e-01    1.481196e+00   2.450404e-02
  8.742355e-01    1.666314e+00   2.595065e-02
  8.764459e-01    1.783815e+00   2.680911e-02
  8.786564e-01    1.768489e+00   2.665393e-02
  8.808669e-01    1.469358e+00   2.425855e-02
  8.830773e-01    1.410419e+00   2.373124e-02
  8.852878e-01    1.406878e+00   2.366588e-02
  8.874982e-01    1.432190e+00   2.384318e-02
  8.897087e-01    1.391218e+00   2.346454e-02
  8.919191e-01    1.390783e+00   2.342566e-02
  8.941296e-01    1.387407e+00   2.336250e-02
  8.963401e-01    1.380290e+00   2.326867e-02
  8.985505e-01    1.402234e+00   2.341829e-02
  9.007610e-01    1.387836e+00   2.326354e-02
  9.029714e-01    1.396138e+00   2.329953e-02
  9.051819e-01    1.461730e+00   2.380501e-02
  9.073923e-01    1.570542e+00   2.463887e-02
  9.096028e-01    1.477042e+00   2.386070e-02
  9.118132e-01    1.372836e+00   2.297005e-02
  9.140237e-01    1.381564e+00   2.300889e-02
  9.162342e-01    1.402514e+00   2.315036e-02
  9.184446e-01    1.372775e+00   2.287047e-02
  9.206551e-01    1.382787e+00   2.292063e-02
  9.228655e-01    1.391633e+00   2.296094e-02
  9.250760e-01    1.422000e+00   2.317683e-02
  9.272864e-01    1.389796e+00   2.288098e-02
  9.294969e-01    1.374448e+00   2.272112e-02
  9.317074e-01    1.377243e+00   2.271206e-02
  9.339178e-01    1.385947e+00   2.275261e-02
  9.361283e-01    1.369516e+00   2.258398e-02
  9.383387e-01    1.413579e+00   2.291320e-02
  9.405492e-01    1.409099e+00   2.284494e-02
  9.427596e-01    1.415847e+00   2.286659e-02
  9.449701e-01    1.440590e+00   2.303420e-02
  9.471805e-01    1.446701e+00   2.305030e-02
  9.493910e-01    1.441314e+00   2.297578e-02
  9.516015e-01    1.473940e+00   2.320192e-02
  9.538119e-01    1.503999e+00   2.340520e-02
  9.560224e-01    1.508242e+00   2.340519e-02
  9.582328e-01    1.514245e+00   2.342027e-02
  9.604433e-01    1.541978e+00   2.360030e-02
  9.626537e-01    1.545724e+00   2.359717e-02
  9.648642e-01    1.535134e+00   2.348400e-02
  9.670747e-01    1.578696e+00   2.378201e-02
  9.692851e-01    1.568015e+00   2.366995e-02
  9.714956e-01    1.535336e+00   2.338896e-02
  9.737060e-01    1.570959e+00   2.362764e-02
  9.759165e-01    1.559078e+00   2.350496e-02
  9.781269e-01    1.563445e+00   2.350704e-02
  9.803374e-01    1.591439e+00   2.368377e-02
  9.825478e-01    1.601015e+00   2.372357e-02
  9.847583e-01    1.635045e+00   2.394182e-02
  9.869688e-01    1.629717e+00   2.387080e-02
  9.891792e-01    1.713415e+00   2.444351e-02
  9.913897e-01    2.001397e+00   2.638230e-02
  9.936001e-01    1.905831e+00   2.571112e-02
  9.958106e-01    1.636364e+00   2.379184e-02
  9.980210e-01    1.486467e+00   2.264649e-02
  1.000231e+00    1.488914e+00   2.278927e-02
  1.002442e+00    1.478846e+00   2.283278e-02
  1.004652e+00    1.421386e+00   2.244725e-02
  1.006863e+00    1.406245e+00   2.237369e-02
  1.009073e+00    1.359049e+00   2.202872e-02
  1.011284e+00    1.333341e+00   2.184853e-02
  1.013494e+00    1.345209e+00   2.196731e-02
  1.015705e+00    1.345235e+00   2.198829e-02
  1.017915e+00    1.340609e+00   2.196557e-02
  1.020126e+00    1.346087e+00   2.202529e-02
  1.022336e+00    1.294659e+00   2.161111e-02
  1.024547e+00    1.297417e+00   2.164434e-02
  1.026757e+00    1.315598e+00   2.180320e-02
  1.028967e+00    1.306114e+00   2.173153e-02
  1.031178e+00    1.295944e+00   2.165242e-02
  1.033388e+00    1.292270e+00   2.162637e-02
  1.035599e+00    1.279633e+00   2.152348e-02
  1.037809e+00    1.279132e+00   2.152226e-02
  1.040020e+00    1.283466e+00   2.155984e-02
  1.042230e+00    1.307945e+00   2.176628e-02
  1.044441e+00    1.308573e+00   2.177132e-02
  1.046651e+00    1.270526e+00   2.145262e-02
  1.048862e+00    1.270093e+00   2.144825e-02
  1.051072e+00    1.262746e+00   2.138394e-02
  1.053282e+00    1.280893e+00   2.153618e-02
  1.055493e+00    1.277498e+00   2.150365e-02
  1.057703e+00    1.263061e+00   2.138040e-02
  1.059914e+00    1.249118e+00   2.125817e-02
  1.062124e+00    1.247513e+00   2.124077e-02
  1.064335e+00    1.283922e+00   2.154532e-02
  1.066545e+00    1.251570e+00   2.126664e-02
  1.068756e+00    1.250788e+00   2.125655e-02
  1.070966e+00    1.236975e+00   2.113287e-02
  1.073177e+00    1.253619e+00   2.126899e-02
  1.075387e+00    1.254019e+00   2.126754e-02
  1.077597e+00    1.247254e+00   2.120343e-02
  1.079808e+00    1.222015e+00   2.086653e-02
  1.082018e+00    1.203914e+00   2.053988e-02
  1.084229e+00    1.238561e+00   2.073199e-02
  1.086439e+00    1.264054e+00   2.086278e-02
  1.088650e+00    1.243332e+00   2.062112e-02
  1.090860e+00    1.231843e+00   2.046337e-02
  1.093071e+00    1.250934e+00   2.056359e-02
  1.095281e+00    1.240726e+00   2.042648e-02
  1.097492e+00    1.240103e+00   2.037050e-02
  1.099702e+00    1.221956e+00   2.017356e-02
  1.101912e+00    1.215824e+00   2.007799e-02
  1.104123e+00    1.216037e+00   2.003536e-02
  1.106333e+00    1.215748e+00   1.999206e-02
  1.108544e+00    1.233337e+00   2.009506e-02
  1.110754e+00    1.252019e+00   2.020638e-02
  1.112965e+00    1.248927e+00   2.014343e-02
  1.115175e+00    1.242331e+00   2.005166e-02
  1.117386e+00    1.240705e+00   2.000176e-02
  1.119596e+00    1.200254e+00   1.963809e-02
  1.121807e+00    1.210986e+00   1.968970e-02
  1.124017e+00    1.218671e+00   1.971798e-02
  1.126228e+00    1.168554e+00   1.927567e-02
  1.128438e+00    1.170733e+00   1.926002e-02
  1.130648e+00    1.168502e+00   1.921029e-02
  1.132859e+00    1.184669e+00   1.931108e-02
  1.135069e+00    1.178903e+00   1.923209e-02
  1.137280e+00    1.200047e+00   1.937310e-02
  1.139490e+00    1.209471e+00   1.941819e-02
  1.141701e+00    1.175560e+00   1.911349e-02
  1.143911e+00    1.151076e+00   1.888436e-02
  1.146122e+00    1.176784e+00   1.906448e-02
  1.148332e+00    1.187675e+00   1.912296e-02
  1.150543e+00    1.175365e+00   1.899510e-02
  1.152753e+00    1.152907e+00   1.878453e-02
  1.154963e+00    1.151121e+00   1.874156e-02
  1.157174e+00    1.177746e+00   1.892909e-02
  1.159384e+00    1.188267e+00   1.898572e-02
  1.161595e+00    1.189004e+00   1.896377e-02
  1.163805e+00    1.217776e+00   1.916428e-02
  1.166016e+00    1.197079e+00   1.897319e-02
  1.168226e+00    1.198121e+00   1.895432e-02
  1.170437e+00    1.190704e+00   1.886883e-02
  1.172647e+00    1.219521e+00   1.906849e-02
  1.174858e+00    1.232260e+00   1.914113e-02
  1.177068e+00    1.162675e+00   1.856676e-02
  1.179278e+00    1.185254e+00   1.871948e-02
  1.181489e+00    1.191535e+00   1.874375e-02
  1.183699e+00    1.170596e+00   1.855272e-02
  1.185910e+00    1.185065e+00   1.864108e-02
  1.188120e+00    1.204134e+00   1.876531e-02
  1.190331e+00    1.209157e+00   1.877915e-02
  1.192541e+00    1.225548e+00   1.887995e-02
  1.194752e+00    1.183831e+00   1.853055e-02
  1.196962e+00    1.174369e+00   1.843233e-02
  1.199173e+00    1.167413e+00   1.835302e-02
  1.201383e+00    1.182954e+00   1.844936e-02
  1.203593e+00    1.189011e+00   1.847323e-02
  1.205804e+00    1.187221e+00   1.843503e-02
  1.208014e+00    1.176388e+00   1.832565e-02
  1.210225e+00    1.185380e+00   1.837183e-02
  1.212435e+00    1.155758e+00   1.811790e-02
  1.214646e+00    1.146145e+00   1.801833e-02
  1.216856e+00    1.163658e+00   1.813182e-02
  1.219067e+00    1.147973e+00   1.798664e-02
  1.221277e+00    1.160640e+00   1.806239e-02
  1.223488e+00    1.181449e+00   1.819951e-02
  1.225698e+00    1.182731e+00   1.818421e-02
  1.227909e+00    1.163421e+00   1.800715e-02
  1.230119e+00    1.159192e+00   1.794488e-02
  1.232329e+00    1.127848e+00   1.767251e-02
  1.234540e+00    1.147034e+00   1.779427e-02
  1.236750e+00    1.171476e+00   1.795468e-02
  1.238961e+00    1.171879e+00   1.793264e-02
  1.241171e+00    1.170946e+00   1.790298e-02
  1.243382e+00    1.152171e+00   1.773715e-02
  1.245592e+00    1.146977e+00   1.767492e-02
  1.247803e+00    1.141372e+00   1.760991e-02
  1.250013e+00    1.157724e+00   1.771381e-02
  1.252224e+00    1.163107e+00   1.773337e-02
  1.254434e+00    1.174939e+00   1.780119e-02
  1.256644e+00    1.164914e+00   1.770353e-02
  1.258855e+00    1.140250e+00   1.749373e-02
  1.261065e+00    1.156178e+00   1.759385e-02
  1.263276e+00    1.164018e+00   1.763210e-02
  1.265486e+00    1.135017e+00   1.739010e-02
  1.267697e+00    1.154389e+00   1.751657e-02
  1.269907e+00    1.169026e+00   1.760616e-02
  1.272118e+00    1.202093e+00   1.783212e-02
  1.274328e+00    1.177405e+00   1.762685e-02
  1.276539e+00    1.148592e+00   1.738880e-02
  1.278749e+00    1.162233e+00   1.747107e-02
  1.280959e+00    1.171717e+00   1.752122e-02
  1.283170e+00    1.172694e+00   1.750762e-02
  1.285380e+00    1.173655e+00   1.749386e-02
  1.287591e+00    1.145763e+00   1.726444e-02
  1.289801e+00    1.154456e+00   1.731018e-02
  1.292012e+00    1.156253e+00   1.730783e-02
  1.294222e+00    1.177292e+00   1.744941e-02
  1.296433e+00    1.183922e+00   1.748388e-02
  1.298643e+00    1.170021e+00   1.736560e-02
  1.300854e+00    1.164109e+00   1.730642e-02
  1.303064e+00    1.167166e+00   1.731126e-02
  1.305274e+00    1.148126e+00   1.714971e-02
  1.307485e+00    1.171776e+00   1.730536e-02
  1.309695e+00    1.169656e+00   1.726900e-02
  1.311906e+00    1.174757e+00   1.728637e-02
  1.314116e+00    1.182062e+00   1.732057e-02
  1.316327e+00    1.178733e+00   1.727591e-02
  1.318537e+00    1.188168e+00   1.732435e-02
  1.320748e+00    1.208976e+00   1.745503e-02
  1.322958e+00    1.218685e+00   1.750546e-02
  1.325169e+00    1.229943e+00   1.756607e-02
  1.327379e+00    1.206418e+00   1.737667e-02
  1.329589e+00    1.195871e+00   1.728071e-02
  1.331800e+00    1.183153e+00   1.716918e-02
  1.334010e+00    1.184035e+00   1.715626e-02
  1.336221e+00    1.174902e+00   1.706965e-02
  1.338431e+00    1.162332e+00   1.695875e-02
  1.340642e+00    1.157573e+00   1.698339e-02
  1.342852e+00    1.161615e+00   1.710641e-02
  1.345063e+00    1.159247e+00   1.713484e-02
  1.347273e+00    1.146484e+00   1.707271e-02
  1.349484e+00    1.165106e+00   1.723652e-02
  1.351694e+00    1.153787e+00   1.717359e-02
  1.353905e+00    1.143805e+00   1.711570e-02
  1.356115e+00    1.151310e+00   1.718566e-02
  1.358325e+00    1.139217e+00   1.710739e-02
  1.360536e+00    1.141106e+00   1.713226e-02
  1.362746e+00    1.148340e+00   1.719530e-02
  1.364957e+00    1.147814e+00   1.719843e-02
  1.367167e+00    1.133522e+00   1.709760e-02
  1.369378e+00    1.143778e+00   1.718029e-02
  1.371588e+00    1.146827e+00   1.720794e-02
  1.373799e+00    1.161931e+00   1.732429e-02
  1.376009e+00    1.119638e+00   1.700921e-02
  1.378220e+00    1.085630e+00   1.675113e-02
  1.380430e+00    1.120341e+00   1.701932e-02
  1.382640e+00    1.097116e+00   1.684283e-02
  1.384851e+00    1.092810e+00   1.681052e-02
  1.387061e+00    1.125701e+00   1.706189e-02
  1.389272e+00    1.130213e+00   1.709627e-02
  1.391482e+00    1.113248e+00   1.696685e-02
  1.393693e+00    1.098648e+00   1.685440e-02
  1.395903e+00    1.099468e+00   1.685931e-02
  1.398114e+00    1.106033e+00   1.690829e-02
  1.400324e+00    1.091296e+00   1.679330e-02
  1.402535e+00    1.094215e+00   1.681360e-02
  1.404745e+00    1.075559e+00   1.666748e-02
  1.406955e+00    1.114536e+00   1.696427e-02
  1.409166e+00    1.103122e+00   1.687412e-02
  1.411376e+00    1.083668e+00   1.672177e-02
  1.413587e+00    1.094462e+00   1.680131e-02
  1.415797e+00    1.111897e+00   1.693130e-02
  1.418008e+00    1.084435e+00   1.668222e-02
  1.420218e+00    1.093318e+00   1.661146e-02
  1.422429e+00    1.096565e+00   1.655685e-02
  1.424639e+00    1.087938e+00   1.643172e-02
  1.426850e+00    1.104137e+00   1.650259e-02
  1.429060e+00    1.102692e+00   1.644614e-02
  1.431270e+00    1.109200e+00   1.645320e-02
  1.433481e+00    1.090931e+00   1.627917e-02
  1.435691e+00    1.112331e+00   1.640209e-02
  1.437902e+00    1.141844e+00   1.658370e-02
  1.440112e+00    1.122854e+00   1.641200e-02
  1.442323e+00    1.108996e+00   1.627951e-02
  1.444533e+00    1.107066e+00   1.623497e-02
  1.446744e+00    1.115610e+00   1.626831e-02
  1.448954e+00    1.124026e+00   1.630115e-02
  1.451165e+00    1.106217e+00   1.614374e-02
  1.453375e+00    1.114945e+00   1.618101e-02
  1.455586e+00    1.115123e+00   1.615589e-02
  1.457796e+00    1.129128e+00   1.623112e-02
  1.460006e+00    1.115508e+00   1.610737e-02
  1.462217e+00    1.096277e+00   1.594358e-02
  1.464427e+00    1.063946e+00   1.568327e-02
  1.466638e+00    1.065467e+00   1.567126e-02
  1.468848e+00    1.096326e+00   1.587303e-02
  1.471059e+00    1.098539e+00   1.586572e-02
  1.473269e+00    1.081290e+00   1.571816e-02
  1.475480e+00    1.107831e+00   1.588769e-02
  1.477690e+00    1.083964e+00   1.569358e-02
  1.479901e+00    1.085349e+00   1.568155e-02
  1.482111e+00    1.087823e+00   1.567780e-02
  1.484321e+00    1.103032e+00   1.576544e-02
  1.486532e+00    1.109678e+00   1.579198e-02
  1.488742e+00    1.100418e+00   1.570483e-02
  1.490953e+00    1.066658e+00   1.544127e-02
  1.493163e+00    1.086549e+00   1.556391e-02
  1.495374e+00    1.116248e+00   1.575499e-02
  1.497584e+00    1.134413e+00   1.586212e-02
  1.499795e+00    1.132752e+00   1.583000e-02
  1.502005e+00    1.128319e+00   1.577847e-02
  1.504216e+00    1.114863e+00   1.566431e-02
  1.506426e+00    1.092671e+00   1.548823e-02
  1.508636e+00    1.062685e+00   1.525544e-02
  1.510847e+00    1.065956e+00   1.525877e-02
  1.513057e+00    1.101392e+00   1.548684e-02
  1.515268e+00    1.096317e+00   1.542710e-02
  1.517478e+00    1.063917e+00   1.517427e-02
  1.519689e+00    1.058725e+00   1.511423e-02
  1.521899e+00    1.093383e+00   1.533805e-02
  1.524110e+00    1.102111e+00   1.538010e-02
  1.526320e+00    1.083793e+00   1.523352e-02
  1.528531e+00    1.088712e+00   1.524960e-02
  1.530741e+00    1.057958e+00   1.501508e-02
  1.532951e+00    1.061644e+00   1.502315e-02
  1.535162e+00    1.059500e+00   1.508771e-02
  1.537372e+00    1.070147e+00   1.522526e-02
  1.539583e+00    1.061147e+00   1.519267e-02
  1.541793e+00    1.057714e+00   1.517447e-02
  1.544004e+00    1.070078e+00   1.526312e-02
  1.546214e+00    1.110919e+00   1.555026e-02
  1.548425e+00    1.070710e+00   1.526651e-02
  1.550635e+00    1.055639e+00   1.516758e-02
  1.552846e+00    1.044243e+00   1.509432e-02
  1.555056e+00    1.082994e+00   1.533316e-02
  1.557266e+00    1.067511e+00   1.512087e-02
  1.559477e+00    1.062961e+00   1.503395e-02
  1.561687e+00    1.071638e+00   1.506675e-02
  1.563898e+00    1.065904e+00   1.501049e-02
  1.566108e+00    1.058756e+00   1.494538e-02
  1.568319e+00    1.058755e+00   1.493094e-02
  1.570529e+00    1.068804e+00   1.497835e-02
  1.572740e+00    1.070052e+00   1.496148e-02
  1.574950e+00    1.094136e+00   1.510424e-02
  1.577161e+00    1.094821e+00   1.508507e-02
  1.579371e+00    1.097095e+00   1.507852e-02
  1.581582e+00    1.084967e+00   1.497650e-02
  1.583792e+00    1.068071e+00   1.484271e-02
  1.586002e+00    1.062512e+00   1.478777e-02
  1.588213e+00    1.059613e+00   1.475166e-02
  1.590423e+00    1.045662e+00   1.463583e-02
  1.592634e+00    1.052249e+00   1.466195e-02
  1.594844e+00    1.071498e+00   1.477560e-02
  1.597055e+00    1.068367e+00   1.473498e-02
  1.599265e+00    1.078252e+00   1.478371e-02
  1.601476e+00    1.060703e+00   1.464410e-02
  1.603686e+00    1.052846e+00   1.457157e-02
  1.605897e+00    1.058056e+00   1.458895e-02
  1.608107e+00    1.052229e+00   1.453068e-02
  1.610317e+00    1.053302e+00   1.452028e-02
  1.612528e+00    1.075425e+00   1.465406e-02
  1.614738e+00    1.090128e+00   1.473609e-02
  1.616949e+00    1.063054e+00   1.453428e-02
  1.619159e+00    1.048797e+00   1.441915e-02
  1.621370e+00    1.041466e+00   1.435160e-02
  1.623580e+00    1.056693e+00   1.443903e-02
  1.625791e+00    1.047677e+00   1.436031e-02
  1.628001e+00    1.033394e+00   1.424516e-02
  1.630212e+00    1.012927e+00   1.408703e-02
  1.632422e+00    1.012436e+00   1.406706e-02
  1.634632e+00    1.027298e+00   1.415382e-02
  1.636843e+00    1.023478e+00   1.411111e-02
  1.639053e+00    9.983474e-01   1.392087e-02
  1.641264e+00    9.917889e-01   1.385930e-02
  1.643474e+00    1.003881e+00   1.392738e-02
  1.645685e+00    1.002987e+00   1.390567e-02
  1.647895e+00    9.946935e-01   1.383266e-02
  1.650106e+00    1.005692e+00   1.389303e-02
  1.652316e+00    9.733624e-01   1.365274e-02
  1.654527e+00    9.684274e-01   1.360273e-02
  1.656737e+00    9.513315e-01   1.346698e-02
  1.658947e+00    9.593882e-01   1.350888e-02
  1.661158e+00    9.634488e-01   1.352241e-02
  1.663368e+00    9.662989e-01   1.352753e-02
  1.665579e+00    9.304231e-01   1.325933e-02
  1.667789e+00    9.238346e-01   1.319750e-02
  1.670000e+00    9.496060e-01   1.336602e-02
  1.672210e+00    9.251318e-01   1.317816e-02
  1.674421e+00    9.055026e-01   1.302372e-02
  1.676631e+00    9.232922e-01   1.313649e-02
  1.678842e+00    9.247898e-01   1.313270e-02
  1.681052e+00    9.004898e-01   1.294503e-02
  1.683263e+00    9.029902e-01   1.294921e-02
  1.685473e+00    9.356805e-01   1.316745e-02
  1.687683e+00    9.222291e-01   1.305825e-02
  1.689894e+00    9.115469e-01   1.296791e-02
  1.692104e+00    9.186928e-01   1.300486e-02
  1.694315e+00    8.975610e-01   1.284116e-02
  1.696525e+00    8.891534e-01   1.276705e-02
  1.698736e+00    8.881092e-01   1.274602e-02
  1.700946e+00    8.847187e-01   1.270784e-02
  1.703157e+00    8.812698e-01   1.266967e-02
  1.705367e+00    8.761714e-01   1.261975e-02
  1.707578e+00    8.780103e-01   1.261965e-02
  1.709788e+00    8.858719e-01   1.266303e-02
  1.711998e+00    8.792303e-01   1.260169e-02
  1.714209e+00    8.815628e-01   1.260510e-02
  1.716419e+00    8.767882e-01   1.255777e-02
  1.718630e+00    8.851618e-01   1.260439e-02
  1.720840e+00    8.709306e-01   1.248960e-02
  1.723051e+00    8.636518e-01   1.242457e-02
  1.725261e+00    8.645878e-01   1.241779e-02
  1.727472e+00    8.499305e-01   1.229914e-02
  1.729682e+00    8.389661e-01   1.220731e-02
  1.731893e+00    8.403710e-01   1.220485e-02
  1.734103e+00    8.415950e-01   1.220114e-02
  1.736313e+00    8.458206e-01   1.221889e-02
  1.738524e+00    8.589737e-01   1.230071e-02
  1.740734e+00    8.842598e-01   1.246757e-02
  1.742945e+00    8.714710e-01   1.236453e-02
  1.745155e+00    8.465188e-01   1.217378e-02
  1.747366e+00    8.464288e-01   1.216036e-02
  1.749576e+00    8.325245e-01   1.204752e-02
  1.751787e+00    8.042832e-01   1.182933e-02
  1.753997e+00    8.307153e-01   1.200981e-02
  1.756208e+00    8.139298e-01   1.187581e-02
  1.758418e+00    8.062711e-01   1.180785e-02
  1.760628e+00    8.097527e-01   1.182112e-02
  1.762839e+00    8.027785e-01   1.175805e-02
  1.765049e+00    8.025897e-01   1.174467e-02
  1.767260e+00    8.335233e-01   1.195693e-02
  1.769470e+00    8.117560e-01   1.178782e-02
  1.771681e+00    7.982193e-01   1.167707e-02
  1.773891e+00    7.920192e-01   1.161973e-02
  1.776102e+00    7.914046e-01   1.160345e-02
  1.778312e+00    7.767377e-01   1.148388e-02
  1.780523e+00    7.728384e-01   1.144349e-02
  1.782733e+00    7.691042e-01   1.140432e-02
  1.784944e+00    7.799298e-01   1.147252e-02
  1.787154e+00    7.770494e-01   1.143991e-02
  1.789364e+00    7.666979e-01   1.135211e-02
  1.791575e+00    7.572706e-01   1.127077e-02
  1.793785e+00    7.809801e-01   1.143442e-02
  1.795996e+00    7.768522e-01   1.139270e-02
  1.798206e+00    7.621887e-01   1.127324e-02
  1.800417e+00    7.648975e-01   1.128168e-02
  1.802627e+00    7.559648e-01   1.120476e-02
  1.804838e+00    7.553421e-01   1.118912e-02
  1.807048e+00    7.529746e-01   1.115989e-02
  1.809259e+00    7.318745e-01   1.099019e-02
  1.811469e+00    7.424815e-01   1.105599e-02
  1.813679e+00    7.604491e-01   1.117520e-02
  1.815890e+00    7.620009e-01   1.117303e-02
  1.818100e+00    7.373995e-01   1.097751e-02
  1.820311e+00    7.179651e-01   1.081862e-02
  1.822521e+00    7.298590e-01   1.089444e-02
  1.824732e+00    7.180545e-01   1.079265e-02
  1.826942e+00    7.453393e-01   1.098449e-02
  1.829153e+00    7.236493e-01   1.081293e-02
  1.831363e+00    7.302172e-01   1.085093e-02
  1.833574e+00    7.511160e-01   1.099433e-02
  1.835784e+00    7.449657e-01   1.093871e-02
  1.837994e+00    7.429120e-01   1.091285e-02
  1.840205e+00    7.351938e-01   1.084578e-02
  1.842415e+00    7.388804e-01   1.086208e-02
  1.844626e+00    7.544193e-01   1.096497e-02
  1.846836e+00    7.884473e-01   1.119861e-02
  1.849047e+00    8.010960e-01   1.127694e-02
  1.851257e+00    7.790988e-01   1.111196e-02
  1.853468e+00    7.250707e-01   1.071167e-02
  1.855678e+00    7.256525e-01   1.070780e-02
  1.857889e+00    7.247775e-01   1.069353e-02
  1.860099e+00    7.058224e-01   1.054495e-02
  1.862309e+00    6.996145e-01   1.049077e-02
  1.864520e+00    7.170506e-01   1.061285e-02
  1.866730e+00    7.176986e-01   1.060904e-02
  1.868941e+00    7.106959e-01   1.054717e-02
  1.871151e+00    7.203203e-01   1.060786e-02
  1.873362e+00    7.121163e-01   1.053691e-02
  1.875572e+00    7.128772e-01   1.053251e-02
  1.877783e+00    7.228631e-01   1.059547e-02
  1.879993e+00    7.320859e-01   1.065248e-02
  1.882204e+00    7.338876e-01   1.065541e-02
  1.884414e+00    7.390285e-01   1.068232e-02
  1.886624e+00    7.246748e-01   1.056782e-02
  1.888835e+00    7.359692e-01   1.063956e-02
  1.891045e+00    7.967125e-01   1.105932e-02
  1.893256e+00    7.839339e-01   1.095960e-02
  1.895466e+00    7.356733e-01   1.060641e-02
  1.897677e+00    7.061446e-01   1.038133e-02
  1.899887e+00    6.991965e-01   1.032006e-02
  1.902098e+00    7.093518e-01   1.038473e-02
  1.904308e+00    7.015241e-01   1.031755e-02
  1.906519e+00    6.920390e-01   1.023767e-02
  1.908729e+00    6.947174e-01   1.024774e-02
  1.910940e+00    7.061761e-01   1.032163e-02
  1.913150e+00    7.038752e-01   1.029503e-02
  1.915360e+00    6.989684e-01   1.024930e-02
  1.917571e+00    6.962754e-01   1.021955e-02
  1.919781e+00    6.843026e-01   1.012153e-02
  1.921992e+00    6.853263e-01   1.011940e-02
  1.924202e+00    6.810679e-01   1.007810e-02
  1.926413e+00    6.746458e-01   1.002109e-02
  1.928623e+00    6.821347e-01   1.006691e-02
  1.930834e+00    6.999605e-01   1.018791e-02
  1.933044e+00    6.848131e-01   1.006729e-02
  1.935255e+00    6.919686e-01   1.011020e-02
  1.937465e+00    6.726964e-01   9.958929e-03
  1.939675e+00    6.781271e-01   9.989096e-03
  1.941886e+00    6.741334e-01   9.950244e-03
  1.944096e+00    6.575575e-01   9.817932e-03
  1.946307e+00    6.659111e-01   9.870675e-03
  1.948517e+00    6.657792e-01   9.860157e-03
  1.950728e+00    6.787339e-01   9.946195e-03
  1.952938e+00    6.639888e-01   9.828358e-03
  1.955149e+00    6.540595e-01   9.745322e-03
  1.957359e+00    6.574889e-01   9.761691e-03
  1.959570e+00    6.788730e-01   9.909134e-03
  1.961780e+00    6.638821e-01   9.790047e-03
  1.963990e+00    6.655027e-01   9.792712e-03
  1.966201e+00    6.623169e-01   9.760039e-03
  1.968411e+00    6.483782e-01   9.647585e-03
  1.970622e+00    6.674849e-01   9.779406e-03
  1.972832e+00    6.845011e-01   9.893985e-03
  1.975043e+00    6.736726e-01   9.806118e-03
  1.977253e+00    6.691014e-01   9.763619e-03
  1.979464e+00    6.584975e-01   9.676729e-03
  1.981674e+00    6.664352e-01   9.725410e-03
  1.983885e+00    6.569802e-01   9.646998e-03
  1.986095e+00    6.596708e-01   9.657797e-03
  1.988305e+00    6.651741e-01   9.688865e-03
  1.990516e+00    6.612322e-01   9.650966e-03
  1.992726e+00    6.759833e-01   9.749013e-03
  1.994937e+00    6.675222e-01   9.678430e-03
  1.997147e+00    6.671211e-01   9.666482e-03
  1.999358e+00    6.651335e-01   9.642953e-03
  2.001568e+00    6.633970e-01   9.620347e-03
  2.003779e+00    6.445775e-01   9.472023e-03
  2.005989e+00    6.536963e-01   9.527713e-03
  2.008200e+00    6.409535e-01   9.423898e-03
  2.010410e+00    6.423274e-01   9.423224e-03
  2.012621e+00    6.607514e-01   9.546588e-03
  2.014831e+00    6.455516e-01   9.425613e-03
  2.017041e+00    6.457019e-01   9.417197e-03
  2.019252e+00    6.253062e-01   9.258259e-03
  2.021462e+00    6.389534e-01   9.350047e-03
  2.023673e+00    6.706548e-01   9.570395e-03
  2.025883e+00    6.825197e-01   9.645683e-03
  2.028094e+00    6.704357e-01   9.550886e-03
  2.030304e+00    6.737289e-01   9.565348e-03
  2.032515e+00    6.539698e-01   9.415404e-03
  2.034725e+00    6.548383e-01   9.412885e-03
  2.036936e+00    6.610733e-01   9.448879e-03
  2.039146e+00    6.460921e-01   9.332356e-03
  2.041356e+00    6.520478e-01   9.366320e-03
  2.043567e+00    6.430696e-01   9.293018e-03
  2.045777e+00    6.527101e-01   9.353821e-03
  2.047988e+00    6.583613e-01   9.385483e-03
  2.050198e+00    6.515874e-01   9.329244e-03
  2.052409e+00    6.322807e-01   9.182964e-03
  2.054619e+00    6.440271e-01   9.261034e-03
  2.056830e+00    6.501034e-01   9.297966e-03
  2.059040e+00    6.367867e-01   9.195317e-03
  2.061251e+00    6.496983e-01   9.281320e-03
  2.063461e+00    6.336608e-01   9.159087e-03
  2.065671e+00    6.182191e-01   9.038859e-03
  2.067882e+00    6.227283e-01   9.063558e-03
  2.070092e+00    6.234609e-01   9.060476e-03
  2.072303e+00    6.247910e-01   9.061791e-03
  2.074513e+00    6.248177e-01   9.053432e-03
  2.076724e+00    6.345989e-01   9.115298e-03
  2.078934e+00    6.376134e-01   9.128583e-03
  2.081145e+00    6.179883e-01   8.978724e-03
  2.083355e+00    6.071826e-01   8.891569e-03
  2.085566e+00    6.171832e-01   8.956360e-03
  2.087776e+00    6.307346e-01   9.045377e-03
  2.089986e+00    6.482406e-01   9.161809e-03
  2.092197e+00    6.267786e-01   9.000641e-03
  2.094407e+00    6.035582e-01   8.823967e-03
  2.096618e+00    6.071368e-01   8.841994e-03
  2.098828e+00    6.014893e-01   8.792362e-03
  2.101039e+00    5.982323e-01   8.760413e-03
  2.103249e+00    6.088268e-01   8.829711e-03
  2.105460e+00    6.170269e-01   8.880712e-03
  2.107670e+00    6.023473e-01   8.766484e-03
  2.109881e+00    6.061883e-01   8.786025e-03
  2.112091e+00    6.165712e-01   8.852660e-03
  2.114301e+00    6.039343e-01   8.753478e-03
  2.116512e+00    5.984516e-01   8.705628e-03
  2.118722e+00    6.099879e-01   8.781034e-03
  2.120933e+00    6.001446e-01   8.701806e-03
  2.123143e+00    5.936098e-01   8.646217e-03
  2.125354e+00    5.953297e-01   8.650954e-03
  2.127564e+00    5.874847e-01   8.585860e-03
  2.129775e+00    6.000512e-01   8.669211e-03
  2.131985e+00    6.118132e-01   8.745370e-03
  2.134196e+00    6.081508e-01   8.711251e-03
  2.136406e+00    5.939757e-01   8.601141e-03
  2.138617e+00    6.012455e-01   8.645814e-03
  2.140827e+00    6.069723e-01   8.701768e-03
  2.143037e+00    5.999711e-01   8.693335e-03
  2.145248e+00    5.886365e-01   8.630906e-03
  2.147458e+00    6.089259e-01   8.792468e-03
  2.149669e+00    5.838732e-01   8.620521e-03
  2.151879e+00    5.638897e-01   8.479960e-03
  2.154090e+00    5.776751e-01   8.589627e-03
  2.156300e+00    5.849134e-01   8.649293e-03
  2.158511e+00    5.893047e-01   8.686597e-03
  2.160721e+00    6.025257e-01   8.787949e-03
  2.162932e+00    6.065876e-01   8.821025e-03
  2.165142e+00    5.850869e-01   8.666058e-03
  2.167352e+00    5.695237e-01   8.552639e-03
  2.169563e+00    5.951449e-01   8.744705e-03
  2.171773e+00    5.800126e-01   8.635088e-03
  2.173984e+00    5.788730e-01   8.627854e-03
  2.176194e+00    5.698480e-01   8.561446e-03
  2.178405e+00    5.583597e-01   8.475328e-03
  2.180615e+00    5.712236e-01   8.573004e-03
  2.182826e+00    5.652338e-01   8.528563e-03
  2.185036e+00    5.799626e-01   8.639003e-03
  2.187247e+00    6.038154e-01   8.814825e-03
  2.189457e+00    5.882478e-01   8.700090e-03
  2.191667e+00    5.693491e-01   8.559022e-03
  2.193878e+00    5.763292e-01   8.610819e-03
  2.196088e+00    5.697107e-01   8.560591e-03
  2.198299e+00    5.702533e-01   8.563697e-03
  2.200509e+00    5.573706e-01   8.465442e-03
  2.202720e+00    5.617265e-01   8.497410e-03
  2.204930e+00    5.646476e-01   8.518357e-03
  2.207141e+00    5.645521e-01   8.516601e-03
  2.209351e+00    5.702634e-01   8.557870e-03
  2.211562e+00    5.712048e-01   8.563427e-03
  2.213772e+00    5.787347e-01   8.568398e-03
  2.215982e+00    5.741159e-01   8.493382e-03
  2.218193e+00    5.656291e-01   8.403276e-03
  2.220403e+00    5.468941e-01   8.240792e-03
  2.222614e+00    5.647734e-01   8.355223e-03
  2.224824e+00    5.761310e-01   8.420895e-03
  2.227035e+00    5.737914e-01   8.387682e-03
  2.229245e+00    5.761989e-01   8.389536e-03
  2.231456e+00    5.732221e-01   8.353417e-03
  2.233666e+00    5.572091e-01   8.222152e-03
  2.235877e+00    5.702795e-01   8.304859e-03
  2.238087e+00    5.642954e-01   8.248811e-03
  2.240298e+00    5.762821e-01   8.323174e-03
  2.242508e+00    5.750210e-01   8.300046e-03
  2.244718e+00    5.630891e-01   8.198979e-03
  2.246929e+00    5.600256e-01   8.163445e-03
  2.249139e+00    5.343079e-01   7.962720e-03
  2.251350e+00    5.474442e-01   8.049389e-03
  2.253560e+00    5.617423e-01   8.143204e-03
  2.255771e+00    5.613554e-01   8.129948e-03
  2.257981e+00    5.632926e-01   8.133660e-03
  2.260192e+00    5.713463e-01   8.181301e-03
  2.262402e+00    5.678631e-01   8.146301e-03
  2.264613e+00    5.540664e-01   8.036830e-03
  2.266823e+00    5.456750e-01   7.966299e-03
  2.269033e+00    5.552665e-01   8.026503e-03
  2.271244e+00    5.658903e-01   8.093314e-03
  2.273454e+00    5.728061e-01   8.133079e-03
  2.275665e+00    5.866432e-01   8.221040e-03
  2.277875e+00    5.692627e-01   8.089134e-03
  2.280086e+00    5.563511e-01   7.987645e-03
  2.282296e+00    5.565154e-01   7.980183e-03
  2.284507e+00    5.560878e-01   7.967805e-03
  2.286717e+00    5.617355e-01   7.999420e-03
  2.288928e+00    5.469432e-01   7.884394e-03
  2.291138e+00    5.556458e-01   7.938189e-03
  2.293348e+00    5.567032e-01   7.936961e-03
  2.295559e+00    5.593348e-01   7.947103e-03
  2.297769e+00    5.488415e-01   7.863729e-03
  2.299980e+00    5.380625e-01   7.777655e-03
  2.302190e+00    5.582173e-01   7.913536e-03
  2.304401e+00    5.410318e-01   7.782308e-03
  2.306611e+00    5.527317e-01   7.857505e-03
  2.308822e+00    5.449889e-01   7.794617e-03
  2.311032e+00    5.489252e-01   7.816797e-03
  2.313243e+00    5.298781e-01   7.674318e-03
  2.315453e+00    5.540233e-01   7.840195e-03
  2.317663e+00    5.547158e-01   7.836686e-03
  2.319874e+00    5.434048e-01   7.748357e-03
  2.322084e+00    5.452334e-01   7.753149e-03
  2.324295e+00    5.429999e-01   7.729703e-03
  2.326505e+00    5.439105e-01   7.727870e-03
  2.328716e+00    5.433970e-01   7.716363e-03
  2.330926e+00    5.373911e-01   7.665563e-03
  2.333137e+00    5.306712e-01   7.609861e-03
  2.335347e+00    5.436533e-01   7.694226e-03
  2.337558e+00    5.400851e-01   7.661374e-03
  2.339768e+00    5.472695e-01   7.704222e-03
  2.341979e+00    5.457404e-01   7.685732e-03
  2.344189e+00    5.357715e-01   7.607521e-03
  2.346399e+00    5.321218e-01   7.573788e-03
  2.348610e+00    5.409067e-01   7.628253e-03
  2.350820e+00    5.259806e-01   7.514810e-03
  2.353031e+00    5.482340e-01   7.664435e-03
  2.355241e+00    5.411189e-01   7.607093e-03
  2.357452e+00    5.395592e-01   7.588350e-03
  2.359662e+00    5.412571e-01   7.592658e-03
  2.361873e+00    5.426418e-01   7.594740e-03
  2.364083e+00    5.271814e-01   7.478459e-03
  2.366294e+00    5.170164e-01   7.398626e-03
  2.368504e+00    5.310849e-01   7.491195e-03
  2.370714e+00    5.201233e-01   7.406131e-03
  2.372925e+00    5.325359e-01   7.486551e-03
  2.375135e+00    5.246888e-01   7.423808e-03
  2.377346e+00    5.288037e-01   7.445527e-03
  2.379556e+00    5.283972e-01   7.435417e-03
  2.381767e+00    5.184866e-01   7.358158e-03
  2.383977e+00    5.355104e-01   7.470610e-03
  2.386188e+00    5.344079e-01   7.455571e-03
  2.388398e+00    5.166635e-01   7.323491e-03
  2.390609e+00    5.158890e-01   7.310918e-03
  2.392819e+00    5.123244e-01   7.278533e-03
  2.395029e+00    5.182937e-01   7.313773e-03
  2.397240e+00    5.268241e-01   7.366444e-03
  2.399450e+00    5.073131e-01   7.221657e-03
  2.401661e+00    5.039421e-01   7.190640e-03
  2.403871e+00    5.215846e-01   7.308254e-03
  2.406082e+00    5.191882e-01   7.284597e-03
  2.408292e+00    5.185218e-01   7.272726e-03
  2.410503e+00    5.175592e-01   7.259073e-03
  2.412713e+00    5.114921e-01   7.209243e-03
  2.414924e+00    5.158489e-01   7.232970e-03
  2.417134e+00    5.027093e-01   7.133307e-03
  2.419344e+00    5.092108e-01   7.172463e-03
  2.421555e+00    5.100878e-01   7.171738e-03
  2.423765e+00    4.999483e-01   7.093342e-03
  2.425976e+00    4.930976e-01   7.037502e-03
  2.428186e+00    4.959656e-01   7.051348e-03
  2.430397e+00    5.065443e-01   7.119285e-03
  2.432607e+00    4.962535e-01   7.039940e-03
  2.434818e+00    5.028834e-01   7.079893e-03
  2.437028e+00    4.914168e-01   6.992196e-03
  2.439239e+00    5.069404e-01   7.094705e-03
  2.441449e+00    5.117363e-01   7.121502e-03
  2.443659e+00    4.966400e-01   7.008936e-03
  2.445870e+00    4.993427e-01   7.039248e-03
  2.448080e+00    4.889753e-01   6.997670e-03
  2.450291e+00    4.892857e-01   7.015184e-03
  2.452501e+00    4.742967e-01   6.917016e-03
  2.454712e+00    4.798155e-01   6.964854e-03
  2.456922e+00    4.667570e-01   6.875418e-03
  2.459133e+00    4.576087e-01   6.812579e-03
  2.461343e+00    4.601467e-01   6.835350e-03
  2.463554e+00    4.822395e-01   7.000737e-03
  2.465764e+00    4.774866e-01   6.969045e-03
  2.467975e+00    4.723363e-01   6.933453e-03
  2.470185e+00    4.777597e-01   6.975225e-03
  2.472395e+00    4.811640e-01   7.001178e-03
  2.474606e+00    4.596423e-01   6.844239e-03
  2.476816e+00    4.571688e-01   6.826457e-03
  2.479027e+00    4.577733e-01   6.831749e-03
  2.481237e+00    4.551896e-01   6.812687e-03
  2.483448e+00    4.548661e-01   6.810553e-03
  2.485658e+00    4.430481e-01   6.721365e-03
  2.487869e+00    4.408435e-01   6.704654e-03
  2.490079e+00    4.370503e-01   6.675288e-03
  2.492290e+00    4.346045e-01   6.656182e-03
  2.494500e+00    4.304672e-01   6.623772e-03
  2.496710e+00    4.482687e-01   6.758700e-03
  2.498921e+00    4.500148e-01   6.770954e-03
  2.501131e+00    4.390720e-01   6.687265e-03
  2.503342e+00    4.330178e-01   6.639861e-03
  2.505552e+00    4.531343e-01   6.791273e-03
  2.507763e+00    4.489452e-01   6.758538e-03
  2.509973e+00    4.318843e-01   6.627608e-03
  2.512184e+00    4.362658e-01   6.659666e-03
  2.514394e+00    4.358379e-01   6.647884e-03
  2.516605e+00    4.360539e-01   6.606719e-03
  2.518815e+00    4.203774e-01   6.461534e-03
  2.521025e+00    4.323796e-01   6.534119e-03
  2.523236e+00    4.367582e-01   6.550707e-03
  2.525446e+00    4.423943e-01   6.578546e-03
  2.527657e+00    4.432501e-01   6.571477e-03
  2.529867e+00    4.297980e-01   6.458161e-03
  2.532078e+00    4.537403e-01   6.621616e-03
  2.534288e+00    4.626276e-01   6.673128e-03
  2.536499e+00    4.558911e-01   6.613241e-03
  2.538709e+00    4.385720e-01   6.476348e-03
  2.540920e+00    4.303090e-01   6.405396e-03
  2.543130e+00    4.350451e-01   6.431106e-03
  2.545340e+00    4.272328e-01   6.364013e-03
  2.547551e+00    4.381949e-01   6.436031e-03
  2.549761e+00    4.392102e-01   6.434715e-03
  2.551972e+00    4.269601e-01   6.335875e-03
  2.554182e+00    4.360437e-01   6.394519e-03
  2.556393e+00    4.387925e-01   6.406306e-03
  2.558603e+00    4.299879e-01   6.333449e-03
  2.560814e+00    4.525906e-01   6.489657e-03
  2.563024e+00    4.392682e-01   6.385563e-03
  2.565235e+00    4.234746e-01   6.261114e-03
  2.567445e+00    4.465151e-01   6.420319e-03
  2.569656e+00    4.323304e-01   6.308626e-03
  2.571866e+00    4.331080e-01   6.305739e-03
  2.574076e+00    4.279838e-01   6.259887e-03
  2.576287e+00    4.255372e-01   6.234417e-03
  2.578497e+00    4.182643e-01   6.173840e-03
  2.580708e+00    4.208276e-01   6.185424e-03
  2.582918e+00    4.265664e-01   6.220390e-03
  2.585129e+00    4.206697e-01   6.170237e-03
  2.587339e+00    4.293057e-01   6.226241e-03
  2.589550e+00    4.168224e-01   6.128236e-03
  2.591760e+00    4.298817e-01   6.216392e-03
  2.593971e+00    4.345659e-01   6.243265e-03
  2.596181e+00    4.311139e-01   6.212680e-03
  2.598391e+00    4.349703e-01   6.235626e-03
  2.600602e+00    4.308527e-01   6.200610e-03
  2.602812e+00    4.278334e-01   6.171928e-03
  2.605023e+00    4.215679e-01   6.120055e-03
  2.607233e+00    4.213901e-01   6.112247e-03
  2.609444e+00    4.333430e-01   6.191656e-03
  2.611654e+00    4.330401e-01   6.182726e-03
  2.613865e+00    4.203526e-01   6.085064e-03
  2.616075e+00    4.241081e-01   6.105653e-03
  2.618286e+00    4.247822e-01   6.104090e-03
  2.620496e+00    4.288971e-01   6.127405e-03
  2.622706e+00    4.291080e-01   6.123635e-03
  2.624917e+00    4.198998e-01   6.052234e-03
  2.627127e+00    4.205926e-01   6.051973e-03
  2.629338e+00    4.295757e-01   6.110739e-03
  2.631548e+00    4.220737e-01   6.051518e-03
  2.633759e+00    4.177775e-01   6.014104e-03
  2.635969e+00    4.169997e-01   6.002411e-03
  2.638180e+00    4.192260e-01   6.012017e-03
  2.640390e+00    4.280830e-01   6.069110e-03
  2.642601e+00    4.059411e-01   5.904072e-03
  2.644811e+00    4.029680e-01   5.876044e-03
  2.647021e+00    4.123824e-01   5.938322e-03
  2.649232e+00    4.159305e-01   5.957696e-03
  2.651442e+00    4.230052e-01   6.002162e-03
  2.653653e+00    4.088871e-01   5.895002e-03
  2.655863e+00    4.172969e-01   5.949189e-03
  2.658074e+00    4.270218e-01   6.011995e-03
  2.660284e+00    4.299729e-01   6.026821e-03
  2.662495e+00    4.226208e-01   5.968872e-03
  2.664705e+00    4.162726e-01   5.917833e-03
  2.666916e+00    4.194126e-01   5.934186e-03
  2.669126e+00    4.132886e-01   5.884795e-03
  2.671337e+00    4.227193e-01   5.945493e-03
  2.673547e+00    4.112182e-01   5.858235e-03
  2.675757e+00    4.042056e-01   5.802246e-03
  2.677968e+00    4.081755e-01   5.824731e-03
  2.680178e+00    4.151727e-01   5.868571e-03
  2.682389e+00    4.149153e-01   5.860902e-03
  2.684599e+00    4.076838e-01   5.803971e-03
  2.686810e+00    4.035662e-01   5.768597e-03
  2.689020e+00    4.025198e-01   5.755432e-03
  2.691231e+00    3.996060e-01   5.728872e-03
  2.693441e+00    4.208491e-01   5.873478e-03
  2.695652e+00    4.238508e-01   5.888361e-03
  2.697862e+00    4.082416e-01   5.773109e-03
  2.700072e+00    4.054073e-01   5.747508e-03
  2.702283e+00    4.117731e-01   5.786747e-03
  2.704493e+00    4.015673e-01   5.708884e-03
  2.706704e+00    4.105864e-01   5.766773e-03
  2.708914e+00    4.044223e-01   5.717889e-03
  2.711125e+00    4.135892e-01   5.776573e-03
  2.713335e+00    4.012610e-01   5.684311e-03
  2.715546e+00    4.101030e-01   5.740655e-03
  2.717756e+00    4.009885e-01   5.671173e-03
  2.719967e+00    3.993143e-01   5.653685e-03
  2.722177e+00    3.957335e-01   5.622756e-03
  2.724387e+00    3.917538e-01   5.588920e-03
  2.726598e+00    3.863471e-01   5.544814e-03
  2.728808e+00    3.914987e-01   5.576128e-03
  2.731019e+00    4.118699e-01   5.713726e-03
  2.733229e+00    3.986565e-01   5.616057e-03
  2.735440e+00    3.949404e-01   5.584161e-03
  2.737650e+00    4.004240e-01   5.617314e-03
  2.739861e+00    3.966048e-01   5.584971e-03
  2.742071e+00    4.075149e-01   5.655984e-03
  2.744282e+00    4.022205e-01   5.613436e-03
  2.746492e+00    3.965152e-01   5.567989e-03
  2.748702e+00    4.030001e-01   5.607955e-03
  2.750913e+00    4.015474e-01   5.592538e-03
  2.753123e+00    3.944881e-01   5.537636e-03
  2.755334e+00    3.899315e-01   5.500080e-03
  2.757544e+00    3.986492e-01   5.555996e-03
  2.759755e+00    3.990060e-01   5.553118e-03
  2.761965e+00    3.991184e-01   5.548448e-03
  2.764176e+00    4.032934e-01   5.571908e-03
  2.766386e+00    4.103597e-01   5.615153e-03
  2.768597e+00    4.175150e-01   5.658427e-03
  2.770807e+00    3.884025e-01   5.452316e-03
  2.773017e+00    3.924459e-01   5.475184e-03
  2.775228e+00    4.068669e-01   5.569553e-03
  2.777438e+00    4.052441e-01   5.553107e-03
  2.779649e+00    3.894839e-01   5.438726e-03
  2.781859e+00    3.946163e-01   5.469200e-03
  2.784070e+00    4.000300e-01   5.501217e-03
  2.786280e+00    4.006616e-01   5.500291e-03
  2.788491e+00    3.991450e-01   5.484514e-03
  2.790701e+00    4.107275e-01   5.558287e-03
  2.792912e+00    4.049625e-01   5.513650e-03
  2.795122e+00    4.002605e-01   5.476277e-03
  2.797333e+00    4.002012e-01   5.470777e-03
  2.799543e+00    3.986213e-01   5.454605e-03
  2.801753e+00    4.095723e-01   5.523575e-03
  2.803964e+00    4.174930e-01   5.571423e-03
  2.806174e+00    4.031478e-01   5.469225e-03
  2.808385e+00    3.991397e-01   5.435736e-03
  2.810595e+00    3.887833e-01   5.358522e-03
  2.812806e+00    3.923268e-01   5.376877e-03
  2.815016e+00    3.940963e-01   5.384672e-03
  2.817227e+00    3.982607e-01   5.436807e-03
  2.819437e+00    3.994578e-01   5.455153e-03
  2.821648e+00    3.910436e-01   5.399477e-03
  2.823858e+00    3.935662e-01   5.421719e-03
  2.826068e+00    4.023509e-01   5.486495e-03
  2.828279e+00    3.980249e-01   5.460628e-03
  2.830489e+00    3.897132e-01   5.406344e-03
  2.832700e+00    3.929888e-01   5.431346e-03
  2.834910e+00    4.004803e-01   5.484775e-03
  2.837121e+00    3.789717e-01   5.337002e-03
  2.839331e+00    3.872155e-01   5.395840e-03
  2.841542e+00    3.774041e-01   5.327958e-03
  2.843752e+00    3.884012e-01   5.405728e-03
  2.845963e+00    3.790316e-01   5.340490e-03
  2.848173e+00    3.842689e-01   5.377331e-03
  2.850383e+00    3.901631e-01   5.418691e-03
  2.852594e+00    3.784251e-01   5.336496e-03
  2.854804e+00    3.813260e-01   5.356433e-03
  2.857015e+00    3.909481e-01   5.423206e-03
  2.859225e+00    3.814557e-01   5.356742e-03
  2.861436e+00    3.817548e-01   5.358245e-03
  2.863646e+00    3.840061e-01   5.374052e-03
  2.865857e+00    3.913336e-01   5.425392e-03
  2.868067e+00    3.910283e-01   5.423493e-03
  2.870278e+00    3.944861e-01   5.447083e-03
  2.872488e+00    3.889289e-01   5.407521e-03
  2.874698e+00    3.963969e-01   5.458223e-03
  2.876909e+00    3.962829e-01   5.456216e-03
  2.879119e+00    3.845769e-01   5.373542e-03
  2.881330e+00    3.872618e-01   5.390922e-03
  2.883540e+00    3.820694e-01   5.353407e-03
  2.885751e+00    3.923783e-01   5.423602e-03
  2.887961e+00    3.793490e-01   5.331117e-03
  2.890172e+00    3.831663e-01   5.356396e-03
  2.892382e+00    3.845948e-01   5.364735e-03
  2.894593e+00    3.820854e-01   5.345528e-03
  2.896803e+00    4.033554e-01   5.490465e-03
  2.899014e+00    3.954015e-01   5.434296e-03
  2.901224e+00    3.912963e-01   5.404170e-03
  2.903434e+00    3.767225e-01   5.300825e-03
  2.905645e+00    3.806688e-01   5.326473e-03
  2.907855e+00    3.839569e-01   5.347516e-03
  2.910066e+00    3.897124e-01   5.385533e-03
  2.912276e+00    3.866738e-01   5.362561e-03
  2.914487e+00    3.901206e-01   5.384119e-03
  2.916697e+00    3.858284e-01   5.352395e-03
  2.918908e+00    3.828112e-01   5.329601e-03
  2.921118e+00    3.758734e-01   5.278628e-03
  2.923329e+00    3.812121e-01   5.313871e-03
  2.925539e+00    3.794571e-01   5.299558e-03
  2.927749e+00    3.828927e-01   5.321382e-03
  2.929960e+00    3.783307e-01   5.287048e-03
  2.932170e+00    3.737148e-01   5.252598e-03
  2.934381e+00    3.747348e-01   5.257550e-03
  2.936591e+00    3.754259e-01   5.260054e-03
  2.938802e+00    3.673438e-01   5.200695e-03
  2.941012e+00    3.741778e-01   5.246725e-03
  2.943223e+00    3.893484e-01   5.349545e-03
  2.945433e+00    3.855922e-01   5.320243e-03
  2.947644e+00    3.800254e-01   5.277932e-03
  2.949854e+00    3.761421e-01   5.247010e-03
  2.952064e+00    3.769535e-01   5.248806e-03
  2.954275e+00    3.869225e-01   5.313718e-03
  2.956485e+00    3.776942e-01   5.246140e-03
  2.958696e+00    3.814112e-01   5.267887e-03
  2.960906e+00    3.791471e-01   5.248405e-03
  2.963117e+00    3.823679e-01   5.266546e-03
  2.965327e+00    3.836988e-01   5.272110e-03
  2.967538e+00    3.876966e-01   5.296821e-03
  2.969748e+00    3.807555e-01   5.246618e-03
  2.971959e+00    3.758186e-01   5.209637e-03
  2.974169e+00    3.722143e-01   5.182252e-03
  2.976379e+00    3.801634e-01   5.234626e-03
  2.978590e+00    3.686128e-01   5.151675e-03
  2.980800e+00    3.725559e-01   5.176619e-03
  2.983011e+00    3.732689e-01   5.179017e-03
  2.985221e+00    3.867258e-01   5.268647e-03
  2.987432e+00    3.819650e-01   5.233269e-03
  2.989642e+00    3.740846e-01   5.176621e-03
  2.991853e+00    3.890736e-01   5.276258e-03
  2.994063e+00    3.833232e-01   5.234472e-03
  2.996274e+00    3.781136e-01   5.195871e-03
  2.998484e+00    3.766939e-01   5.183644e-03
  3.000694e+00    3.690439e-01   5.127620e-03
  3.002905e+00    3.832970e-01   5.222995e-03
  3.005115e+00    3.827177e-01   5.216317e-03
  3.007326e+00    3.867187e-01   5.240601e-03
  3.009536e+00    3.797096e-01   5.189912e-03
  3.011747e+00    3.759208e-01   5.161319e-03
  3.013957e+00    3.693855e-01   5.113352e-03
  3.016168e+00    3.835931e-01   5.207776e-03
  3.018378e+00    3.804445e-01   5.183570e-03
  3.020589e+00    3.879806e-01   5.231681e-03
  3.022799e+00    3.786485e-01   5.165504e-03
  3.025010e+00    3.654427e-01   5.071718e-03
  3.027220e+00    3.547035e-01   4.993861e-03
  3.029430e+00    3.759800e-01   5.138511e-03
  3.031641e+00    3.769779e-01   5.142462e-03
  3.033851e+00    3.719622e-01   5.104950e-03
  3.036062e+00    3.626345e-01   5.038030e-03
  3.038272e+00    3.720517e-01   5.099788e-03
  3.040483e+00    3.738893e-01   5.109425e-03
  3.042693e+00    3.764907e-01   5.124212e-03
  3.044904e+00    3.719731e-01   5.089699e-03
  3.047114e+00    3.775585e-01   5.123387e-03
  3.049325e+00    3.598490e-01   4.997855e-03
  3.051535e+00    3.778895e-01   5.117577e-03
  3.053745e+00    3.795455e-01   5.124428e-03
  3.055956e+00    3.654397e-01   5.024177e-03
  3.058166e+00    3.637060e-01   5.008414e-03
  3.060377e+00    3.722839e-01   5.062793e-03
  3.062587e+00    3.726161e-01   5.060849e-03
  3.064798e+00    3.714598e-01   5.049108e-03
  3.067008e+00    3.790725e-01   5.096249e-03
  3.069219e+00    3.842692e-01   5.126897e-03
  3.071429e+00    3.858368e-01   5.134082e-03
  3.073640e+00    3.790533e-01   5.085708e-03
  3.075850e+00    3.754863e-01   5.058429e-03
  3.078060e+00    3.735276e-01   5.042399e-03
  3.080271e+00    3.685621e-01   5.005611e-03
  3.082481e+00    3.692812e-01   5.007378e-03
  3.084692e+00    3.813476e-01   5.085388e-03
  3.086902e+00    3.806772e-01   5.077953e-03
  3.089113e+00    3.747031e-01   5.034682e-03
  3.091323e+00    3.691491e-01   4.994163e-03
  3.093534e+00    3.731902e-01   5.018330e-03
  3.095744e+00    3.900219e-01   5.127121e-03
  3.097955e+00    3.757951e-01   5.029488e-03
  3.100165e+00    3.721049e-01   5.001687e-03
  3.102375e+00    3.734327e-01   5.007487e-03
  3.104586e+00    3.668676e-01   4.960101e-03
  3.106796e+00    3.782458e-01   5.033178e-03
  3.109007e+00    3.746030e-01   5.005963e-03
  3.111217e+00    3.761108e-01   5.012617e-03
  3.113428e+00    3.767568e-01   5.013792e-03
  3.115638e+00    3.749692e-01   4.998914e-03
  3.117849e+00    3.682931e-01   4.950828e-03
  3.120059e+00    3.756228e-01   4.996661e-03
  3.122270e+00    3.707894e-01   4.961433e-03
  3.124480e+00    3.664683e-01   4.929108e-03
  3.126691e+00    3.636141e-01   4.906647e-03
  3.128901e+00    3.702136e-01   4.948115e-03
  3.131111e+00    3.632770e-01   4.898079e-03
  3.133322e+00    3.785196e-01   4.996588e-03
  3.135532e+00    3.819674e-01   5.016138e-03
  3.137743e+00    3.749822e-01   4.966885e-03
  3.139953e+00    3.711659e-01   4.938159e-03
  3.142164e+00    3.659844e-01   4.914495e-03
  3.144374e+00    3.760020e-01   5.007481e-03
  3.146585e+00    3.804395e-01   5.050460e-03
  3.148795e+00    3.672322e-01   4.971834e-03
  3.151006e+00    3.683977e-01   4.987529e-03
  3.153216e+00    3.707900e-01   5.010218e-03
  3.155426e+00    3.728060e-01   5.029627e-03
  3.157637e+00    3.820573e-01   5.096794e-03
  3.159847e+00    3.700137e-01   5.020299e-03
  3.162058e+00    3.790073e-01   5.085024e-03
  3.164268e+00    3.934581e-01   5.184928e-03
  3.166479e+00    3.810646e-01   5.106010e-03
  3.168689e+00    3.757363e-01   5.073303e-03
  3.170900e+00    3.724708e-01   5.054114e-03
  3.173110e+00    3.740796e-01   5.067691e-03
  3.175321e+00    3.749253e-01   5.075708e-03
  3.177531e+00    3.673773e-01   5.026869e-03
  3.179741e+00    3.621307e-01   4.992737e-03
  3.181952e+00    3.479560e-01   4.895926e-03
  3.184162e+00    3.490564e-01   4.905612e-03
  3.186373e+00    3.512039e-01   4.922110e-03
  3.188583e+00    3.575845e-01   4.968236e-03
  3.190794e+00    3.629046e-01   5.006675e-03
  3.193004e+00    3.439077e-01   4.874969e-03
  3.195215e+00    3.667644e-01   5.035731e-03
  3.197425e+00    3.593828e-01   4.985900e-03
  3.199636e+00    3.572081e-01   4.970096e-03
  3.201846e+00    3.589195e-01   4.981448e-03
  3.204056e+00    3.579425e-01   4.975454e-03
  3.206267e+00    3.684365e-01   5.048648e-03
  3.208477e+00    3.523547e-01   4.938080e-03
  3.210688e+00    3.484499e-01   4.911395e-03
  3.212898e+00    3.630017e-01   5.013409e-03
  3.215109e+00    3.597713e-01   4.991753e-03
  3.217319e+00    3.656143e-01   5.032709e-03
  3.219530e+00    3.593055e-01   4.989453e-03
  3.221740e+00    3.575886e-01   4.978050e-03
  3.223951e+00    3.586308e-01   4.985707e-03
  3.226161e+00    3.628834e-01   5.015343e-03
  3.228372e+00    3.599681e-01   4.995669e-03
  3.230582e+00    3.661653e-01   5.038599e-03
  3.232792e+00    3.537247e-01   4.952492e-03
  3.235003e+00    3.444664e-01   4.887450e-03
  3.237213e+00    3.425122e-01   4.873650e-03
  3.239424e+00    3.515781e-01   4.937728e-03
  3.241634e+00    3.608053e-01   5.002240e-03
  3.243845e+00    3.470787e-01   4.906224e-03
  3.246055e+00    3.526627e-01   4.945263e-03
  3.248266e+00    3.491516e-01   4.920794e-03
  3.250476e+00    3.448516e-01   4.890107e-03
  3.252687e+00    3.470830e-01   4.905839e-03
  3.254897e+00    3.461810e-01   4.899348e-03
  3.257107e+00    3.466507e-01   4.902379e-03
  3.259318e+00    3.636793e-01   5.021143e-03
  3.261528e+00    3.633952e-01   5.019052e-03
  3.263739e+00    3.572876e-01   4.976184e-03
  3.265949e+00    3.411932e-01   4.862710e-03
  3.268160e+00    3.642373e-01   5.023842e-03
  3.270370e+00    3.527995e-01   4.943881e-03
  3.272581e+00    3.435643e-01   4.878480e-03
  3.274791e+00    3.552491e-01   4.960272e-03
  3.277002e+00    3.605067e-01   4.996330e-03
  3.279212e+00    3.494198e-01   4.918566e-03
  3.281422e+00    3.401596e-01   4.852415e-03
  3.283633e+00    3.424829e-01   4.868362e-03
  3.285843e+00    3.478487e-01   4.906028e-03
  3.288054e+00    3.521737e-01   4.935588e-03
  3.290264e+00    3.568822e-01   4.968188e-03
  3.292475e+00    3.519440e-01   4.932947e-03
  3.294685e+00    3.426895e-01   4.867066e-03
  3.296896e+00    3.499117e-01   4.917407e-03
  3.299106e+00    3.471837e-01   4.897708e-03
  3.301317e+00    3.501972e-01   4.917960e-03
  3.303527e+00    3.522033e-01   4.931634e-03
  3.305737e+00    3.375916e-01   4.827302e-03
  3.307948e+00    3.383345e-01   4.831998e-03
  3.310158e+00    3.495199e-01   4.910458e-03
  3.312369e+00    3.415751e-01   4.853537e-03
  3.314579e+00    3.572089e-01   4.962526e-03
  3.316790e+00    3.518090e-01   4.924237e-03
  3.319000e+00    3.489633e-01   4.903201e-03
  3.321211e+00    3.396309e-01   4.836655e-03
  3.323421e+00    3.450862e-01   4.874238e-03
  3.325632e+00    3.637194e-01   5.003285e-03
  3.327842e+00    3.617794e-01   4.989080e-03
  3.330052e+00    3.580951e-01   4.962633e-03
  3.332263e+00    3.516525e-01   4.916856e-03
  3.334473e+00    3.521077e-01   4.919203e-03
  3.336684e+00    3.511354e-01   4.911248e-03
  3.338894e+00    3.458573e-01   4.873454e-03
  3.341105e+00    3.420701e-01   4.845583e-03
  3.343315e+00    3.523759e-01   4.916991e-03
  3.345526e+00    3.667125e-01   5.015189e-03
  3.347736e+00    3.442983e-01   4.858240e-03
  3.349947e+00    3.409465e-01   4.833694e-03
  3.352157e+00    3.404885e-01   4.829374e-03
  3.354368e+00    3.378579e-01   4.809522e-03
  3.356578e+00    3.474711e-01   4.876527e-03
  3.358788e+00    3.518352e-01   4.905853e-03
  3.360999e+00    3.441141e-01   4.850600e-03
  3.363209e+00    3.359059e-01   4.791479e-03
  3.365420e+00    3.364897e-01   4.794274e-03
  3.367630e+00    3.509665e-01   4.895395e-03
  3.369841e+00    3.425613e-01   4.835134e-03
  3.372051e+00    3.439403e-01   4.843052e-03
  3.374262e+00    3.502477e-01   4.885020e-03
  3.376472e+00    3.484353e-01   4.870143e-03
  3.378683e+00    3.392800e-01   4.803456e-03
  3.380893e+00    3.513752e-01   4.886170e-03
  3.383103e+00    3.482271e-01   4.861787e-03
  3.385314e+00    3.381644e-01   4.788999e-03
  3.387524e+00    3.341510e-01   4.758050e-03
  3.389735e+00    3.425875e-01   4.815340e-03
  3.391945e+00    3.419024e-01   4.807173e-03
  3.394156e+00    3.515209e-01   4.870435e-03
  3.396366e+00    3.292660e-01   4.710719e-03
  3.398577e+00    3.312563e-01   4.722176e-03
  3.400787e+00    3.365072e-01   4.770226e-03
  3.402998e+00    3.353290e-01   4.796302e-03
  3.405208e+00    3.393242e-01   4.843698e-03
  3.407418e+00    3.131895e-01   4.667378e-03
  3.409629e+00    3.171835e-01   4.709447e-03
  3.411839e+00    3.269887e-01   4.792345e-03
  3.414050e+00    3.188062e-01   4.741875e-03
  3.416260e+00    3.051844e-01   4.647925e-03
  3.418471e+00    3.287580e-01   4.832688e-03
  3.420681e+00    3.220161e-01   4.790610e-03
  3.422892e+00    3.065520e-01   4.681252e-03
  3.425102e+00    3.118944e-01   4.728827e-03
  3.427313e+00    3.127596e-01   4.741841e-03
  3.429523e+00    3.175477e-01   4.784414e-03
  3.431733e+00    3.066884e-01   4.707833e-03
  3.433944e+00    2.980622e-01   4.646843e-03
  3.436154e+00    3.110884e-01   4.752945e-03
  3.438365e+00    3.088667e-01   4.741259e-03
  3.440575e+00    2.956582e-01   4.644013e-03
  3.442786e+00    3.144269e-01   4.794225e-03
  3.444996e+00    3.112953e-01   4.775338e-03
  3.447207e+00    2.954955e-01   4.657232e-03
  3.449417e+00    3.112126e-01   4.816838e-03
  3.451628e+00    3.127419e-01   4.855777e-03
  3.453838e+00    3.099525e-01   4.853529e-03
  3.456049e+00    2.898275e-01   4.714536e-03
  3.458259e+00    3.050155e-01   4.856499e-03
  3.460469e+00    2.985172e-01   4.822351e-03
  3.462680e+00    2.835518e-01   4.716678e-03
  3.464890e+00    3.033539e-01   4.894793e-03
  3.467101e+00    3.052984e-01   4.926383e-03
  3.469311e+00    3.219649e-01   5.074468e-03
  3.471522e+00    3.295700e-01   5.149475e-03
  3.473732e+00    3.215242e-01   5.100860e-03
  3.475943e+00    3.236984e-01   5.132578e-03
  3.478153e+00    3.389636e-01   5.266599e-03
  3.480364e+00    3.411232e-01   5.297471e-03
  3.482574e+00    3.478892e-01   5.364006e-03
  3.484784e+00    3.440538e-01   5.347954e-03
  3.486995e+00    3.516663e-01   5.420678e-03
  3.489205e+00    3.658726e-01   5.542711e-03
  3.491416e+00    3.672962e-01   5.567321e-03
  3.493626e+00    3.803352e-01   5.678935e-03
  3.495837e+00    3.820362e-01   5.705332e-03
  3.498047e+00    3.909176e-01   5.784899e-03
  3.500258e+00    3.925262e-01   5.810348e-03
  3.502468e+00    3.938717e-01   5.833738e-03
  3.504679e+00    3.966464e-01   5.867698e-03
  3.506889e+00    4.001448e-01   5.906904e-03
  3.509099e+00    3.989775e-01   5.911486e-03
  3.511310e+00    4.071626e-01   5.985184e-03
  3.513520e+00    4.118979e-01   6.033218e-03
  3.515731e+00    4.076088e-01   6.014889e-03
  3.517941e+00    4.167723e-01   6.095367e-03
  3.520152e+00    4.408511e-01   6.282494e-03
  3.522362e+00    4.371077e-01   6.269289e-03
  3.524573e+00    4.293386e-01   6.226479e-03
  3.526783e+00    4.367275e-01   6.292204e-03
  3.528994e+00    4.276537e-01   6.237595e-03
  3.531204e+00    4.525195e-01   6.427969e-03
  3.533414e+00    4.648328e-01   6.526228e-03
  3.535625e+00    4.578219e-01   6.488338e-03
  3.537835e+00    4.647205e-01   6.548353e-03
  3.540046e+00    4.671252e-01   6.573615e-03
  3.542256e+00    4.615377e-01   6.541174e-03
  3.544467e+00    4.499794e-01   6.465747e-03
  3.546677e+00    4.479945e-01   6.458380e-03
  3.548888e+00    4.619717e-01   6.565310e-03
  3.551098e+00    4.645080e-01   6.590106e-03
  3.553309e+00    4.683319e-01   6.624808e-03
  3.555519e+00    4.608256e-01   6.581970e-03
  3.557729e+00    4.678349e-01   6.642798e-03
  3.559940e+00    4.634923e-01   6.622633e-03
  3.562150e+00    4.753417e-01   6.717764e-03
  3.564361e+00    4.834895e-01   6.787753e-03
  3.566571e+00    4.764162e-01   6.750967e-03
  3.568782e+00    4.804677e-01   6.792991e-03
  3.570992e+00    4.705976e-01   6.735717e-03
  3.573203e+00    4.737306e-01   6.771418e-03
  3.575413e+00    4.602128e-01   6.686870e-03
  3.577624e+00    4.682057e-01   6.757890e-03
  3.579834e+00    4.598972e-01   6.710513e-03
  3.582045e+00    4.760006e-01   6.840195e-03
  3.584255e+00    4.738611e-01   6.838043e-03
  3.586465e+00    4.710234e-01   6.830603e-03
  3.588676e+00    4.456558e-01   6.657054e-03
  3.590886e+00    4.475518e-01   6.683724e-03
  3.593097e+00    4.511242e-01   6.723663e-03
  3.595307e+00    4.377662e-01   6.635933e-03
  3.597518e+00    4.491248e-01   6.734512e-03
  3.599728e+00    4.634747e-01   6.854346e-03
  3.601939e+00    4.655747e-01   6.882965e-03
  3.604149e+00    4.802894e-01   7.004573e-03
  3.606360e+00    4.518872e-01   6.807277e-03
  3.608570e+00    4.491819e-01   6.799862e-03
  3.610780e+00    4.473150e-01   6.795801e-03
  3.612991e+00    4.717603e-01   6.988433e-03
  3.615201e+00    4.525302e-01   6.853546e-03
  3.617412e+00    4.584682e-01   6.905065e-03
  3.619622e+00    4.782288e-01   7.057960e-03
  3.621833e+00    4.602951e-01   6.930594e-03
  3.624043e+00    4.483711e-01   6.848952e-03
  3.626254e+00    4.484798e-01   6.858661e-03
  3.628464e+00    4.599527e-01   6.956002e-03
  3.630675e+00    4.637643e-01   6.997934e-03
  3.632885e+00    4.534169e-01   6.932739e-03
  3.635095e+00    4.645713e-01   7.030940e-03
  3.637306e+00    4.520048e-01   6.948407e-03
  3.639516e+00    4.581321e-01   7.008815e-03
  3.641727e+00    4.547195e-01   6.996114e-03
  3.643937e+00    4.599815e-01   7.049987e-03
  3.646148e+00    4.622279e-01   7.080779e-03
  3.648358e+00    4.687862e-01   7.144797e-03
  3.650569e+00    4.565877e-01   7.064864e-03
  3.652779e+00    4.459007e-01   6.995189e-03
  3.654990e+00    4.522203e-01   7.058284e-03
  3.657200e+00    4.625343e-01   7.152245e-03
  3.659410e+00    4.539953e-01   7.099722e-03
  3.661621e+00    4.625323e-01   7.180253e-03
  3.663831e+00    4.718368e-01   7.266319e-03
  3.666042e+00    4.913105e-01   7.429373e-03
  3.668252e+00    4.635150e-01   7.230407e-03
  3.670463e+00    4.626115e-01   7.237542e-03
  3.672673e+00    4.373011e-01   7.050792e-03
  3.674884e+00    4.399062e-01   7.085752e-03
  3.677094e+00    4.596972e-01   7.257810e-03
  3.679305e+00    4.650841e-01   7.314845e-03
  3.681515e+00    4.348353e-01   7.087080e-03
  3.683726e+00    4.474806e-01   7.203907e-03
  3.685936e+00    4.654922e-01   7.362192e-03
  3.688146e+00    4.575303e-01   7.313666e-03
  3.690357e+00    4.480651e-01   7.252298e-03
  3.692567e+00    4.595743e-01   7.359888e-03
  3.694778e+00    4.658353e-01   7.424958e-03
  3.696988e+00    4.679662e-01   7.456999e-03
  3.699199e+00    4.395890e-01   7.242239e-03
  3.701409e+00    4.604997e-01   7.427799e-03
  3.703620e+00    4.515160e-01   7.370156e-03
  3.705830e+00    4.436390e-01   7.320638e-03
  3.708041e+00    4.487871e-01   7.378348e-03
  3.710251e+00    4.446999e-01   7.360062e-03
  3.712461e+00    4.413288e-01   7.347505e-03
  3.714672e+00    4.543282e-01   7.470562e-03
  3.716882e+00    4.565607e-01   7.504528e-03
  3.719093e+00    4.459168e-01   7.432405e-03
  3.721303e+00    4.513048e-01   7.492968e-03
  3.723514e+00    4.450477e-01   7.456834e-03
  3.725724e+00    4.378902e-01   7.412395e-03
  3.727935e+00    4.435245e-01   7.476080e-03
  3.730145e+00    4.544203e-01   7.583601e-03
  3.732356e+00    4.508555e-01   7.570196e-03
  3.734566e+00    4.461740e-01   7.547103e-03
  3.736776e+00    4.290239e-01   7.416851e-03
  3.738987e+00    4.338489e-01   7.474712e-03
  3.741197e+00    4.624523e-01   7.734290e-03
  3.743408e+00    4.545399e-01   7.684804e-03
  3.745618e+00    4.458106e-01   7.627781e-03
  3.747829e+00    4.401916e-01   7.596312e-03
  3.750039e+00    4.263732e-01   7.492915e-03
  3.752250e+00    4.330460e-01   7.568277e-03
  3.754460e+00    4.425181e-01   7.667929e-03
  3.756671e+00    4.329183e-01   7.601609e-03
  3.758881e+00    4.444425e-01   7.719513e-03
  3.761091e+00    4.363604e-01   7.666780e-03
  3.763302e+00    4.491664e-01   7.796390e-03
  3.765512e+00    4.583464e-01   7.893952e-03
  3.767723e+00    4.409776e-01   7.761008e-03
  3.769933e+00    4.378130e-01   7.751016e-03
  3.772144e+00    4.337194e-01   7.732914e-03
  3.774354e+00    4.275185e-01   7.695603e-03
  3.776565e+00    4.383078e-01   7.810629e-03
  3.778775e+00    4.271485e-01   7.728904e-03
  3.780986e+00    4.353729e-01   7.821850e-03
  3.783196e+00    4.319381e-01   7.809702e-03
  3.785407e+00    4.180991e-01   7.702159e-03
  3.787617e+00    4.397748e-01   7.918699e-03
  3.789827e+00    4.592466e-01   8.111757e-03
  3.792038e+00    4.473729e-01   8.025831e-03
  3.794248e+00    4.658111e-01   8.210048e-03
  3.796459e+00    4.182248e-01   7.798851e-03
  3.798669e+00    4.396512e-01   8.016132e-03
  3.800880e+00    4.225335e-01   7.878260e-03
  3.803090e+00    4.381660e-01   8.043102e-03
  3.805301e+00    4.361914e-01   8.045565e-03
  3.807511e+00    4.428288e-01   8.127278e-03
  3.809722e+00    4.254867e-01   7.987041e-03
  3.811932e+00    4.427202e-01   8.168148e-03
  3.814142e+00    4.164848e-01   7.943280e-03
  3.816353e+00    4.401790e-01   8.187578e-03
  3.818563e+00    4.103551e-01   7.926312e-03
  3.820774e+00    4.106629e-01   7.950299e-03
  3.822984e+00    4.251162e-01   8.110573e-03
  3.825195e+00    4.272340e-01   8.152716e-03
  3.827405e+00    4.384588e-01   8.281603e-03
  3.829616e+00    4.128800e-01   8.058264e-03
  3.831826e+00    4.290455e-01   8.236968e-03
  3.834037e+00    4.248637e-01   8.219413e-03
  3.836247e+00    4.257399e-01   8.250718e-03
  3.838457e+00    4.315172e-01   8.329853e-03
  3.840668e+00    4.264428e-01   8.304041e-03
  3.842878e+00    4.360794e-01   8.421334e-03
  3.845089e+00    4.081708e-01   8.170550e-03
  3.847299e+00    4.334778e-01   8.444193e-03
  3.849510e+00    4.170626e-01   8.306504e-03
  3.851720e+00    4.309504e-01   8.463569e-03
  3.853931e+00    4.324042e-01   8.495701e-03
  3.856141e+00    4.130047e-01   8.320235e-03
  3.858352e+00    4.218782e-01   8.426944e-03
  3.860562e+00    4.349735e-01   8.574865e-03
  3.862772e+00    4.193946e-01   8.437944e-03
  3.864983e+00    4.148623e-01   8.410248e-03
  3.867193e+00    4.160698e-01   8.440669e-03
  3.869404e+00    4.129926e-01   8.427469e-03
  3.871614e+00    4.063313e-01   8.377397e-03
  3.873825e+00    4.156477e-01   8.491524e-03
  3.876035e+00    4.137865e-01   8.491341e-03
  3.878246e+00    4.221866e-01   8.600955e-03
  3.880456e+00    4.146536e-01   8.550500e-03
  3.882667e+00    4.163926e-01   8.595389e-03
  3.884877e+00    4.188665e-01   8.648303e-03
  3.887087e+00    4.218160e-01   8.706478e-03
  3.889298e+00    4.223351e-01   8.739972e-03
  3.891508e+00    4.197174e-01   8.741070e-03
  3.893719e+00    4.400425e-01   8.979582e-03
  3.895929e+00    4.481831e-01   9.092268e-03
  3.898140e+00    4.306680e-01   8.942567e-03
  3.900350e+00    4.103746e-01   8.758754e-03
  3.902561e+00    4.326522e-01   9.023692e-03
  3.904771e+00    4.174665e-01   8.894211e-03
  3.906982e+00    4.211537e-01   8.964153e-03
  3.909192e+00    4.005853e-01   8.772931e-03
  3.911403e+00    3.925868e-01   8.715228e-03
  3.913613e+00    4.116108e-01   8.955410e-03
  3.915823e+00    4.297031e-01   9.182690e-03
  3.918034e+00    4.339049e-01   9.260837e-03
  3.920244e+00    4.270717e-01   9.220936e-03
  3.922455e+00    4.150151e-01   9.123208e-03
  3.924665e+00    4.057279e-01   9.053694e-03
  3.926876e+00    4.277631e-01   9.331033e-03
  3.929086e+00    4.308835e-01   9.400127e-03
  3.931297e+00    4.204854e-01   9.318425e-03
  3.933507e+00    3.961756e-01   9.071044e-03
  3.935718e+00    4.096103e-01   9.250015e-03
  3.937928e+00    4.106660e-01   9.288865e-03
  3.940138e+00    3.968632e-01   9.157910e-03
  3.942349e+00    4.170746e-01   9.415845e-03
  3.944559e+00    4.317324e-01   9.608132e-03
  3.946770e+00    4.339104e-01   9.660799e-03
  3.948980e+00    4.345547e-01   9.697053e-03
  3.951191e+00    4.229981e-01   9.596001e-03
  3.953401e+00    4.194803e-01   9.585142e-03
  3.955612e+00    4.104084e-01   9.509935e-03
  3.957822e+00    4.338959e-01   9.808254e-03
  3.960033e+00    4.170823e-01   9.646604e-03
  3.962243e+00    4.266341e-01   9.787210e-03
  3.964453e+00    4.252014e-01   9.801669e-03
  3.966664e+00    4.264067e-01   9.846878e-03
  3.968874e+00    4.344319e-01   9.965992e-03
  3.971085e+00    3.982049e-01   9.561279e-03
  3.973295e+00    4.379627e-01   1.004759e-02
  3.975506e+00    3.891572e-01   9.490601e-03
  3.977716e+00    4.356161e-01   1.006195e-02
  3.979927e+00    4.140079e-01   9.829672e-03
  3.982137e+00    4.341452e-01   1.008698e-02
  3.984348e+00    4.269572e-01   1.002426e-02
  3.986558e+00    4.208053e-01   9.972585e-03
  3.988768e+00    4.349355e-01   1.016044e-02
  3.990979e+00    4.126361e-01   9.917540e-03
  3.993189e+00    4.278558e-01   1.012036e-02
  3.995400e+00    4.300001e-01   1.016792e-02
  3.997610e+00    4.285879e-01   1.017925e-02
  3.999821e+00    4.130966e-01   1.002822e-02
  4.002031e+00    4.245091e-01   1.020168e-02
  4.004242e+00    4.179454e-01   1.015829e-02
  4.006452e+00    4.074657e-01   1.006625e-02
  4.008663e+00    4.145464e-01   1.019020e-02
  4.010873e+00    4.452591e-01   1.059940e-02
  4.013084e+00    4.199416e-01   1.033178e-02
  4.015294e+00    4.203850e-01   1.037525e-02
  4.017504e+00    4.121993e-01   1.031248e-02
  4.019715e+00    4.317628e-01   1.059440e-02
  4.021925e+00    4.375380e-01   1.070599e-02
  4.024136e+00    4.284492e-01   1.063529e-02
  4.026346e+00    3.943585e-01   1.024327e-02
  4.028557e+00    3.766916e-01   1.005029e-02
  4.030767e+00    4.195144e-01   1.064852e-02
  4.032978e+00    4.222719e-01   1.072693e-02
  4.035188e+00    3.915997e-01   1.037153e-02
  4.037399e+00    3.774733e-01   1.022474e-02
  4.039609e+00    3.494335e-01   9.878219e-03
  4.041819e+00    3.813856e-01   1.036327e-02
  4.044030e+00    3.868177e-01   1.048150e-02
  4.046240e+00    3.991509e-01   1.069262e-02
  4.048451e+00    4.146621e-01   1.094542e-02
  4.050661e+00    4.453729e-01   1.139304e-02
  4.052872e+00    4.002121e-01   1.084808e-02
  4.055082e+00    4.050928e-01   1.096296e-02
  4.057293e+00    3.895897e-01   1.079951e-02
  4.059503e+00    4.136188e-01   1.117796e-02
  4.061714e+00    4.680030e-01   1.194601e-02
  4.063924e+00    3.986574e-01   1.107705e-02
  4.066134e+00    4.198049e-01   1.142071e-02
  4.068345e+00    3.962162e-01   1.114852e-02
  4.070555e+00    4.048891e-01   1.132426e-02
  4.072766e+00    3.924291e-01   1.120355e-02
  4.074976e+00    4.237801e-01   1.170047e-02
  4.077187e+00    4.184858e-01   1.168516e-02
  4.079397e+00    4.224155e-01   1.179963e-02
  4.081608e+00    4.139250e-01   1.174127e-02
  4.083818e+00    3.932182e-01   1.150339e-02
  4.086029e+00    4.053601e-01   1.174118e-02
  4.088239e+00    4.305332e-01   1.216537e-02
  4.090449e+00    4.043072e-01   1.185308e-02
  4.092660e+00    3.891059e-01   1.169203e-02
  4.094870e+00    3.816524e-01   1.164381e-02
  4.097081e+00    4.306823e-01   1.243698e-02
  4.099291e+00    4.089378e-01   1.216904e-02
  4.101502e+00    4.169199e-01   1.233323e-02
  4.103712e+00    4.120275e-01   1.230616e-02
  4.105923e+00    4.269153e-01   1.257500e-02
  4.108133e+00    4.154020e-01   1.245220e-02
  4.110344e+00    4.403588e-01   1.286986e-02
  4.112554e+00    4.277273e-01   1.273412e-02
  4.114764e+00    3.773379e-01   1.200844e-02
  4.116975e+00    4.022150e-01   1.244688e-02
  4.119185e+00    4.090776e-01   1.260365e-02
  4.121396e+00    3.834224e-01   1.225241e-02
  4.123606e+00    4.282416e-01   1.300174e-02
  4.125817e+00    3.698303e-01   1.213340e-02
  4.128027e+00    4.163615e-01   1.292795e-02
  4.130238e+00    4.122589e-01   1.291958e-02
  4.132448e+00    4.282130e-01   1.322414e-02
  4.134659e+00    4.398409e-01   1.346026e-02
  4.136869e+00    4.065498e-01   1.299849e-02
  4.139080e+00    4.348867e-01   1.350448e-02
  4.141290e+00    4.377656e-01   1.360925e-02
  4.143500e+00    4.171899e-01   1.334665e-02
  4.145711e+00    4.142093e-01   1.336121e-02
  4.147921e+00    4.282066e-01   1.364718e-02
  4.150132e+00    4.333635e-01   1.379485e-02
  4.152342e+00    4.062389e-01   1.342071e-02
  4.154553e+00    4.403261e-01   1.403903e-02
  4.156763e+00    4.056111e-01   1.354094e-02
  4.158974e+00    3.844514e-01   1.324911e-02
  4.161184e+00    4.040558e-01   1.365008e-02
  4.163395e+00    4.382184e-01   1.428818e-02
  4.165605e+00    4.206099e-01   1.407082e-02
  4.167815e+00    3.949022e-01   1.370525e-02
  4.170026e+00    4.475720e-01   1.466747e-02
  4.172236e+00    4.490824e-01   1.477166e-02
  4.174447e+00    4.133991e-01   1.424965e-02
  4.176657e+00    4.205888e-01   1.445173e-02
  4.178868e+00    4.674845e-01   1.532230e-02
  4.181078e+00    4.098196e-01   1.442706e-02
  4.183289e+00    3.887127e-01   1.413120e-02
  4.185499e+00    3.827708e-01   1.410505e-02
  4.187710e+00    4.658571e-01   1.565223e-02
  4.189920e+00    4.384582e-01   1.527634e-02
  4.192130e+00    4.727535e-01   1.595981e-02
  4.194341e+00    4.159214e-01   1.506148e-02
  4.196551e+00    4.054059e-01   1.496368e-02
  4.198762e+00    3.839828e-01   1.465598e-02
  4.200972e+00    3.681526e-01   1.444302e-02
  4.203183e+00    4.395216e-01   1.588521e-02
  4.205393e+00    4.114255e-01   1.547151e-02
  4.207604e+00    4.061559e-01   1.547704e-02
  4.209814e+00    4.625698e-01   1.662984e-02
  4.212025e+00    4.347899e-01   1.623741e-02
  4.214235e+00    4.158106e-01   1.599146e-02
  4.216445e+00    4.059751e-01   1.591572e-02
  4.218656e+00    3.812167e-01   1.553810e-02
  4.220866e+00    3.631310e-01   1.527723e-02
  4.223077e+00    3.793809e-01   1.573560e-02
  4.225287e+00    3.969387e-01   1.622210e-02
  4.227498e+00    3.908392e-01   1.622322e-02
  4.229708e+00    4.156750e-01   1.686699e-02
  4.231919e+00    3.941515e-01   1.656019e-02
  4.234129e+00    4.484037e-01   1.781161e-02
  4.236340e+00    3.777323e-01   1.648745e-02
  4.238550e+00    4.276095e-01   1.769688e-02
  4.240761e+00    4.647195e-01   1.861221e-02
  4.242971e+00    4.352145e-01   1.817658e-02
  4.245181e+00    4.586097e-01   1.883368e-02
  4.247392e+00    4.592921e-01   1.902422e-02
  4.249602e+00    4.607721e-01   1.924408e-02
  4.251813e+00    4.442648e-01   1.908259e-02
  4.254023e+00    3.753339e-01   1.771648e-02
  4.256234e+00    4.269642e-01   1.909731e-02
  4.258444e+00    3.972291e-01   1.861346e-02
  4.260655e+00    4.254191e-01   1.947432e-02
  4.262865e+00    3.807566e-01   1.863250e-02
  4.265076e+00    3.737466e-01   1.867025e-02
  4.267286e+00    4.550287e-01   2.084512e-02
  4.269496e+00    3.310364e-01   1.799669e-02
  4.271707e+00    4.159870e-01   2.042249e-02
  4.273917e+00    3.980211e-01   2.023571e-02
  4.276128e+00    3.802843e-01   2.004252e-02
  4.278338e+00    4.395843e-01   2.183569e-02
  4.280549e+00    3.594520e-01   2.002862e-02
  4.282759e+00    3.549729e-01   2.019051e-02
  4.284970e+00    3.786918e-01   2.116169e-02
  4.287180e+00    3.318394e-01   2.004740e-02
  4.289391e+00    3.357062e-01   2.031447e-02
  4.291601e+00    4.060262e-01   2.251981e-02
  4.293811e+00    4.708984e-01   2.444242e-02
  4.296022e+00    4.343005e-01   2.366122e-02
  4.298232e+00    4.589205e-01   2.452679e-02
  4.300443e+00    4.210542e-01   2.368708e-02
  4.302653e+00    3.940769e-01   2.311419e-02
  4.304864e+00    3.479976e-01   2.190832e-02
  4.307074e+00    4.473720e-01   2.506359e-02
  4.309285e+00    4.308006e-01   2.481934e-02
  4.311495e+00    4.166611e-01   2.463550e-02
  4.313706e+00    4.941720e-01   2.708274e-02
  4.315916e+00    4.267188e-01   2.541339e-02
  4.318126e+00    3.948860e-01   2.469014e-02
  4.320337e+00    3.979283e-01   2.503527e-02
  4.322547e+00    3.671522e-01   2.430264e-02
  4.324758e+00    4.519930e-01   2.724445e-02
  4.326968e+00    5.078285e-01   2.920436e-02
  4.329179e+00    4.097916e-01   2.652398e-02
  4.331389e+00    3.438842e-01   2.457648e-02
  4.333600e+00    3.668646e-01   2.568827e-02
  4.335810e+00    3.921089e-01   2.687208e-02
  4.338021e+00    4.441052e-01   2.896579e-02
  4.340231e+00    4.613272e-01   2.989219e-02
  4.342442e+00    4.073689e-01   2.846684e-02
  4.344652e+00    3.712409e-01   2.754420e-02
  4.346862e+00    3.247655e-01   2.612192e-02
  4.349073e+00    4.922419e-01   3.262959e-02
  4.351283e+00    3.865578e-01   2.934754e-02
  4.353494e+00    3.618748e-01   2.883188e-02
  4.355704e+00    4.540175e-01   3.281604e-02
  4.357915e+00    4.133682e-01   3.183350e-02
  4.360125e+00    5.338533e-01   3.679346e-02
  4.362336e+00    3.510907e-01   3.038318e-02
  4.364546e+00    3.246848e-01   2.974952e-02
  4.366757e+00    3.872512e-01   3.313522e-02
  4.368967e+00    4.056947e-01   3.459329e-02
  4.371177e+00    3.751099e-01   3.396973e-02
  4.373388e+00    5.548702e-01   4.223737e-02
  4.375598e+00    4.752057e-01   3.998380e-02
  4.377809e+00    3.698079e-01   3.616166e-02
  4.380019e+00    4.422534e-01   4.054078e-02
  4.382230e+00    2.395684e-01   3.067268e-02
  4.384440e+00    1.627924e-01   2.600824e-02
  4.386651e+00    4.198145e-01   4.305613e-02
  4.388861e+00    3.178597e-01   3.872291e-02
  4.391072e+00    3.409335e-01   4.151537e-02
  4.393282e+00    3.828812e-01   4.569232e-02
  4.395492e+00    3.266957e-01   4.396426e-02
  4.397703e+00    3.644443e-01   4.855265e-02
  4.399913e+00    4.807849e-01   5.859247e-02
  4.402124e+00    4.828218e-01   6.204272e-02
  4.404334e+00    3.976064e-01   5.985250e-02
  4.406545e+00    3.459224e-01   5.997579e-02
  4.408755e+00    4.586975e-01   7.490459e-02
  4.410966e+00    2.250504e-01   5.807669e-02
  4.413176e+00    1.828098e-02   1.878345e-02
  4.415387e+00   -7.652244e-01            nan
  4.417597e+00   -1.916099e+00            nan
  4.419807e+00   -3.766224e-01            nan
