# == pyFAI calibration ==
# Distance Sample to Detector: 0.216 m
# PONI: 1.166e-01, 1.308e-01 m
# Rotations: 0.000000 0.000000 0.000000 rad
# 
# == Fit2d calibration ==
# Distance Sample-beamCenter: 216.000 mm
# Center: x=1744.293, y=1555.000 pix
# Tilt: 0.000 deg  TiltPlanRot: 0.000 deg
# 
# Detector Eiger 9M	 PixelSize= 7.500e-05, 7.500e-05 m
#    Detector has a mask: True 
#    Detector has a dark current: False 
#    detector has a flat field: False 
# 
# Wavelength: 9.8e-11 m
# Mask applied: from detector
# Dark current applied: False
# Flat field applied: False
# Polarization factor: None
# Normalization factor: 1.0
# 
# Headers of the input frame:
# {
# "_array_data.header_convention": "SLS_1.0",
# "_array_data.header_contents": "# Detector: Dectris Eiger 9M, S/N E-18-0102\r\n# Pixel_size 75e-6 m x 75e-6 m\r\n# Silicon sensor, thickness 0.000450 m\r\n# Exposure_time 0.024997 s\r\n# Exposure_period 0.025000 s\r\n# Count_cutoff 62318 counts\r\n# Wavelength 0.980106 A\r\n# Detector_distance 0.215992 m\r\n# Beam_xy (1555, 1744) pixels\r\n# Start_angle 0.000000 deg.\r\n# Angle_increment 0.000000 deg.",
# "Content-Type": "application/octet-stream;",
# "conversions": "x-CBF_BYTE_OFFSET",
# "Content-Transfer-Encoding": "BINARY",
# "X-Binary-Size": "10166640",
# "X-Binary-ID": "1",
# "X-Binary-Element-Type": "signed 32-bit integer",
# "X-Binary-Element-Byte-Order": "LITTLE_ENDIAN",
# "Content-MD5": "PyHKNmt5hDioK6LZhUf90g==",
# "X-Binary-Number-of-Elements": "10166590",
# "X-Binary-Size-Fastest-Dimension": "3110",
# "X-Binary-Size-Second-Dimension": "3269",
# "X-Binary-Size-Padding": "4095"
# }
# --> H:/Proxima2a_2019-04-05/RAW_DATA/C5_gel17_position5/C5_mesh_1_data.cbf/C5_mesh_1_data.cbf000101.dat
#        q_A^-1              I           sigma 
  1.105228e-03    1.437936e+00   6.488686e-01
  3.315685e-03    1.478283e+00   3.999670e-01
  5.526141e-03    1.527714e+00   3.144076e-01
  7.736597e-03    1.472841e+00   2.607943e-01
  9.947054e-03    1.555180e+00   2.362473e-01
  1.215751e-02    1.506184e+00   2.102362e-01
  1.436797e-02    1.499174e+00   1.929310e-01
  1.657842e-02    1.493083e+00   1.792200e-01
  1.878888e-02    1.688174e+00   1.790078e-01
  2.099934e-02    1.597142e+00   1.647304e-01
  2.320979e-02    1.590595e+00   1.563553e-01
  2.542025e-02    1.496949e+00   1.449483e-01
  2.763070e-02    1.566486e+00   1.422177e-01
  2.984116e-02    1.388728e+00   1.288502e-01
  3.205162e-02    1.397017e+00   1.247059e-01
  3.426207e-02    1.554837e+00   1.272381e-01
  3.647253e-02    1.589947e+00   1.247042e-01
  3.868299e-02    1.514220e+00   1.181790e-01
  4.089344e-02    1.449084e+00   1.124417e-01
  4.310390e-02    1.520657e+00   1.121862e-01
  4.531436e-02    1.523874e+00   1.095318e-01
  4.752481e-02    1.476979e+00   1.052946e-01
  4.973527e-02    1.461146e+00   1.023761e-01
  5.194572e-02    1.506852e+00   1.017275e-01
  5.415618e-02    1.547781e+00   1.009703e-01
  5.636664e-02    1.430321e+00   9.514411e-02
  5.857709e-02    1.421061e+00   9.302954e-02
  6.078755e-02    1.531910e+00   9.481432e-02
  6.299801e-02    1.453312e+00   9.071431e-02
  6.520846e-02    1.489995e+00   9.028239e-02
  6.741892e-02    1.538909e+00   9.023113e-02
  6.962938e-02    1.432953e+00   8.568058e-02
  7.183983e-02    1.409780e+00   8.366575e-02
  7.405029e-02    1.420650e+00   8.272272e-02
  7.626074e-02    1.349986e+00   7.946119e-02
  7.847120e-02    1.540073e+00   8.366515e-02
  8.068166e-02    1.671958e+00   8.597080e-02
  8.289211e-02    1.563421e+00   8.201718e-02
  8.510257e-02    1.515714e+00   7.969994e-02
  8.731303e-02    1.552952e+00   7.964229e-02
  8.952348e-02    1.477816e+00   7.672868e-02
  9.173394e-02    1.508183e+00   7.657039e-02
  9.394439e-02    1.553546e+00   7.679117e-02
  9.615485e-02    1.568533e+00   7.626697e-02
  9.836531e-02    1.536462e+00   7.462827e-02
  1.005758e-01    1.569947e+00   7.460396e-02
  1.027862e-01    1.532571e+00   7.291185e-02
  1.049967e-01    1.498282e+00   7.132747e-02
  1.072071e-01    1.473950e+00   7.001194e-02
  1.094176e-01    1.518785e+00   7.034618e-02
  1.116280e-01    1.525571e+00   6.980008e-02
  1.138385e-01    1.502488e+00   6.859285e-02
  1.160490e-01    1.453195e+00   6.681193e-02
  1.182594e-01    1.507087e+00   6.739913e-02
  1.204699e-01    1.645844e+00   6.978384e-02
  1.226803e-01    1.680031e+00   6.986395e-02
  1.248908e-01    1.519970e+00   6.586112e-02
  1.271012e-01    1.612022e+00   6.723242e-02
  1.293117e-01    1.666248e+00   6.776628e-02
  1.315222e-01    1.599553e+00   6.583435e-02
  1.337326e-01    1.549465e+00   6.425641e-02
  1.359431e-01    1.604432e+00   6.542451e-02
  1.381535e-01    1.577769e+00   6.574947e-02
  1.403640e-01    1.604595e+00   6.659236e-02
  1.425744e-01    1.580386e+00   6.619367e-02
  1.447849e-01    1.560605e+00   6.579327e-02
  1.469953e-01    1.568663e+00   6.592159e-02
  1.492058e-01    1.563685e+00   6.574043e-02
  1.514163e-01    1.560249e+00   6.555913e-02
  1.536267e-01    1.573566e+00   6.570975e-02
  1.558372e-01    1.566611e+00   6.541962e-02
  1.580476e-01    1.651350e+00   6.700265e-02
  1.602581e-01    1.723017e+00   6.826729e-02
  1.624685e-01    1.719028e+00   6.800156e-02
  1.646790e-01    1.650824e+00   6.644754e-02
  1.668895e-01    1.708426e+00   6.740164e-02
  1.690999e-01    1.731430e+00   6.765015e-02
  1.713104e-01    1.712003e+00   6.706080e-02
  1.735208e-01    1.782927e+00   6.822294e-02
  1.757313e-01    1.876054e+00   6.976269e-02
  1.779417e-01    1.844688e+00   6.895144e-02
  1.801522e-01    1.834673e+00   6.854501e-02
  1.823626e-01    1.831270e+00   6.825341e-02
  1.845731e-01    1.920571e+00   6.967138e-02
  1.867836e-01    1.905140e+00   6.915675e-02
  1.889940e-01    1.918235e+00   6.916722e-02
  1.912045e-01    1.999198e+00   7.037605e-02
  1.934149e-01    1.971871e+00   6.965945e-02
  1.956254e-01    1.988562e+00   6.972295e-02
  1.978358e-01    2.000792e+00   6.969734e-02
  2.000463e-01    2.040690e+00   7.015560e-02
  2.022568e-01    2.026218e+00   6.967695e-02
  2.044672e-01    1.971698e+00   6.849767e-02
  2.066777e-01    1.967621e+00   6.819972e-02
  2.088881e-01    1.909200e+00   6.695982e-02
  2.110986e-01    1.968940e+00   6.776616e-02
  2.133090e-01    1.928837e+00   6.685447e-02
  2.155195e-01    1.981142e+00   6.753007e-02
  2.177300e-01    1.986240e+00   6.708574e-02
  2.199404e-01    1.971090e+00   6.506845e-02
  2.221509e-01    1.923033e+00   6.321497e-02
  2.243613e-01    1.983953e+00   6.339449e-02
  2.265718e-01    2.002319e+00   6.298526e-02
  2.287822e-01    2.133046e+00   6.436542e-02
  2.309927e-01    2.159416e+00   6.417206e-02
  2.332031e-01    2.152233e+00   6.351694e-02
  2.354136e-01    2.126187e+00   6.261975e-02
  2.376241e-01    2.121613e+00   6.206683e-02
  2.398345e-01    2.203362e+00   6.278318e-02
  2.420450e-01    2.169583e+00   6.185485e-02
  2.442554e-01    2.141695e+00   6.103262e-02
  2.464659e-01    2.165081e+00   6.095295e-02
  2.486763e-01    2.073489e+00   5.925765e-02
  2.508868e-01    2.153834e+00   6.001383e-02
  2.530973e-01    2.070538e+00   5.847711e-02
  2.553077e-01    2.140640e+00   5.909812e-02
  2.575182e-01    2.037903e+00   5.732136e-02
  2.597286e-01    2.066087e+00   5.738087e-02
  2.619391e-01    2.099999e+00   5.751680e-02
  2.641495e-01    2.106131e+00   5.728192e-02
  2.663600e-01    2.036756e+00   5.602084e-02
  2.685704e-01    1.991780e+00   5.509854e-02
  2.707809e-01    2.128454e+00   5.665524e-02
  2.729914e-01    2.079824e+00   5.571246e-02
  2.752018e-01    2.065261e+00   5.522810e-02
  2.774123e-01    2.057289e+00   5.483983e-02
  2.796227e-01    2.053352e+00   5.451632e-02
  2.818332e-01    2.045692e+00   5.414310e-02
  2.840436e-01    2.029953e+00   5.367299e-02
  2.862541e-01    2.013097e+00   5.319272e-02
  2.884646e-01    2.051917e+00   5.344829e-02
  2.906750e-01    2.000639e+00   5.252599e-02
  2.928855e-01    2.035349e+00   5.273419e-02
  2.950959e-01    2.027747e+00   5.239385e-02
  2.973064e-01    1.925814e+00   5.083046e-02
  2.995168e-01    1.938415e+00   5.076554e-02
  3.017273e-01    1.905463e+00   5.011028e-02
  3.039377e-01    1.964512e+00   5.065799e-02
  3.061482e-01    1.959048e+00   5.036869e-02
  3.083587e-01    1.936560e+00   4.986198e-02
  3.105691e-01    1.936578e+00   4.964924e-02
  3.127796e-01    1.920319e+00   4.923252e-02
  3.149900e-01    1.909136e+00   4.888444e-02
  3.172005e-01    1.904538e+00   4.862586e-02
  3.194109e-01    1.884632e+00   4.817142e-02
  3.216214e-01    1.871890e+00   4.781239e-02
  3.238319e-01    1.950991e+00   4.861876e-02
  3.260423e-01    1.906574e+00   4.787071e-02
  3.282528e-01    1.841247e+00   4.685616e-02
  3.304632e-01    1.900969e+00   4.742554e-02
  3.326737e-01    1.877837e+00   4.695221e-02
  3.348841e-01    1.858858e+00   4.653319e-02
  3.370946e-01    1.796615e+00   4.557538e-02
  3.393050e-01    1.832801e+00   4.585766e-02
  3.415155e-01    1.916040e+00   4.671116e-02
  3.437260e-01    1.919107e+00   4.657526e-02
  3.459364e-01    1.894688e+00   4.610682e-02
  3.481469e-01    1.893498e+00   4.592408e-02
  3.503573e-01    1.862134e+00   4.537625e-02
  3.525678e-01    1.892151e+00   4.557750e-02
  3.547782e-01    1.865913e+00   4.509682e-02
  3.569887e-01    1.862966e+00   4.490151e-02
  3.591992e-01    1.833345e+00   4.438553e-02
  3.614096e-01    1.802973e+00   4.386371e-02
  3.636201e-01    1.851935e+00   4.429907e-02
  3.658305e-01    1.908674e+00   4.481917e-02
  3.680410e-01    1.838272e+00   4.383356e-02
  3.702514e-01    1.832954e+00   4.362287e-02
  3.724619e-01    1.873494e+00   4.395248e-02
  3.746724e-01    1.799449e+00   4.293147e-02
  3.768828e-01    1.739123e+00   4.206366e-02
  3.790933e-01    1.775100e+00   4.235804e-02
  3.813037e-01    1.703793e+00   4.136277e-02
  3.835142e-01    1.760455e+00   4.190684e-02
  3.857246e-01    1.781394e+00   4.201889e-02
  3.879351e-01    1.808253e+00   4.219747e-02
  3.901455e-01    1.810402e+00   4.208808e-02
  3.923560e-01    1.861479e+00   4.254206e-02
  3.945665e-01    1.813211e+00   4.185373e-02
  3.967769e-01    1.838247e+00   4.200970e-02
  3.989874e-01    1.801470e+00   4.145749e-02
  4.011978e-01    1.863351e+00   4.203385e-02
  4.034083e-01    1.858689e+00   4.185236e-02
  4.056187e-01    1.845269e+00   4.157256e-02
  4.078292e-01    1.743414e+00   4.028662e-02
  4.100397e-01    1.758732e+00   4.033965e-02
  4.122501e-01    1.827098e+00   4.099321e-02
  4.144606e-01    1.820917e+00   4.080248e-02
  4.166710e-01    1.816348e+00   4.063006e-02
  4.188815e-01    1.838606e+00   4.075750e-02
  4.210919e-01    1.882308e+00   4.111819e-02
  4.233024e-01    1.864628e+00   4.080426e-02
  4.255128e-01    1.811505e+00   4.010255e-02
  4.277233e-01    1.800706e+00   3.986796e-02
  4.299338e-01    1.833765e+00   4.011648e-02
  4.321442e-01    1.867990e+00   4.037327e-02
  4.343547e-01    1.866441e+00   4.024242e-02
  4.365651e-01    1.837647e+00   3.981733e-02
  4.387756e-01    1.794427e+00   3.923616e-02
  4.409860e-01    1.806625e+00   3.926020e-02
  4.431965e-01    1.782933e+00   3.889408e-02
  4.454070e-01    1.778158e+00   3.873390e-02
  4.476174e-01    1.747295e+00   3.829087e-02
  4.498279e-01    1.746068e+00   3.817325e-02
  4.520383e-01    1.821540e+00   3.888254e-02
  4.542488e-01    1.763741e+00   3.815752e-02
  4.564592e-01    1.721019e+00   3.759142e-02
  4.586697e-01    1.777646e+00   3.810345e-02
  4.608801e-01    1.775302e+00   3.797634e-02
  4.630906e-01    1.736607e+00   3.746073e-02
  4.653011e-01    1.739926e+00   3.739790e-02
  4.675115e-01    1.744534e+00   3.734878e-02
  4.697220e-01    1.696945e+00   3.673939e-02
  4.719324e-01    1.669982e+00   3.635206e-02
  4.741429e-01    1.728918e+00   3.689263e-02
  4.763533e-01    1.769136e+00   3.722361e-02
  4.785638e-01    1.737860e+00   3.679781e-02
  4.807743e-01    1.708098e+00   3.638858e-02
  4.829847e-01    1.682949e+00   3.602846e-02
  4.851952e-01    1.711496e+00   3.624079e-02
  4.874056e-01    1.705102e+00   3.608184e-02
  4.896161e-01    1.698861e+00   3.592641e-02
  4.918265e-01    1.715136e+00   3.600845e-02
  4.940370e-01    1.701022e+00   3.577146e-02
  4.962475e-01    1.703082e+00   3.570472e-02
  4.984579e-01    1.680259e+00   3.537727e-02
  5.006684e-01    1.735638e+00   3.586785e-02
  5.028788e-01    1.704347e+00   3.545697e-02
  5.050893e-01    1.642451e+00   3.472251e-02
  5.072997e-01    1.693421e+00   3.517198e-02
  5.095102e-01    1.720403e+00   3.536620e-02
  5.117206e-01    1.694563e+00   3.501614e-02
  5.139311e-01    1.681365e+00   3.479696e-02
  5.161416e-01    1.674846e+00   3.464736e-02
  5.183520e-01    1.656629e+00   3.437654e-02
  5.205625e-01    1.684671e+00   3.458504e-02
  5.227729e-01    1.727400e+00   3.493922e-02
  5.249834e-01    1.715284e+00   3.473564e-02
  5.271938e-01    1.719187e+00   3.469399e-02
  5.294043e-01    1.715924e+00   3.458108e-02
  5.316148e-01    1.726387e+00   3.460689e-02
  5.338252e-01    1.796686e+00   3.522377e-02
  5.360357e-01    1.841593e+00   3.558008e-02
  5.382461e-01    1.792510e+00   3.502339e-02
  5.404566e-01    1.740771e+00   3.443569e-02
  5.426670e-01    1.742992e+00   3.437998e-02
  5.448775e-01    1.783312e+00   3.469769e-02
  5.470879e-01    1.779599e+00   3.458425e-02
  5.492984e-01    1.756763e+00   3.428522e-02
  5.515089e-01    1.805896e+00   3.468427e-02
  5.537193e-01    1.802097e+00   3.457144e-02
  5.559298e-01    1.807103e+00   3.454348e-02
  5.581402e-01    1.782816e+00   3.423560e-02
  5.603507e-01    1.790771e+00   3.423723e-02
  5.625611e-01    1.796220e+00   3.421485e-02
  5.647716e-01    1.771266e+00   3.390260e-02
  5.669821e-01    1.768024e+00   3.379852e-02
  5.691925e-01    1.788746e+00   3.392305e-02
  5.714030e-01    1.724139e+00   3.323380e-02
  5.736134e-01    1.667472e+00   3.261355e-02
  5.758239e-01    1.730242e+00   3.315081e-02
  5.780343e-01    1.713244e+00   3.291782e-02
  5.802448e-01    1.695737e+00   3.268062e-02
  5.824552e-01    1.669602e+00   3.235979e-02
  5.846657e-01    1.587314e+00   3.148649e-02
  5.868762e-01    1.650807e+00   3.204317e-02
  5.890866e-01    1.692690e+00   3.237984e-02
  5.912971e-01    1.656217e+00   3.196274e-02
  5.935075e-01    1.713805e+00   3.244650e-02
  5.957180e-01    1.643656e+00   3.171033e-02
  5.979284e-01    1.650432e+00   3.171075e-02
  6.001389e-01    1.632610e+00   3.147485e-02
  6.023494e-01    1.646863e+00   3.154775e-02
  6.045598e-01    1.658194e+00   3.159164e-02
  6.067703e-01    1.676376e+00   3.170051e-02
  6.089807e-01    1.701143e+00   3.186961e-02
  6.111912e-01    1.647777e+00   3.130312e-02
  6.134016e-01    1.663256e+00   3.138707e-02
  6.156121e-01    1.655589e+00   3.125240e-02
  6.178226e-01    1.696424e+00   3.157282e-02
  6.200330e-01    1.742779e+00   3.193818e-02
  6.222435e-01    1.699957e+00   3.148086e-02
  6.244539e-01    1.752264e+00   3.189893e-02
  6.266644e-01    1.740837e+00   3.173275e-02
  6.288748e-01    1.710898e+00   3.139746e-02
  6.310853e-01    1.717560e+00   3.139745e-02
  6.332957e-01    1.736149e+00   3.150594e-02
  6.355062e-01    1.719391e+00   3.129262e-02
  6.377167e-01    1.738247e+00   3.140336e-02
  6.399271e-01    1.724397e+00   3.121809e-02
  6.421376e-01    1.713756e+00   3.106220e-02
  6.443480e-01    1.693637e+00   3.082060e-02
  6.465585e-01    1.681745e+00   3.065401e-02
  6.487689e-01    1.699830e+00   3.076020e-02
  6.509794e-01    1.711970e+00   3.081161e-02
  6.531899e-01    1.695147e+00   3.060223e-02
  6.554003e-01    1.650248e+00   3.013745e-02
  6.576108e-01    1.649393e+00   3.007354e-02
  6.598212e-01    1.615566e+00   2.970826e-02
  6.620317e-01    1.638062e+00   2.985892e-02
  6.642421e-01    1.628582e+00   2.971731e-02
  6.664526e-01    1.636478e+00   2.973439e-02
  6.686630e-01    1.646391e+00   2.976916e-02
  6.708735e-01    1.605139e+00   2.933994e-02
  6.730840e-01    1.603302e+00   2.926968e-02
  6.752944e-01    1.581380e+00   2.901603e-02
  6.775049e-01    1.596670e+00   2.910302e-02
  6.797153e-01    1.647779e+00   2.951161e-02
  6.819258e-01    1.614907e+00   2.916308e-02
  6.841362e-01    1.577340e+00   2.877003e-02
  6.863467e-01    1.600796e+00   2.893125e-02
  6.885572e-01    1.594619e+00   2.882364e-02
  6.907676e-01    1.613899e+00   2.894540e-02
  6.929781e-01    1.618798e+00   2.893778e-02
  6.951885e-01    1.610152e+00   2.880929e-02
  6.973990e-01    1.594048e+00   2.861415e-02
  6.996094e-01    1.637496e+00   2.895048e-02
  7.018199e-01    1.635710e+00   2.888391e-02
  7.040303e-01    1.610408e+00   2.860930e-02
  7.062408e-01    1.595950e+00   2.843070e-02
  7.084513e-01    1.568311e+00   2.813441e-02
  7.106617e-01    1.583841e+00   2.822423e-02
  7.128722e-01    1.551544e+00   2.788665e-02
  7.150826e-01    1.608351e+00   2.834363e-02
  7.172931e-01    1.620165e+00   2.839851e-02
  7.195035e-01    1.602899e+00   2.819822e-02
  7.217140e-01    1.588553e+00   2.812142e-02
  7.239245e-01    1.606457e+00   2.850846e-02
  7.261349e-01    1.577882e+00   2.836250e-02
  7.283454e-01    1.590486e+00   2.854832e-02
  7.305558e-01    1.591259e+00   2.860953e-02
  7.327663e-01    1.566587e+00   2.842927e-02
  7.349767e-01    1.541174e+00   2.821393e-02
  7.371872e-01    1.576363e+00   2.852301e-02
  7.393976e-01    1.567442e+00   2.842798e-02
  7.416081e-01    1.570211e+00   2.843691e-02
  7.438186e-01    1.600712e+00   2.856627e-02
  7.460290e-01    1.576354e+00   2.805369e-02
  7.482395e-01    1.606256e+00   2.814564e-02
  7.504499e-01    1.554377e+00   2.755201e-02
  7.526604e-01    1.538035e+00   2.729158e-02
  7.548708e-01    1.569912e+00   2.748367e-02
  7.570813e-01    1.575138e+00   2.747841e-02
  7.592918e-01    1.585054e+00   2.752946e-02
  7.615022e-01    1.583054e+00   2.747821e-02
  7.637127e-01    1.581590e+00   2.743264e-02
  7.659231e-01    1.541780e+00   2.705353e-02
  7.681336e-01    1.546891e+00   2.706700e-02
  7.703440e-01    1.588563e+00   2.739779e-02
  7.725545e-01    1.589695e+00   2.737654e-02
  7.747650e-01    1.614479e+00   2.755044e-02
  7.769754e-01    1.602699e+00   2.739659e-02
  7.791859e-01    1.591866e+00   2.725008e-02
  7.813963e-01    1.581140e+00   2.710547e-02
  7.836068e-01    1.618970e+00   2.737526e-02
  7.858172e-01    1.624834e+00   2.737353e-02
  7.880277e-01    1.604263e+00   2.714797e-02
  7.902381e-01    1.613317e+00   2.717498e-02
  7.924486e-01    1.622090e+00   2.719831e-02
  7.946591e-01    1.611759e+00   2.706309e-02
  7.968695e-01    1.640256e+00   2.725242e-02
  7.990800e-01    1.668313e+00   2.743543e-02
  8.012904e-01    1.642963e+00   2.717906e-02
  8.035009e-01    1.717649e+00   2.774050e-02
  8.057113e-01    1.708365e+00   2.761762e-02
  8.079218e-01    1.631629e+00   2.694365e-02
  8.101323e-01    1.655098e+00   2.709064e-02
  8.123427e-01    1.662016e+00   2.710092e-02
  8.145532e-01    1.669573e+00   2.711601e-02
  8.167636e-01    1.651967e+00   2.692727e-02
  8.189741e-01    1.690160e+00   2.719139e-02
  8.211845e-01    1.641250e+00   2.675015e-02
  8.233950e-01    1.632714e+00   2.663710e-02
  8.256054e-01    1.657248e+00   2.679202e-02
  8.278159e-01    1.679855e+00   2.692961e-02
  8.300264e-01    1.682137e+00   2.690423e-02
  8.322368e-01    1.670112e+00   2.676437e-02
  8.344473e-01    1.633269e+00   2.642420e-02
  8.366577e-01    1.666560e+00   2.664919e-02
  8.388682e-01    1.724385e+00   2.706425e-02
  8.410786e-01    1.731721e+00   2.707854e-02
  8.432891e-01    1.693038e+00   2.673189e-02
  8.454996e-01    1.631043e+00   2.619635e-02
  8.477100e-01    1.623997e+00   2.609822e-02
  8.499205e-01    1.622433e+00   2.604468e-02
  8.521309e-01    1.609845e+00   2.590300e-02
  8.543414e-01    1.607444e+00   2.584328e-02
  8.565518e-01    1.651487e+00   2.615416e-02
  8.587623e-01    1.661577e+00   2.619308e-02
  8.609727e-01    1.665879e+00   2.618631e-02
  8.631832e-01    1.656145e+00   2.606945e-02
  8.653937e-01    1.610855e+00   2.567100e-02
  8.676041e-01    1.641336e+00   2.587363e-02
  8.698146e-01    1.662207e+00   2.599783e-02
  8.720250e-01    1.643633e+00   2.581276e-02
  8.742355e-01    1.609065e+00   2.550100e-02
  8.764459e-01    1.643774e+00   2.573523e-02
  8.786564e-01    1.639000e+00   2.565956e-02
  8.808669e-01    1.618443e+00   2.545946e-02
  8.830773e-01    1.579258e+00   2.511152e-02
  8.852878e-01    1.571040e+00   2.500853e-02
  8.874982e-01    1.582853e+00   2.506595e-02
  8.897087e-01    1.598901e+00   2.515504e-02
  8.919191e-01    1.603072e+00   2.515004e-02
  8.941296e-01    1.581331e+00   2.494186e-02
  8.963401e-01    1.559755e+00   2.473515e-02
  8.985505e-01    1.582869e+00   2.488098e-02
  9.007610e-01    1.581887e+00   2.483674e-02
  9.029714e-01    1.585727e+00   2.483118e-02
  9.051819e-01    1.571243e+00   2.468064e-02
  9.073923e-01    1.621157e+00   2.503276e-02
  9.096028e-01    1.621984e+00   2.500402e-02
  9.118132e-01    1.591062e+00   2.472839e-02
  9.140237e-01    1.588707e+00   2.467359e-02
  9.162342e-01    1.602881e+00   2.474881e-02
  9.184446e-01    1.621345e+00   2.485495e-02
  9.206551e-01    1.617388e+00   2.478884e-02
  9.228655e-01    1.604363e+00   2.465353e-02
  9.250760e-01    1.599755e+00   2.458277e-02
  9.272864e-01    1.609719e+00   2.462486e-02
  9.294969e-01    1.645917e+00   2.486391e-02
  9.317074e-01    1.654933e+00   2.489667e-02
  9.339178e-01    1.659168e+00   2.489449e-02
  9.361283e-01    1.662741e+00   2.488452e-02
  9.383387e-01    1.640607e+00   2.468473e-02
  9.405492e-01    1.639547e+00   2.464228e-02
  9.427596e-01    1.658615e+00   2.474949e-02
  9.449701e-01    1.662709e+00   2.474634e-02
  9.471805e-01    1.662569e+00   2.471026e-02
  9.493910e-01    1.678231e+00   2.479230e-02
  9.516015e-01    1.685120e+00   2.480844e-02
  9.538119e-01    1.698893e+00   2.487550e-02
  9.560224e-01    1.679828e+00   2.470070e-02
  9.582328e-01    1.719826e+00   2.495949e-02
  9.604433e-01    1.784644e+00   2.538951e-02
  9.626537e-01    1.757677e+00   2.516307e-02
  9.648642e-01    1.787120e+00   2.533820e-02
  9.670747e-01    1.779647e+00   2.525030e-02
  9.692851e-01    1.810155e+00   2.543194e-02
  9.714956e-01    1.823612e+00   2.549033e-02
  9.737060e-01    1.815457e+00   2.539984e-02
  9.759165e-01    1.831633e+00   2.547678e-02
  9.781269e-01    1.841317e+00   2.551063e-02
  9.803374e-01    1.887683e+00   2.579409e-02
  9.825478e-01    1.862108e+00   2.558498e-02
  9.847583e-01    1.844868e+00   2.543169e-02
  9.869688e-01    1.808133e+00   2.514352e-02
  9.891792e-01    1.791079e+00   2.499139e-02
  9.913897e-01    1.764727e+00   2.477339e-02
  9.936001e-01    1.845062e+00   2.529780e-02
  9.958106e-01    2.141047e+00   2.721437e-02
  9.980210e-01    2.134050e+00   2.713485e-02
  1.000231e+00    1.730670e+00   2.456991e-02
  1.002442e+00    1.623376e+00   2.392251e-02
  1.004652e+00    1.627131e+00   2.401697e-02
  1.006863e+00    1.609663e+00   2.393728e-02
  1.009073e+00    1.587394e+00   2.380750e-02
  1.011284e+00    1.579227e+00   2.377792e-02
  1.013494e+00    1.587670e+00   2.386505e-02
  1.015705e+00    1.548803e+00   2.359341e-02
  1.017915e+00    1.553464e+00   2.364515e-02
  1.020126e+00    1.547053e+00   2.361226e-02
  1.022336e+00    1.551340e+00   2.365660e-02
  1.024547e+00    1.549842e+00   2.365639e-02
  1.026757e+00    1.567575e+00   2.379977e-02
  1.028967e+00    1.543418e+00   2.362336e-02
  1.031178e+00    1.520598e+00   2.345420e-02
  1.033388e+00    1.496876e+00   2.327553e-02
  1.035599e+00    1.520794e+00   2.346416e-02
  1.037809e+00    1.542905e+00   2.363739e-02
  1.040020e+00    1.533905e+00   2.356964e-02
  1.042230e+00    1.518209e+00   2.345067e-02
  1.044441e+00    1.550605e+00   2.369933e-02
  1.046651e+00    1.536298e+00   2.358991e-02
  1.048862e+00    1.554965e+00   2.373199e-02
  1.051072e+00    1.544888e+00   2.365259e-02
  1.053282e+00    1.535013e+00   2.357591e-02
  1.055493e+00    1.516516e+00   2.342910e-02
  1.057703e+00    1.587562e+00   2.397001e-02
  1.059914e+00    1.759008e+00   2.522648e-02
  1.062124e+00    2.059192e+00   2.728945e-02
  1.064335e+00    2.454554e+00   2.978989e-02
  1.066545e+00    2.440518e+00   2.969703e-02
  1.068756e+00    2.126592e+00   2.771684e-02
  1.070966e+00    2.329921e+00   2.900327e-02
  1.073177e+00    2.593488e+00   3.059191e-02
  1.075387e+00    2.090698e+00   2.746084e-02
  1.077597e+00    1.664372e+00   2.449373e-02
  1.079808e+00    1.543350e+00   2.345009e-02
  1.082018e+00    1.474891e+00   2.273424e-02
  1.084229e+00    1.433167e+00   2.230135e-02
  1.086439e+00    1.435662e+00   2.223389e-02
  1.088650e+00    1.438823e+00   2.218310e-02
  1.090860e+00    1.434091e+00   2.207944e-02
  1.093071e+00    1.417488e+00   2.188980e-02
  1.095281e+00    1.418673e+00   2.184221e-02
  1.097492e+00    1.435382e+00   2.191574e-02
  1.099702e+00    1.444187e+00   2.193141e-02
  1.101912e+00    1.438300e+00   2.183784e-02
  1.104123e+00    1.414971e+00   2.161213e-02
  1.106333e+00    1.419624e+00   2.160343e-02
  1.108544e+00    1.401842e+00   2.142388e-02
  1.110754e+00    1.423807e+00   2.154807e-02
  1.112965e+00    1.432364e+00   2.157206e-02
  1.115175e+00    1.399118e+00   2.127938e-02
  1.117386e+00    1.404986e+00   2.128479e-02
  1.119596e+00    1.427029e+00   2.141307e-02
  1.121807e+00    1.408948e+00   2.123818e-02
  1.124017e+00    1.391355e+00   2.106872e-02
  1.126228e+00    1.388691e+00   2.101299e-02
  1.128438e+00    1.413129e+00   2.116014e-02
  1.130648e+00    1.417327e+00   2.115702e-02
  1.132859e+00    1.382630e+00   2.086226e-02
  1.135069e+00    1.365522e+00   2.069839e-02
  1.137280e+00    1.421252e+00   2.108316e-02
  1.139490e+00    1.406760e+00   2.094213e-02
  1.141701e+00    1.386693e+00   2.075906e-02
  1.143911e+00    1.395373e+00   2.079194e-02
  1.146122e+00    1.372562e+00   2.058938e-02
  1.148332e+00    1.380381e+00   2.061605e-02
  1.150543e+00    1.376927e+00   2.055941e-02
  1.152753e+00    1.385811e+00   2.059468e-02
  1.154963e+00    1.380467e+00   2.052380e-02
  1.157174e+00    1.445609e+00   2.097151e-02
  1.159384e+00    1.501174e+00   2.133952e-02
  1.161595e+00    1.570891e+00   2.179748e-02
  1.163805e+00    1.584490e+00   2.186015e-02
  1.166016e+00    1.570389e+00   2.173115e-02
  1.168226e+00    1.506918e+00   2.125706e-02
  1.170437e+00    1.449022e+00   2.081521e-02
  1.172647e+00    1.459123e+00   2.085776e-02
  1.174858e+00    1.464782e+00   2.086907e-02
  1.177068e+00    1.430150e+00   2.059195e-02
  1.179278e+00    1.415596e+00   2.045776e-02
  1.181489e+00    1.416364e+00   2.043573e-02
  1.183699e+00    1.412784e+00   2.038178e-02
  1.185910e+00    1.395464e+00   2.022830e-02
  1.188120e+00    1.375333e+00   2.005501e-02
  1.190331e+00    1.382463e+00   2.007988e-02
  1.192541e+00    1.362478e+00   1.990677e-02
  1.194752e+00    1.343376e+00   1.973975e-02
  1.196962e+00    1.372644e+00   1.992770e-02
  1.199173e+00    1.350739e+00   1.974155e-02
  1.201383e+00    1.350402e+00   1.971191e-02
  1.203593e+00    1.354717e+00   1.971852e-02
  1.205804e+00    1.356529e+00   1.970573e-02
  1.208014e+00    1.361699e+00   1.971627e-02
  1.210225e+00    1.369996e+00   1.975073e-02
  1.212435e+00    1.349729e+00   1.957933e-02
  1.214646e+00    1.338510e+00   1.947176e-02
  1.216856e+00    1.366584e+00   1.964929e-02
  1.219067e+00    1.327688e+00   1.934339e-02
  1.221277e+00    1.320939e+00   1.926939e-02
  1.223488e+00    1.351260e+00   1.946352e-02
  1.225698e+00    1.364360e+00   1.953061e-02
  1.227909e+00    1.389513e+00   1.967920e-02
  1.230119e+00    1.387221e+00   1.963069e-02
  1.232329e+00    1.385640e+00   1.958838e-02
  1.234540e+00    1.363410e+00   1.940018e-02
  1.236750e+00    1.338920e+00   1.919501e-02
  1.238961e+00    1.363515e+00   1.934339e-02
  1.241171e+00    1.331158e+00   1.908850e-02
  1.243382e+00    1.314534e+00   1.894571e-02
  1.245592e+00    1.343971e+00   1.913264e-02
  1.247803e+00    1.318505e+00   1.892712e-02
  1.250013e+00    1.333712e+00   1.901255e-02
  1.252224e+00    1.339147e+00   1.902811e-02
  1.254434e+00    1.326864e+00   1.891710e-02
  1.256644e+00    1.333925e+00   1.894429e-02
  1.258855e+00    1.345203e+00   1.900099e-02
  1.261065e+00    1.350938e+00   1.901805e-02
  1.263276e+00    1.370883e+00   1.913482e-02
  1.265486e+00    1.362717e+00   1.905477e-02
  1.267697e+00    1.347713e+00   1.892657e-02
  1.269907e+00    1.344365e+00   1.888040e-02
  1.272118e+00    1.345718e+00   1.886735e-02
  1.274328e+00    1.370792e+00   1.901941e-02
  1.276539e+00    1.366169e+00   1.896440e-02
  1.278749e+00    1.387534e+00   1.908951e-02
  1.280959e+00    1.379756e+00   1.901317e-02
  1.283170e+00    1.343573e+00   1.873982e-02
  1.285380e+00    1.354273e+00   1.879179e-02
  1.287591e+00    1.364619e+00   1.884130e-02
  1.289801e+00    1.369125e+00   1.885100e-02
  1.292012e+00    1.382302e+00   1.892420e-02
  1.294222e+00    1.360955e+00   1.876122e-02
  1.296433e+00    1.328687e+00   1.852199e-02
  1.298643e+00    1.346406e+00   1.862861e-02
  1.300854e+00    1.370057e+00   1.877500e-02
  1.303064e+00    1.371031e+00   1.876229e-02
  1.305274e+00    1.375752e+00   1.877294e-02
  1.307485e+00    1.363377e+00   1.866664e-02
  1.309695e+00    1.399528e+00   1.888988e-02
  1.311906e+00    1.351725e+00   1.854275e-02
  1.314116e+00    1.385998e+00   1.875526e-02
  1.316327e+00    1.394982e+00   1.879392e-02
  1.318537e+00    1.378521e+00   1.866059e-02
  1.320748e+00    1.362053e+00   1.852715e-02
  1.322958e+00    1.374553e+00   1.859125e-02
  1.325169e+00    1.363593e+00   1.849587e-02
  1.327379e+00    1.380990e+00   1.859142e-02
  1.329589e+00    1.362461e+00   1.844512e-02
  1.331800e+00    1.344620e+00   1.830329e-02
  1.334010e+00    1.357999e+00   1.837341e-02
  1.336221e+00    1.343696e+00   1.825470e-02
  1.338431e+00    1.325482e+00   1.810988e-02
  1.340642e+00    1.349546e+00   1.833768e-02
  1.342852e+00    1.346578e+00   1.841804e-02
  1.345063e+00    1.357109e+00   1.853954e-02
  1.347273e+00    1.378036e+00   1.871754e-02
  1.349484e+00    1.358806e+00   1.861426e-02
  1.351694e+00    1.356075e+00   1.861830e-02
  1.353905e+00    1.364038e+00   1.869097e-02
  1.356115e+00    1.370138e+00   1.874788e-02
  1.358325e+00    1.341863e+00   1.856671e-02
  1.360536e+00    1.351579e+00   1.864543e-02
  1.362746e+00    1.327732e+00   1.848970e-02
  1.364957e+00    1.333298e+00   1.853602e-02
  1.367167e+00    1.354378e+00   1.868915e-02
  1.369378e+00    1.333983e+00   1.855391e-02
  1.371588e+00    1.319252e+00   1.845626e-02
  1.373799e+00    1.308136e+00   1.838197e-02
  1.376009e+00    1.303530e+00   1.835291e-02
  1.378220e+00    1.305259e+00   1.836760e-02
  1.380430e+00    1.301492e+00   1.834374e-02
  1.382640e+00    1.287858e+00   1.824831e-02
  1.384851e+00    1.293440e+00   1.828866e-02
  1.387061e+00    1.321352e+00   1.848526e-02
  1.389272e+00    1.278940e+00   1.818637e-02
  1.391482e+00    1.304413e+00   1.836591e-02
  1.393693e+00    1.293639e+00   1.828903e-02
  1.395903e+00    1.318187e+00   1.846022e-02
  1.398114e+00    1.320523e+00   1.847518e-02
  1.400324e+00    1.289366e+00   1.825381e-02
  1.402535e+00    1.263287e+00   1.806594e-02
  1.404745e+00    1.279894e+00   1.818191e-02
  1.406955e+00    1.307419e+00   1.837366e-02
  1.409166e+00    1.289529e+00   1.824420e-02
  1.411376e+00    1.295261e+00   1.828154e-02
  1.413587e+00    1.295684e+00   1.828068e-02
  1.415797e+00    1.282174e+00   1.818159e-02
  1.418008e+00    1.260685e+00   1.798685e-02
  1.420218e+00    1.273325e+00   1.792687e-02
  1.422429e+00    1.262260e+00   1.776376e-02
  1.424639e+00    1.277316e+00   1.780451e-02
  1.426850e+00    1.273708e+00   1.772456e-02
  1.429060e+00    1.267967e+00   1.763563e-02
  1.431270e+00    1.270481e+00   1.760879e-02
  1.433481e+00    1.254196e+00   1.745486e-02
  1.435691e+00    1.293044e+00   1.768435e-02
  1.437902e+00    1.293623e+00   1.765152e-02
  1.440112e+00    1.294465e+00   1.762158e-02
  1.442323e+00    1.276159e+00   1.746341e-02
  1.444533e+00    1.303664e+00   1.761760e-02
  1.446744e+00    1.290570e+00   1.749756e-02
  1.448954e+00    1.263706e+00   1.728435e-02
  1.451165e+00    1.245753e+00   1.713168e-02
  1.453375e+00    1.271348e+00   1.727869e-02
  1.455586e+00    1.282961e+00   1.732913e-02
  1.457796e+00    1.277181e+00   1.726247e-02
  1.460006e+00    1.268748e+00   1.717813e-02
  1.462217e+00    1.271558e+00   1.717090e-02
  1.464427e+00    1.264654e+00   1.709869e-02
  1.466638e+00    1.253189e+00   1.699583e-02
  1.468848e+00    1.245070e+00   1.691561e-02
  1.471059e+00    1.250822e+00   1.692971e-02
  1.473269e+00    1.254333e+00   1.692923e-02
  1.475480e+00    1.258926e+00   1.693652e-02
  1.477690e+00    1.253573e+00   1.687677e-02
  1.479901e+00    1.250676e+00   1.683359e-02
  1.482111e+00    1.252463e+00   1.682242e-02
  1.484321e+00    1.269956e+00   1.691635e-02
  1.486532e+00    1.267298e+00   1.687630e-02
  1.488742e+00    1.300013e+00   1.706976e-02
  1.490953e+00    1.270057e+00   1.684933e-02
  1.493163e+00    1.265352e+00   1.679577e-02
  1.495374e+00    1.265165e+00   1.677302e-02
  1.497584e+00    1.302734e+00   1.699823e-02
  1.499795e+00    1.285096e+00   1.686093e-02
  1.502005e+00    1.267062e+00   1.672044e-02
  1.504216e+00    1.285724e+00   1.682186e-02
  1.506426e+00    1.279244e+00   1.675844e-02
  1.508636e+00    1.277557e+00   1.672678e-02
  1.510847e+00    1.274883e+00   1.668729e-02
  1.513057e+00    1.261311e+00   1.657307e-02
  1.515268e+00    1.278685e+00   1.666088e-02
  1.517478e+00    1.280150e+00   1.664499e-02
  1.519689e+00    1.313044e+00   1.683196e-02
  1.521899e+00    1.288274e+00   1.664902e-02
  1.524110e+00    1.248584e+00   1.637026e-02
  1.526320e+00    1.241258e+00   1.630263e-02
  1.528531e+00    1.273661e+00   1.649412e-02
  1.530741e+00    1.273002e+00   1.647054e-02
  1.532951e+00    1.271312e+00   1.643984e-02
  1.535162e+00    1.239413e+00   1.631854e-02
  1.537372e+00    1.255862e+00   1.649353e-02
  1.539583e+00    1.262653e+00   1.657252e-02
  1.541793e+00    1.237867e+00   1.641596e-02
  1.544004e+00    1.228425e+00   1.635349e-02
  1.546214e+00    1.258426e+00   1.655047e-02
  1.548425e+00    1.251463e+00   1.650488e-02
  1.550635e+00    1.251080e+00   1.651205e-02
  1.552846e+00    1.247568e+00   1.649854e-02
  1.555056e+00    1.215827e+00   1.624631e-02
  1.557266e+00    1.232850e+00   1.624969e-02
  1.559477e+00    1.257900e+00   1.635452e-02
  1.561687e+00    1.281628e+00   1.647692e-02
  1.563898e+00    1.283947e+00   1.647440e-02
  1.566108e+00    1.313305e+00   1.664527e-02
  1.568319e+00    1.321531e+00   1.668125e-02
  1.570529e+00    1.300452e+00   1.652200e-02
  1.572740e+00    1.280560e+00   1.636711e-02
  1.574950e+00    1.287084e+00   1.638199e-02
  1.577161e+00    1.268826e+00   1.623967e-02
  1.579371e+00    1.263645e+00   1.618263e-02
  1.581582e+00    1.256685e+00   1.611814e-02
  1.583792e+00    1.245849e+00   1.603046e-02
  1.586002e+00    1.253738e+00   1.606345e-02
  1.588213e+00    1.253860e+00   1.604693e-02
  1.590423e+00    1.212924e+00   1.576299e-02
  1.592634e+00    1.221308e+00   1.579593e-02
  1.594844e+00    1.234318e+00   1.585852e-02
  1.597055e+00    1.245602e+00   1.591034e-02
  1.599265e+00    1.242853e+00   1.587204e-02
  1.601476e+00    1.247026e+00   1.587829e-02
  1.603686e+00    1.241225e+00   1.582156e-02
  1.605897e+00    1.225624e+00   1.570175e-02
  1.608107e+00    1.237076e+00   1.575539e-02
  1.610317e+00    1.243096e+00   1.577432e-02
  1.612528e+00    1.234637e+00   1.570140e-02
  1.614738e+00    1.224854e+00   1.562016e-02
  1.616949e+00    1.215699e+00   1.554278e-02
  1.619159e+00    1.193236e+00   1.538004e-02
  1.621370e+00    1.201332e+00   1.541377e-02
  1.623580e+00    1.197156e+00   1.536878e-02
  1.625791e+00    1.183249e+00   1.526118e-02
  1.628001e+00    1.168971e+00   1.515082e-02
  1.630212e+00    1.190144e+00   1.526967e-02
  1.632422e+00    1.182931e+00   1.520548e-02
  1.634632e+00    1.189949e+00   1.523313e-02
  1.636843e+00    1.185378e+00   1.518626e-02
  1.639053e+00    1.165362e+00   1.504027e-02
  1.641264e+00    1.162821e+00   1.500681e-02
  1.643474e+00    1.167132e+00   1.501718e-02
  1.645685e+00    1.173395e+00   1.504066e-02
  1.647895e+00    1.127416e+00   1.472663e-02
  1.650106e+00    1.132745e+00   1.474452e-02
  1.652316e+00    1.135086e+00   1.474337e-02
  1.654527e+00    1.111495e+00   1.457291e-02
  1.656737e+00    1.113170e+00   1.456750e-02
  1.658947e+00    1.101752e+00   1.447652e-02
  1.661158e+00    1.110638e+00   1.451864e-02
  1.663368e+00    1.134831e+00   1.465981e-02
  1.665579e+00    1.121358e+00   1.455636e-02
  1.667789e+00    1.112022e+00   1.447945e-02
  1.670000e+00    1.088569e+00   1.431063e-02
  1.672210e+00    1.073285e+00   1.419418e-02
  1.674421e+00    1.075207e+00   1.419176e-02
  1.676631e+00    1.095870e+00   1.431164e-02
  1.678842e+00    1.094677e+00   1.428813e-02
  1.681052e+00    1.057796e+00   1.403024e-02
  1.683263e+00    1.059436e+00   1.402616e-02
  1.685473e+00    1.073152e+00   1.410163e-02
  1.687683e+00    1.060019e+00   1.399980e-02
  1.689894e+00    1.060638e+00   1.398828e-02
  1.692104e+00    1.061836e+00   1.398135e-02
  1.694315e+00    1.082692e+00   1.410341e-02
  1.696525e+00    1.098720e+00   1.419207e-02
  1.698736e+00    1.065648e+00   1.396202e-02
  1.700946e+00    1.050697e+00   1.384867e-02
  1.703157e+00    1.042697e+00   1.378130e-02
  1.705367e+00    1.030190e+00   1.368406e-02
  1.707578e+00    1.022598e+00   1.361915e-02
  1.709788e+00    1.019265e+00   1.358301e-02
  1.711998e+00    1.002387e+00   1.345535e-02
  1.714209e+00    1.028993e+00   1.361839e-02
  1.716419e+00    1.006957e+00   1.345771e-02
  1.718630e+00    1.028858e+00   1.358901e-02
  1.720840e+00    1.042683e+00   1.366573e-02
  1.723051e+00    1.036865e+00   1.361360e-02
  1.725261e+00    1.016860e+00   1.346699e-02
  1.727472e+00    1.002434e+00   1.335706e-02
  1.729682e+00    1.001121e+00   1.333494e-02
  1.731893e+00    1.002384e+00   1.332949e-02
  1.734103e+00    1.032525e+00   1.351446e-02
  1.736313e+00    1.087357e+00   1.385407e-02
  1.738524e+00    1.089959e+00   1.385628e-02
  1.740734e+00    1.045054e+00   1.355384e-02
  1.742945e+00    1.006481e+00   1.328781e-02
  1.745155e+00    1.003055e+00   1.325163e-02
  1.747366e+00    9.932267e-01   1.317273e-02
  1.749576e+00    9.833202e-01   1.309321e-02
  1.751787e+00    9.892629e-01   1.311932e-02
  1.753997e+00    9.789242e-01   1.303723e-02
  1.756208e+00    9.547549e-01   1.286221e-02
  1.758418e+00    9.707602e-01   1.295646e-02
  1.760628e+00    9.544981e-01   1.283424e-02
  1.762839e+00    9.198238e-01   1.258606e-02
  1.765049e+00    9.339265e-01   1.266923e-02
  1.767260e+00    9.531623e-01   1.278629e-02
  1.769470e+00    9.272378e-01   1.259842e-02
  1.771681e+00    9.431751e-01   1.269313e-02
  1.773891e+00    9.448544e-01   1.269143e-02
  1.776102e+00    9.344329e-01   1.260846e-02
  1.778312e+00    9.261476e-01   1.253982e-02
  1.780523e+00    9.304510e-01   1.255628e-02
  1.782733e+00    9.200307e-01   1.247319e-02
  1.784944e+00    9.369739e-01   1.257464e-02
  1.787154e+00    9.241747e-01   1.247599e-02
  1.789364e+00    9.119188e-01   1.238063e-02
  1.791575e+00    9.116458e-01   1.236633e-02
  1.793785e+00    9.500978e-01   1.261184e-02
  1.795996e+00    9.395254e-01   1.252886e-02
  1.798206e+00    9.306351e-01   1.245682e-02
  1.800417e+00    9.310462e-01   1.244681e-02
  1.802627e+00    9.270891e-01   1.240829e-02
  1.804838e+00    9.489955e-01   1.254168e-02
  1.807048e+00    1.012690e+00   1.294216e-02
  1.809259e+00    1.047644e+00   1.314905e-02
  1.811469e+00    9.686022e-01   1.262783e-02
  1.813679e+00    8.863983e-01   1.206524e-02
  1.815890e+00    8.876036e-01   1.205875e-02
  1.818100e+00    9.381180e-01   1.238168e-02
  1.820311e+00    9.269660e-01   1.229286e-02
  1.822521e+00    8.782269e-01   1.195057e-02
  1.824732e+00    8.646566e-01   1.184327e-02
  1.826942e+00    8.881872e-01   1.199099e-02
  1.829153e+00    8.664329e-01   1.183169e-02
  1.831363e+00    8.734014e-01   1.186717e-02
  1.833574e+00    9.019880e-01   1.204804e-02
  1.835784e+00    8.791330e-01   1.188298e-02
  1.837994e+00    8.844065e-01   1.190681e-02
  1.840205e+00    8.735935e-01   1.182263e-02
  1.842415e+00    8.580416e-01   1.170526e-02
  1.844626e+00    8.741643e-01   1.180312e-02
  1.846836e+00    8.775815e-01   1.181470e-02
  1.849047e+00    8.702688e-01   1.175373e-02
  1.851257e+00    8.706973e-01   1.174701e-02
  1.853468e+00    8.667290e-01   1.171139e-02
  1.855678e+00    8.639411e-01   1.168363e-02
  1.857889e+00    8.828701e-01   1.180231e-02
  1.860099e+00    8.847536e-01   1.180614e-02
  1.862309e+00    8.391311e-01   1.148930e-02
  1.864520e+00    8.409709e-01   1.149336e-02
  1.866730e+00    8.338889e-01   1.143562e-02
  1.868941e+00    8.380992e-01   1.145358e-02
  1.871151e+00    8.565785e-01   1.156774e-02
  1.873362e+00    8.449324e-01   1.147755e-02
  1.875572e+00    8.488839e-01   1.149339e-02
  1.877783e+00    8.703963e-01   1.162655e-02
  1.879993e+00    8.568710e-01   1.152464e-02
  1.882204e+00    8.567537e-01   1.151287e-02
  1.884414e+00    8.716069e-01   1.160098e-02
  1.886624e+00    8.669933e-01   1.155904e-02
  1.888835e+00    8.734968e-01   1.159111e-02
  1.891045e+00    8.928175e-01   1.170738e-02
  1.893256e+00    8.855457e-01   1.164823e-02
  1.895466e+00    8.583963e-01   1.145697e-02
  1.897677e+00    8.382270e-01   1.131063e-02
  1.899887e+00    8.154907e-01   1.114532e-02
  1.902098e+00    8.118406e-01   1.110964e-02
  1.904308e+00    8.032432e-01   1.104023e-02
  1.906519e+00    8.590358e-01   1.140617e-02
  1.908729e+00    8.968946e-01   1.164379e-02
  1.910940e+00    8.887099e-01   1.157905e-02
  1.913150e+00    8.349079e-01   1.121242e-02
  1.915360e+00    8.215758e-01   1.111193e-02
  1.917571e+00    8.252467e-01   1.112584e-02
  1.919781e+00    8.295563e-01   1.114410e-02
  1.921992e+00    8.182728e-01   1.105747e-02
  1.924202e+00    8.059176e-01   1.096297e-02
  1.926413e+00    8.341177e-01   1.114270e-02
  1.928623e+00    8.345599e-01   1.113501e-02
  1.930834e+00    8.030891e-01   1.091268e-02
  1.933044e+00    7.765847e-01   1.072063e-02
  1.935255e+00    8.045523e-01   1.090167e-02
  1.937465e+00    7.964997e-01   1.083668e-02
  1.939675e+00    7.832067e-01   1.073518e-02
  1.941886e+00    7.895470e-01   1.076835e-02
  1.944096e+00    7.888324e-01   1.075339e-02
  1.946307e+00    7.868612e-01   1.072971e-02
  1.948517e+00    7.827204e-01   1.069109e-02
  1.950728e+00    8.024030e-01   1.081442e-02
  1.952938e+00    7.984152e-01   1.077743e-02
  1.955149e+00    7.866355e-01   1.068746e-02
  1.957359e+00    7.768912e-01   1.061112e-02
  1.959570e+00    7.986426e-01   1.074774e-02
  1.961780e+00    7.992948e-01   1.074219e-02
  1.963990e+00    7.834714e-01   1.062527e-02
  1.966201e+00    8.018764e-01   1.073920e-02
  1.968411e+00    7.947987e-01   1.068153e-02
  1.970622e+00    7.773774e-01   1.055378e-02
  1.972832e+00    7.855865e-01   1.059940e-02
  1.975043e+00    7.990272e-01   1.067955e-02
  1.977253e+00    7.880165e-01   1.059577e-02
  1.979464e+00    7.748142e-01   1.049663e-02
  1.981674e+00    7.919935e-01   1.060205e-02
  1.983885e+00    7.815771e-01   1.052209e-02
  1.986095e+00    7.755094e-01   1.047148e-02
  1.988305e+00    7.686189e-01   1.041504e-02
  1.990516e+00    7.685457e-01   1.040468e-02
  1.992726e+00    7.836733e-01   1.049687e-02
  1.994937e+00    7.802709e-01   1.046392e-02
  1.997147e+00    7.759342e-01   1.042507e-02
  1.999358e+00    7.587030e-01   1.029892e-02
  2.001568e+00    7.645435e-01   1.032772e-02
  2.003779e+00    7.715653e-01   1.036314e-02
  2.005989e+00    7.678073e-01   1.032588e-02
  2.008200e+00    7.760779e-01   1.036978e-02
  2.010410e+00    7.763575e-01   1.035983e-02
  2.012621e+00    7.697943e-01   1.030424e-02
  2.014831e+00    7.797893e-01   1.035937e-02
  2.017041e+00    7.773497e-01   1.033268e-02
  2.019252e+00    7.711424e-01   1.028136e-02
  2.021462e+00    7.662018e-01   1.023886e-02
  2.023673e+00    7.494426e-01   1.011696e-02
  2.025883e+00    7.622713e-01   1.019367e-02
  2.028094e+00    7.523772e-01   1.011772e-02
  2.030304e+00    7.816978e-01   1.030330e-02
  2.032515e+00    7.928711e-01   1.036721e-02
  2.034725e+00    7.938023e-01   1.036363e-02
  2.036936e+00    7.670414e-01   1.017807e-02
  2.039146e+00    7.568352e-01   1.010054e-02
  2.041356e+00    7.675822e-01   1.016228e-02
  2.043567e+00    7.794784e-01   1.023129e-02
  2.045777e+00    7.419926e-01   9.973074e-03
  2.047988e+00    7.548993e-01   1.005006e-02
  2.050198e+00    7.630873e-01   1.009594e-02
  2.052409e+00    7.565494e-01   1.004492e-02
  2.054619e+00    7.731788e-01   1.014723e-02
  2.056830e+00    7.596658e-01   1.005097e-02
  2.059040e+00    7.490002e-01   9.972645e-03
  2.061251e+00    7.584770e-01   1.002825e-02
  2.063461e+00    7.646734e-01   1.006146e-02
  2.065671e+00    7.478771e-01   9.941634e-03
  2.067882e+00    7.347255e-01   9.844911e-03
  2.070092e+00    7.495981e-01   9.934840e-03
  2.072303e+00    7.441189e-01   9.889357e-03
  2.074513e+00    7.372676e-01   9.834428e-03
  2.076724e+00    7.684969e-01   1.003094e-02
  2.078934e+00    7.626923e-01   9.983886e-03
  2.081145e+00    7.551097e-01   9.924968e-03
  2.083355e+00    7.728118e-01   1.003126e-02
  2.085566e+00    7.692850e-01   9.999271e-03
  2.087776e+00    7.916027e-01   1.013344e-02
  2.089986e+00    7.718189e-01   9.997056e-03
  2.092197e+00    7.541132e-01   9.872634e-03
  2.094407e+00    7.698961e-01   9.965993e-03
  2.096618e+00    7.358938e-01   9.734535e-03
  2.098828e+00    7.189880e-01   9.612857e-03
  2.101039e+00    7.379822e-01   9.729980e-03
  2.103249e+00    7.291321e-01   9.662812e-03
  2.105460e+00    7.243718e-01   9.622250e-03
  2.107670e+00    7.278645e-01   9.636659e-03
  2.109881e+00    7.429519e-01   9.726774e-03
  2.112091e+00    7.443581e-01   9.726882e-03
  2.114301e+00    7.345354e-01   9.653651e-03
  2.116512e+00    7.169642e-01   9.528728e-03
  2.118722e+00    7.264907e-01   9.582968e-03
  2.120933e+00    7.195158e-01   9.528003e-03
  2.123143e+00    6.995596e-01   9.386149e-03
  2.125354e+00    7.303354e-01   9.581777e-03
  2.127564e+00    7.258829e-01   9.543748e-03
  2.129775e+00    7.311426e-01   9.569439e-03
  2.131985e+00    7.301050e-01   9.553496e-03
  2.134196e+00    7.129071e-01   9.431720e-03
  2.136406e+00    7.294183e-01   9.531460e-03
  2.138617e+00    7.082922e-01   9.383986e-03
  2.140827e+00    7.111692e-01   9.419095e-03
  2.143037e+00    7.212641e-01   9.531646e-03
  2.145248e+00    7.050003e-01   9.445567e-03
  2.147458e+00    7.177482e-01   9.545840e-03
  2.149669e+00    7.185380e-01   9.563100e-03
  2.151879e+00    6.954882e-01   9.417636e-03
  2.154090e+00    7.027965e-01   9.474292e-03
  2.156300e+00    7.068384e-01   9.508144e-03
  2.158511e+00    6.980516e-01   9.454167e-03
  2.160721e+00    7.009677e-01   9.478704e-03
  2.162932e+00    6.906398e-01   9.412355e-03
  2.165142e+00    6.803640e-01   9.345048e-03
  2.167352e+00    6.899903e-01   9.413820e-03
  2.169563e+00    6.757280e-01   9.317947e-03
  2.171773e+00    6.868484e-01   9.396737e-03
  2.173984e+00    7.098029e-01   9.553887e-03
  2.176194e+00    7.017007e-01   9.500436e-03
  2.178405e+00    6.904837e-01   9.424876e-03
  2.180615e+00    7.002107e-01   9.491717e-03
  2.182826e+00    6.904291e-01   9.425865e-03
  2.185036e+00    6.988894e-01   9.483500e-03
  2.187247e+00    6.900792e-01   9.423479e-03
  2.189457e+00    6.844649e-01   9.384662e-03
  2.191667e+00    6.949111e-01   9.455823e-03
  2.193878e+00    6.955651e-01   9.459705e-03
  2.196088e+00    6.890282e-01   9.414472e-03
  2.198299e+00    6.816003e-01   9.362495e-03
  2.200509e+00    6.843775e-01   9.380490e-03
  2.202720e+00    6.827902e-01   9.368460e-03
  2.204930e+00    6.702589e-01   9.280854e-03
  2.207141e+00    6.819565e-01   9.360373e-03
  2.209351e+00    6.886925e-01   9.404602e-03
  2.211562e+00    6.800363e-01   9.343681e-03
  2.213772e+00    6.955886e-01   9.393687e-03
  2.215982e+00    6.811662e-01   9.251394e-03
  2.218193e+00    6.806011e-01   9.217837e-03
  2.220403e+00    6.794526e-01   9.185360e-03
  2.222614e+00    6.816912e-01   9.179438e-03
  2.224824e+00    6.640399e-01   9.040548e-03
  2.227035e+00    6.700786e-01   9.064161e-03
  2.229245e+00    6.598208e-01   8.977690e-03
  2.231456e+00    6.651447e-01   8.998305e-03
  2.233666e+00    6.603339e-01   8.950721e-03
  2.235877e+00    6.710166e-01   9.008557e-03
  2.238087e+00    6.688835e-01   8.980768e-03
  2.240298e+00    6.714322e-01   8.984065e-03
  2.242508e+00    6.672217e-01   8.940747e-03
  2.244718e+00    6.558642e-01   8.848666e-03
  2.246929e+00    6.584519e-01   8.851795e-03
  2.249139e+00    6.633530e-01   8.872310e-03
  2.251350e+00    6.703680e-01   8.907389e-03
  2.253560e+00    6.746911e-01   8.924413e-03
  2.255771e+00    7.072930e-01   9.125725e-03
  2.257981e+00    7.147349e-01   9.162028e-03
  2.260192e+00    6.863935e-01   8.967273e-03
  2.262402e+00    6.724052e-01   8.864473e-03
  2.264613e+00    7.259082e-01   9.199057e-03
  2.266823e+00    7.330889e-01   9.233543e-03
  2.269033e+00    7.281416e-01   9.191452e-03
  2.271244e+00    7.019609e-01   9.014001e-03
  2.273454e+00    6.992323e-01   8.985911e-03
  2.275665e+00    7.293705e-01   9.166700e-03
  2.277875e+00    7.175168e-01   9.081599e-03
  2.280086e+00    6.855729e-01   8.866892e-03
  2.282296e+00    6.554907e-01   8.660800e-03
  2.284507e+00    6.654446e-01   8.716110e-03
  2.286717e+00    6.619987e-01   8.684031e-03
  2.288928e+00    6.495702e-01   8.592320e-03
  2.291138e+00    6.578922e-01   8.637742e-03
  2.293348e+00    6.551965e-01   8.610495e-03
  2.295559e+00    6.636742e-01   8.656641e-03
  2.297769e+00    6.609581e-01   8.629633e-03
  2.299980e+00    6.525518e-01   8.565242e-03
  2.302190e+00    6.596696e-01   8.602655e-03
  2.304401e+00    6.686926e-01   8.651858e-03
  2.306611e+00    6.631309e-01   8.606527e-03
  2.308822e+00    6.625018e-01   8.593981e-03
  2.311032e+00    6.585275e-01   8.561682e-03
  2.313243e+00    6.542086e-01   8.527271e-03
  2.315453e+00    6.408108e-01   8.431973e-03
  2.317663e+00    6.400154e-01   8.417665e-03
  2.319874e+00    6.367013e-01   8.387173e-03
  2.322084e+00    6.375204e-01   8.383666e-03
  2.324295e+00    6.344355e-01   8.355200e-03
  2.326505e+00    6.383311e-01   8.371797e-03
  2.328716e+00    6.504374e-01   8.442218e-03
  2.330926e+00    6.478781e-01   8.416772e-03
  2.333137e+00    6.409282e-01   8.363127e-03
  2.335347e+00    6.424974e-01   8.364494e-03
  2.337558e+00    6.412661e-01   8.348239e-03
  2.339768e+00    6.345668e-01   8.295976e-03
  2.341979e+00    6.330491e-01   8.277710e-03
  2.344189e+00    6.453227e-01   8.349128e-03
  2.346399e+00    6.367295e-01   8.284870e-03
  2.348610e+00    6.435916e-01   8.320860e-03
  2.350820e+00    6.460504e-01   8.328507e-03
  2.353031e+00    6.364468e-01   8.258068e-03
  2.355241e+00    6.411743e-01   8.280573e-03
  2.357452e+00    6.427229e-01   8.282082e-03
  2.359662e+00    6.405595e-01   8.259848e-03
  2.361873e+00    6.289955e-01   8.176737e-03
  2.364083e+00    6.290860e-01   8.169327e-03
  2.366294e+00    6.270032e-01   8.147693e-03
  2.368504e+00    6.219499e-01   8.106751e-03
  2.370714e+00    6.061875e-01   7.995430e-03
  2.372925e+00    6.243513e-01   8.106282e-03
  2.375135e+00    6.244608e-01   8.098938e-03
  2.377346e+00    6.199281e-01   8.061568e-03
  2.379556e+00    6.308938e-01   8.124607e-03
  2.381767e+00    6.322851e-01   8.125627e-03
  2.383977e+00    6.282490e-01   8.091686e-03
  2.386188e+00    6.126556e-01   7.982754e-03
  2.388398e+00    6.028169e-01   7.910542e-03
  2.390609e+00    6.095533e-01   7.946931e-03
  2.392819e+00    6.183109e-01   7.996038e-03
  2.395029e+00    6.281736e-01   8.051812e-03
  2.397240e+00    6.139645e-01   7.952375e-03
  2.399450e+00    6.226276e-01   8.000404e-03
  2.401661e+00    6.130915e-01   7.931225e-03
  2.403871e+00    6.315975e-01   8.042133e-03
  2.406082e+00    6.380191e-01   8.075329e-03
  2.408292e+00    6.112509e-01   7.896314e-03
  2.410503e+00    6.088246e-01   7.873119e-03
  2.412713e+00    6.074392e-01   7.856368e-03
  2.414924e+00    5.933571e-01   7.757353e-03
  2.417134e+00    6.043965e-01   7.821552e-03
  2.419344e+00    5.974634e-01   7.769186e-03
  2.421555e+00    6.065229e-01   7.820338e-03
  2.423765e+00    5.978635e-01   7.756914e-03
  2.425976e+00    6.048148e-01   7.794046e-03
  2.428186e+00    5.759236e-01   7.598535e-03
  2.430397e+00    5.918859e-01   7.695667e-03
  2.432607e+00    5.831729e-01   7.631603e-03
  2.434818e+00    5.957302e-01   7.705784e-03
  2.437028e+00    6.178720e-01   7.840397e-03
  2.439239e+00    5.987268e-01   7.710295e-03
  2.441449e+00    5.965741e-01   7.689191e-03
  2.443659e+00    5.926319e-01   7.656376e-03
  2.445870e+00    6.037470e-01   7.740237e-03
  2.448080e+00    5.899368e-01   7.686229e-03
  2.450291e+00    5.896148e-01   7.700897e-03
  2.452501e+00    5.691455e-01   7.577150e-03
  2.454712e+00    5.739798e-01   7.617684e-03
  2.456922e+00    5.662832e-01   7.573039e-03
  2.459133e+00    5.611339e-01   7.543918e-03
  2.461343e+00    5.776895e-01   7.658797e-03
  2.463554e+00    5.746953e-01   7.642438e-03
  2.465764e+00    5.568022e-01   7.525633e-03
  2.467975e+00    5.530698e-01   7.502634e-03
  2.470185e+00    5.555254e-01   7.521525e-03
  2.472395e+00    5.440920e-01   7.444936e-03
  2.474606e+00    5.321063e-01   7.364005e-03
  2.476816e+00    5.518932e-01   7.500388e-03
  2.479027e+00    5.545716e-01   7.519437e-03
  2.481237e+00    5.523797e-01   7.504847e-03
  2.483448e+00    5.449072e-01   7.454209e-03
  2.485658e+00    5.511461e-01   7.496613e-03
  2.487869e+00    5.426230e-01   7.438472e-03
  2.490079e+00    5.234868e-01   7.305606e-03
  2.492290e+00    5.500569e-01   7.488279e-03
  2.494500e+00    5.459111e-01   7.459280e-03
  2.496710e+00    5.316219e-01   7.360307e-03
  2.498921e+00    5.324460e-01   7.365020e-03
  2.501131e+00    5.370394e-01   7.395771e-03
  2.503342e+00    5.229307e-01   7.296732e-03
  2.505552e+00    5.254660e-01   7.313269e-03
  2.507763e+00    5.201005e-01   7.274433e-03
  2.509973e+00    5.196741e-01   7.270053e-03
  2.512184e+00    5.299497e-01   7.339967e-03
  2.514394e+00    5.359422e-01   7.371915e-03
  2.516605e+00    5.469826e-01   7.399482e-03
  2.518815e+00    5.410674e-01   7.330643e-03
  2.521025e+00    5.237374e-01   7.191363e-03
  2.523236e+00    5.388293e-01   7.276021e-03
  2.525446e+00    5.539990e-01   7.361707e-03
  2.527657e+00    5.481845e-01   7.308069e-03
  2.529867e+00    5.416555e-01   7.250013e-03
  2.532078e+00    5.357102e-01   7.194919e-03
  2.534288e+00    5.396095e-01   7.206977e-03
  2.536499e+00    5.348989e-01   7.163406e-03
  2.538709e+00    5.318961e-01   7.132181e-03
  2.540920e+00    5.259896e-01   7.081820e-03
  2.543130e+00    5.190117e-01   7.024367e-03
  2.545340e+00    5.366414e-01   7.132477e-03
  2.547551e+00    5.362575e-01   7.119869e-03
  2.549761e+00    5.313587e-01   7.077603e-03
  2.551972e+00    5.354068e-01   7.095046e-03
  2.554182e+00    5.229175e-01   7.002616e-03
  2.556393e+00    5.161508e-01   6.948101e-03
  2.558603e+00    5.084644e-01   6.887199e-03
  2.560814e+00    5.198911e-01   6.955465e-03
  2.563024e+00    5.132301e-01   6.902218e-03
  2.565235e+00    5.251123e-01   6.972112e-03
  2.567445e+00    5.207101e-01   6.933252e-03
  2.569656e+00    5.162857e-01   6.894002e-03
  2.571866e+00    5.226173e-01   6.926757e-03
  2.574076e+00    5.124947e-01   6.850106e-03
  2.576287e+00    5.177803e-01   6.877007e-03
  2.578497e+00    5.187544e-01   6.875607e-03
  2.580708e+00    5.096306e-01   6.806836e-03
  2.582918e+00    5.195931e-01   6.865242e-03
  2.585129e+00    5.187510e-01   6.851892e-03
  2.587339e+00    5.038254e-01   6.745020e-03
  2.589550e+00    5.125480e-01   6.795574e-03
  2.591760e+00    5.120550e-01   6.784599e-03
  2.593971e+00    5.071673e-01   6.744636e-03
  2.596181e+00    5.092925e-01   6.752532e-03
  2.598391e+00    5.244074e-01   6.846747e-03
  2.600602e+00    5.188100e-01   6.804157e-03
  2.602812e+00    5.065235e-01   6.715584e-03
  2.605023e+00    5.111914e-01   6.739268e-03
  2.607233e+00    5.195038e-01   6.786625e-03
  2.609444e+00    5.064922e-01   6.693874e-03
  2.611654e+00    5.066556e-01   6.687618e-03
  2.613865e+00    5.091231e-01   6.696852e-03
  2.616075e+00    4.844095e-01   6.525299e-03
  2.618286e+00    5.022121e-01   6.637138e-03
  2.620496e+00    5.055897e-01   6.652733e-03
  2.622706e+00    5.104718e-01   6.678988e-03
  2.624917e+00    5.066837e-01   6.648307e-03
  2.627127e+00    5.119808e-01   6.677184e-03
  2.629338e+00    5.186325e-01   6.714353e-03
  2.631548e+00    5.091683e-01   6.646615e-03
  2.633759e+00    4.963332e-01   6.555186e-03
  2.635969e+00    5.008543e-01   6.578307e-03
  2.638180e+00    4.845385e-01   6.463395e-03
  2.640390e+00    4.978199e-01   6.544796e-03
  2.642601e+00    5.071630e-01   6.599234e-03
  2.644811e+00    4.862236e-01   6.454588e-03
  2.647021e+00    4.928172e-01   6.491675e-03
  2.649232e+00    5.053218e-01   6.566766e-03
  2.651442e+00    5.054747e-01   6.561214e-03
  2.653653e+00    5.035967e-01   6.542205e-03
  2.655863e+00    5.031335e-01   6.532461e-03
  2.658074e+00    4.951492e-01   6.473840e-03
  2.660284e+00    5.046319e-01   6.529133e-03
  2.662495e+00    4.996132e-01   6.489814e-03
  2.664705e+00    5.129333e-01   6.569080e-03
  2.666916e+00    5.116680e-01   6.554424e-03
  2.669126e+00    4.952870e-01   6.442186e-03
  2.671337e+00    5.024099e-01   6.481727e-03
  2.673547e+00    4.832390e-01   6.350565e-03
  2.675757e+00    4.790377e-01   6.316534e-03
  2.677968e+00    4.989384e-01   6.439844e-03
  2.680178e+00    5.050732e-01   6.472848e-03
  2.682389e+00    5.139928e-01   6.523226e-03
  2.684599e+00    4.927003e-01   6.380518e-03
  2.686810e+00    4.865521e-01   6.333991e-03
  2.689020e+00    4.951232e-01   6.383224e-03
  2.691231e+00    4.990711e-01   6.402294e-03
  2.693441e+00    4.817389e-01   6.284048e-03
  2.695652e+00    4.935994e-01   6.354386e-03
  2.697862e+00    4.971544e-01   6.370841e-03
  2.700072e+00    4.798551e-01   6.253012e-03
  2.702283e+00    4.996162e-01   6.374160e-03
  2.704493e+00    5.000191e-01   6.370388e-03
  2.706704e+00    4.899366e-01   6.299419e-03
  2.708914e+00    4.850084e-01   6.261708e-03
  2.711125e+00    4.940919e-01   6.313777e-03
  2.713335e+00    5.007956e-01   6.350302e-03
  2.715546e+00    4.926138e-01   6.291714e-03
  2.717756e+00    4.932991e-01   6.290153e-03
  2.719967e+00    4.915086e-01   6.272500e-03
  2.722177e+00    4.878489e-01   6.242938e-03
  2.724387e+00    4.980762e-01   6.301876e-03
  2.726598e+00    4.843767e-01   6.208542e-03
  2.728808e+00    4.911011e-01   6.245306e-03
  2.731019e+00    4.973647e-01   6.278798e-03
  2.733229e+00    4.988591e-01   6.282339e-03
  2.735440e+00    4.859331e-01   6.194137e-03
  2.737650e+00    4.833815e-01   6.171830e-03
  2.739861e+00    4.898093e-01   6.206613e-03
  2.742071e+00    4.906492e-01   6.206155e-03
  2.744282e+00    4.941079e-01   6.221669e-03
  2.746492e+00    4.698933e-01   6.061349e-03
  2.748702e+00    4.801084e-01   6.120971e-03
  2.750913e+00    4.853609e-01   6.148566e-03
  2.753123e+00    4.753444e-01   6.078705e-03
  2.755334e+00    4.885038e-01   6.156133e-03
  2.757544e+00    4.838038e-01   6.120707e-03
  2.759755e+00    4.912799e-01   6.161861e-03
  2.761965e+00    4.912197e-01   6.155439e-03
  2.764176e+00    4.817472e-01   6.089801e-03
  2.766386e+00    4.856765e-01   6.108752e-03
  2.768597e+00    4.887573e-01   6.122186e-03
  2.770807e+00    4.898716e-01   6.123220e-03
  2.773017e+00    4.827962e-01   6.072836e-03
  2.775228e+00    4.791853e-01   6.044304e-03
  2.777438e+00    4.763573e-01   6.020656e-03
  2.779649e+00    4.851021e-01   6.069726e-03
  2.781859e+00    4.711739e-01   5.976219e-03
  2.784070e+00    4.711114e-01   5.970017e-03
  2.786280e+00    4.671666e-01   5.939245e-03
  2.788491e+00    4.805908e-01   6.018118e-03
  2.790701e+00    4.869799e-01   6.052298e-03
  2.792912e+00    4.724161e-01   5.955166e-03
  2.795122e+00    4.766218e-01   5.975866e-03
  2.797333e+00    4.693433e-01   5.924553e-03
  2.799543e+00    4.774781e-01   5.969795e-03
  2.801753e+00    4.666807e-01   5.896103e-03
  2.803964e+00    4.863103e-01   6.013095e-03
  2.806174e+00    4.883516e-01   6.019483e-03
  2.808385e+00    4.789638e-01   5.954521e-03
  2.810595e+00    4.809725e-01   5.960071e-03
  2.812806e+00    4.792824e-01   5.942957e-03
  2.815016e+00    4.848965e-01   5.972865e-03
  2.817227e+00    4.675235e-01   5.890646e-03
  2.819437e+00    4.546403e-01   5.819764e-03
  2.821648e+00    4.652698e-01   5.889671e-03
  2.823858e+00    4.697424e-01   5.923225e-03
  2.826068e+00    4.805289e-01   5.995867e-03
  2.828279e+00    4.739659e-01   5.958835e-03
  2.830489e+00    4.623956e-01   5.888958e-03
  2.832700e+00    4.623987e-01   5.891493e-03
  2.834910e+00    4.683932e-01   5.931619e-03
  2.837121e+00    4.662324e-01   5.919636e-03
  2.839331e+00    4.728939e-01   5.962989e-03
  2.841542e+00    4.814397e-01   6.017663e-03
  2.843752e+00    4.694103e-01   5.942801e-03
  2.845963e+00    4.653770e-01   5.917596e-03
  2.848173e+00    4.649168e-01   5.914768e-03
  2.850383e+00    4.712343e-01   5.955102e-03
  2.852594e+00    4.732168e-01   5.967543e-03
  2.854804e+00    4.657066e-01   5.919489e-03
  2.857015e+00    4.640415e-01   5.908477e-03
  2.859225e+00    4.676907e-01   5.931405e-03
  2.861436e+00    4.698034e-01   5.944132e-03
  2.863646e+00    4.620230e-01   5.894748e-03
  2.865857e+00    4.529467e-01   5.836891e-03
  2.868067e+00    4.726791e-01   5.962886e-03
  2.870278e+00    4.759291e-01   5.983011e-03
  2.872488e+00    4.653903e-01   5.915234e-03
  2.874698e+00    4.682181e-01   5.932124e-03
  2.876909e+00    4.697568e-01   5.940531e-03
  2.879119e+00    4.617956e-01   5.888354e-03
  2.881330e+00    4.700650e-01   5.939362e-03
  2.883540e+00    4.674910e-01   5.921683e-03
  2.885751e+00    4.528783e-01   5.826766e-03
  2.887961e+00    4.674739e-01   5.918017e-03
  2.890172e+00    4.590425e-01   5.862806e-03
  2.892382e+00    4.776214e-01   5.978434e-03
  2.894593e+00    4.712912e-01   5.936855e-03
  2.896803e+00    4.673710e-01   5.910125e-03
  2.899014e+00    4.699932e-01   5.924738e-03
  2.901224e+00    4.563172e-01   5.835921e-03
  2.903434e+00    4.581872e-01   5.845935e-03
  2.905645e+00    4.450976e-01   5.759632e-03
  2.907855e+00    4.556781e-01   5.825579e-03
  2.910066e+00    4.546379e-01   5.816876e-03
  2.912276e+00    4.585491e-01   5.839714e-03
  2.914487e+00    4.518895e-01   5.794725e-03
  2.916697e+00    4.645301e-01   5.872956e-03
  2.918908e+00    4.666505e-01   5.884341e-03
  2.921118e+00    4.611346e-01   5.846750e-03
  2.923329e+00    4.590240e-01   5.831042e-03
  2.925539e+00    4.512311e-01   5.779064e-03
  2.927749e+00    4.549200e-01   5.800321e-03
  2.929960e+00    4.554527e-01   5.800962e-03
  2.932170e+00    4.519044e-01   5.776002e-03
  2.934381e+00    4.586143e-01   5.816273e-03
  2.936591e+00    4.469820e-01   5.739495e-03
  2.938802e+00    4.551474e-01   5.788967e-03
  2.941012e+00    4.537561e-01   5.777782e-03
  2.943223e+00    4.618072e-01   5.826100e-03
  2.945433e+00    4.563795e-01   5.788036e-03
  2.947644e+00    4.444740e-01   5.707947e-03
  2.949854e+00    4.441714e-01   5.701785e-03
  2.952064e+00    4.688921e-01   5.854005e-03
  2.954275e+00    4.625902e-01   5.810119e-03
  2.956485e+00    4.667270e-01   5.831761e-03
  2.958696e+00    4.743613e-01   5.874830e-03
  2.960906e+00    4.650962e-01   5.812934e-03
  2.963117e+00    4.575235e-01   5.760916e-03
  2.965327e+00    4.647623e-01   5.802370e-03
  2.967538e+00    4.546742e-01   5.736137e-03
  2.969748e+00    4.537062e-01   5.727218e-03
  2.971959e+00    4.456521e-01   5.673039e-03
  2.974169e+00    4.516696e-01   5.708633e-03
  2.976379e+00    4.615307e-01   5.767669e-03
  2.978590e+00    4.625062e-01   5.770620e-03
  2.980800e+00    4.548126e-01   5.719609e-03
  2.983011e+00    4.466809e-01   5.665474e-03
  2.985221e+00    4.637116e-01   5.769271e-03
  2.987432e+00    4.576313e-01   5.728215e-03
  2.989642e+00    4.643030e-01   5.767153e-03
  2.991853e+00    4.603179e-01   5.739060e-03
  2.994063e+00    4.494618e-01   5.668078e-03
  2.996274e+00    4.457091e-01   5.641223e-03
  2.998484e+00    4.526428e-01   5.682206e-03
  3.000694e+00    4.574178e-01   5.708664e-03
  3.002905e+00    4.542761e-01   5.686063e-03
  3.005115e+00    4.670672e-01   5.762549e-03
  3.007326e+00    4.651321e-01   5.747395e-03
  3.009536e+00    4.647735e-01   5.741894e-03
  3.011747e+00    4.663256e-01   5.748507e-03
  3.013957e+00    4.651310e-01   5.737927e-03
  3.016168e+00    4.480800e-01   5.628537e-03
  3.018378e+00    4.703546e-01   5.763620e-03
  3.020589e+00    4.656608e-01   5.731542e-03
  3.022799e+00    4.569084e-01   5.674251e-03
  3.025010e+00    4.497016e-01   5.626088e-03
  3.027220e+00    4.516438e-01   5.635118e-03
  3.029430e+00    4.655606e-01   5.717986e-03
  3.031641e+00    4.576309e-01   5.665915e-03
  3.033851e+00    4.635000e-01   5.698578e-03
  3.036062e+00    4.594816e-01   5.671025e-03
  3.038272e+00    4.597963e-01   5.669346e-03
  3.040483e+00    4.610316e-01   5.673710e-03
  3.042693e+00    4.502928e-01   5.603972e-03
  3.044904e+00    4.544762e-01   5.625912e-03
  3.047114e+00    4.587360e-01   5.647353e-03
  3.049325e+00    4.622152e-01   5.664304e-03
  3.051535e+00    4.499773e-01   5.584408e-03
  3.053745e+00    4.443760e-01   5.544834e-03
  3.055956e+00    4.594967e-01   5.633750e-03
  3.058166e+00    4.616363e-01   5.642556e-03
  3.060377e+00    4.442169e-01   5.530329e-03
  3.062587e+00    4.442672e-01   5.526039e-03
  3.064798e+00    4.515007e-01   5.566581e-03
  3.067008e+00    4.361463e-01   5.466467e-03
  3.069219e+00    4.437490e-01   5.509395e-03
  3.071429e+00    4.608132e-01   5.610792e-03
  3.073640e+00    4.441548e-01   5.505134e-03
  3.075850e+00    4.446297e-01   5.504504e-03
  3.078060e+00    4.491015e-01   5.529010e-03
  3.080271e+00    4.625427e-01   5.607608e-03
  3.082481e+00    4.546275e-01   5.555958e-03
  3.084692e+00    4.516318e-01   5.534237e-03
  3.086902e+00    4.469620e-01   5.502312e-03
  3.089113e+00    4.552028e-01   5.549194e-03
  3.091323e+00    4.481437e-01   5.502635e-03
  3.093534e+00    4.511734e-01   5.517816e-03
  3.095744e+00    4.516044e-01   5.517053e-03
  3.097955e+00    4.551495e-01   5.535079e-03
  3.100165e+00    4.553548e-01   5.532996e-03
  3.102375e+00    4.476067e-01   5.482266e-03
  3.104586e+00    4.685612e-01   5.605558e-03
  3.106796e+00    4.518254e-01   5.501013e-03
  3.109007e+00    4.452751e-01   5.457778e-03
  3.111217e+00    4.418369e-01   5.432965e-03
  3.113428e+00    4.613132e-01   5.547953e-03
  3.115638e+00    4.653220e-01   5.568713e-03
  3.117849e+00    4.585814e-01   5.524452e-03
  3.120059e+00    4.605915e-01   5.533016e-03
  3.122270e+00    4.649488e-01   5.555789e-03
  3.124480e+00    4.616097e-01   5.532071e-03
  3.126691e+00    4.571896e-01   5.501897e-03
  3.128901e+00    4.347069e-01   5.361839e-03
  3.131111e+00    4.403877e-01   5.392903e-03
  3.133322e+00    4.555930e-01   5.481742e-03
  3.135532e+00    4.660560e-01   5.540846e-03
  3.137743e+00    4.473695e-01   5.425149e-03
  3.139953e+00    4.471396e-01   5.420041e-03
  3.142164e+00    4.520034e-01   5.461584e-03
  3.144374e+00    4.377176e-01   5.402837e-03
  3.146585e+00    4.391676e-01   5.426292e-03
  3.148795e+00    4.400851e-01   5.442704e-03
  3.151006e+00    4.349956e-01   5.419606e-03
  3.153216e+00    4.427348e-01   5.474766e-03
  3.155426e+00    4.556043e-01   5.560170e-03
  3.157637e+00    4.536997e-01   5.554139e-03
  3.159847e+00    4.462968e-01   5.513557e-03
  3.162058e+00    4.502678e-01   5.542513e-03
  3.164268e+00    4.324044e-01   5.435489e-03
  3.166479e+00    4.358247e-01   5.460559e-03
  3.168689e+00    4.567621e-01   5.593623e-03
  3.170900e+00    4.482005e-01   5.544175e-03
  3.173110e+00    4.301905e-01   5.434475e-03
  3.175321e+00    4.283684e-01   5.425421e-03
  3.177531e+00    4.393824e-01   5.497454e-03
  3.179741e+00    4.463542e-01   5.543005e-03
  3.181952e+00    4.358096e-01   5.479245e-03
  3.184162e+00    4.389321e-01   5.501033e-03
  3.186373e+00    4.344275e-01   5.474332e-03
  3.188583e+00    4.302770e-01   5.449882e-03
  3.190794e+00    4.331344e-01   5.469700e-03
  3.193004e+00    4.394802e-01   5.510855e-03
  3.195215e+00    4.372122e-01   5.498160e-03
  3.197425e+00    4.408361e-01   5.522085e-03
  3.199636e+00    4.282533e-01   5.441965e-03
  3.201846e+00    4.285875e-01   5.443470e-03
  3.204056e+00    4.343135e-01   5.480603e-03
  3.206267e+00    4.351635e-01   5.486820e-03
  3.208477e+00    4.236045e-01   5.414372e-03
  3.210688e+00    4.268196e-01   5.435706e-03
  3.212898e+00    4.313139e-01   5.464833e-03
  3.215109e+00    4.275018e-01   5.441375e-03
  3.217319e+00    4.336756e-01   5.481148e-03
  3.219530e+00    4.263830e-01   5.435290e-03
  3.221740e+00    4.343580e-01   5.486417e-03
  3.223951e+00    4.371312e-01   5.504391e-03
  3.226161e+00    4.391778e-01   5.517461e-03
  3.228372e+00    4.269027e-01   5.440332e-03
  3.230582e+00    4.232949e-01   5.417434e-03
  3.232792e+00    4.245154e-01   5.425454e-03
  3.235003e+00    4.284975e-01   5.451079e-03
  3.237213e+00    4.267589e-01   5.440117e-03
  3.239424e+00    4.416162e-01   5.533997e-03
  3.241634e+00    4.296299e-01   5.458537e-03
  3.243845e+00    4.197187e-01   5.395243e-03
  3.246055e+00    4.277457e-01   5.446324e-03
  3.248266e+00    4.296641e-01   5.458732e-03
  3.250476e+00    4.214978e-01   5.406309e-03
  3.252687e+00    4.044845e-01   5.296001e-03
  3.254897e+00    4.276443e-01   5.445353e-03
  3.257107e+00    4.401058e-01   5.523836e-03
  3.259318e+00    4.320759e-01   5.472982e-03
  3.261528e+00    4.310079e-01   5.466051e-03
  3.263739e+00    4.395057e-01   5.519108e-03
  3.265949e+00    4.447216e-01   5.551665e-03
  3.268160e+00    4.292576e-01   5.453847e-03
  3.270370e+00    4.218464e-01   5.406064e-03
  3.272581e+00    4.251376e-01   5.426817e-03
  3.274791e+00    4.226221e-01   5.410235e-03
  3.277002e+00    4.252179e-01   5.426253e-03
  3.279212e+00    4.374249e-01   5.503187e-03
  3.281422e+00    4.336442e-01   5.478797e-03
  3.283633e+00    4.247375e-01   5.421536e-03
  3.285843e+00    4.178255e-01   5.376921e-03
  3.288054e+00    4.247418e-01   5.420296e-03
  3.290264e+00    4.328772e-01   5.471644e-03
  3.292475e+00    4.259354e-01   5.426770e-03
  3.294685e+00    4.243241e-01   5.415840e-03
  3.296896e+00    4.232343e-01   5.408135e-03
  3.299106e+00    4.249161e-01   5.418320e-03
  3.301317e+00    4.284102e-01   5.439499e-03
  3.303527e+00    4.412769e-01   5.520122e-03
  3.305737e+00    4.347449e-01   5.478042e-03
  3.307948e+00    4.336391e-01   5.470398e-03
  3.310158e+00    4.468272e-01   5.552097e-03
  3.312369e+00    4.175240e-01   5.366072e-03
  3.314579e+00    4.361840e-01   5.483724e-03
  3.316790e+00    4.243903e-01   5.408396e-03
  3.319000e+00    4.086755e-01   5.306160e-03
  3.321211e+00    4.323592e-01   5.457097e-03
  3.323421e+00    4.170696e-01   5.358578e-03
  3.325632e+00    4.374562e-01   5.487038e-03
  3.327842e+00    4.407223e-01   5.506581e-03
  3.330052e+00    4.216703e-01   5.385166e-03
  3.332263e+00    4.181411e-01   5.361579e-03
  3.334473e+00    4.156768e-01   5.344836e-03
  3.336684e+00    4.264668e-01   5.412500e-03
  3.338894e+00    4.231914e-01   5.390827e-03
  3.341105e+00    4.168350e-01   5.348990e-03
  3.343315e+00    4.229925e-01   5.387194e-03
  3.345526e+00    4.255309e-01   5.402438e-03
  3.347736e+00    4.365793e-01   5.470685e-03
  3.349947e+00    4.304475e-01   5.431196e-03
  3.352157e+00    4.231869e-01   5.384024e-03
  3.354368e+00    4.255030e-01   5.397415e-03
  3.356578e+00    4.268651e-01   5.405019e-03
  3.358788e+00    4.294196e-01   5.419842e-03
  3.360999e+00    4.289712e-01   5.415719e-03
  3.363209e+00    4.302745e-01   5.422937e-03
  3.365420e+00    4.200437e-01   5.356540e-03
  3.367630e+00    4.190568e-01   5.349254e-03
  3.369841e+00    4.064177e-01   5.266516e-03
  3.372051e+00    4.250101e-01   5.383663e-03
  3.374262e+00    4.174807e-01   5.333318e-03
  3.376472e+00    4.193340e-01   5.342681e-03
  3.378683e+00    4.168130e-01   5.324107e-03
  3.380893e+00    4.216500e-01   5.352539e-03
  3.383103e+00    4.194880e-01   5.336081e-03
  3.385314e+00    4.203581e-01   5.339383e-03
  3.387524e+00    4.226891e-01   5.351402e-03
  3.389735e+00    4.072210e-01   5.249976e-03
  3.391945e+00    3.992760e-01   5.194877e-03
  3.394156e+00    4.081758e-01   5.248266e-03
  3.396366e+00    4.184320e-01   5.310365e-03
  3.398577e+00    4.156507e-01   5.289616e-03
  3.400787e+00    4.111776e-01   5.273006e-03
  3.402998e+00    4.081686e-01   5.291649e-03
  3.405208e+00    4.101257e-01   5.325091e-03
  3.407418e+00    3.954089e-01   5.244358e-03
  3.409629e+00    4.010898e-01   5.295847e-03
  3.411839e+00    3.987649e-01   5.292259e-03
  3.414050e+00    3.891344e-01   5.238843e-03
  3.416260e+00    3.925496e-01   5.271393e-03
  3.418471e+00    3.942763e-01   5.292396e-03
  3.420681e+00    3.892751e-01   5.267183e-03
  3.422892e+00    4.087933e-01   5.405801e-03
  3.425102e+00    3.921469e-01   5.302444e-03
  3.427313e+00    3.921304e-01   5.309558e-03
  3.429523e+00    3.811229e-01   5.241496e-03
  3.431733e+00    3.878276e-01   5.294082e-03
  3.433944e+00    3.909076e-01   5.321603e-03
  3.436154e+00    3.916738e-01   5.333136e-03
  3.438365e+00    3.909203e-01   5.334002e-03
  3.440575e+00    3.773333e-01   5.246384e-03
  3.442786e+00    3.847981e-01   5.303684e-03
  3.444996e+00    3.775894e-01   5.259266e-03
  3.447207e+00    3.734935e-01   5.235947e-03
  3.449417e+00    3.710435e-01   5.259522e-03
  3.451628e+00    3.654477e-01   5.249036e-03
  3.453838e+00    3.553597e-01   5.196868e-03
  3.456049e+00    3.680274e-01   5.312623e-03
  3.458259e+00    3.712802e-01   5.358134e-03
  3.460469e+00    3.679112e-01   5.353593e-03
  3.462680e+00    3.568412e-01   5.291253e-03
  3.464890e+00    3.636045e-01   5.358869e-03
  3.467101e+00    3.819094e-01   5.509931e-03
  3.469311e+00    3.801782e-01   5.514191e-03
  3.471522e+00    3.937540e-01   5.628573e-03
  3.473732e+00    3.990569e-01   5.682728e-03
  3.475943e+00    4.131479e-01   5.798509e-03
  3.478153e+00    4.110240e-01   5.799480e-03
  3.480364e+00    4.025257e-01   5.754549e-03
  3.482574e+00    4.032957e-01   5.775357e-03
  3.484784e+00    4.212413e-01   5.917517e-03
  3.486995e+00    4.472441e-01   6.113067e-03
  3.489205e+00    4.565083e-01   6.191323e-03
  3.491416e+00    4.436641e-01   6.118797e-03
  3.493626e+00    4.491648e-01   6.171448e-03
  3.495837e+00    4.358088e-01   6.093652e-03
  3.498047e+00    4.507944e-01   6.212141e-03
  3.500258e+00    4.543837e-01   6.251433e-03
  3.502468e+00    4.513056e-01   6.244610e-03
  3.504679e+00    4.715095e-01   6.397498e-03
  3.506889e+00    4.839105e-01   6.495802e-03
  3.509099e+00    4.879986e-01   6.537807e-03
  3.511310e+00    4.808689e-01   6.504395e-03
  3.513520e+00    4.830014e-01   6.533256e-03
  3.515731e+00    4.891104e-01   6.588836e-03
  3.517941e+00    5.095345e-01   6.739646e-03
  3.520152e+00    5.080735e-01   6.744498e-03
  3.522362e+00    5.039721e-01   6.731750e-03
  3.524573e+00    5.152211e-01   6.820869e-03
  3.526783e+00    5.264305e-01   6.908207e-03
  3.528994e+00    5.128570e-01   6.830797e-03
  3.531204e+00    5.236544e-01   6.914780e-03
  3.533414e+00    5.393155e-01   7.029660e-03
  3.535625e+00    5.386919e-01   7.038114e-03
  3.537835e+00    5.262377e-01   6.968304e-03
  3.540046e+00    5.469987e-01   7.113442e-03
  3.542256e+00    5.439679e-01   7.101321e-03
  3.544467e+00    5.543228e-01   7.176336e-03
  3.546677e+00    5.450801e-01   7.123906e-03
  3.548888e+00    5.448648e-01   7.130035e-03
  3.551098e+00    5.459684e-01   7.144650e-03
  3.553309e+00    5.369083e-01   7.093278e-03
  3.555519e+00    5.113783e-01   6.933607e-03
  3.557729e+00    5.150775e-01   6.970118e-03
  3.559940e+00    5.333476e-01   7.104177e-03
  3.562150e+00    5.311636e-01   7.101296e-03
  3.564361e+00    5.386506e-01   7.164496e-03
  3.566571e+00    5.491766e-01   7.248184e-03
  3.568782e+00    5.398276e-01   7.200374e-03
  3.570992e+00    5.565183e-01   7.324853e-03
  3.573203e+00    5.483668e-01   7.285339e-03
  3.575413e+00    5.449998e-01   7.276800e-03
  3.577624e+00    5.476102e-01   7.308500e-03
  3.579834e+00    5.377737e-01   7.256461e-03
  3.582045e+00    5.333637e-01   7.240651e-03
  3.584255e+00    5.400912e-01   7.300283e-03
  3.586465e+00    5.255294e-01   7.215018e-03
  3.588676e+00    5.217378e-01   7.202887e-03
  3.590886e+00    5.282168e-01   7.261103e-03
  3.593097e+00    5.419027e-01   7.369156e-03
  3.595307e+00    5.458924e-01   7.410282e-03
  3.597518e+00    5.539585e-01   7.479302e-03
  3.599728e+00    5.289814e-01   7.322764e-03
  3.601939e+00    5.289228e-01   7.336319e-03
  3.604149e+00    5.334789e-01   7.382237e-03
  3.606360e+00    5.246702e-01   7.335008e-03
  3.608570e+00    5.435653e-01   7.480205e-03
  3.610780e+00    5.439628e-01   7.494120e-03
  3.612991e+00    5.337755e-01   7.433588e-03
  3.615201e+00    5.458435e-01   7.527031e-03
  3.617412e+00    5.386741e-01   7.484775e-03
  3.619622e+00    5.382694e-01   7.487927e-03
  3.621833e+00    5.273118e-01   7.417962e-03
  3.624043e+00    5.403178e-01   7.518460e-03
  3.626254e+00    5.408614e-01   7.532014e-03
  3.628464e+00    5.334873e-01   7.491456e-03
  3.630675e+00    5.470759e-01   7.600544e-03
  3.632885e+00    5.328154e-01   7.515274e-03
  3.635095e+00    5.286963e-01   7.500491e-03
  3.637306e+00    5.405107e-01   7.598272e-03
  3.639516e+00    5.464001e-01   7.654310e-03
  3.641727e+00    5.444033e-01   7.654990e-03
  3.643937e+00    5.448045e-01   7.672548e-03
  3.646148e+00    5.453780e-01   7.691348e-03
  3.648358e+00    5.328606e-01   7.617437e-03
  3.650569e+00    5.274584e-01   7.593364e-03
  3.652779e+00    5.330396e-01   7.648237e-03
  3.654990e+00    5.396451e-01   7.710412e-03
  3.657200e+00    5.585672e-01   7.859727e-03
  3.659410e+00    5.420828e-01   7.757993e-03
  3.661621e+00    5.518012e-01   7.842588e-03
  3.663831e+00    5.457382e-01   7.814720e-03
  3.666042e+00    5.545085e-01   7.892712e-03
  3.668252e+00    5.413530e-01   7.813963e-03
  3.670463e+00    5.538037e-01   7.918814e-03
  3.672673e+00    5.461795e-01   7.879795e-03
  3.674884e+00    5.320519e-01   7.792633e-03
  3.677094e+00    5.252213e-01   7.757855e-03
  3.679305e+00    5.503364e-01   7.957039e-03
  3.681515e+00    5.366043e-01   7.872863e-03
  3.683726e+00    5.478174e-01   7.970726e-03
  3.685936e+00    5.319702e-01   7.870386e-03
  3.688146e+00    5.478566e-01   8.003082e-03
  3.690357e+00    5.284336e-01   7.875924e-03
  3.692567e+00    5.221775e-01   7.845165e-03
  3.694778e+00    5.311036e-01   7.928091e-03
  3.696988e+00    5.400777e-01   8.010945e-03
  3.699199e+00    5.335745e-01   7.978976e-03
  3.701409e+00    5.184939e-01   7.881656e-03
  3.703620e+00    5.331722e-01   8.008879e-03
  3.705830e+00    5.324317e-01   8.019854e-03
  3.708041e+00    5.243053e-01   7.975025e-03
  3.710251e+00    5.247937e-01   7.995452e-03
  3.712461e+00    5.180223e-01   7.960359e-03
  3.714672e+00    5.351706e-01   8.108016e-03
  3.716882e+00    5.403453e-01   8.164095e-03
  3.719093e+00    5.412318e-01   8.188338e-03
  3.721303e+00    5.325803e-01   8.139770e-03
  3.723514e+00    4.891233e-01   7.817381e-03
  3.725724e+00    5.009466e-01   7.928125e-03
  3.727935e+00    5.154483e-01   8.059517e-03
  3.730145e+00    5.265759e-01   8.163458e-03
  3.732356e+00    5.402482e-01   8.286783e-03
  3.734566e+00    5.169309e-01   8.123555e-03
  3.736776e+00    5.056146e-01   8.051666e-03
  3.738987e+00    5.302176e-01   8.263300e-03
  3.741197e+00    5.134473e-01   8.149617e-03
  3.743408e+00    4.755417e-01   7.860364e-03
  3.745618e+00    5.162383e-01   8.208123e-03
  3.747829e+00    5.366244e-01   8.387184e-03
  3.750039e+00    5.266382e-01   8.327444e-03
  3.752250e+00    5.241107e-01   8.326163e-03
  3.754460e+00    5.034252e-01   8.178598e-03
  3.756671e+00    5.153263e-01   8.293634e-03
  3.758881e+00    5.081131e-01   8.253968e-03
  3.761091e+00    5.016741e-01   8.220578e-03
  3.763302e+00    5.036778e-01   8.255891e-03
  3.765512e+00    5.263522e-01   8.459340e-03
  3.767723e+00    5.092341e-01   8.340024e-03
  3.769933e+00    5.101510e-01   8.366948e-03
  3.772144e+00    5.022935e-01   8.321762e-03
  3.774354e+00    5.033574e-01   8.350333e-03
  3.776565e+00    5.006117e-01   8.347342e-03
  3.778775e+00    5.248775e-01   8.567532e-03
  3.780986e+00    5.183070e-01   8.534391e-03
  3.783196e+00    5.239701e-01   8.601530e-03
  3.785407e+00    5.143988e-01   8.543235e-03
  3.787617e+00    5.218906e-01   8.626428e-03
  3.789827e+00    5.115769e-01   8.561442e-03
  3.792038e+00    5.096192e-01   8.566063e-03
  3.794248e+00    5.222573e-01   8.693226e-03
  3.796459e+00    4.938932e-01   8.475034e-03
  3.798669e+00    5.034356e-01   8.577934e-03
  3.800880e+00    4.911658e-01   8.494084e-03
  3.803090e+00    4.814072e-01   8.430621e-03
  3.805301e+00    4.999056e-01   8.613131e-03
  3.807511e+00    4.992067e-01   8.629147e-03
  3.809722e+00    5.018330e-01   8.674031e-03
  3.811932e+00    5.117639e-01   8.781972e-03
  3.814142e+00    5.134640e-01   8.819791e-03
  3.816353e+00    4.971070e-01   8.700941e-03
  3.818563e+00    4.963661e-01   8.717489e-03
  3.820774e+00    5.121047e-01   8.878022e-03
  3.822984e+00    5.270126e-01   9.030474e-03
  3.825195e+00    5.033604e-01   8.849346e-03
  3.827405e+00    4.935581e-01   8.786548e-03
  3.829616e+00    4.852690e-01   8.736174e-03
  3.831826e+00    5.129019e-01   9.005993e-03
  3.834037e+00    5.195390e-01   9.089156e-03
  3.836247e+00    5.179083e-01   9.100128e-03
  3.838457e+00    4.822937e-01   8.806302e-03
  3.840668e+00    5.183815e-01   9.155563e-03
  3.842878e+00    4.849761e-01   8.880913e-03
  3.845089e+00    5.007430e-01   9.049790e-03
  3.847299e+00    5.063040e-01   9.125973e-03
  3.849510e+00    5.113418e-01   9.197573e-03
  3.851720e+00    5.084887e-01   9.193549e-03
  3.853931e+00    4.904450e-01   9.047867e-03
  3.856141e+00    5.320728e-01   9.443710e-03
  3.858352e+00    5.166950e-01   9.326027e-03
  3.860562e+00    4.918597e-01   9.118361e-03
  3.862772e+00    4.876390e-01   9.098572e-03
  3.864983e+00    4.962121e-01   9.197949e-03
  3.867193e+00    4.976437e-01   9.231049e-03
  3.869404e+00    5.150765e-01   9.411580e-03
  3.871614e+00    4.794182e-01   9.099728e-03
  3.873825e+00    4.728228e-01   9.056728e-03
  3.876035e+00    5.011538e-01   9.344836e-03
  3.878246e+00    5.083486e-01   9.437940e-03
  3.880456e+00    5.186524e-01   9.562815e-03
  3.882667e+00    5.198285e-01   9.603815e-03
  3.884877e+00    5.002890e-01   9.451648e-03
  3.887087e+00    4.763013e-01   9.251657e-03
  3.889298e+00    5.093595e-01   9.598273e-03
  3.891508e+00    5.050973e-01   9.589020e-03
  3.893719e+00    5.182699e-01   9.745075e-03
  3.895929e+00    5.126831e-01   9.724592e-03
  3.898140e+00    5.144552e-01   9.773795e-03
  3.900350e+00    4.896501e-01   9.567431e-03
  3.902561e+00    5.054320e-01   9.753173e-03
  3.904771e+00    4.896661e-01   9.632704e-03
  3.906982e+00    5.026472e-01   9.793110e-03
  3.909192e+00    5.009823e-01   9.810789e-03
  3.911403e+00    5.306726e-01   1.013272e-02
  3.913613e+00    5.126895e-01   9.994703e-03
  3.915823e+00    4.911278e-01   9.817169e-03
  3.918034e+00    4.880508e-01   9.821611e-03
  3.920244e+00    4.804640e-01   9.780360e-03
  3.922455e+00    4.930233e-01   9.943675e-03
  3.924665e+00    5.066559e-01   1.011733e-02
  3.926876e+00    4.913217e-01   1.000024e-02
  3.929086e+00    5.172809e-01   1.029959e-02
  3.931297e+00    5.076026e-01   1.023827e-02
  3.933507e+00    4.803743e-01   9.988624e-03
  3.935718e+00    4.933779e-01   1.015180e-02
  3.937928e+00    4.785848e-01   1.002768e-02
  3.940138e+00    5.109529e-01   1.039119e-02
  3.942349e+00    5.017679e-01   1.032775e-02
  3.944559e+00    4.925015e-01   1.026208e-02
  3.946770e+00    5.148624e-01   1.052349e-02
  3.948980e+00    5.243140e-01   1.065154e-02
  3.951191e+00    4.907630e-01   1.033608e-02
  3.953401e+00    4.896178e-01   1.035548e-02
  3.955612e+00    4.984294e-01   1.048029e-02
  3.957822e+00    5.015509e-01   1.054522e-02
  3.960033e+00    5.058913e-01   1.062413e-02
  3.962243e+00    4.998211e-01   1.059339e-02
  3.964453e+00    4.733155e-01   1.034144e-02
  3.966664e+00    4.936215e-01   1.059457e-02
  3.968874e+00    4.663360e-01   1.032543e-02
  3.971085e+00    5.094612e-01   1.081474e-02
  3.973295e+00    5.139685e-01   1.088458e-02
  3.975506e+00    4.988850e-01   1.074570e-02
  3.977716e+00    4.747507e-01   1.050416e-02
  3.979927e+00    4.782026e-01   1.056434e-02
  3.982137e+00    4.926519e-01   1.074511e-02
  3.984348e+00    4.878036e-01   1.071487e-02
  3.986558e+00    4.905948e-01   1.076765e-02
  3.988768e+00    5.087868e-01   1.098934e-02
  3.990979e+00    4.842683e-01   1.074389e-02
  3.993189e+00    5.180811e-01   1.113646e-02
  3.995400e+00    5.172298e-01   1.115167e-02
  3.997610e+00    4.832483e-01   1.080894e-02
  3.999821e+00    4.935568e-01   1.096136e-02
  4.002031e+00    5.036711e-01   1.111227e-02
  4.004242e+00    5.036262e-01   1.115103e-02
  4.006452e+00    5.149556e-01   1.131633e-02
  4.008663e+00    5.132460e-01   1.133871e-02
  4.010873e+00    4.909810e-01   1.113021e-02
  4.013084e+00    5.086051e-01   1.137021e-02
  4.015294e+00    4.941427e-01   1.124876e-02
  4.017504e+00    5.135980e-01   1.151120e-02
  4.019715e+00    4.648255e-01   1.099266e-02
  4.021925e+00    4.883930e-01   1.131091e-02
  4.024136e+00    5.201135e-01   1.171790e-02
  4.026346e+00    4.550678e-01   1.100348e-02
  4.028557e+00    4.628935e-01   1.114100e-02
  4.030767e+00    4.723240e-01   1.129905e-02
  4.032978e+00    5.012187e-01   1.168658e-02
  4.035188e+00    5.002735e-01   1.172257e-02
  4.037399e+00    5.068744e-01   1.184838e-02
  4.039609e+00    4.997677e-01   1.181360e-02
  4.041819e+00    5.009928e-01   1.187760e-02
  4.044030e+00    5.274889e-01   1.223993e-02
  4.046240e+00    4.761660e-01   1.167869e-02
  4.048451e+00    5.029551e-01   1.205464e-02
  4.050661e+00    5.014658e-01   1.208927e-02
  4.052872e+00    4.802859e-01   1.188377e-02
  4.055082e+00    4.833688e-01   1.197546e-02
  4.057293e+00    4.805790e-01   1.199444e-02
  4.059503e+00    4.693379e-01   1.190727e-02
  4.061714e+00    4.711882e-01   1.198648e-02
  4.063924e+00    5.161905e-01   1.260456e-02
  4.066134e+00    4.828607e-01   1.224837e-02
  4.068345e+00    4.624431e-01   1.204425e-02
  4.070555e+00    4.898807e-01   1.245631e-02
  4.072766e+00    4.843849e-01   1.244705e-02
  4.074976e+00    5.166433e-01   1.291913e-02
  4.077187e+00    5.007270e-01   1.278181e-02
  4.079397e+00    4.854370e-01   1.264938e-02
  4.081608e+00    4.696435e-01   1.250663e-02
  4.083818e+00    4.811029e-01   1.272400e-02
  4.086029e+00    4.738943e-01   1.269501e-02
  4.088239e+00    4.955856e-01   1.305218e-02
  4.090449e+00    4.869753e-01   1.300841e-02
  4.092660e+00    5.023715e-01   1.328525e-02
  4.094870e+00    4.424742e-01   1.253738e-02
  4.097081e+00    4.658941e-01   1.293534e-02
  4.099291e+00    5.016532e-01   1.347816e-02
  4.101502e+00    4.780545e-01   1.320664e-02
  4.103712e+00    4.638861e-01   1.305754e-02
  4.105923e+00    4.826155e-01   1.337036e-02
  4.108133e+00    4.651646e-01   1.317693e-02
  4.110344e+00    4.893444e-01   1.356678e-02
  4.112554e+00    4.634094e-01   1.325454e-02
  4.114764e+00    4.922318e-01   1.371527e-02
  4.116975e+00    5.123436e-01   1.404800e-02
  4.119185e+00    5.316536e-01   1.436822e-02
  4.121396e+00    5.138431e-01   1.418417e-02
  4.123606e+00    4.660462e-01   1.356339e-02
  4.125817e+00    5.278598e-01   1.449571e-02
  4.128027e+00    5.055614e-01   1.424580e-02
  4.130238e+00    4.871078e-01   1.404348e-02
  4.132448e+00    4.794726e-01   1.399328e-02
  4.134659e+00    4.600511e-01   1.376600e-02
  4.136869e+00    5.038329e-01   1.447039e-02
  4.139080e+00    5.063587e-01   1.457197e-02
  4.141290e+00    4.646771e-01   1.402136e-02
  4.143500e+00    5.108263e-01   1.476848e-02
  4.145711e+00    5.535777e-01   1.544635e-02
  4.147921e+00    5.036734e-01   1.480110e-02
  4.150132e+00    5.207730e-01   1.512203e-02
  4.152342e+00    5.081266e-01   1.500984e-02
  4.154553e+00    4.533128e-01   1.424438e-02
  4.156763e+00    4.606125e-01   1.442975e-02
  4.158974e+00    5.392249e-01   1.569084e-02
  4.161184e+00    4.994628e-01   1.517665e-02
  4.163395e+00    4.690445e-01   1.478213e-02
  4.165605e+00    4.940909e-01   1.525039e-02
  4.167815e+00    5.291064e-01   1.586407e-02
  4.170026e+00    5.115387e-01   1.568059e-02
  4.172236e+00    4.986634e-01   1.556588e-02
  4.174447e+00    4.941412e-01   1.557896e-02
  4.176657e+00    5.043280e-01   1.582529e-02
  4.178868e+00    4.655039e-01   1.528988e-02
  4.181078e+00    4.824679e-01   1.565347e-02
  4.183289e+00    4.883492e-01   1.583901e-02
  4.185499e+00    4.640557e-01   1.553102e-02
  4.187710e+00    4.968896e-01   1.616511e-02
  4.189920e+00    4.900723e-01   1.615043e-02
  4.192130e+00    5.161911e-01   1.667694e-02
  4.194341e+00    5.080898e-01   1.664662e-02
  4.196551e+00    5.042245e-01   1.668831e-02
  4.198762e+00    5.093652e-01   1.687970e-02
  4.200972e+00    5.039501e-01   1.689844e-02
  4.203183e+00    4.756574e-01   1.652527e-02
  4.205393e+00    4.458676e-01   1.610618e-02
  4.207604e+00    4.737824e-01   1.671597e-02
  4.209814e+00    4.394876e-01   1.620954e-02
  4.212025e+00    4.979921e-01   1.737742e-02
  4.214235e+00    4.768760e-01   1.712550e-02
  4.216445e+00    4.814338e-01   1.733158e-02
  4.218656e+00    5.276254e-01   1.827991e-02
  4.220866e+00    5.388153e-01   1.860959e-02
  4.223077e+00    4.810671e-01   1.771971e-02
  4.225287e+00    4.001368e-01   1.628710e-02
  4.227498e+00    5.180967e-01   1.867869e-02
  4.229708e+00    4.949521e-01   1.840510e-02
  4.231919e+00    4.833078e-01   1.833783e-02
  4.234129e+00    4.521474e-01   1.788578e-02
  4.236340e+00    4.717745e-01   1.842573e-02
  4.238550e+00    4.598241e-01   1.835167e-02
  4.240761e+00    4.734742e-01   1.878642e-02
  4.242971e+00    5.774207e-01   2.093667e-02
  4.245181e+00    4.650282e-01   1.896546e-02
  4.247392e+00    4.377987e-01   1.857378e-02
  4.249602e+00    4.377944e-01   1.875810e-02
  4.251813e+00    4.423898e-01   1.904220e-02
  4.254023e+00    4.596265e-01   1.960481e-02
  4.256234e+00    4.570375e-01   1.975881e-02
  4.258444e+00    4.288749e-01   1.934068e-02
  4.260655e+00    4.634665e-01   2.032618e-02
  4.262865e+00    4.845647e-01   2.101992e-02
  4.265076e+00    5.047424e-01   2.169684e-02
  4.267286e+00    4.824135e-01   2.146321e-02
  4.269496e+00    4.547600e-01   2.109316e-02
  4.271707e+00    4.474991e-01   2.118252e-02
  4.273917e+00    4.917400e-01   2.249184e-02
  4.276128e+00    5.989843e-01   2.515376e-02
  4.278338e+00    4.717126e-01   2.262000e-02
  4.280549e+00    4.674301e-01   2.284005e-02
  4.282759e+00    5.059514e-01   2.410359e-02
  4.284970e+00    5.561247e-01   2.564487e-02
  4.287180e+00    5.190117e-01   2.507162e-02
  4.289391e+00    5.235690e-01   2.536976e-02
  4.291601e+00    5.020572e-01   2.504214e-02
  4.293811e+00    4.950666e-01   2.506137e-02
  4.296022e+00    5.133513e-01   2.572508e-02
  4.298232e+00    5.332094e-01   2.643774e-02
  4.300443e+00    4.363865e-01   2.411444e-02
  4.302653e+00    4.941261e-01   2.588181e-02
  4.304864e+00    4.997854e-01   2.625562e-02
  4.307074e+00    4.404803e-01   2.487078e-02
  4.309285e+00    4.592469e-01   2.562458e-02
  4.311495e+00    5.373409e-01   2.797756e-02
  4.313706e+00    5.562246e-01   2.873236e-02
  4.315916e+00    4.818184e-01   2.700558e-02
  4.318126e+00    4.888216e-01   2.746953e-02
  4.320337e+00    4.053159e-01   2.526659e-02
  4.322547e+00    3.791354e-01   2.469595e-02
  4.324758e+00    4.275627e-01   2.649860e-02
  4.326968e+00    4.111355e-01   2.627704e-02
  4.329179e+00    3.442410e-01   2.430985e-02
  4.331389e+00    3.643748e-01   2.529807e-02
  4.333600e+00    3.661400e-01   2.566273e-02
  4.335810e+00    4.708871e-01   2.944883e-02
  4.338021e+00    4.449725e-01   2.899361e-02
  4.340231e+00    3.940284e-01   2.762611e-02
  4.342442e+00    3.396268e-01   2.599266e-02
  4.344652e+00    3.922879e-01   2.831357e-02
  4.346862e+00    3.234469e-01   2.607002e-02
  4.349073e+00    4.171447e-01   3.003683e-02
  4.351283e+00    3.955489e-01   2.968633e-02
  4.353494e+00    2.948012e-01   2.602388e-02
  4.355704e+00    3.940252e-01   3.057146e-02
  4.357915e+00    3.322995e-01   2.854097e-02
  4.360125e+00    4.465405e-01   3.365009e-02
  4.362336e+00    5.340295e-01   3.747116e-02
  4.364546e+00    4.154251e-01   3.365111e-02
  4.366757e+00    4.383481e-01   3.525383e-02
  4.368967e+00    3.698826e-01   3.303099e-02
  4.371177e+00    4.249958e-01   3.615790e-02
  4.373388e+00    5.054849e-01   4.031638e-02
  4.375598e+00    2.774130e-01   3.054729e-02
  4.377809e+00    3.912717e-01   3.719709e-02
  4.380019e+00    3.133490e-01   3.412466e-02
  4.382230e+00    2.853427e-01   3.347008e-02
  4.384440e+00    3.655752e-01   3.897961e-02
  4.386651e+00    3.161693e-01   3.736551e-02
  4.388861e+00    3.768219e-01   4.216129e-02
  4.391072e+00    5.115514e-01   5.085037e-02
  4.393282e+00    3.202570e-01   4.179179e-02
  4.395492e+00    2.877751e-01   4.125757e-02
  4.397703e+00    3.199135e-01   4.549488e-02
  4.399913e+00    6.760259e-01   6.947277e-02
  4.402124e+00    4.853700e-01   6.220872e-02
  4.404334e+00    3.736708e-01   5.802194e-02
  4.406545e+00    4.238233e-01   6.638359e-02
  4.408755e+00    9.071139e-01   1.053400e-01
  4.410966e+00    6.489410e-01   9.860829e-02
  4.413176e+00    3.456996e-01   8.146827e-02
  4.415387e+00   -7.383545e-01            nan
  4.417597e+00   -1.689570e+00            nan
  4.419807e+00   -3.766224e-01            nan
