# == pyFAI calibration ==
# Distance Sample to Detector: 0.216 m
# PONI: 1.166e-01, 1.308e-01 m
# Rotations: 0.000000 0.000000 0.000000 rad
# 
# == Fit2d calibration ==
# Distance Sample-beamCenter: 216.000 mm
# Center: x=1744.293, y=1555.000 pix
# Tilt: 0.000 deg  TiltPlanRot: 0.000 deg
# 
# Detector Eiger 9M	 PixelSize= 7.500e-05, 7.500e-05 m
#    Detector has a mask: True 
#    Detector has a dark current: False 
#    detector has a flat field: False 
# 
# Wavelength: 9.8e-11 m
# Mask applied: from detector
# Dark current applied: False
# Flat field applied: False
# Polarization factor: None
# Normalization factor: 1.0
# 
# Headers of the input frame:
# {
# "_array_data.header_convention": "SLS_1.0",
# "_array_data.header_contents": "# Detector: Dectris Eiger 9M, S/N E-18-0102\r\n# Pixel_size 75e-6 m x 75e-6 m\r\n# Silicon sensor, thickness 0.000450 m\r\n# Exposure_time 0.024997 s\r\n# Exposure_period 0.025000 s\r\n# Count_cutoff 62318 counts\r\n# Wavelength 0.980106 A\r\n# Detector_distance 0.215992 m\r\n# Beam_xy (1555, 1744) pixels\r\n# Start_angle 0.000000 deg.\r\n# Angle_increment 0.000000 deg.",
# "Content-Type": "application/octet-stream;",
# "conversions": "x-CBF_BYTE_OFFSET",
# "Content-Transfer-Encoding": "BINARY",
# "X-Binary-Size": "10166608",
# "X-Binary-ID": "1",
# "X-Binary-Element-Type": "signed 32-bit integer",
# "X-Binary-Element-Byte-Order": "LITTLE_ENDIAN",
# "Content-MD5": "wtOSeaUqewbLkwLNzbBWFg==",
# "X-Binary-Number-of-Elements": "10166590",
# "X-Binary-Size-Fastest-Dimension": "3110",
# "X-Binary-Size-Second-Dimension": "3269",
# "X-Binary-Size-Padding": "4095"
# }
# --> H:/Proxima2a_2019-04-05/RAW_DATA/C5_gel17_position5/C5_mesh_1_data.cbf/C5_mesh_1_data.cbf000118.dat
#        q_A^-1              I           sigma 
  1.105228e-03    1.435520e+00   6.483232e-01
  3.315685e-03    1.350062e+00   3.822279e-01
  5.526141e-03    1.234487e+00   2.826281e-01
  7.736597e-03    1.412834e+00   2.554264e-01
  9.947054e-03    1.475453e+00   2.301120e-01
  1.215751e-02    1.742038e+00   2.260984e-01
  1.436797e-02    1.501704e+00   1.930936e-01
  1.657842e-02    1.600717e+00   1.855674e-01
  1.878888e-02    1.388781e+00   1.623605e-01
  2.099934e-02    1.387446e+00   1.535359e-01
  2.320979e-02    1.336879e+00   1.433438e-01
  2.542025e-02    1.259824e+00   1.329733e-01
  2.763070e-02    1.478094e+00   1.381470e-01
  2.984116e-02    1.408787e+00   1.297774e-01
  3.205162e-02    1.422282e+00   1.258285e-01
  3.426207e-02    1.424505e+00   1.217886e-01
  3.647253e-02    1.395781e+00   1.168418e-01
  3.868299e-02    1.324166e+00   1.105139e-01
  4.089344e-02    1.342919e+00   1.082444e-01
  4.310390e-02    1.356735e+00   1.059672e-01
  4.531436e-02    1.470573e+00   1.075992e-01
  4.752481e-02    1.512205e+00   1.065429e-01
  4.973527e-02    1.462349e+00   1.024182e-01
  5.194572e-02    1.454478e+00   9.994395e-02
  5.415618e-02    1.437338e+00   9.730121e-02
  5.636664e-02    1.453032e+00   9.589650e-02
  5.857709e-02    1.446847e+00   9.386981e-02
  6.078755e-02    1.562239e+00   9.574829e-02
  6.299801e-02    1.494603e+00   9.199397e-02
  6.520846e-02    1.354327e+00   8.607411e-02
  6.741892e-02    1.309174e+00   8.322398e-02
  6.962938e-02    1.561764e+00   8.944866e-02
  7.183983e-02    1.595236e+00   8.899889e-02
  7.405029e-02    1.439457e+00   8.326849e-02
  7.626074e-02    1.502799e+00   8.383798e-02
  7.847120e-02    1.478786e+00   8.198354e-02
  8.068166e-02    1.474734e+00   8.074118e-02
  8.289211e-02    1.492254e+00   8.012871e-02
  8.510257e-02    1.523157e+00   7.989539e-02
  8.731303e-02    1.509566e+00   7.852191e-02
  8.952348e-02    1.488121e+00   7.699573e-02
  9.173394e-02    1.427515e+00   7.449451e-02
  9.394439e-02    1.458770e+00   7.441194e-02
  9.615485e-02    1.580950e+00   7.656827e-02
  9.836531e-02    1.477806e+00   7.318988e-02
  1.005758e-01    1.561712e+00   7.440805e-02
  1.027862e-01    1.522170e+00   7.266402e-02
  1.049967e-01    1.513805e+00   7.169598e-02
  1.072071e-01    1.566687e+00   7.218082e-02
  1.094176e-01    1.552710e+00   7.112751e-02
  1.116280e-01    1.573904e+00   7.089715e-02
  1.138385e-01    1.581953e+00   7.038338e-02
  1.160490e-01    1.609082e+00   7.030416e-02
  1.182594e-01    1.580299e+00   6.901682e-02
  1.204699e-01    1.540959e+00   6.752370e-02
  1.226803e-01    1.493626e+00   6.587420e-02
  1.248908e-01    1.513463e+00   6.571998e-02
  1.271012e-01    1.569632e+00   6.634255e-02
  1.293117e-01    1.658781e+00   6.761426e-02
  1.315222e-01    1.660408e+00   6.707501e-02
  1.337326e-01    1.588722e+00   6.506532e-02
  1.359431e-01    1.552597e+00   6.435899e-02
  1.381535e-01    1.529762e+00   6.474146e-02
  1.403640e-01    1.508401e+00   6.456544e-02
  1.425744e-01    1.573537e+00   6.605007e-02
  1.447849e-01    1.615337e+00   6.693704e-02
  1.469953e-01    1.564425e+00   6.583248e-02
  1.492058e-01    1.587365e+00   6.623632e-02
  1.514163e-01    1.558134e+00   6.551466e-02
  1.536267e-01    1.628064e+00   6.683793e-02
  1.558372e-01    1.608724e+00   6.629308e-02
  1.580476e-01    1.705154e+00   6.808544e-02
  1.602581e-01    1.675368e+00   6.731674e-02
  1.624685e-01    1.634673e+00   6.631211e-02
  1.646790e-01    1.655955e+00   6.655070e-02
  1.668895e-01    1.709500e+00   6.742282e-02
  1.690999e-01    1.672317e+00   6.648529e-02
  1.713104e-01    1.709532e+00   6.701236e-02
  1.735208e-01    1.792277e+00   6.840160e-02
  1.757313e-01    1.795949e+00   6.825707e-02
  1.779417e-01    1.792503e+00   6.796912e-02
  1.801522e-01    1.910906e+00   6.995458e-02
  1.823626e-01    1.872752e+00   6.902214e-02
  1.845731e-01    1.876201e+00   6.886187e-02
  1.867836e-01    1.941808e+00   6.981907e-02
  1.889940e-01    1.973934e+00   7.016426e-02
  1.912045e-01    2.030735e+00   7.092892e-02
  1.934149e-01    2.090642e+00   7.172668e-02
  1.956254e-01    2.024618e+00   7.035223e-02
  1.978358e-01    1.942578e+00   6.867595e-02
  2.000463e-01    1.941239e+00   6.842474e-02
  2.022568e-01    1.990058e+00   6.905241e-02
  2.044672e-01    1.989821e+00   6.881175e-02
  2.066777e-01    2.019397e+00   6.909119e-02
  2.088881e-01    1.994694e+00   6.844263e-02
  2.110986e-01    1.961040e+00   6.763008e-02
  2.133090e-01    1.995020e+00   6.799175e-02
  2.155195e-01    1.911277e+00   6.632867e-02
  2.177300e-01    1.972748e+00   6.685748e-02
  2.199404e-01    1.970600e+00   6.506035e-02
  2.221509e-01    1.921797e+00   6.319467e-02
  2.243613e-01    1.937696e+00   6.265108e-02
  2.265718e-01    1.963265e+00   6.236801e-02
  2.287822e-01    2.106885e+00   6.396947e-02
  2.309927e-01    2.127552e+00   6.369685e-02
  2.332031e-01    2.169198e+00   6.376678e-02
  2.354136e-01    2.163315e+00   6.316411e-02
  2.376241e-01    2.205086e+00   6.327605e-02
  2.398345e-01    2.138445e+00   6.185140e-02
  2.420450e-01    2.194473e+00   6.220861e-02
  2.442554e-01    2.253870e+00   6.261058e-02
  2.464659e-01    2.124348e+00   6.037686e-02
  2.486763e-01    2.140051e+00   6.020125e-02
  2.508868e-01    2.220333e+00   6.093322e-02
  2.530973e-01    2.207119e+00   6.037501e-02
  2.553077e-01    2.101805e+00   5.855960e-02
  2.575182e-01    2.073888e+00   5.782524e-02
  2.597286e-01    2.021093e+00   5.675263e-02
  2.619391e-01    2.032012e+00   5.657809e-02
  2.641495e-01    2.073384e+00   5.683486e-02
  2.663600e-01    2.033633e+00   5.597786e-02
  2.685704e-01    1.986289e+00   5.502255e-02
  2.707809e-01    2.046892e+00   5.555913e-02
  2.729914e-01    2.018991e+00   5.489164e-02
  2.752018e-01    1.958720e+00   5.378469e-02
  2.774123e-01    2.056722e+00   5.483227e-02
  2.796227e-01    2.025088e+00   5.413983e-02
  2.818332e-01    2.017565e+00   5.376958e-02
  2.840436e-01    2.029811e+00   5.367110e-02
  2.862541e-01    2.020555e+00   5.329117e-02
  2.884646e-01    2.008144e+00   5.287512e-02
  2.906750e-01    1.941943e+00   5.174974e-02
  2.928855e-01    1.935711e+00   5.142723e-02
  2.950959e-01    1.913821e+00   5.090071e-02
  2.973064e-01    1.913882e+00   5.067277e-02
  2.995168e-01    1.866842e+00   4.981949e-02
  3.017273e-01    1.889969e+00   4.990613e-02
  3.039377e-01    1.961240e+00   5.061579e-02
  3.061482e-01    2.000339e+00   5.089672e-02
  3.083587e-01    1.931955e+00   4.980266e-02
  3.105691e-01    1.941331e+00   4.971012e-02
  3.127796e-01    1.948677e+00   4.959471e-02
  3.149900e-01    1.915717e+00   4.896860e-02
  3.172005e-01    1.946815e+00   4.916262e-02
  3.194109e-01    1.932956e+00   4.878508e-02
  3.216214e-01    1.878941e+00   4.790238e-02
  3.238319e-01    1.870070e+00   4.759980e-02
  3.260423e-01    1.917326e+00   4.800550e-02
  3.282528e-01    1.933117e+00   4.801088e-02
  3.304632e-01    1.936536e+00   4.786716e-02
  3.326737e-01    1.915491e+00   4.742062e-02
  3.348841e-01    1.867958e+00   4.664696e-02
  3.370946e-01    1.821944e+00   4.589550e-02
  3.393050e-01    1.852447e+00   4.610279e-02
  3.415155e-01    1.857244e+00   4.598889e-02
  3.437260e-01    1.821888e+00   4.538020e-02
  3.459364e-01    1.876139e+00   4.588055e-02
  3.481469e-01    1.854208e+00   4.544514e-02
  3.503573e-01    1.794581e+00   4.454557e-02
  3.525678e-01    1.849219e+00   4.505747e-02
  3.547782e-01    1.786701e+00   4.412920e-02
  3.569887e-01    1.820063e+00   4.438148e-02
  3.591992e-01    1.834293e+00   4.439697e-02
  3.614096e-01    1.825144e+00   4.413257e-02
  3.636201e-01    1.883805e+00   4.467863e-02
  3.658305e-01    1.865427e+00   4.430851e-02
  3.680410e-01    1.783292e+00   4.317307e-02
  3.702514e-01    1.802315e+00   4.325676e-02
  3.724619e-01    1.776954e+00   4.280509e-02
  3.746724e-01    1.774560e+00   4.263350e-02
  3.768828e-01    1.841727e+00   4.328670e-02
  3.790933e-01    1.812236e+00   4.279884e-02
  3.813037e-01    1.789202e+00   4.238682e-02
  3.835142e-01    1.773998e+00   4.206773e-02
  3.857246e-01    1.722668e+00   4.132048e-02
  3.879351e-01    1.755299e+00   4.157500e-02
  3.901455e-01    1.770616e+00   4.162306e-02
  3.923560e-01    1.781138e+00   4.161387e-02
  3.945665e-01    1.835491e+00   4.211009e-02
  3.967769e-01    1.775283e+00   4.128398e-02
  3.989874e-01    1.796960e+00   4.140557e-02
  4.011978e-01    1.821818e+00   4.156277e-02
  4.034083e-01    1.786049e+00   4.102638e-02
  4.056187e-01    1.808224e+00   4.115312e-02
  4.078292e-01    1.792124e+00   4.084552e-02
  4.100397e-01    1.790154e+00   4.069843e-02
  4.122501e-01    1.805244e+00   4.074731e-02
  4.144606e-01    1.813027e+00   4.071398e-02
  4.166710e-01    1.755743e+00   3.994649e-02
  4.188815e-01    1.799400e+00   4.032060e-02
  4.210919e-01    1.827418e+00   4.051424e-02
  4.233024e-01    1.822098e+00   4.033623e-02
  4.255128e-01    1.768294e+00   3.962139e-02
  4.277233e-01    1.733082e+00   3.911217e-02
  4.299338e-01    1.854595e+00   4.034369e-02
  4.321442e-01    1.755377e+00   3.913741e-02
  4.343547e-01    1.743756e+00   3.889733e-02
  4.365651e-01    1.767850e+00   3.905385e-02
  4.387756e-01    1.785688e+00   3.914048e-02
  4.409860e-01    1.837151e+00   3.959049e-02
  4.431965e-01    1.790719e+00   3.897892e-02
  4.454070e-01    1.773560e+00   3.868379e-02
  4.476174e-01    1.722434e+00   3.801748e-02
  4.498279e-01    1.714974e+00   3.783184e-02
  4.520383e-01    1.686277e+00   3.741104e-02
  4.542488e-01    1.705761e+00   3.752507e-02
  4.564592e-01    1.750430e+00   3.791127e-02
  4.586697e-01    1.728092e+00   3.756861e-02
  4.608801e-01    1.760500e+00   3.781768e-02
  4.630906e-01    1.720993e+00   3.729195e-02
  4.653011e-01    1.687333e+00   3.682834e-02
  4.675115e-01    1.727909e+00   3.717037e-02
  4.697220e-01    1.702654e+00   3.680115e-02
  4.719324e-01    1.683164e+00   3.649524e-02
  4.741429e-01    1.761577e+00   3.723945e-02
  4.763533e-01    1.760586e+00   3.713357e-02
  4.785638e-01    1.737677e+00   3.679586e-02
  4.807743e-01    1.689077e+00   3.618541e-02
  4.829847e-01    1.660782e+00   3.579039e-02
  4.851952e-01    1.714267e+00   3.627011e-02
  4.874056e-01    1.720370e+00   3.624301e-02
  4.896161e-01    1.679562e+00   3.572179e-02
  4.918265e-01    1.695997e+00   3.580696e-02
  4.940370e-01    1.676606e+00   3.551380e-02
  4.962475e-01    1.670176e+00   3.535810e-02
  4.984579e-01    1.723611e+00   3.583072e-02
  5.006684e-01    1.732678e+00   3.583728e-02
  5.028788e-01    1.703472e+00   3.544784e-02
  5.050893e-01    1.677268e+00   3.508861e-02
  5.072997e-01    1.672446e+00   3.495350e-02
  5.095102e-01    1.652066e+00   3.465667e-02
  5.117206e-01    1.668927e+00   3.475025e-02
  5.139311e-01    1.680892e+00   3.479206e-02
  5.161416e-01    1.665705e+00   3.455267e-02
  5.183520e-01    1.685396e+00   3.467373e-02
  5.205625e-01    1.659437e+00   3.432505e-02
  5.227729e-01    1.648409e+00   3.413101e-02
  5.249834e-01    1.651384e+00   3.408251e-02
  5.271938e-01    1.637328e+00   3.385795e-02
  5.294043e-01    1.725360e+00   3.467600e-02
  5.316148e-01    1.794007e+00   3.527815e-02
  5.338252e-01    1.792702e+00   3.518472e-02
  5.360357e-01    1.752677e+00   3.471052e-02
  5.382461e-01    1.773512e+00   3.483727e-02
  5.404566e-01    1.742148e+00   3.444931e-02
  5.426670e-01    1.693199e+00   3.388536e-02
  5.448775e-01    1.747707e+00   3.434954e-02
  5.470879e-01    1.781779e+00   3.460543e-02
  5.492984e-01    1.743571e+00   3.415626e-02
  5.515089e-01    1.758829e+00   3.422929e-02
  5.537193e-01    1.738336e+00   3.395433e-02
  5.559298e-01    1.773562e+00   3.422140e-02
  5.581402e-01    1.802599e+00   3.442501e-02
  5.603507e-01    1.749042e+00   3.383598e-02
  5.625611e-01    1.764841e+00   3.391467e-02
  5.647716e-01    1.817365e+00   3.434093e-02
  5.669821e-01    1.812229e+00   3.421846e-02
  5.691925e-01    1.753727e+00   3.358936e-02
  5.714030e-01    1.718719e+00   3.318150e-02
  5.736134e-01    1.724108e+00   3.316279e-02
  5.758239e-01    1.710832e+00   3.296436e-02
  5.780343e-01    1.666985e+00   3.247039e-02
  5.802448e-01    1.616575e+00   3.190868e-02
  5.824552e-01    1.668809e+00   3.235209e-02
  5.846657e-01    1.639192e+00   3.199689e-02
  5.868762e-01    1.629446e+00   3.183519e-02
  5.890866e-01    1.618763e+00   3.166486e-02
  5.912971e-01    1.630058e+00   3.170932e-02
  5.935075e-01    1.697112e+00   3.228809e-02
  5.957180e-01    1.713044e+00   3.237274e-02
  5.979284e-01    1.650713e+00   3.171347e-02
  6.001389e-01    1.664761e+00   3.178324e-02
  6.023494e-01    1.684298e+00   3.190429e-02
  6.045598e-01    1.700175e+00   3.198906e-02
  6.067703e-01    1.664359e+00   3.158669e-02
  6.089807e-01    1.617722e+00   3.107839e-02
  6.111912e-01    1.633953e+00   3.117152e-02
  6.134016e-01    1.664907e+00   3.140265e-02
  6.156121e-01    1.663106e+00   3.132326e-02
  6.178226e-01    1.712285e+00   3.172008e-02
  6.200330e-01    1.706461e+00   3.160363e-02
  6.222435e-01    1.731348e+00   3.177020e-02
  6.244539e-01    1.757311e+00   3.194483e-02
  6.266644e-01    1.716260e+00   3.150797e-02
  6.288748e-01    1.703921e+00   3.133336e-02
  6.310853e-01    1.699879e+00   3.123544e-02
  6.332957e-01    1.708316e+00   3.125237e-02
  6.355062e-01    1.758913e+00   3.165022e-02
  6.377167e-01    1.751823e+00   3.152576e-02
  6.399271e-01    1.685130e+00   3.086060e-02
  6.421376e-01    1.692194e+00   3.086616e-02
  6.443480e-01    1.719514e+00   3.105517e-02
  6.465585e-01    1.668214e+00   3.053045e-02
  6.487689e-01    1.681945e+00   3.059796e-02
  6.509794e-01    1.656275e+00   3.030629e-02
  6.531899e-01    1.619050e+00   2.990744e-02
  6.554003e-01    1.611664e+00   2.978304e-02
  6.576108e-01    1.620493e+00   2.980890e-02
  6.598212e-01    1.589178e+00   2.946464e-02
  6.620317e-01    1.565760e+00   2.919254e-02
  6.642421e-01    1.580577e+00   2.927603e-02
  6.664526e-01    1.626718e+00   2.964560e-02
  6.686630e-01    1.573992e+00   2.910728e-02
  6.708735e-01    1.573721e+00   2.905137e-02
  6.730840e-01    1.587059e+00   2.912103e-02
  6.752944e-01    1.625375e+00   2.941688e-02
  6.775049e-01    1.654914e+00   2.962907e-02
  6.797153e-01    1.670324e+00   2.971281e-02
  6.819258e-01    1.630086e+00   2.929981e-02
  6.841362e-01    1.611578e+00   2.908060e-02
  6.863467e-01    1.603429e+00   2.895502e-02
  6.885572e-01    1.623392e+00   2.908252e-02
  6.907676e-01    1.602734e+00   2.884510e-02
  6.929781e-01    1.622552e+00   2.897131e-02
  6.951885e-01    1.583695e+00   2.857162e-02
  6.973990e-01    1.546602e+00   2.818510e-02
  6.996094e-01    1.576478e+00   2.840597e-02
  7.018199e-01    1.570323e+00   2.830070e-02
  7.040303e-01    1.595261e+00   2.847443e-02
  7.062408e-01    1.608552e+00   2.854270e-02
  7.084513e-01    1.604759e+00   2.845947e-02
  7.106617e-01    1.595727e+00   2.832994e-02
  7.128722e-01    1.606722e+00   2.837818e-02
  7.150826e-01    1.619769e+00   2.844408e-02
  7.172931e-01    1.615777e+00   2.836002e-02
  7.195035e-01    1.575568e+00   2.795679e-02
  7.217140e-01    1.578337e+00   2.803085e-02
  7.239245e-01    1.546542e+00   2.797179e-02
  7.261349e-01    1.534953e+00   2.797401e-02
  7.283454e-01    1.573202e+00   2.839278e-02
  7.305558e-01    1.540771e+00   2.815201e-02
  7.327663e-01    1.548998e+00   2.826920e-02
  7.349767e-01    1.564915e+00   2.843041e-02
  7.371872e-01    1.561955e+00   2.839237e-02
  7.393976e-01    1.561640e+00   2.837531e-02
  7.416081e-01    1.550802e+00   2.826062e-02
  7.438186e-01    1.570857e+00   2.829861e-02
  7.460290e-01    1.608322e+00   2.833674e-02
  7.482395e-01    1.539380e+00   2.755349e-02
  7.504499e-01    1.582306e+00   2.779842e-02
  7.526604e-01    1.546041e+00   2.736254e-02
  7.548708e-01    1.538699e+00   2.720910e-02
  7.570813e-01    1.559016e+00   2.733741e-02
  7.592918e-01    1.570201e+00   2.740017e-02
  7.615022e-01    1.566816e+00   2.733691e-02
  7.637127e-01    1.605820e+00   2.764198e-02
  7.659231e-01    1.543972e+00   2.707276e-02
  7.681336e-01    1.562725e+00   2.720517e-02
  7.703440e-01    1.619033e+00   2.765932e-02
  7.725545e-01    1.579409e+00   2.728783e-02
  7.747650e-01    1.645944e+00   2.781760e-02
  7.769754e-01    1.626307e+00   2.759764e-02
  7.791859e-01    1.600556e+00   2.732435e-02
  7.813963e-01    1.632254e+00   2.754012e-02
  7.836068e-01    1.666773e+00   2.777647e-02
  7.858172e-01    1.645462e+00   2.754676e-02
  7.880277e-01    1.611125e+00   2.720595e-02
  7.902381e-01    1.641462e+00   2.741099e-02
  7.924486e-01    1.638757e+00   2.733769e-02
  7.946591e-01    1.594540e+00   2.691812e-02
  7.968695e-01    1.634844e+00   2.720744e-02
  7.990800e-01    1.626527e+00   2.708964e-02
  8.012904e-01    1.629870e+00   2.707057e-02
  8.035009e-01    1.608980e+00   2.684866e-02
  8.057113e-01    1.654284e+00   2.717694e-02
  8.079218e-01    1.694041e+00   2.745411e-02
  8.101323e-01    1.720318e+00   2.761926e-02
  8.123427e-01    1.706288e+00   2.745951e-02
  8.145532e-01    1.660387e+00   2.704131e-02
  8.167636e-01    1.629359e+00   2.674239e-02
  8.189741e-01    1.660695e+00   2.695332e-02
  8.211845e-01    1.635102e+00   2.669999e-02
  8.233950e-01    1.634065e+00   2.664813e-02
  8.256054e-01    1.641258e+00   2.666244e-02
  8.278159e-01    1.657147e+00   2.674698e-02
  8.300264e-01    1.657011e+00   2.670254e-02
  8.322368e-01    1.667513e+00   2.674352e-02
  8.344473e-01    1.678317e+00   2.678613e-02
  8.366577e-01    1.703708e+00   2.694459e-02
  8.388682e-01    1.694358e+00   2.682758e-02
  8.410786e-01    1.833097e+00   2.785981e-02
  8.432891e-01    2.218325e+00   3.059900e-02
  8.454996e-01    2.425586e+00   3.194602e-02
  8.477100e-01    2.007357e+00   2.901563e-02
  8.499205e-01    1.693759e+00   2.661105e-02
  8.521309e-01    1.633585e+00   2.609329e-02
  8.543414e-01    1.645182e+00   2.614487e-02
  8.565518e-01    1.663557e+00   2.624958e-02
  8.587623e-01    1.620049e+00   2.586369e-02
  8.609727e-01    1.620867e+00   2.583011e-02
  8.631832e-01    1.587784e+00   2.552573e-02
  8.653937e-01    1.612158e+00   2.568136e-02
  8.676041e-01    1.641686e+00   2.587640e-02
  8.698146e-01    1.635622e+00   2.578908e-02
  8.720250e-01    1.639542e+00   2.578061e-02
  8.742355e-01    1.685300e+00   2.609810e-02
  8.764459e-01    1.657934e+00   2.584588e-02
  8.786564e-01    1.608727e+00   2.542147e-02
  8.808669e-01    1.639402e+00   2.562377e-02
  8.830773e-01    1.638423e+00   2.557756e-02
  8.852878e-01    1.652424e+00   2.564812e-02
  8.874982e-01    1.584506e+00   2.507904e-02
  8.897087e-01    1.592526e+00   2.510483e-02
  8.919191e-01    1.602413e+00   2.514488e-02
  8.941296e-01    1.599425e+00   2.508412e-02
  8.963401e-01    1.595178e+00   2.501446e-02
  8.985505e-01    1.582929e+00   2.488146e-02
  9.007610e-01    1.584811e+00   2.485967e-02
  9.029714e-01    1.593601e+00   2.489275e-02
  9.051819e-01    1.588611e+00   2.481667e-02
  9.073923e-01    1.598868e+00   2.486008e-02
  9.096028e-01    1.578327e+00   2.466521e-02
  9.118132e-01    1.602961e+00   2.482069e-02
  9.140237e-01    1.597452e+00   2.474141e-02
  9.162342e-01    1.589004e+00   2.464147e-02
  9.184446e-01    1.593553e+00   2.464101e-02
  9.206551e-01    1.621287e+00   2.481868e-02
  9.228655e-01    1.635911e+00   2.489474e-02
  9.250760e-01    1.599934e+00   2.458415e-02
  9.272864e-01    1.603992e+00   2.458101e-02
  9.294969e-01    1.633810e+00   2.477230e-02
  9.317074e-01    1.610435e+00   2.455969e-02
  9.339178e-01    1.629888e+00   2.467383e-02
  9.361283e-01    1.645783e+00   2.475730e-02
  9.383387e-01    1.631904e+00   2.461917e-02
  9.405492e-01    1.651273e+00   2.473025e-02
  9.427596e-01    1.618999e+00   2.445214e-02
  9.449701e-01    1.627933e+00   2.448617e-02
  9.471805e-01    1.634832e+00   2.450327e-02
  9.493910e-01    1.658813e+00   2.464843e-02
  9.516015e-01    1.666148e+00   2.466840e-02
  9.538119e-01    1.684296e+00   2.476838e-02
  9.560224e-01    1.719053e+00   2.498743e-02
  9.582328e-01    1.738171e+00   2.509227e-02
  9.604433e-01    1.770170e+00   2.528634e-02
  9.626537e-01    1.761177e+00   2.518810e-02
  9.648642e-01    1.801176e+00   2.543764e-02
  9.670747e-01    1.764566e+00   2.514309e-02
  9.692851e-01    1.760146e+00   2.507820e-02
  9.714956e-01    1.766601e+00   2.508870e-02
  9.737060e-01    1.838321e+00   2.555928e-02
  9.759165e-01    1.819204e+00   2.539021e-02
  9.781269e-01    1.809900e+00   2.529205e-02
  9.803374e-01    1.822017e+00   2.534148e-02
  9.825478e-01    1.837944e+00   2.541843e-02
  9.847583e-01    1.816685e+00   2.523670e-02
  9.869688e-01    1.775598e+00   2.491627e-02
  9.891792e-01    1.754578e+00   2.473544e-02
  9.913897e-01    1.742521e+00   2.461703e-02
  9.936001e-01    1.725787e+00   2.446648e-02
  9.958106e-01    1.692391e+00   2.419565e-02
  9.980210e-01    1.668347e+00   2.399201e-02
  1.000231e+00    1.653293e+00   2.401434e-02
  1.002442e+00    1.631866e+00   2.398499e-02
  1.004652e+00    1.633799e+00   2.406613e-02
  1.006863e+00    1.622088e+00   2.402949e-02
  1.009073e+00    1.603890e+00   2.393088e-02
  1.011284e+00    1.590412e+00   2.386199e-02
  1.013494e+00    1.552157e+00   2.359662e-02
  1.015705e+00    1.558623e+00   2.366808e-02
  1.017915e+00    1.554801e+00   2.365533e-02
  1.020126e+00    1.560680e+00   2.371602e-02
  1.022336e+00    1.536335e+00   2.354193e-02
  1.024547e+00    1.492135e+00   2.321181e-02
  1.026757e+00    1.516365e+00   2.340777e-02
  1.028967e+00    1.544499e+00   2.363163e-02
  1.031178e+00    1.489780e+00   2.321532e-02
  1.033388e+00    1.484495e+00   2.317906e-02
  1.035599e+00    1.497080e+00   2.328051e-02
  1.037809e+00    1.478440e+00   2.313834e-02
  1.040020e+00    1.452143e+00   2.293286e-02
  1.042230e+00    1.483670e+00   2.318238e-02
  1.044441e+00    1.483152e+00   2.317813e-02
  1.046651e+00    1.476090e+00   2.312305e-02
  1.048862e+00    1.460154e+00   2.299710e-02
  1.051072e+00    1.488418e+00   2.321627e-02
  1.053282e+00    1.464837e+00   2.303069e-02
  1.055493e+00    1.477200e+00   2.312339e-02
  1.057703e+00    1.451712e+00   2.292155e-02
  1.059914e+00    1.449166e+00   2.289723e-02
  1.062124e+00    1.461936e+00   2.299387e-02
  1.064335e+00    1.480577e+00   2.313658e-02
  1.066545e+00    1.465410e+00   2.301181e-02
  1.068756e+00    1.439508e+00   2.280385e-02
  1.070966e+00    1.435721e+00   2.276739e-02
  1.073177e+00    1.452492e+00   2.289393e-02
  1.075387e+00    1.491292e+00   2.319246e-02
  1.077597e+00    1.480599e+00   2.310189e-02
  1.079808e+00    1.453843e+00   2.275990e-02
  1.082018e+00    1.448286e+00   2.252827e-02
  1.084229e+00    1.415776e+00   2.216561e-02
  1.086439e+00    1.424994e+00   2.215113e-02
  1.088650e+00    1.405132e+00   2.192185e-02
  1.090860e+00    1.433151e+00   2.207219e-02
  1.093071e+00    1.418246e+00   2.189564e-02
  1.095281e+00    1.402942e+00   2.172079e-02
  1.097492e+00    1.419600e+00   2.179492e-02
  1.099702e+00    1.449052e+00   2.196832e-02
  1.101912e+00    1.429738e+00   2.177274e-02
  1.104123e+00    1.421790e+00   2.166415e-02
  1.106333e+00    1.411548e+00   2.154189e-02
  1.108544e+00    1.409203e+00   2.148005e-02
  1.110754e+00    1.421518e+00   2.153075e-02
  1.112965e+00    1.414204e+00   2.143488e-02
  1.115175e+00    1.417098e+00   2.141564e-02
  1.117386e+00    1.407884e+00   2.130677e-02
  1.119596e+00    1.400733e+00   2.121485e-02
  1.121807e+00    1.398852e+00   2.116195e-02
  1.124017e+00    1.407910e+00   2.119368e-02
  1.126228e+00    1.402826e+00   2.111967e-02
  1.128438e+00    1.378289e+00   2.089768e-02
  1.130648e+00    1.408303e+00   2.108954e-02
  1.132859e+00    1.496651e+00   2.170540e-02
  1.135069e+00    1.567690e+00   2.217774e-02
  1.137280e+00    1.476360e+00   2.148808e-02
  1.139490e+00    1.373969e+00   2.069661e-02
  1.141701e+00    1.366971e+00   2.061093e-02
  1.143911e+00    1.376019e+00   2.064723e-02
  1.146122e+00    1.377207e+00   2.062419e-02
  1.148332e+00    1.387089e+00   2.066607e-02
  1.150543e+00    1.386797e+00   2.063297e-02
  1.152753e+00    1.371134e+00   2.048534e-02
  1.154963e+00    1.366643e+00   2.042079e-02
  1.157174e+00    1.351735e+00   2.027919e-02
  1.159384e+00    1.357853e+00   2.029533e-02
  1.161595e+00    1.382845e+00   2.045126e-02
  1.163805e+00    1.388078e+00   2.046047e-02
  1.166016e+00    1.375718e+00   2.033965e-02
  1.168226e+00    1.376620e+00   2.031725e-02
  1.170437e+00    1.440847e+00   2.075638e-02
  1.172647e+00    1.472610e+00   2.095395e-02
  1.174858e+00    1.440886e+00   2.069814e-02
  1.177068e+00    1.412617e+00   2.046534e-02
  1.179278e+00    1.369784e+00   2.012400e-02
  1.181489e+00    1.388147e+00   2.023115e-02
  1.183699e+00    1.374242e+00   2.010184e-02
  1.185910e+00    1.389107e+00   2.018217e-02
  1.188120e+00    1.392509e+00   2.017984e-02
  1.190331e+00    1.368204e+00   1.997607e-02
  1.192541e+00    1.359888e+00   1.988782e-02
  1.194752e+00    1.413072e+00   2.024534e-02
  1.196962e+00    1.408561e+00   2.018673e-02
  1.199173e+00    1.449725e+00   2.045211e-02
  1.201383e+00    1.394792e+00   2.003330e-02
  1.203593e+00    1.368397e+00   1.981783e-02
  1.205804e+00    1.366675e+00   1.977929e-02
  1.208014e+00    1.355363e+00   1.967036e-02
  1.210225e+00    1.326598e+00   1.943539e-02
  1.212435e+00    1.331314e+00   1.944529e-02
  1.214646e+00    1.339228e+00   1.947700e-02
  1.216856e+00    1.354285e+00   1.956066e-02
  1.219067e+00    1.374005e+00   1.967788e-02
  1.221277e+00    1.390483e+00   1.977012e-02
  1.223488e+00    1.376010e+00   1.964097e-02
  1.225698e+00    1.413398e+00   1.987849e-02
  1.227909e+00    1.424071e+00   1.992243e-02
  1.230119e+00    1.395148e+00   1.968670e-02
  1.232329e+00    1.358062e+00   1.939247e-02
  1.234540e+00    1.339630e+00   1.923024e-02
  1.236750e+00    1.325635e+00   1.909953e-02
  1.238961e+00    1.356949e+00   1.929676e-02
  1.241171e+00    1.369831e+00   1.936378e-02
  1.243382e+00    1.354504e+00   1.923161e-02
  1.245592e+00    1.334224e+00   1.906313e-02
  1.247803e+00    1.363118e+00   1.924466e-02
  1.250013e+00    1.343840e+00   1.908461e-02
  1.252224e+00    1.349124e+00   1.909885e-02
  1.254434e+00    1.353468e+00   1.910580e-02
  1.256644e+00    1.363926e+00   1.915615e-02
  1.258855e+00    1.366158e+00   1.914840e-02
  1.261065e+00    1.396328e+00   1.933492e-02
  1.263276e+00    1.402259e+00   1.935256e-02
  1.265486e+00    1.355825e+00   1.900653e-02
  1.267697e+00    1.359407e+00   1.900850e-02
  1.269907e+00    1.345485e+00   1.888828e-02
  1.272118e+00    1.361676e+00   1.897889e-02
  1.274328e+00    1.370098e+00   1.901460e-02
  1.276539e+00    1.378097e+00   1.904700e-02
  1.278749e+00    1.387271e+00   1.908771e-02
  1.280959e+00    1.372704e+00   1.896451e-02
  1.283170e+00    1.337359e+00   1.869643e-02
  1.285380e+00    1.337944e+00   1.867818e-02
  1.287591e+00    1.339921e+00   1.867001e-02
  1.289801e+00    1.345378e+00   1.868680e-02
  1.292012e+00    1.372527e+00   1.885718e-02
  1.294222e+00    1.326458e+00   1.852192e-02
  1.296433e+00    1.343350e+00   1.862390e-02
  1.298643e+00    1.338232e+00   1.857200e-02
  1.300854e+00    1.345501e+00   1.860597e-02
  1.303064e+00    1.345768e+00   1.858864e-02
  1.305274e+00    1.358468e+00   1.865463e-02
  1.307485e+00    1.375522e+00   1.874960e-02
  1.309695e+00    1.398158e+00   1.888063e-02
  1.311906e+00    1.370486e+00   1.867098e-02
  1.314116e+00    1.373619e+00   1.867134e-02
  1.316327e+00    1.357966e+00   1.854290e-02
  1.318537e+00    1.338222e+00   1.838581e-02
  1.320748e+00    1.334894e+00   1.834150e-02
  1.322958e+00    1.359121e+00   1.848660e-02
  1.325169e+00    1.346460e+00   1.837931e-02
  1.327379e+00    1.355485e+00   1.841893e-02
  1.329589e+00    1.355135e+00   1.839546e-02
  1.331800e+00    1.375028e+00   1.850907e-02
  1.334010e+00    1.397846e+00   1.864104e-02
  1.336221e+00    1.368286e+00   1.842097e-02
  1.338431e+00    1.355245e+00   1.831208e-02
  1.340642e+00    1.346782e+00   1.831889e-02
  1.342852e+00    1.320384e+00   1.823803e-02
  1.345063e+00    1.329158e+00   1.834763e-02
  1.347273e+00    1.340621e+00   1.846170e-02
  1.349484e+00    1.345787e+00   1.852487e-02
  1.351694e+00    1.319927e+00   1.836848e-02
  1.353905e+00    1.335479e+00   1.849428e-02
  1.356115e+00    1.315513e+00   1.837035e-02
  1.358325e+00    1.335559e+00   1.852305e-02
  1.360536e+00    1.341071e+00   1.857280e-02
  1.362746e+00    1.341156e+00   1.858293e-02
  1.364957e+00    1.339296e+00   1.857768e-02
  1.367167e+00    1.311797e+00   1.839302e-02
  1.369378e+00    1.315079e+00   1.842196e-02
  1.371588e+00    1.292183e+00   1.826594e-02
  1.373799e+00    1.325945e+00   1.850664e-02
  1.376009e+00    1.320842e+00   1.847441e-02
  1.378220e+00    1.306804e+00   1.837845e-02
  1.380430e+00    1.320990e+00   1.848064e-02
  1.382640e+00    1.289034e+00   1.825665e-02
  1.384851e+00    1.286025e+00   1.823617e-02
  1.387061e+00    1.264915e+00   1.808618e-02
  1.389272e+00    1.237388e+00   1.788850e-02
  1.391482e+00    1.277625e+00   1.817634e-02
  1.393693e+00    1.284819e+00   1.822657e-02
  1.395903e+00    1.257837e+00   1.803271e-02
  1.398114e+00    1.248992e+00   1.796782e-02
  1.400324e+00    1.259207e+00   1.803903e-02
  1.402535e+00    1.245581e+00   1.793889e-02
  1.404745e+00    1.250271e+00   1.797028e-02
  1.406955e+00    1.264049e+00   1.806634e-02
  1.409166e+00    1.296570e+00   1.829392e-02
  1.411376e+00    1.303996e+00   1.834310e-02
  1.413587e+00    1.287214e+00   1.822083e-02
  1.415797e+00    1.294191e+00   1.826658e-02
  1.418008e+00    1.278704e+00   1.811493e-02
  1.420218e+00    1.261676e+00   1.784470e-02
  1.422429e+00    1.258885e+00   1.773998e-02
  1.424639e+00    1.283204e+00   1.784550e-02
  1.426850e+00    1.253031e+00   1.758011e-02
  1.429060e+00    1.264487e+00   1.761140e-02
  1.431270e+00    1.288428e+00   1.773272e-02
  1.433481e+00    1.261939e+00   1.750867e-02
  1.435691e+00    1.246732e+00   1.736477e-02
  1.437902e+00    1.257282e+00   1.740181e-02
  1.440112e+00    1.268968e+00   1.744715e-02
  1.442323e+00    1.291880e+00   1.757065e-02
  1.444533e+00    1.254718e+00   1.728374e-02
  1.446744e+00    1.243050e+00   1.717238e-02
  1.448954e+00    1.252972e+00   1.721078e-02
  1.451165e+00    1.259868e+00   1.722846e-02
  1.453375e+00    1.241612e+00   1.707544e-02
  1.455586e+00    1.261228e+00   1.718171e-02
  1.457796e+00    1.281694e+00   1.729294e-02
  1.460006e+00    1.256493e+00   1.709497e-02
  1.462217e+00    1.287444e+00   1.727785e-02
  1.464427e+00    1.259916e+00   1.706662e-02
  1.466638e+00    1.277095e+00   1.715717e-02
  1.468848e+00    1.276003e+00   1.712443e-02
  1.471059e+00    1.269616e+00   1.705643e-02
  1.473269e+00    1.281670e+00   1.711272e-02
  1.475480e+00    1.267861e+00   1.699651e-02
  1.477690e+00    1.250196e+00   1.685403e-02
  1.479901e+00    1.247417e+00   1.681166e-02
  1.482111e+00    1.232959e+00   1.669091e-02
  1.484321e+00    1.260749e+00   1.685491e-02
  1.486532e+00    1.318805e+00   1.721582e-02
  1.488742e+00    1.344889e+00   1.736190e-02
  1.490953e+00    1.318185e+00   1.716560e-02
  1.493163e+00    1.286185e+00   1.693349e-02
  1.495374e+00    1.259949e+00   1.673841e-02
  1.497584e+00    1.295929e+00   1.695377e-02
  1.499795e+00    1.282311e+00   1.684265e-02
  1.502005e+00    1.257246e+00   1.665555e-02
  1.504216e+00    1.260485e+00   1.665595e-02
  1.506426e+00    1.265176e+00   1.666603e-02
  1.508636e+00    1.243218e+00   1.650046e-02
  1.510847e+00    1.239144e+00   1.645171e-02
  1.513057e+00    1.261490e+00   1.657426e-02
  1.515268e+00    1.254023e+00   1.649943e-02
  1.517478e+00    1.217815e+00   1.623471e-02
  1.519689e+00    1.237650e+00   1.634155e-02
  1.521899e+00    1.256390e+00   1.644170e-02
  1.524110e+00    1.263090e+00   1.646506e-02
  1.526320e+00    1.268662e+00   1.648163e-02
  1.528531e+00    1.236951e+00   1.625469e-02
  1.530741e+00    1.239661e+00   1.625340e-02
  1.532951e+00    1.254629e+00   1.633162e-02
  1.535162e+00    1.242080e+00   1.633607e-02
  1.537372e+00    1.256245e+00   1.649607e-02
  1.539583e+00    1.226748e+00   1.633517e-02
  1.541793e+00    1.239451e+00   1.642646e-02
  1.544004e+00    1.213754e+00   1.625554e-02
  1.546214e+00    1.206021e+00   1.620220e-02
  1.548425e+00    1.214094e+00   1.625657e-02
  1.550635e+00    1.240703e+00   1.644343e-02
  1.552846e+00    1.232646e+00   1.639957e-02
  1.555056e+00    1.221438e+00   1.628374e-02
  1.557266e+00    1.236341e+00   1.627270e-02
  1.559477e+00    1.243233e+00   1.625888e-02
  1.561687e+00    1.245552e+00   1.624339e-02
  1.563898e+00    1.215992e+00   1.603251e-02
  1.566108e+00    1.222867e+00   1.606196e-02
  1.568319e+00    1.210652e+00   1.596612e-02
  1.570529e+00    1.230790e+00   1.607336e-02
  1.572740e+00    1.222189e+00   1.598975e-02
  1.574950e+00    1.217576e+00   1.593350e-02
  1.577161e+00    1.246740e+00   1.609768e-02
  1.579371e+00    1.284160e+00   1.631346e-02
  1.581582e+00    1.246278e+00   1.605127e-02
  1.583792e+00    1.223518e+00   1.588614e-02
  1.586002e+00    1.247178e+00   1.602137e-02
  1.588213e+00    1.223920e+00   1.585419e-02
  1.590423e+00    1.212900e+00   1.576282e-02
  1.592634e+00    1.226472e+00   1.582930e-02
  1.594844e+00    1.231220e+00   1.583861e-02
  1.597055e+00    1.229773e+00   1.580891e-02
  1.599265e+00    1.251375e+00   1.592636e-02
  1.601476e+00    1.258483e+00   1.595107e-02
  1.603686e+00    1.227677e+00   1.573499e-02
  1.605897e+00    1.233873e+00   1.575450e-02
  1.608107e+00    1.220256e+00   1.564792e-02
  1.610317e+00    1.232932e+00   1.570969e-02
  1.612528e+00    1.243711e+00   1.575899e-02
  1.614738e+00    1.202289e+00   1.547562e-02
  1.616949e+00    1.195678e+00   1.541426e-02
  1.619159e+00    1.194609e+00   1.538888e-02
  1.621370e+00    1.186244e+00   1.531668e-02
  1.623580e+00    1.195102e+00   1.535559e-02
  1.625791e+00    1.170210e+00   1.517686e-02
  1.628001e+00    1.163494e+00   1.511528e-02
  1.630212e+00    1.166868e+00   1.511962e-02
  1.632422e+00    1.165672e+00   1.509414e-02
  1.634632e+00    1.152233e+00   1.498977e-02
  1.636843e+00    1.152556e+00   1.497454e-02
  1.639053e+00    1.140084e+00   1.487624e-02
  1.641264e+00    1.147727e+00   1.490910e-02
  1.643474e+00    1.140076e+00   1.484209e-02
  1.645685e+00    1.149529e+00   1.488691e-02
  1.647895e+00    1.132938e+00   1.476265e-02
  1.650106e+00    1.111822e+00   1.460772e-02
  1.652316e+00    1.113864e+00   1.460489e-02
  1.654527e+00    1.095375e+00   1.446685e-02
  1.656737e+00    1.103228e+00   1.450229e-02
  1.658947e+00    1.108527e+00   1.452097e-02
  1.661158e+00    1.097829e+00   1.443468e-02
  1.663368e+00    1.104073e+00   1.445978e-02
  1.665579e+00    1.096151e+00   1.439183e-02
  1.667789e+00    1.093629e+00   1.435919e-02
  1.670000e+00    1.085489e+00   1.429037e-02
  1.672210e+00    1.080603e+00   1.424249e-02
  1.674421e+00    1.078071e+00   1.421066e-02
  1.676631e+00    1.074876e+00   1.417389e-02
  1.678842e+00    1.041607e+00   1.393748e-02
  1.681052e+00    1.046880e+00   1.395764e-02
  1.683263e+00    1.057195e+00   1.401133e-02
  1.685473e+00    1.077345e+00   1.412913e-02
  1.687683e+00    1.087049e+00   1.417718e-02
  1.689894e+00    1.057115e+00   1.396503e-02
  1.692104e+00    1.045124e+00   1.387089e-02
  1.694315e+00    1.042232e+00   1.383738e-02
  1.696525e+00    1.048332e+00   1.386283e-02
  1.698736e+00    1.032659e+00   1.374421e-02
  1.700946e+00    1.027605e+00   1.369564e-02
  1.703157e+00    1.013681e+00   1.358818e-02
  1.705367e+00    1.051488e+00   1.382477e-02
  1.707578e+00    1.032026e+00   1.368180e-02
  1.709788e+00    1.035000e+00   1.368744e-02
  1.711998e+00    1.022164e+00   1.358745e-02
  1.714209e+00    1.020264e+00   1.356049e-02
  1.716419e+00    1.035633e+00   1.364798e-02
  1.718630e+00    1.007589e+00   1.344783e-02
  1.720840e+00    1.007301e+00   1.343185e-02
  1.723051e+00    1.037088e+00   1.361505e-02
  1.725261e+00    1.028799e+00   1.354582e-02
  1.727472e+00    1.008545e+00   1.339771e-02
  1.729682e+00    9.929690e-01   1.328054e-02
  1.731893e+00    9.931241e-01   1.326779e-02
  1.734103e+00    9.764355e-01   1.314229e-02
  1.736313e+00    9.940056e-01   1.324606e-02
  1.738524e+00    9.980865e-01   1.325943e-02
  1.740734e+00    9.905554e-01   1.319567e-02
  1.742945e+00    9.848943e-01   1.314453e-02
  1.745155e+00    9.930961e-01   1.318569e-02
  1.747366e+00    9.881923e-01   1.313930e-02
  1.749576e+00    9.840530e-01   1.309808e-02
  1.751787e+00    9.772100e-01   1.303917e-02
  1.753997e+00    9.679826e-01   1.296415e-02
  1.756208e+00    9.777235e-01   1.301600e-02
  1.758418e+00    9.615514e-01   1.289487e-02
  1.760628e+00    9.513609e-01   1.281312e-02
  1.762839e+00    9.480051e-01   1.277740e-02
  1.765049e+00    9.465668e-01   1.275470e-02
  1.767260e+00    9.325416e-01   1.264722e-02
  1.769470e+00    9.511942e-01   1.276012e-02
  1.771681e+00    9.710332e-01   1.287922e-02
  1.773891e+00    9.719976e-01   1.287243e-02
  1.776102e+00    9.537973e-01   1.273844e-02
  1.778312e+00    9.313153e-01   1.257476e-02
  1.780523e+00    9.352135e-01   1.258835e-02
  1.782733e+00    9.797491e-01   1.287164e-02
  1.784944e+00    1.033220e+00   1.320464e-02
  1.787154e+00    1.098603e+00   1.360248e-02
  1.789364e+00    1.013182e+00   1.304998e-02
  1.791575e+00    9.467432e-01   1.260214e-02
  1.793785e+00    9.370141e-01   1.252471e-02
  1.795996e+00    9.352776e-01   1.250050e-02
  1.798206e+00    9.222760e-01   1.240076e-02
  1.800417e+00    9.150438e-01   1.233937e-02
  1.802627e+00    9.119712e-01   1.230672e-02
  1.804838e+00    9.269040e-01   1.239485e-02
  1.807048e+00    9.218403e-01   1.234802e-02
  1.809259e+00    9.172760e-01   1.230376e-02
  1.811469e+00    8.804581e-01   1.203951e-02
  1.813679e+00    9.060896e-01   1.219850e-02
  1.815890e+00    8.904211e-01   1.207787e-02
  1.818100e+00    8.939667e-01   1.208684e-02
  1.820311e+00    8.834559e-01   1.200088e-02
  1.822521e+00    8.881636e-01   1.201797e-02
  1.824732e+00    8.788117e-01   1.193983e-02
  1.826942e+00    8.807067e-01   1.194039e-02
  1.829153e+00    8.727538e-01   1.187476e-02
  1.831363e+00    8.766488e-01   1.188923e-02
  1.833574e+00    8.781139e-01   1.188751e-02
  1.835784e+00    8.777010e-01   1.187331e-02
  1.837994e+00    8.845726e-01   1.190791e-02
  1.840205e+00    8.971743e-01   1.198115e-02
  1.842415e+00    8.542185e-01   1.167916e-02
  1.844626e+00    8.655441e-01   1.174479e-02
  1.846836e+00    8.750099e-01   1.179736e-02
  1.849047e+00    8.732313e-01   1.177372e-02
  1.851257e+00    8.604936e-01   1.167798e-02
  1.853468e+00    8.499951e-01   1.159778e-02
  1.855678e+00    8.546994e-01   1.162096e-02
  1.857889e+00    8.704168e-01   1.171878e-02
  1.860099e+00    8.823645e-01   1.179018e-02
  1.862309e+00    8.582216e-01   1.161926e-02
  1.864520e+00    8.516138e-01   1.156587e-02
  1.866730e+00    8.507879e-01   1.155091e-02
  1.868941e+00    8.416511e-01   1.147783e-02
  1.871151e+00    8.518301e-01   1.153564e-02
  1.873362e+00    8.507934e-01   1.151727e-02
  1.875572e+00    8.432961e-01   1.145552e-02
  1.877783e+00    8.382368e-01   1.140974e-02
  1.879993e+00    8.474835e-01   1.146133e-02
  1.882204e+00    8.527607e-01   1.148601e-02
  1.884414e+00    8.410043e-01   1.139552e-02
  1.886624e+00    8.334721e-01   1.133336e-02
  1.888835e+00    8.464814e-01   1.141047e-02
  1.891045e+00    8.339996e-01   1.131519e-02
  1.893256e+00    8.270173e-01   1.125671e-02
  1.895466e+00    8.358642e-01   1.130558e-02
  1.897677e+00    8.307951e-01   1.126037e-02
  1.899887e+00    8.419736e-01   1.132484e-02
  1.902098e+00    8.566836e-01   1.141231e-02
  1.904308e+00    9.104779e-01   1.175410e-02
  1.906519e+00    8.809936e-01   1.155109e-02
  1.908729e+00    8.313728e-01   1.121043e-02
  1.910940e+00    8.191832e-01   1.111687e-02
  1.913150e+00    8.348119e-01   1.121176e-02
  1.915360e+00    8.059580e-01   1.100582e-02
  1.917571e+00    8.079033e-01   1.100829e-02
  1.919781e+00    8.233019e-01   1.110202e-02
  1.921992e+00    8.035871e-01   1.095779e-02
  1.924202e+00    8.003368e-01   1.092495e-02
  1.926413e+00    8.024017e-01   1.092880e-02
  1.928623e+00    8.139824e-01   1.099687e-02
  1.930834e+00    8.052774e-01   1.092752e-02
  1.933044e+00    7.984320e-01   1.087039e-02
  1.935255e+00    8.031905e-01   1.089246e-02
  1.937465e+00    7.845834e-01   1.075530e-02
  1.939675e+00    7.887041e-01   1.077278e-02
  1.941886e+00    7.904075e-01   1.077422e-02
  1.944096e+00    7.926374e-01   1.077929e-02
  1.946307e+00    8.012810e-01   1.082757e-02
  1.948517e+00    7.941943e-01   1.076919e-02
  1.950728e+00    7.821333e-01   1.067695e-02
  1.952938e+00    7.858880e-01   1.069254e-02
  1.955149e+00    7.970164e-01   1.075773e-02
  1.957359e+00    7.983087e-01   1.075640e-02
  1.959570e+00    7.905922e-01   1.069344e-02
  1.961780e+00    7.885375e-01   1.066966e-02
  1.963990e+00    7.907690e-01   1.067462e-02
  1.966201e+00    8.009801e-01   1.073319e-02
  1.968411e+00    7.971948e-01   1.069762e-02
  1.970622e+00    7.780678e-01   1.055847e-02
  1.972832e+00    7.868011e-01   1.060759e-02
  1.975043e+00    7.847959e-01   1.058403e-02
  1.977253e+00    7.882744e-01   1.059750e-02
  1.979464e+00    8.013299e-01   1.067472e-02
  1.981674e+00    7.926003e-01   1.060613e-02
  1.983885e+00    7.889307e-01   1.057147e-02
  1.986095e+00    7.821939e-01   1.051652e-02
  1.988305e+00    7.959574e-01   1.059863e-02
  1.990516e+00    7.935677e-01   1.057272e-02
  1.992726e+00    7.640600e-01   1.036470e-02
  1.994937e+00    7.625680e-01   1.034453e-02
  1.997147e+00    7.656490e-01   1.035574e-02
  1.999358e+00    7.701657e-01   1.037644e-02
  2.001568e+00    7.558220e-01   1.026865e-02
  2.003779e+00    7.544548e-01   1.024759e-02
  2.005989e+00    7.711956e-01   1.034862e-02
  2.008200e+00    7.762038e-01   1.037063e-02
  2.010410e+00    7.675151e-01   1.030067e-02
  2.012621e+00    7.717477e-01   1.031732e-02
  2.014831e+00    7.422078e-01   1.010664e-02
  2.017041e+00    7.516819e-01   1.016066e-02
  2.019252e+00    7.526764e-01   1.015751e-02
  2.021462e+00    7.545472e-01   1.016067e-02
  2.023673e+00    7.579130e-01   1.017397e-02
  2.025883e+00    7.591496e-01   1.017278e-02
  2.028094e+00    7.541480e-01   1.012961e-02
  2.030304e+00    7.778445e-01   1.027789e-02
  2.032515e+00    7.655094e-01   1.018676e-02
  2.034725e+00    7.553981e-01   1.010982e-02
  2.036936e+00    7.684569e-01   1.018744e-02
  2.039146e+00    7.559592e-01   1.009469e-02
  2.041356e+00    7.673713e-01   1.016089e-02
  2.043567e+00    7.624617e-01   1.011898e-02
  2.045777e+00    7.535106e-01   1.005020e-02
  2.047988e+00    7.579821e-01   1.007055e-02
  2.050198e+00    7.450703e-01   9.976055e-03
  2.052409e+00    7.406887e-01   9.939065e-03
  2.054619e+00    7.421207e-01   9.941358e-03
  2.056830e+00    7.374051e-01   9.902591e-03
  2.059040e+00    7.476573e-01   9.963705e-03
  2.061251e+00    7.536842e-01   9.996516e-03
  2.063461e+00    7.588792e-01   1.002326e-02
  2.065671e+00    7.519946e-01   9.968978e-03
  2.067882e+00    7.358278e-01   9.852287e-03
  2.070092e+00    7.530217e-01   9.957498e-03
  2.072303e+00    7.350845e-01   9.829143e-03
  2.074513e+00    7.280989e-01   9.773095e-03
  2.076724e+00    7.399580e-01   9.842930e-03
  2.078934e+00    7.371510e-01   9.815285e-03
  2.081145e+00    7.220966e-01   9.705590e-03
  2.083355e+00    7.295345e-01   9.746336e-03
  2.085566e+00    7.301730e-01   9.741763e-03
  2.087776e+00    7.366633e-01   9.775480e-03
  2.089986e+00    7.339403e-01   9.748644e-03
  2.092197e+00    7.182539e-01   9.635051e-03
  2.094407e+00    7.219704e-01   9.650815e-03
  2.096618e+00    7.084526e-01   9.551312e-03
  2.098828e+00    7.227433e-01   9.637912e-03
  2.101039e+00    7.227492e-01   9.629047e-03
  2.103249e+00    7.035430e-01   9.491748e-03
  2.105460e+00    6.961519e-01   9.432937e-03
  2.107670e+00    7.182866e-01   9.573056e-03
  2.109881e+00    7.285325e-01   9.631922e-03
  2.112091e+00    7.114745e-01   9.509610e-03
  2.114301e+00    7.091118e-01   9.485113e-03
  2.116512e+00    7.022651e-01   9.430529e-03
  2.118722e+00    6.943219e-01   9.368418e-03
  2.120933e+00    7.027539e-01   9.416355e-03
  2.123143e+00    6.947917e-01   9.354109e-03
  2.125354e+00    6.991740e-01   9.375149e-03
  2.127564e+00    6.978468e-01   9.357629e-03
  2.129775e+00    6.959447e-01   9.336255e-03
  2.131985e+00    7.036759e-01   9.378981e-03
  2.134196e+00    7.168357e-01   9.457658e-03
  2.136406e+00    7.112484e-01   9.412012e-03
  2.138617e+00    6.890059e-01   9.255337e-03
  2.140827e+00    6.931355e-01   9.298910e-03
  2.143037e+00    7.018096e-01   9.402213e-03
  2.145248e+00    7.062201e-01   9.453729e-03
  2.147458e+00    7.026584e-01   9.444978e-03
  2.149669e+00    7.072870e-01   9.487916e-03
  2.151879e+00    6.938025e-01   9.406235e-03
  2.154090e+00    6.803495e-01   9.321759e-03
  2.156300e+00    7.047433e-01   9.494041e-03
  2.158511e+00    6.887211e-01   9.390770e-03
  2.160721e+00    6.954331e-01   9.441214e-03
  2.162932e+00    6.959547e-01   9.448480e-03
  2.165142e+00    6.904231e-01   9.413890e-03
  2.167352e+00    6.995652e-01   9.478900e-03
  2.169563e+00    6.822226e-01   9.362646e-03
  2.171773e+00    6.581776e-01   9.198523e-03
  2.173984e+00    6.862923e-01   9.394327e-03
  2.176194e+00    6.910768e-01   9.428233e-03
  2.178405e+00    6.808324e-01   9.358781e-03
  2.180615e+00    6.974751e-01   9.473159e-03
  2.182826e+00    6.821482e-01   9.369178e-03
  2.185036e+00    6.700159e-01   9.285533e-03
  2.187247e+00    6.767936e-01   9.332329e-03
  2.189457e+00    6.711918e-01   9.293218e-03
  2.191667e+00    6.708818e-01   9.290903e-03
  2.193878e+00    6.745067e-01   9.315402e-03
  2.196088e+00    6.715719e-01   9.294464e-03
  2.198299e+00    6.533394e-01   9.166341e-03
  2.200509e+00    6.589658e-01   9.204679e-03
  2.202720e+00    6.815959e-01   9.360257e-03
  2.204930e+00    6.708386e-01   9.284870e-03
  2.207141e+00    6.737917e-01   9.304175e-03
  2.209351e+00    6.756301e-01   9.314978e-03
  2.211562e+00    6.697111e-01   9.272476e-03
  2.213772e+00    6.738836e-01   9.245961e-03
  2.215982e+00    6.743533e-01   9.205023e-03
  2.218193e+00    6.746070e-01   9.177147e-03
  2.220403e+00    6.642180e-01   9.081818e-03
  2.222614e+00    6.768901e-01   9.147031e-03
  2.224824e+00    6.771449e-01   9.129331e-03
  2.227035e+00    6.640826e-01   9.023516e-03
  2.229245e+00    6.710301e-01   9.053623e-03
  2.231456e+00    7.029055e-01   9.250179e-03
  2.233666e+00    6.905274e-01   9.153086e-03
  2.235877e+00    6.905963e-01   9.139038e-03
  2.238087e+00    6.825106e-01   9.071792e-03
  2.240298e+00    6.628137e-01   8.926237e-03
  2.242508e+00    6.626114e-01   8.909784e-03
  2.244718e+00    6.776419e-01   8.994371e-03
  2.246929e+00    6.699841e-01   8.928976e-03
  2.249139e+00    6.605893e-01   8.853832e-03
  2.251350e+00    6.682041e-01   8.892989e-03
  2.253560e+00    6.637287e-01   8.851627e-03
  2.255771e+00    6.578243e-01   8.800825e-03
  2.257981e+00    6.594171e-01   8.800339e-03
  2.260192e+00    6.639684e-01   8.819542e-03
  2.262402e+00    6.649629e-01   8.815304e-03
  2.264613e+00    6.635033e-01   8.794772e-03
  2.266823e+00    6.730065e-01   8.847068e-03
  2.269033e+00    6.667444e-01   8.795411e-03
  2.271244e+00    6.480235e-01   8.660758e-03
  2.273454e+00    6.672535e-01   8.778031e-03
  2.275665e+00    6.548125e-01   8.685566e-03
  2.277875e+00    6.695662e-01   8.772853e-03
  2.280086e+00    6.769241e-01   8.810797e-03
  2.282296e+00    6.491946e-01   8.619092e-03
  2.284507e+00    6.579519e-01   8.666914e-03
  2.286717e+00    6.566796e-01   8.649059e-03
  2.288928e+00    6.459421e-01   8.568302e-03
  2.291138e+00    6.567236e-01   8.630045e-03
  2.293348e+00    6.587615e-01   8.633901e-03
  2.295559e+00    6.460038e-01   8.540632e-03
  2.297769e+00    6.379411e-01   8.478045e-03
  2.299980e+00    6.393496e-01   8.478150e-03
  2.302190e+00    6.429452e-01   8.492909e-03
  2.304401e+00    6.532048e-01   8.551067e-03
  2.306611e+00    6.528444e-01   8.539522e-03
  2.308822e+00    6.374767e-01   8.430103e-03
  2.311032e+00    6.460696e-01   8.480316e-03
  2.313243e+00    6.351548e-01   8.402160e-03
  2.315453e+00    6.489843e-01   8.485569e-03
  2.317663e+00    6.595361e-01   8.545068e-03
  2.319874e+00    6.335374e-01   8.366326e-03
  2.322084e+00    6.265234e-01   8.311045e-03
  2.324295e+00    6.322826e-01   8.341004e-03
  2.326505e+00    6.354788e-01   8.353069e-03
  2.328716e+00    6.434577e-01   8.396811e-03
  2.330926e+00    6.368514e-01   8.344830e-03
  2.333137e+00    6.370689e-01   8.337913e-03
  2.335347e+00    6.427450e-01   8.366111e-03
  2.337558e+00    6.221686e-01   8.222985e-03
  2.339768e+00    6.392739e-01   8.326675e-03
  2.341979e+00    6.358250e-01   8.295855e-03
  2.344189e+00    6.408455e-01   8.320117e-03
  2.346399e+00    6.415163e-01   8.315945e-03
  2.348610e+00    6.293799e-01   8.228498e-03
  2.350820e+00    6.337444e-01   8.248781e-03
  2.353031e+00    6.400648e-01   8.281515e-03
  2.355241e+00    6.237335e-01   8.167181e-03
  2.357452e+00    6.193934e-01   8.130375e-03
  2.359662e+00    6.419315e-01   8.268681e-03
  2.361873e+00    6.320508e-01   8.196579e-03
  2.364083e+00    6.209005e-01   8.115995e-03
  2.366294e+00    6.428850e-01   8.250233e-03
  2.368504e+00    6.293035e-01   8.154540e-03
  2.370714e+00    6.248176e-01   8.117361e-03
  2.372925e+00    6.133957e-01   8.034859e-03
  2.375135e+00    6.041679e-01   7.966259e-03
  2.377346e+00    6.122186e-01   8.011276e-03
  2.379556e+00    6.199386e-01   8.053767e-03
  2.381767e+00    6.125317e-01   7.997691e-03
  2.383977e+00    6.124614e-01   7.989367e-03
  2.386188e+00    6.053019e-01   7.934701e-03
  2.388398e+00    6.145979e-01   7.987459e-03
  2.390609e+00    6.158044e-01   7.987587e-03
  2.392819e+00    6.123740e-01   7.957554e-03
  2.395029e+00    6.125528e-01   7.951078e-03
  2.397240e+00    6.104764e-01   7.929740e-03
  2.399450e+00    6.222742e-01   7.998135e-03
  2.401661e+00    6.117660e-01   7.922649e-03
  2.403871e+00    6.171641e-01   7.949719e-03
  2.406082e+00    6.199261e-01   7.960001e-03
  2.408292e+00    5.992974e-01   7.818709e-03
  2.410503e+00    6.118929e-01   7.892938e-03
  2.412713e+00    5.957989e-01   7.780726e-03
  2.414924e+00    5.910427e-01   7.742219e-03
  2.417134e+00    5.822571e-01   7.676964e-03
  2.419344e+00    5.807709e-01   7.659888e-03
  2.421555e+00    5.935360e-01   7.736146e-03
  2.423765e+00    5.935604e-01   7.728956e-03
  2.425976e+00    5.989078e-01   7.755887e-03
  2.428186e+00    5.944242e-01   7.719610e-03
  2.430397e+00    5.936156e-01   7.706904e-03
  2.432607e+00    5.915758e-01   7.686390e-03
  2.434818e+00    5.832918e-01   7.624937e-03
  2.437028e+00    5.866525e-01   7.639743e-03
  2.439239e+00    5.950949e-01   7.686871e-03
  2.441449e+00    5.782701e-01   7.570305e-03
  2.443659e+00    5.815279e-01   7.584317e-03
  2.445870e+00    5.803027e-01   7.588478e-03
  2.448080e+00    5.650230e-01   7.522160e-03
  2.450291e+00    5.766415e-01   7.615704e-03
  2.452501e+00    5.860391e-01   7.688765e-03
  2.454712e+00    5.838533e-01   7.682937e-03
  2.456922e+00    5.620046e-01   7.544378e-03
  2.459133e+00    5.496297e-01   7.466204e-03
  2.461343e+00    5.434237e-01   7.428179e-03
  2.463554e+00    5.536522e-01   7.501199e-03
  2.465764e+00    5.497876e-01   7.478076e-03
  2.467975e+00    5.626301e-01   7.567199e-03
  2.470185e+00    5.517744e-01   7.496087e-03
  2.472395e+00    5.472661e-01   7.466619e-03
  2.474606e+00    5.418314e-01   7.430986e-03
  2.476816e+00    5.440098e-01   7.446649e-03
  2.479027e+00    5.381807e-01   7.407484e-03
  2.481237e+00    5.461329e-01   7.462274e-03
  2.483448e+00    5.483019e-01   7.477396e-03
  2.485658e+00    5.362396e-01   7.394543e-03
  2.487869e+00    5.453037e-01   7.456810e-03
  2.490079e+00    5.393702e-01   7.415626e-03
  2.492290e+00    5.343441e-01   7.380541e-03
  2.494500e+00    5.351523e-01   7.385422e-03
  2.496710e+00    5.152591e-01   7.246152e-03
  2.498921e+00    5.239363e-01   7.305917e-03
  2.501131e+00    5.288448e-01   7.339137e-03
  2.503342e+00    5.202232e-01   7.277804e-03
  2.505552e+00    5.256010e-01   7.314202e-03
  2.507763e+00    5.367296e-01   7.389803e-03
  2.509973e+00    5.332087e-01   7.364135e-03
  2.512184e+00    5.193683e-01   7.266330e-03
  2.514394e+00    5.143350e-01   7.221773e-03
  2.516605e+00    5.327159e-01   7.302347e-03
  2.518815e+00    5.131999e-01   7.139378e-03
  2.521025e+00    5.108091e-01   7.102035e-03
  2.523236e+00    5.178242e-01   7.132794e-03
  2.525446e+00    5.330331e-01   7.221072e-03
  2.527657e+00    5.241714e-01   7.146210e-03
  2.529867e+00    5.117476e-01   7.047016e-03
  2.532078e+00    5.272668e-01   7.137978e-03
  2.534288e+00    5.358869e-01   7.182086e-03
  2.536499e+00    5.235830e-01   7.087219e-03
  2.538709e+00    5.340738e-01   7.146766e-03
  2.540920e+00    5.250818e-01   7.075713e-03
  2.543130e+00    5.112611e-01   6.971719e-03
  2.545340e+00    5.206839e-01   7.025640e-03
  2.547551e+00    5.143525e-01   6.972931e-03
  2.549761e+00    5.253953e-01   7.037775e-03
  2.551972e+00    5.115720e-01   6.935327e-03
  2.554182e+00    5.203503e-01   6.985389e-03
  2.556393e+00    5.127286e-01   6.925032e-03
  2.558603e+00    5.156490e-01   6.935694e-03
  2.560814e+00    5.114251e-01   6.898596e-03
  2.563024e+00    5.164311e-01   6.923712e-03
  2.565235e+00    5.204673e-01   6.941200e-03
  2.567445e+00    5.114323e-01   6.871220e-03
  2.569656e+00    5.146335e-01   6.882960e-03
  2.571866e+00    5.215809e-01   6.919880e-03
  2.574076e+00    5.153024e-01   6.868843e-03
  2.576287e+00    5.127603e-01   6.843592e-03
  2.578497e+00    5.118347e-01   6.829598e-03
  2.580708e+00    5.167310e-01   6.854079e-03
  2.582918e+00    5.239884e-01   6.894228e-03
  2.585129e+00    5.018726e-01   6.739507e-03
  2.587339e+00    5.128292e-01   6.805014e-03
  2.589550e+00    5.197464e-01   6.843133e-03
  2.591760e+00    4.993323e-01   6.699781e-03
  2.593971e+00    5.074359e-01   6.746413e-03
  2.596181e+00    4.980792e-01   6.677805e-03
  2.598391e+00    5.014030e-01   6.694883e-03
  2.600602e+00    5.005725e-01   6.683490e-03
  2.602812e+00    5.047983e-01   6.704131e-03
  2.605023e+00    5.057183e-01   6.703096e-03
  2.607233e+00    5.121567e-01   6.738465e-03
  2.609444e+00    5.032628e-01   6.672490e-03
  2.611654e+00    5.029042e-01   6.662832e-03
  2.613865e+00    5.023578e-01   6.652195e-03
  2.616075e+00    5.004697e-01   6.632587e-03
  2.618286e+00    5.043522e-01   6.651267e-03
  2.620496e+00    4.962614e-01   6.591081e-03
  2.622706e+00    4.867436e-01   6.521918e-03
  2.624917e+00    4.944925e-01   6.567826e-03
  2.627127e+00    5.071112e-01   6.645356e-03
  2.629338e+00    5.052497e-01   6.627164e-03
  2.631548e+00    4.920012e-01   6.533604e-03
  2.633759e+00    4.955636e-01   6.550103e-03
  2.635969e+00    4.981772e-01   6.560693e-03
  2.638180e+00    4.992944e-01   6.561066e-03
  2.640390e+00    5.007740e-01   6.564203e-03
  2.642601e+00    4.964806e-01   6.529345e-03
  2.644811e+00    4.949479e-01   6.512250e-03
  2.647021e+00    4.841839e-01   6.434563e-03
  2.649232e+00    4.930388e-01   6.486472e-03
  2.651442e+00    4.932778e-01   6.481566e-03
  2.653653e+00    4.942344e-01   6.481102e-03
  2.655863e+00    4.886914e-01   6.438038e-03
  2.658074e+00    4.881499e-01   6.427909e-03
  2.660284e+00    5.023967e-01   6.514654e-03
  2.662495e+00    4.977584e-01   6.477763e-03
  2.664705e+00    5.003669e-01   6.488123e-03
  2.666916e+00    4.962561e-01   6.454946e-03
  2.669126e+00    4.998305e-01   6.471675e-03
  2.671337e+00    4.928728e-01   6.419911e-03
  2.673547e+00    4.946291e-01   6.424960e-03
  2.675757e+00    4.844856e-01   6.352362e-03
  2.677968e+00    4.830935e-01   6.336769e-03
  2.680178e+00    4.918129e-01   6.387312e-03
  2.682389e+00    4.923789e-01   6.384600e-03
  2.684599e+00    4.922165e-01   6.377373e-03
  2.686810e+00    4.885099e-01   6.346732e-03
  2.689020e+00    4.741080e-01   6.246296e-03
  2.691231e+00    4.875091e-01   6.327685e-03
  2.693441e+00    4.932755e-01   6.358838e-03
  2.695652e+00    4.974847e-01   6.379349e-03
  2.697862e+00    5.023298e-01   6.403921e-03
  2.700072e+00    4.777726e-01   6.239428e-03
  2.702283e+00    4.907163e-01   6.317131e-03
  2.704493e+00    4.858122e-01   6.279241e-03
  2.706704e+00    4.691595e-01   6.164401e-03
  2.708914e+00    4.672686e-01   6.146125e-03
  2.711125e+00    4.748656e-01   6.189717e-03
  2.713335e+00    4.830241e-01   6.236605e-03
  2.715546e+00    4.859852e-01   6.249235e-03
  2.717756e+00    4.846453e-01   6.234741e-03
  2.719967e+00    4.828381e-01   6.216920e-03
  2.722177e+00    4.712423e-01   6.135775e-03
  2.724387e+00    4.804839e-01   6.189570e-03
  2.726598e+00    4.843453e-01   6.208347e-03
  2.728808e+00    4.822667e-01   6.188872e-03
  2.731019e+00    4.861727e-01   6.207759e-03
  2.733229e+00    4.791573e-01   6.157028e-03
  2.735440e+00    4.738297e-01   6.116514e-03
  2.737650e+00    4.625237e-01   6.037204e-03
  2.739861e+00    4.754102e-01   6.114704e-03
  2.742071e+00    4.781528e-01   6.126613e-03
  2.744282e+00    4.689925e-01   6.061471e-03
  2.746492e+00    4.790978e-01   6.120428e-03
  2.748702e+00    4.833650e-01   6.141703e-03
  2.750913e+00    4.798223e-01   6.113379e-03
  2.753123e+00    4.740593e-01   6.070483e-03
  2.755334e+00    4.711910e-01   6.046069e-03
  2.757544e+00    4.798605e-01   6.095711e-03
  2.759755e+00    4.712259e-01   6.034785e-03
  2.761965e+00    4.699596e-01   6.020764e-03
  2.764176e+00    4.704282e-01   6.017825e-03
  2.766386e+00    4.756917e-01   6.045640e-03
  2.768597e+00    4.710115e-01   6.010018e-03
  2.770807e+00    4.713255e-01   6.006195e-03
  2.773017e+00    4.730187e-01   6.011024e-03
  2.775228e+00    4.832823e-01   6.070083e-03
  2.777438e+00    4.811447e-01   6.050836e-03
  2.779649e+00    4.652191e-01   5.944035e-03
  2.781859e+00    4.664421e-01   5.946140e-03
  2.784070e+00    4.677646e-01   5.948760e-03
  2.786280e+00    4.834221e-01   6.041703e-03
  2.788491e+00    4.733140e-01   5.972398e-03
  2.790701e+00    4.641275e-01   5.908582e-03
  2.792912e+00    4.740580e-01   5.965480e-03
  2.795122e+00    4.842670e-01   6.023619e-03
  2.797333e+00    4.747897e-01   5.958823e-03
  2.799543e+00    4.825884e-01   6.001660e-03
  2.801753e+00    4.634041e-01   5.875379e-03
  2.803964e+00    4.757875e-01   5.947678e-03
  2.806174e+00    4.619242e-01   5.854354e-03
  2.808385e+00    4.681299e-01   5.886790e-03
  2.810595e+00    4.612084e-01   5.836334e-03
  2.812806e+00    4.665422e-01   5.863429e-03
  2.815016e+00    4.682038e-01   5.869161e-03
  2.817227e+00    4.661891e-01   5.882215e-03
  2.819437e+00    4.711603e-01   5.924555e-03
  2.821648e+00    4.732326e-01   5.939853e-03
  2.823858e+00    4.821909e-01   6.001204e-03
  2.826068e+00    4.683373e-01   5.919326e-03
  2.828279e+00    4.767219e-01   5.976127e-03
  2.830489e+00    4.592549e-01   5.868922e-03
  2.832700e+00    4.715949e-01   5.949788e-03
  2.834910e+00    4.660574e-01   5.916820e-03
  2.837121e+00    4.800899e-01   6.006942e-03
  2.839331e+00    5.011319e-01   6.138452e-03
  2.841542e+00    4.893843e-01   6.067118e-03
  2.843752e+00    4.726398e-01   5.963209e-03
  2.845963e+00    4.704607e-01   5.949830e-03
  2.848173e+00    4.699190e-01   5.946494e-03
  2.850383e+00    4.753612e-01   5.981132e-03
  2.852594e+00    4.643101e-01   5.911115e-03
  2.854804e+00    4.677604e-01   5.932527e-03
  2.857015e+00    4.690400e-01   5.940211e-03
  2.859225e+00    4.594706e-01   5.879058e-03
  2.861436e+00    4.574270e-01   5.865320e-03
  2.863646e+00    4.492415e-01   5.812633e-03
  2.865857e+00    4.634084e-01   5.903900e-03
  2.868067e+00    4.671827e-01   5.928140e-03
  2.870278e+00    4.535428e-01   5.840602e-03
  2.872488e+00    4.504361e-01   5.819420e-03
  2.874698e+00    4.398265e-01   5.749460e-03
  2.876909e+00    4.537026e-01   5.838130e-03
  2.879119e+00    4.647503e-01   5.907161e-03
  2.881330e+00    4.588682e-01   5.868196e-03
  2.883540e+00    4.539652e-01   5.835394e-03
  2.885751e+00    4.515757e-01   5.818377e-03
  2.887961e+00    4.454402e-01   5.776876e-03
  2.890172e+00    4.594452e-01   5.865376e-03
  2.892382e+00    4.698561e-01   5.929634e-03
  2.894593e+00    4.614243e-01   5.874388e-03
  2.896803e+00    4.475111e-01   5.783182e-03
  2.899014e+00    4.497367e-01   5.795648e-03
  2.901224e+00    4.645377e-01   5.888262e-03
  2.903434e+00    4.479771e-01   5.780421e-03
  2.905645e+00    4.495580e-01   5.788425e-03
  2.907855e+00    4.505805e-01   5.792903e-03
  2.910066e+00    4.551855e-01   5.820375e-03
  2.912276e+00    4.554060e-01   5.819669e-03
  2.914487e+00    4.583357e-01   5.835901e-03
  2.916697e+00    4.527686e-01   5.798151e-03
  2.918908e+00    4.488325e-01   5.770893e-03
  2.921118e+00    4.672640e-01   5.885482e-03
  2.923329e+00    4.618245e-01   5.848791e-03
  2.925539e+00    4.633823e-01   5.856374e-03
  2.927749e+00    4.479218e-01   5.755542e-03
  2.929960e+00    4.498090e-01   5.764904e-03
  2.932170e+00    4.433661e-01   5.721172e-03
  2.934381e+00    4.379970e-01   5.684045e-03
  2.936591e+00    4.525356e-01   5.775015e-03
  2.938802e+00    4.580409e-01   5.807341e-03
  2.941012e+00    4.607873e-01   5.822376e-03
  2.943223e+00    4.571441e-01   5.796618e-03
  2.945433e+00    4.523638e-01   5.762513e-03
  2.947644e+00    4.525005e-01   5.759252e-03
  2.949854e+00    4.331804e-01   5.630807e-03
  2.952064e+00    4.434421e-01   5.692923e-03
  2.954275e+00    4.508695e-01   5.736023e-03
  2.956485e+00    4.480281e-01   5.713772e-03
  2.958696e+00    4.513751e-01   5.730708e-03
  2.960906e+00    4.457489e-01   5.690750e-03
  2.963117e+00    4.572375e-01   5.759106e-03
  2.965327e+00    4.597152e-01   5.770775e-03
  2.967538e+00    4.674763e-01   5.816330e-03
  2.969748e+00    4.456162e-01   5.675931e-03
  2.971959e+00    4.546867e-01   5.730247e-03
  2.974169e+00    4.627531e-01   5.778261e-03
  2.976379e+00    4.507056e-01   5.699642e-03
  2.978590e+00    4.586922e-01   5.746759e-03
  2.980800e+00    4.511867e-01   5.696774e-03
  2.983011e+00    4.484894e-01   5.676926e-03
  2.985221e+00    4.621858e-01   5.759763e-03
  2.987432e+00    4.565226e-01   5.721290e-03
  2.989642e+00    4.498028e-01   5.676378e-03
  2.991853e+00    4.589736e-01   5.730672e-03
  2.994063e+00    4.490446e-01   5.665446e-03
  2.996274e+00    4.510052e-01   5.674633e-03
  2.998484e+00    4.410565e-01   5.609040e-03
  3.000694e+00    4.500271e-01   5.662338e-03
  3.002905e+00    4.589705e-01   5.715372e-03
  3.005115e+00    4.590944e-01   5.713152e-03
  3.007326e+00    4.509596e-01   5.659176e-03
  3.009536e+00    4.520739e-01   5.662887e-03
  3.011747e+00    4.493183e-01   5.642718e-03
  3.013957e+00    4.568037e-01   5.686312e-03
  3.016168e+00    4.581941e-01   5.691708e-03
  3.018378e+00    4.469607e-01   5.618478e-03
  3.020589e+00    4.436544e-01   5.594461e-03
  3.022799e+00    4.597248e-01   5.691704e-03
  3.025010e+00    4.745526e-01   5.779445e-03
  3.027220e+00    4.631708e-01   5.706583e-03
  3.029430e+00    4.562328e-01   5.660419e-03
  3.031641e+00    4.546936e-01   5.647706e-03
  3.033851e+00    4.557475e-01   5.650725e-03
  3.036062e+00    4.572643e-01   5.657309e-03
  3.038272e+00    4.482008e-01   5.597418e-03
  3.040483e+00    4.517564e-01   5.616338e-03
  3.042693e+00    4.497405e-01   5.600540e-03
  3.044904e+00    4.454451e-01   5.569729e-03
  3.047114e+00    4.427544e-01   5.548122e-03
  3.049325e+00    4.417737e-01   5.537619e-03
  3.051535e+00    4.451713e-01   5.554520e-03
  3.053745e+00    4.489312e-01   5.573167e-03
  3.055956e+00    4.447898e-01   5.542872e-03
  3.058166e+00    4.578129e-01   5.619131e-03
  3.060377e+00    4.448703e-01   5.534387e-03
  3.062587e+00    4.533168e-01   5.582041e-03
  3.064798e+00    4.448167e-01   5.525223e-03
  3.067008e+00    4.547190e-01   5.581634e-03
  3.069219e+00    4.477562e-01   5.534241e-03
  3.071429e+00    4.363830e-01   5.460039e-03
  3.073640e+00    4.360705e-01   5.454798e-03
  3.075850e+00    4.422078e-01   5.489486e-03
  3.078060e+00    4.448774e-01   5.502949e-03
  3.080271e+00    4.458772e-01   5.505657e-03
  3.082481e+00    4.657004e-01   5.623204e-03
  3.084692e+00    4.518999e-01   5.535885e-03
  3.086902e+00    4.570317e-01   5.563932e-03
  3.089113e+00    4.480180e-01   5.505250e-03
  3.091323e+00    4.361882e-01   5.428737e-03
  3.093534e+00    4.414549e-01   5.458049e-03
  3.095744e+00    4.426970e-01   5.462388e-03
  3.097955e+00    4.417664e-01   5.453099e-03
  3.100165e+00    4.555580e-01   5.534220e-03
  3.102375e+00    4.518280e-01   5.508066e-03
  3.104586e+00    4.483012e-01   5.483038e-03
  3.106796e+00    4.481264e-01   5.478440e-03
  3.109007e+00    4.476039e-01   5.472021e-03
  3.111217e+00    4.315318e-01   5.369259e-03
  3.113428e+00    4.304619e-01   5.359218e-03
  3.115638e+00    4.490622e-01   5.470553e-03
  3.117849e+00    4.373522e-01   5.395054e-03
  3.120059e+00    4.513225e-01   5.477062e-03
  3.122270e+00    4.398287e-01   5.403639e-03
  3.124480e+00    4.364604e-01   5.379248e-03
  3.126691e+00    4.373709e-01   5.381325e-03
  3.128901e+00    4.413067e-01   5.402364e-03
  3.131111e+00    4.407197e-01   5.394967e-03
  3.133322e+00    4.356523e-01   5.360437e-03
  3.135532e+00    4.332732e-01   5.342419e-03
  3.137743e+00    4.511352e-01   5.447902e-03
  3.139953e+00    4.688337e-01   5.549979e-03
  3.142164e+00    4.488637e-01   5.442589e-03
  3.144374e+00    4.362178e-01   5.393580e-03
  3.146585e+00    4.350443e-01   5.400747e-03
  3.148795e+00    4.366700e-01   5.421541e-03
  3.151006e+00    4.450023e-01   5.481598e-03
  3.153216e+00    4.421910e-01   5.471397e-03
  3.155426e+00    4.417064e-01   5.474711e-03
  3.157637e+00    4.487517e-01   5.523774e-03
  3.159847e+00    4.485834e-01   5.527664e-03
  3.162058e+00    4.437014e-01   5.501949e-03
  3.164268e+00    4.287932e-01   5.412736e-03
  3.166479e+00    4.325066e-01   5.439750e-03
  3.168689e+00    4.234169e-01   5.385577e-03
  3.170900e+00    4.394746e-01   5.489919e-03
  3.173110e+00    4.355562e-01   5.468273e-03
  3.175321e+00    4.268392e-01   5.415720e-03
  3.177531e+00    4.302774e-01   5.440213e-03
  3.179741e+00    4.272564e-01   5.423122e-03
  3.181952e+00    4.183314e-01   5.368255e-03
  3.184162e+00    4.213305e-01   5.389601e-03
  3.186373e+00    4.359872e-01   5.484141e-03
  3.188583e+00    4.219263e-01   5.396748e-03
  3.190794e+00    4.361726e-01   5.488842e-03
  3.193004e+00    4.322995e-01   5.465665e-03
  3.195215e+00    4.381391e-01   5.503952e-03
  3.197425e+00    4.324255e-01   5.469171e-03
  3.199636e+00    4.316077e-01   5.463211e-03
  3.201846e+00    4.387605e-01   5.507705e-03
  3.204056e+00    4.260844e-01   5.428443e-03
  3.206267e+00    4.343596e-01   5.481739e-03
  3.208477e+00    4.310279e-01   5.461608e-03
  3.210688e+00    4.303307e-01   5.458021e-03
  3.212898e+00    4.305071e-01   5.459723e-03
  3.215109e+00    4.206007e-01   5.397272e-03
  3.217319e+00    4.336835e-01   5.481210e-03
  3.219530e+00    4.316580e-01   5.468788e-03
  3.221740e+00    4.331877e-01   5.479040e-03
  3.223951e+00    4.395685e-01   5.519704e-03
  3.226161e+00    4.362225e-01   5.498868e-03
  3.228372e+00    4.355719e-01   5.495287e-03
  3.230582e+00    4.262804e-01   5.436505e-03
  3.232792e+00    4.201559e-01   5.397533e-03
  3.235003e+00    4.238768e-01   5.421609e-03
  3.237213e+00    4.180250e-01   5.384168e-03
  3.239424e+00    4.313760e-01   5.469460e-03
  3.241634e+00    4.256628e-01   5.433253e-03
  3.243845e+00    4.305964e-01   5.464727e-03
  3.246055e+00    4.140249e-01   5.358262e-03
  3.248266e+00    4.150005e-01   5.364777e-03
  3.250476e+00    4.211978e-01   5.404375e-03
  3.252687e+00    4.179426e-01   5.383370e-03
  3.254897e+00    4.216622e-01   5.407164e-03
  3.257107e+00    4.109815e-01   5.337935e-03
  3.259318e+00    4.181209e-01   5.383853e-03
  3.261528e+00    4.279388e-01   5.446568e-03
  3.263739e+00    4.142711e-01   5.358341e-03
  3.265949e+00    4.279794e-01   5.446134e-03
  3.268160e+00    4.176733e-01   5.379767e-03
  3.270370e+00    4.133658e-01   5.351439e-03
  3.272581e+00    4.077022e-01   5.314385e-03
  3.274791e+00    4.150207e-01   5.361338e-03
  3.277002e+00    4.238937e-01   5.417801e-03
  3.279212e+00    4.258081e-01   5.429619e-03
  3.281422e+00    4.289666e-01   5.449155e-03
  3.283633e+00    4.260629e-01   5.430009e-03
  3.285843e+00    4.192466e-01   5.386055e-03
  3.288054e+00    4.180630e-01   5.377525e-03
  3.290264e+00    4.029741e-01   5.279263e-03
  3.292475e+00    4.210815e-01   5.395743e-03
  3.294685e+00    4.260823e-01   5.427054e-03
  3.296896e+00    4.214298e-01   5.396594e-03
  3.299106e+00    4.310980e-01   5.457575e-03
  3.301317e+00    4.376643e-01   5.497947e-03
  3.303527e+00    4.239718e-01   5.410810e-03
  3.305737e+00    4.093308e-01   5.315509e-03
  3.307948e+00    4.235239e-01   5.406220e-03
  3.310158e+00    4.236542e-01   5.406204e-03
  3.312369e+00    4.216193e-01   5.392325e-03
  3.314579e+00    4.140357e-01   5.342694e-03
  3.316790e+00    4.241110e-01   5.406607e-03
  3.319000e+00    4.280572e-01   5.430507e-03
  3.321211e+00    4.277057e-01   5.427676e-03
  3.323421e+00    4.236800e-01   5.400857e-03
  3.325632e+00    4.164797e-01   5.353906e-03
  3.327842e+00    4.157137e-01   5.348036e-03
  3.330052e+00    4.323093e-01   5.452679e-03
  3.332263e+00    4.154510e-01   5.344309e-03
  3.334473e+00    4.161853e-01   5.348097e-03
  3.336684e+00    4.263963e-01   5.412053e-03
  3.338894e+00    4.109338e-01   5.312178e-03
  3.341105e+00    4.201094e-01   5.369944e-03
  3.343315e+00    4.212503e-01   5.376113e-03
  3.345526e+00    4.092568e-01   5.298134e-03
  3.347736e+00    4.184923e-01   5.356159e-03
  3.349947e+00    4.203099e-01   5.366853e-03
  3.352157e+00    4.159327e-01   5.337670e-03
  3.354368e+00    4.144687e-01   5.326986e-03
  3.356578e+00    4.241082e-01   5.387526e-03
  3.358788e+00    4.254029e-01   5.394428e-03
  3.360999e+00    4.076882e-01   5.279681e-03
  3.363209e+00    4.244833e-01   5.386306e-03
  3.365420e+00    4.098311e-01   5.291038e-03
  3.367630e+00    4.221617e-01   5.369002e-03
  3.369841e+00    4.117064e-01   5.300698e-03
  3.372051e+00    4.318332e-01   5.426699e-03
  3.374262e+00    4.177414e-01   5.334980e-03
  3.376472e+00    4.145066e-01   5.311864e-03
  3.378683e+00    4.107503e-01   5.285226e-03
  3.380893e+00    4.001387e-01   5.214225e-03
  3.383103e+00    4.205415e-01   5.342763e-03
  3.385314e+00    4.188563e-01   5.329847e-03
  3.387524e+00    4.208568e-01   5.339784e-03
  3.389735e+00    4.214395e-01   5.340830e-03
  3.391945e+00    4.189976e-01   5.321648e-03
  3.394156e+00    4.093891e-01   5.256059e-03
  3.396366e+00    4.065372e-01   5.234347e-03
  3.398577e+00    4.070022e-01   5.234280e-03
  3.400787e+00    4.242874e-01   5.356407e-03
  3.402998e+00    4.033953e-01   5.260623e-03
  3.405208e+00    3.985744e-01   5.249558e-03
  3.407418e+00    3.970935e-01   5.255514e-03
  3.409629e+00    4.001644e-01   5.289747e-03
  3.411839e+00    3.963354e-01   5.276113e-03
  3.414050e+00    3.923341e-01   5.260342e-03
  3.416260e+00    3.868266e-01   5.232825e-03
  3.418471e+00    3.935454e-01   5.287490e-03
  3.420681e+00    3.958673e-01   5.311598e-03
  3.422892e+00    3.922472e-01   5.295278e-03
  3.425102e+00    3.843990e-01   5.249792e-03
  3.427313e+00    3.866873e-01   5.272581e-03
  3.429523e+00    3.771626e-01   5.214197e-03
  3.431733e+00    3.743324e-01   5.201156e-03
  3.433944e+00    3.712673e-01   5.186209e-03
  3.436154e+00    3.749630e-01   5.218094e-03
  3.438365e+00    4.006682e-01   5.400081e-03
  3.440575e+00    3.896467e-01   5.331314e-03
  3.442786e+00    3.746559e-01   5.233331e-03
  3.444996e+00    3.681105e-01   5.192830e-03
  3.447207e+00    3.539307e-01   5.096990e-03
  3.449417e+00    3.538972e-01   5.136566e-03
  3.451628e+00    3.563071e-01   5.182969e-03
  3.453838e+00    3.575923e-01   5.213151e-03
  3.456049e+00    3.686594e-01   5.317198e-03
  3.458259e+00    3.598733e-01   5.275174e-03
  3.460469e+00    3.781298e-01   5.427427e-03
  3.462680e+00    3.620889e-01   5.330025e-03
  3.464890e+00    3.675012e-01   5.387519e-03
  3.467101e+00    3.605845e-01   5.353912e-03
  3.469311e+00    3.707856e-01   5.445604e-03
  3.471522e+00    3.846010e-01   5.562805e-03
  3.473732e+00    3.914957e-01   5.628617e-03
  3.475943e+00    3.967811e-01   5.682499e-03
  3.478153e+00    4.128638e-01   5.812430e-03
  3.480364e+00    4.176771e-01   5.861843e-03
  3.482574e+00    4.034751e-01   5.776647e-03
  3.484784e+00    4.143567e-01   5.868986e-03
  3.486995e+00    4.283164e-01   5.982318e-03
  3.489205e+00    4.343374e-01   6.039093e-03
  3.491416e+00    4.315926e-01   6.034984e-03
  3.493626e+00    4.294470e-01   6.034459e-03
  3.495837e+00    4.533715e-01   6.215218e-03
  3.498047e+00    4.691596e-01   6.337399e-03
  3.500258e+00    4.657204e-01   6.328958e-03
  3.502468e+00    4.707691e-01   6.377845e-03
  3.504679e+00    4.804417e-01   6.457808e-03
  3.506889e+00    4.863602e-01   6.512235e-03
  3.509099e+00    4.829752e-01   6.504055e-03
  3.511310e+00    4.708886e-01   6.436572e-03
  3.513520e+00    4.699229e-01   6.444162e-03
  3.515731e+00    4.989819e-01   6.655002e-03
  3.517941e+00    5.025727e-01   6.693457e-03
  3.520152e+00    5.082431e-01   6.745614e-03
  3.522362e+00    4.884977e-01   6.627610e-03
  3.524573e+00    5.017737e-01   6.731262e-03
  3.526783e+00    4.970515e-01   6.712677e-03
  3.528994e+00    5.129064e-01   6.831110e-03
  3.531204e+00    5.217968e-01   6.902505e-03
  3.533414e+00    5.288455e-01   6.961107e-03
  3.535625e+00    5.266452e-01   6.958952e-03
  3.537835e+00    5.386212e-01   7.049803e-03
  3.540046e+00    5.496318e-01   7.130553e-03
  3.542256e+00    5.447280e-01   7.106300e-03
  3.544467e+00    5.268343e-01   6.996144e-03
  3.546677e+00    5.291448e-01   7.018989e-03
  3.548888e+00    5.491439e-01   7.157963e-03
  3.551098e+00    5.639573e-01   7.261407e-03
  3.553309e+00    5.335732e-01   7.071187e-03
  3.555519e+00    5.556337e-01   7.227403e-03
  3.557729e+00    5.320495e-01   7.084024e-03
  3.559940e+00    5.429203e-01   7.167675e-03
  3.562150e+00    5.433286e-01   7.182140e-03
  3.564361e+00    5.314526e-01   7.116469e-03
  3.566571e+00    5.339155e-01   7.146758e-03
  3.568782e+00    5.544105e-01   7.296977e-03
  3.570992e+00    5.473078e-01   7.264008e-03
  3.573203e+00    5.365965e-01   7.206724e-03
  3.575413e+00    5.382259e-01   7.231424e-03
  3.577624e+00    5.495909e-01   7.321716e-03
  3.579834e+00    5.337384e-01   7.229195e-03
  3.582045e+00    5.373726e-01   7.267821e-03
  3.584255e+00    5.170862e-01   7.143104e-03
  3.586465e+00    5.291547e-01   7.239822e-03
  3.588676e+00    5.358207e-01   7.299477e-03
  3.590886e+00    5.387845e-01   7.333385e-03
  3.593097e+00    5.489505e-01   7.416913e-03
  3.595307e+00    5.447770e-01   7.402719e-03
  3.597518e+00    5.383443e-01   7.373139e-03
  3.599728e+00    5.458480e-01   7.438571e-03
  3.601939e+00    5.373574e-01   7.394579e-03
  3.604149e+00    5.312598e-01   7.366892e-03
  3.606360e+00    5.322928e-01   7.388096e-03
  3.608570e+00    5.496836e-01   7.522183e-03
  3.610780e+00    5.368055e-01   7.444642e-03
  3.612991e+00    5.283483e-01   7.395708e-03
  3.615201e+00    5.254312e-01   7.384965e-03
  3.617412e+00    5.383312e-01   7.482384e-03
  3.619622e+00    5.406923e-01   7.504725e-03
  3.621833e+00    5.352462e-01   7.473617e-03
  3.624043e+00    5.145302e-01   7.336844e-03
  3.626254e+00    5.323039e-01   7.472186e-03
  3.628464e+00    5.177830e-01   7.380361e-03
  3.630675e+00    5.352848e-01   7.518171e-03
  3.632885e+00    5.473296e-01   7.616956e-03
  3.635095e+00    5.192000e-01   7.432854e-03
  3.637306e+00    5.254555e-01   7.491698e-03
  3.639516e+00    5.403409e-01   7.611722e-03
  3.641727e+00    5.355633e-01   7.592617e-03
  3.643937e+00    5.237287e-01   7.522676e-03
  3.646148e+00    5.344167e-01   7.613651e-03
  3.648358e+00    5.193276e-01   7.520081e-03
  3.650569e+00    5.347461e-01   7.645654e-03
  3.652779e+00    5.248548e-01   7.589278e-03
  3.654990e+00    5.285069e-01   7.630451e-03
  3.657200e+00    5.359998e-01   7.699302e-03
  3.659410e+00    5.341998e-01   7.701364e-03
  3.661621e+00    5.422860e-01   7.774681e-03
  3.663831e+00    5.309011e-01   7.707751e-03
  3.666042e+00    5.382358e-01   7.776072e-03
  3.668252e+00    5.207279e-01   7.663645e-03
  3.670463e+00    5.226890e-01   7.693149e-03
  3.672673e+00    5.440458e-01   7.864367e-03
  3.674884e+00    5.268335e-01   7.754310e-03
  3.677094e+00    5.319435e-01   7.807350e-03
  3.679305e+00    5.383739e-01   7.870115e-03
  3.681515e+00    5.188174e-01   7.741253e-03
  3.683726e+00    5.206586e-01   7.770664e-03
  3.685936e+00    5.341438e-01   7.886408e-03
  3.688146e+00    5.228930e-01   7.818658e-03
  3.690357e+00    5.230669e-01   7.835793e-03
  3.692567e+00    5.231813e-01   7.852735e-03
  3.694778e+00    4.964138e-01   7.664790e-03
  3.696988e+00    5.165526e-01   7.834512e-03
  3.699199e+00    5.213256e-01   7.886891e-03
  3.701409e+00    5.163903e-01   7.865618e-03
  3.703620e+00    5.248621e-01   7.946262e-03
  3.705830e+00    5.192988e-01   7.920315e-03
  3.708041e+00    5.283037e-01   8.005362e-03
  3.710251e+00    5.188578e-01   7.950096e-03
  3.712461e+00    5.034966e-01   7.847981e-03
  3.714672e+00    5.107223e-01   7.920657e-03
  3.716882e+00    5.199353e-01   8.008444e-03
  3.719093e+00    5.090271e-01   7.940956e-03
  3.721303e+00    5.146531e-01   8.001556e-03
  3.723514e+00    5.148110e-01   8.020042e-03
  3.725724e+00    5.024189e-01   7.939802e-03
  3.727935e+00    4.880162e-01   7.842092e-03
  3.730145e+00    5.171489e-01   8.090081e-03
  3.732356e+00    5.131960e-01   8.076633e-03
  3.734566e+00    5.000802e-01   7.990045e-03
  3.736776e+00    5.005206e-01   8.011042e-03
  3.738987e+00    5.097902e-01   8.102539e-03
  3.741197e+00    5.138767e-01   8.152994e-03
  3.743408e+00    4.998633e-01   8.058862e-03
  3.745618e+00    4.848726e-01   7.954923e-03
  3.747829e+00    4.992094e-01   8.089505e-03
  3.750039e+00    5.172590e-01   8.252942e-03
  3.752250e+00    5.236483e-01   8.322492e-03
  3.754460e+00    5.023388e-01   8.169753e-03
  3.756671e+00    4.848105e-01   8.044350e-03
  3.758881e+00    4.933807e-01   8.133402e-03
  3.761091e+00    5.087379e-01   8.278217e-03
  3.763302e+00    5.085527e-01   8.295792e-03
  3.765512e+00    5.129880e-01   8.351221e-03
  3.767723e+00    5.181698e-01   8.412905e-03
  3.769933e+00    4.860239e-01   8.166700e-03
  3.772144e+00    5.157638e-01   8.432547e-03
  3.774354e+00    5.051581e-01   8.365329e-03
  3.776565e+00    5.054027e-01   8.387144e-03
  3.778775e+00    4.949397e-01   8.319656e-03
  3.780986e+00    5.231840e-01   8.574440e-03
  3.783196e+00    4.966786e-01   8.374542e-03
  3.785407e+00    5.038895e-01   8.455523e-03
  3.787617e+00    4.892074e-01   8.351944e-03
  3.789827e+00    4.926658e-01   8.401711e-03
  3.792038e+00    4.747310e-01   8.267621e-03
  3.794248e+00    5.166633e-01   8.646525e-03
  3.796459e+00    5.022564e-01   8.546499e-03
  3.798669e+00    5.171312e-01   8.693861e-03
  3.800880e+00    5.040842e-01   8.605011e-03
  3.803090e+00    4.921317e-01   8.524045e-03
  3.805301e+00    4.871697e-01   8.502715e-03
  3.807511e+00    5.068586e-01   8.695004e-03
  3.809722e+00    5.106087e-01   8.749586e-03
  3.811932e+00    5.172841e-01   8.829219e-03
  3.814142e+00    4.988243e-01   8.693108e-03
  3.816353e+00    4.995407e-01   8.722191e-03
  3.818563e+00    4.962565e-01   8.716538e-03
  3.820774e+00    4.812346e-01   8.606334e-03
  3.822984e+00    4.891841e-01   8.700327e-03
  3.825195e+00    4.807707e-01   8.648489e-03
  3.827405e+00    4.824024e-01   8.686645e-03
  3.829616e+00    4.994292e-01   8.862756e-03
  3.831826e+00    4.821875e-01   8.732165e-03
  3.834037e+00    5.166834e-01   9.064179e-03
  3.836247e+00    5.088560e-01   9.020193e-03
  3.838457e+00    4.984802e-01   8.952888e-03
  3.840668e+00    5.082461e-01   9.065630e-03
  3.842878e+00    4.836801e-01   8.869029e-03
  3.845089e+00    4.811591e-01   8.871066e-03
  3.847299e+00    4.816148e-01   8.900656e-03
  3.849510e+00    5.010367e-01   9.104379e-03
  3.851720e+00    5.028336e-01   9.142327e-03
  3.853931e+00    4.975289e-01   9.113025e-03
  3.856141e+00    4.624963e-01   8.804651e-03
  3.858352e+00    5.053914e-01   9.223356e-03
  3.860562e+00    5.163347e-01   9.342473e-03
  3.862772e+00    4.798346e-01   9.025487e-03
  3.864983e+00    5.074517e-01   9.301523e-03
  3.867193e+00    5.245681e-01   9.477512e-03
  3.869404e+00    5.020004e-01   9.291328e-03
  3.871614e+00    5.174342e-01   9.453571e-03
  3.873825e+00    5.068595e-01   9.377064e-03
  3.876035e+00    5.193585e-01   9.513117e-03
  3.878246e+00    5.014533e-01   9.373679e-03
  3.880456e+00    4.844075e-01   9.241748e-03
  3.882667e+00    5.020138e-01   9.437839e-03
  3.884877e+00    4.749465e-01   9.209105e-03
  3.887087e+00    4.873599e-01   9.358476e-03
  3.889298e+00    4.763561e-01   9.282115e-03
  3.891508e+00    4.941061e-01   9.484104e-03
  3.893719e+00    4.991510e-01   9.563603e-03
  3.895929e+00    5.238446e-01   9.829887e-03
  3.898140e+00    4.728134e-01   9.369948e-03
  3.900350e+00    5.014731e-01   9.682153e-03
  3.902561e+00    4.782818e-01   9.487645e-03
  3.904771e+00    4.846689e-01   9.583373e-03
  3.906982e+00    5.151093e-01   9.913788e-03
  3.909192e+00    4.824376e-01   9.627546e-03
  3.911403e+00    4.903580e-01   9.740255e-03
  3.913613e+00    4.736084e-01   9.606184e-03
  3.915823e+00    5.045019e-01   9.949890e-03
  3.918034e+00    4.790448e-01   9.730624e-03
  3.920244e+00    4.634228e-01   9.605386e-03
  3.922455e+00    4.846707e-01   9.859096e-03
  3.924665e+00    4.696003e-01   9.740303e-03
  3.926876e+00    4.710025e-01   9.791322e-03
  3.929086e+00    4.978644e-01   1.010438e-02
  3.931297e+00    5.117488e-01   1.028001e-02
  3.933507e+00    4.458191e-01   9.622693e-03
  3.935718e+00    4.853235e-01   1.006856e-02
  3.937928e+00    4.847575e-01   1.009211e-02
  3.940138e+00    4.529905e-01   9.784169e-03
  3.942349e+00    4.532010e-01   9.815156e-03
  3.944559e+00    4.856787e-01   1.019076e-02
  3.946770e+00    4.578024e-01   9.923222e-03
  3.948980e+00    4.550984e-01   9.923615e-03
  3.951191e+00    4.782481e-01   1.020343e-02
  3.953401e+00    4.800767e-01   1.025413e-02
  3.955612e+00    4.746420e-01   1.022708e-02
  3.957822e+00    4.845598e-01   1.036511e-02
  3.960033e+00    5.107203e-01   1.067458e-02
  3.962243e+00    4.902389e-01   1.049150e-02
  3.964453e+00    4.604609e-01   1.020002e-02
  3.966664e+00    4.760218e-01   1.040393e-02
  3.968874e+00    5.303571e-01   1.101144e-02
  3.971085e+00    4.982985e-01   1.069560e-02
  3.973295e+00    5.031930e-01   1.076994e-02
  3.975506e+00    4.718161e-01   1.045001e-02
  3.977716e+00    4.904803e-01   1.067683e-02
  3.979927e+00    4.682004e-01   1.045319e-02
  3.982137e+00    5.032767e-01   1.086043e-02
  3.984348e+00    4.652894e-01   1.046462e-02
  3.986558e+00    4.876658e-01   1.073559e-02
  3.988768e+00    5.146962e-01   1.105281e-02
  3.990979e+00    5.119033e-01   1.104632e-02
  3.993189e+00    4.667850e-01   1.057080e-02
  3.995400e+00    4.609296e-01   1.052723e-02
  3.997610e+00    5.141350e-01   1.114887e-02
  3.999821e+00    4.769121e-01   1.077504e-02
  4.002031e+00    4.758573e-01   1.080115e-02
  4.004242e+00    4.786602e-01   1.087105e-02
  4.006452e+00    5.077975e-01   1.123733e-02
  4.008663e+00    5.143666e-01   1.135112e-02
  4.010873e+00    4.899465e-01   1.111857e-02
  4.013084e+00    5.047457e-01   1.132694e-02
  4.015294e+00    4.729008e-01   1.100442e-02
  4.017504e+00    4.979083e-01   1.133386e-02
  4.019715e+00    4.811130e-01   1.118367e-02
  4.021925e+00    4.833365e-01   1.125230e-02
  4.024136e+00    4.714661e-01   1.115639e-02
  4.026346e+00    4.533407e-01   1.098263e-02
  4.028557e+00    4.636016e-01   1.114947e-02
  4.030767e+00    4.697258e-01   1.126789e-02
  4.032978e+00    4.891846e-01   1.154547e-02
  4.035188e+00    4.874182e-01   1.157101e-02
  4.037399e+00    4.953139e-01   1.171249e-02
  4.039609e+00    4.981597e-01   1.179457e-02
  4.041819e+00    4.882735e-01   1.172590e-02
  4.044030e+00    4.802425e-01   1.167888e-02
  4.046240e+00    4.747857e-01   1.166175e-02
  4.048451e+00    4.653900e-01   1.159569e-02
  4.050661e+00    5.036211e-01   1.211517e-02
  4.052872e+00    4.984097e-01   1.210597e-02
  4.055082e+00    4.851912e-01   1.199794e-02
  4.057293e+00    5.052249e-01   1.229817e-02
  4.059503e+00    4.759299e-01   1.199055e-02
  4.061714e+00    5.164609e-01   1.254906e-02
  4.063924e+00    5.107418e-01   1.253804e-02
  4.066134e+00    4.640534e-01   1.200743e-02
  4.068345e+00    4.695247e-01   1.213624e-02
  4.070555e+00    4.694397e-01   1.219344e-02
  4.072766e+00    4.793612e-01   1.238251e-02
  4.074976e+00    5.037102e-01   1.275627e-02
  4.077187e+00    5.229456e-01   1.306231e-02
  4.079397e+00    4.867985e-01   1.266711e-02
  4.081608e+00    4.698483e-01   1.250923e-02
  4.083818e+00    4.856378e-01   1.278394e-02
  4.086029e+00    4.885846e-01   1.289025e-02
  4.088239e+00    4.885866e-01   1.295971e-02
  4.090449e+00    5.052229e-01   1.324988e-02
  4.092660e+00    4.858007e-01   1.306432e-02
  4.094870e+00    4.821402e-01   1.308730e-02
  4.097081e+00    4.794868e-01   1.312277e-02
  4.099291e+00    4.557866e-01   1.284728e-02
  4.101502e+00    4.504085e-01   1.281878e-02
  4.103712e+00    4.900174e-01   1.342046e-02
  4.105923e+00    4.706782e-01   1.320387e-02
  4.108133e+00    4.953732e-01   1.359793e-02
  4.110344e+00    5.260254e-01   1.406624e-02
  4.112554e+00    4.629620e-01   1.324809e-02
  4.114764e+00    5.164458e-01   1.404858e-02
  4.116975e+00    5.100819e-01   1.401684e-02
  4.119185e+00    5.469304e-01   1.457343e-02
  4.121396e+00    4.572096e-01   1.337964e-02
  4.123606e+00    4.330742e-01   1.307485e-02
  4.125817e+00    4.629534e-01   1.357518e-02
  4.128027e+00    4.633958e-01   1.363873e-02
  4.130238e+00    4.962597e-01   1.417476e-02
  4.132448e+00    4.893897e-01   1.413731e-02
  4.134659e+00    5.146779e-01   1.456040e-02
  4.136869e+00    4.756953e-01   1.406065e-02
  4.139080e+00    4.240634e-01   1.333535e-02
  4.141290e+00    4.189519e-01   1.331353e-02
  4.143500e+00    4.817878e-01   1.434275e-02
  4.145711e+00    4.948054e-01   1.460329e-02
  4.147921e+00    4.580862e-01   1.411544e-02
  4.150132e+00    4.758403e-01   1.445508e-02
  4.152342e+00    4.789079e-01   1.457160e-02
  4.154553e+00    4.770641e-01   1.461298e-02
  4.156763e+00    4.741976e-01   1.464099e-02
  4.158974e+00    4.830594e-01   1.485134e-02
  4.161184e+00    4.995121e-01   1.517722e-02
  4.163395e+00    5.085865e-01   1.539245e-02
  4.165605e+00    5.163391e-01   1.559021e-02
  4.167815e+00    5.281703e-01   1.584990e-02
  4.170026e+00    4.704082e-01   1.503706e-02
  4.172236e+00    5.018249e-01   1.561480e-02
  4.174447e+00    4.908333e-01   1.552714e-02
  4.176657e+00    4.984660e-01   1.573271e-02
  4.178868e+00    4.949923e-01   1.576689e-02
  4.181078e+00    5.029169e-01   1.598178e-02
  4.183289e+00    5.285622e-01   1.647822e-02
  4.185499e+00    4.436578e-01   1.518582e-02
  4.187710e+00    4.710681e-01   1.573944e-02
  4.189920e+00    4.860875e-01   1.608485e-02
  4.192130e+00    5.083120e-01   1.654886e-02
  4.194341e+00    4.681304e-01   1.597888e-02
  4.196551e+00    4.062647e-01   1.497959e-02
  4.198762e+00    4.996016e-01   1.671699e-02
  4.200972e+00    5.068739e-01   1.694739e-02
  4.203183e+00    4.188987e-01   1.550834e-02
  4.205393e+00    4.277000e-01   1.577431e-02
  4.207604e+00    4.363342e-01   1.604174e-02
  4.209814e+00    4.686502e-01   1.673876e-02
  4.212025e+00    4.688042e-01   1.686062e-02
  4.214235e+00    4.621454e-01   1.685907e-02
  4.216445e+00    4.644747e-01   1.702331e-02
  4.218656e+00    4.715624e-01   1.728168e-02
  4.220866e+00    4.580208e-01   1.715767e-02
  4.223077e+00    4.543054e-01   1.721945e-02
  4.225287e+00    4.534786e-01   1.733902e-02
  4.227498e+00    4.276221e-01   1.696952e-02
  4.229708e+00    4.879757e-01   1.827488e-02
  4.231919e+00    4.770374e-01   1.821853e-02
  4.234129e+00    4.827763e-01   1.848135e-02
  4.236340e+00    5.544491e-01   1.997524e-02
  4.238550e+00    5.469361e-01   2.001483e-02
  4.240761e+00    4.900900e-01   1.911321e-02
  4.242971e+00    5.154993e-01   1.978211e-02
  4.245181e+00    4.778578e-01   1.922559e-02
  4.247392e+00    4.296189e-01   1.839906e-02
  4.249602e+00    5.071202e-01   2.018880e-02
  4.251813e+00    5.253243e-01   2.075021e-02
  4.254023e+00    4.691018e-01   1.980639e-02
  4.256234e+00    4.780675e-01   2.020811e-02
  4.258444e+00    4.210086e-01   1.916242e-02
  4.260655e+00    4.827777e-01   2.074574e-02
  4.262865e+00    4.813039e-01   2.094870e-02
  4.265076e+00    4.660816e-01   2.084951e-02
  4.267286e+00    4.239964e-01   2.012154e-02
  4.269496e+00    4.824790e-01   2.172658e-02
  4.271707e+00    4.584000e-01   2.143908e-02
  4.273917e+00    4.785918e-01   2.218913e-02
  4.276128e+00    4.284973e-01   2.127509e-02
  4.278338e+00    4.418879e-01   2.189274e-02
  4.280549e+00    5.071853e-01   2.379157e-02
  4.282759e+00    5.183005e-01   2.439633e-02
  4.284970e+00    5.237760e-01   2.488768e-02
  4.287180e+00    5.030958e-01   2.468408e-02
  4.289391e+00    4.645036e-01   2.389598e-02
  4.291601e+00    5.792434e-01   2.689833e-02
  4.293811e+00    4.953271e-01   2.506839e-02
  4.296022e+00    4.751048e-01   2.474775e-02
  4.298232e+00    4.756252e-01   2.496934e-02
  4.300443e+00    4.995513e-01   2.580084e-02
  4.302653e+00    4.001689e-01   2.329230e-02
  4.304864e+00    5.078726e-01   2.646654e-02
  4.307074e+00    4.573157e-01   2.534119e-02
  4.309285e+00    4.577064e-01   2.558254e-02
  4.311495e+00    3.963499e-01   2.402796e-02
  4.313706e+00    5.067716e-01   2.742515e-02
  4.315916e+00    4.218951e-01   2.527049e-02
  4.318126e+00    4.010990e-01   2.488273e-02
  4.320337e+00    3.942133e-01   2.491806e-02
  4.322547e+00    4.774615e-01   2.771367e-02
  4.324758e+00    5.704284e-01   3.060670e-02
  4.326968e+00    5.758955e-01   3.110025e-02
  4.329179e+00    5.041331e-01   2.941824e-02
  4.331389e+00    4.758558e-01   2.891123e-02
  4.333600e+00    4.729712e-01   2.916690e-02
  4.335810e+00    4.289409e-01   2.810689e-02
  4.338021e+00    5.413752e-01   3.198031e-02
  4.340231e+00    4.407837e-01   2.922006e-02
  4.342442e+00    4.395299e-01   2.956812e-02
  4.344652e+00    4.417756e-01   3.004674e-02
  4.346862e+00    3.718733e-01   2.795398e-02
  4.349073e+00    4.167721e-01   3.002362e-02
  4.351283e+00    4.131693e-01   3.034002e-02
  4.353494e+00    5.581082e-01   3.580646e-02
  4.355704e+00    5.161124e-01   3.498805e-02
  4.357915e+00    5.428609e-01   3.648091e-02
  4.360125e+00    4.760503e-01   3.474494e-02
  4.362336e+00    5.550913e-01   3.820204e-02
  4.364546e+00    5.534443e-01   3.884154e-02
  4.366757e+00    4.179047e-01   3.442305e-02
  4.368967e+00    4.211827e-01   3.524614e-02
  4.371177e+00    4.406179e-01   3.681711e-02
  4.373388e+00    5.082052e-01   4.042370e-02
  4.375598e+00    3.681190e-01   3.518997e-02
  4.377809e+00    3.730023e-01   3.631655e-02
  4.380019e+00    4.753222e-01   4.202960e-02
  4.382230e+00    3.876281e-01   3.901494e-02
  4.384440e+00    3.097458e-01   3.587730e-02
  4.386651e+00    4.843899e-01   4.624948e-02
  4.388861e+00    3.272699e-01   3.929352e-02
  4.391072e+00    4.184219e-01   4.598769e-02
  4.393282e+00    5.985352e-01   5.712905e-02
  4.395492e+00    5.041153e-01   5.461040e-02
  4.397703e+00    2.557170e-01   4.067621e-02
  4.399913e+00    3.539144e-01   5.026780e-02
  4.402124e+00    4.598465e-01   6.054693e-02
  4.404334e+00    4.262704e-01   6.197612e-02
  4.406545e+00    1.343465e-01   3.737443e-02
  4.408755e+00    2.129401e-01   5.103821e-02
  4.410966e+00    4.504018e-01   8.215311e-02
  4.413176e+00    4.266302e-01   9.049929e-02
  4.415387e+00   -2.195194e-01            nan
  4.417597e+00   -1.863450e+00            nan
  4.419807e+00   -3.766224e-01            nan
