# == pyFAI calibration ==
# Distance Sample to Detector: 0.216 m
# PONI: 1.166e-01, 1.308e-01 m
# Rotations: 0.000000 0.000000 0.000000 rad
# 
# == Fit2d calibration ==
# Distance Sample-beamCenter: 216.000 mm
# Center: x=1744.293, y=1555.000 pix
# Tilt: 0.000 deg  TiltPlanRot: 0.000 deg
# 
# Detector Eiger 9M	 PixelSize= 7.500e-05, 7.500e-05 m
#    Detector has a mask: True 
#    Detector has a dark current: False 
#    detector has a flat field: False 
# 
# Wavelength: 9.8e-11 m
# Mask applied: from detector
# Dark current applied: False
# Flat field applied: False
# Polarization factor: None
# Normalization factor: 1.0
# 
# Headers of the input frame:
# {
# "_array_data.header_convention": "SLS_1.0",
# "_array_data.header_contents": "# Detector: Dectris Eiger 9M, S/N E-18-0102\r\n# Pixel_size 75e-6 m x 75e-6 m\r\n# Silicon sensor, thickness 0.000450 m\r\n# Exposure_time 0.024997 s\r\n# Exposure_period 0.025000 s\r\n# Count_cutoff 62318 counts\r\n# Wavelength 0.980106 A\r\n# Detector_distance 0.215992 m\r\n# Beam_xy (1555, 1744) pixels\r\n# Start_angle 0.000000 deg.\r\n# Angle_increment 0.000000 deg.",
# "Content-Type": "application/octet-stream;",
# "conversions": "x-CBF_BYTE_OFFSET",
# "Content-Transfer-Encoding": "BINARY",
# "X-Binary-Size": "10166642",
# "X-Binary-ID": "1",
# "X-Binary-Element-Type": "signed 32-bit integer",
# "X-Binary-Element-Byte-Order": "LITTLE_ENDIAN",
# "Content-MD5": "VfhNfPjDXjzy1HxUTd9qMA==",
# "X-Binary-Number-of-Elements": "10166590",
# "X-Binary-Size-Fastest-Dimension": "3110",
# "X-Binary-Size-Second-Dimension": "3269",
# "X-Binary-Size-Padding": "4095"
# }
# --> H:/Proxima2a_2019-04-05/RAW_DATA/C5_gel17_position5/C5_mesh_1_data.cbf/C5_mesh_1_data.cbf000161.dat
#        q_A^-1              I           sigma 
  1.105228e-03    1.467499e+00   6.555048e-01
  3.315685e-03    9.684352e-01   3.237284e-01
  5.526141e-03    1.125749e+00   2.698938e-01
  7.736597e-03    1.370928e+00   2.516098e-01
  9.947054e-03    1.587295e+00   2.386741e-01
  1.215751e-02    1.555725e+00   2.136658e-01
  1.436797e-02    1.390676e+00   1.858184e-01
  1.657842e-02    1.446007e+00   1.763720e-01
  1.878888e-02    1.481774e+00   1.677083e-01
  2.099934e-02    1.475801e+00   1.583492e-01
  2.320979e-02    1.362209e+00   1.446954e-01
  2.542025e-02    1.191854e+00   1.293365e-01
  2.763070e-02    1.343647e+00   1.317143e-01
  2.984116e-02    1.604132e+00   1.384830e-01
  3.205162e-02    1.620108e+00   1.342945e-01
  3.426207e-02    1.394251e+00   1.204884e-01
  3.647253e-02    1.246546e+00   1.104190e-01
  3.868299e-02    1.179752e+00   1.043136e-01
  4.089344e-02    1.380913e+00   1.097650e-01
  4.310390e-02    1.386534e+00   1.071246e-01
  4.531436e-02    1.452605e+00   1.069398e-01
  4.752481e-02    1.517791e+00   1.067395e-01
  4.973527e-02    1.444977e+00   1.018081e-01
  5.194572e-02    1.353391e+00   9.640832e-02
  5.415618e-02    1.410664e+00   9.639411e-02
  5.636664e-02    1.385602e+00   9.364495e-02
  5.857709e-02    1.533753e+00   9.664785e-02
  6.078755e-02    1.424702e+00   9.143645e-02
  6.299801e-02    1.455747e+00   9.079028e-02
  6.520846e-02    1.485997e+00   9.016121e-02
  6.741892e-02    1.482413e+00   8.855937e-02
  6.962938e-02    1.571899e+00   8.973846e-02
  7.183983e-02    1.517674e+00   8.680832e-02
  7.405029e-02    1.433614e+00   8.309929e-02
  7.626074e-02    1.445691e+00   8.222957e-02
  7.847120e-02    1.441601e+00   8.094621e-02
  8.068166e-02    1.497523e+00   8.136263e-02
  8.289211e-02    1.401121e+00   7.764339e-02
  8.510257e-02    1.443554e+00   7.777965e-02
  8.731303e-02    1.449167e+00   7.693500e-02
  8.952348e-02    1.564374e+00   7.894377e-02
  9.173394e-02    1.428077e+00   7.450918e-02
  9.394439e-02    1.380407e+00   7.238571e-02
  9.615485e-02    1.438281e+00   7.303172e-02
  9.836531e-02    1.573270e+00   7.551688e-02
  1.005758e-01    1.607265e+00   7.548545e-02
  1.027862e-01    1.516042e+00   7.251763e-02
  1.049967e-01    1.565331e+00   7.290596e-02
  1.072071e-01    1.517637e+00   7.104195e-02
  1.094176e-01    1.443714e+00   6.858560e-02
  1.116280e-01    1.571721e+00   7.084795e-02
  1.138385e-01    1.622754e+00   7.128526e-02
  1.160490e-01    1.522264e+00   6.838128e-02
  1.182594e-01    1.450970e+00   6.613243e-02
  1.204699e-01    1.544987e+00   6.761189e-02
  1.226803e-01    1.550707e+00   6.712114e-02
  1.248908e-01    1.551667e+00   6.654429e-02
  1.271012e-01    1.577868e+00   6.651639e-02
  1.293117e-01    1.606455e+00   6.653927e-02
  1.315222e-01    1.661536e+00   6.709778e-02
  1.337326e-01    1.653832e+00   6.638519e-02
  1.359431e-01    1.687154e+00   6.708990e-02
  1.381535e-01    1.574430e+00   6.567988e-02
  1.403640e-01    1.542630e+00   6.529390e-02
  1.425744e-01    1.512425e+00   6.475478e-02
  1.447849e-01    1.616288e+00   6.695671e-02
  1.469953e-01    1.625337e+00   6.710188e-02
  1.492058e-01    1.556268e+00   6.558432e-02
  1.514163e-01    1.572419e+00   6.581431e-02
  1.536267e-01    1.621381e+00   6.670061e-02
  1.558372e-01    1.590791e+00   6.592258e-02
  1.580476e-01    1.590346e+00   6.575340e-02
  1.602581e-01    1.621000e+00   6.621546e-02
  1.624685e-01    1.673124e+00   6.708746e-02
  1.646790e-01    1.720377e+00   6.783286e-02
  1.668895e-01    1.669800e+00   6.663537e-02
  1.690999e-01    1.675754e+00   6.655356e-02
  1.713104e-01    1.766082e+00   6.811173e-02
  1.735208e-01    1.859033e+00   6.966380e-02
  1.757313e-01    1.950078e+00   7.112570e-02
  1.779417e-01    1.925751e+00   7.045016e-02
  1.801522e-01    1.814402e+00   6.816529e-02
  1.823626e-01    1.868498e+00   6.894367e-02
  1.845731e-01    2.014511e+00   7.135493e-02
  1.867836e-01    2.037528e+00   7.151923e-02
  1.889940e-01    1.974243e+00   7.016974e-02
  1.912045e-01    2.010276e+00   7.057075e-02
  1.934149e-01    1.997117e+00   7.010397e-02
  1.956254e-01    1.931259e+00   6.871103e-02
  1.978358e-01    1.965463e+00   6.907926e-02
  2.000463e-01    2.031053e+00   6.998973e-02
  2.022568e-01    2.040736e+00   6.992610e-02
  2.044672e-01    2.040670e+00   6.968544e-02
  2.066777e-01    1.961244e+00   6.808911e-02
  2.088881e-01    1.916214e+00   6.708270e-02
  2.110986e-01    1.963821e+00   6.767801e-02
  2.133090e-01    1.990347e+00   6.791206e-02
  2.155195e-01    1.987819e+00   6.764379e-02
  2.177300e-01    1.994250e+00   6.722086e-02
  2.199404e-01    1.871748e+00   6.340756e-02
  2.221509e-01    1.931169e+00   6.334855e-02
  2.243613e-01    2.028485e+00   6.410202e-02
  2.265718e-01    2.001263e+00   6.296867e-02
  2.287822e-01    2.034248e+00   6.285710e-02
  2.309927e-01    1.963978e+00   6.119927e-02
  2.332031e-01    2.122480e+00   6.307635e-02
  2.354136e-01    2.142739e+00   6.286302e-02
  2.376241e-01    2.098121e+00   6.172226e-02
  2.398345e-01    2.221240e+00   6.303737e-02
  2.420450e-01    2.160277e+00   6.172206e-02
  2.442554e-01    2.078616e+00   6.012712e-02
  2.464659e-01    2.158606e+00   6.086172e-02
  2.486763e-01    2.145879e+00   6.028318e-02
  2.508868e-01    2.165988e+00   6.018291e-02
  2.530973e-01    2.143233e+00   5.949479e-02
  2.553077e-01    2.156818e+00   5.932102e-02
  2.575182e-01    2.115718e+00   5.840548e-02
  2.597286e-01    2.072297e+00   5.746704e-02
  2.619391e-01    2.067816e+00   5.707439e-02
  2.641495e-01    2.023481e+00   5.614671e-02
  2.663600e-01    2.126638e+00   5.724359e-02
  2.685704e-01    2.009776e+00   5.534690e-02
  2.707809e-01    2.038698e+00   5.544782e-02
  2.729914e-01    2.009222e+00   5.475868e-02
  2.752018e-01    2.006593e+00   5.443799e-02
  2.774123e-01    2.015465e+00   5.427954e-02
  2.796227e-01    2.029666e+00   5.420098e-02
  2.818332e-01    1.997536e+00   5.350203e-02
  2.840436e-01    2.013639e+00   5.345687e-02
  2.862541e-01    1.927563e+00   5.205042e-02
  2.884646e-01    1.896039e+00   5.137805e-02
  2.906750e-01    1.982288e+00   5.228451e-02
  2.928855e-01    2.028298e+00   5.264279e-02
  2.950959e-01    1.939799e+00   5.124502e-02
  2.973064e-01    1.927683e+00   5.085513e-02
  2.995168e-01    1.955032e+00   5.098267e-02
  3.017273e-01    1.943736e+00   5.061104e-02
  3.039377e-01    2.003269e+00   5.115527e-02
  3.061482e-01    1.992778e+00   5.080045e-02
  3.083587e-01    1.912382e+00   4.954974e-02
  3.105691e-01    1.899364e+00   4.916990e-02
  3.127796e-01    1.884549e+00   4.877183e-02
  3.149900e-01    1.929874e+00   4.914921e-02
  3.172005e-01    1.915272e+00   4.876271e-02
  3.194109e-01    1.871739e+00   4.800637e-02
  3.216214e-01    1.896766e+00   4.812904e-02
  3.238319e-01    1.866828e+00   4.755853e-02
  3.260423e-01    1.883351e+00   4.757826e-02
  3.282528e-01    1.886552e+00   4.742911e-02
  3.304632e-01    1.885957e+00   4.723791e-02
  3.326737e-01    1.889432e+00   4.709695e-02
  3.348841e-01    1.872160e+00   4.669939e-02
  3.370946e-01    1.897607e+00   4.683880e-02
  3.393050e-01    1.859727e+00   4.619330e-02
  3.415155e-01    1.869640e+00   4.614211e-02
  3.437260e-01    1.859691e+00   4.584859e-02
  3.459364e-01    1.914685e+00   4.634949e-02
  3.481469e-01    1.866654e+00   4.559739e-02
  3.503573e-01    1.840375e+00   4.511035e-02
  3.525678e-01    1.840224e+00   4.494776e-02
  3.547782e-01    1.767849e+00   4.389578e-02
  3.569887e-01    1.763802e+00   4.369014e-02
  3.591992e-01    1.736062e+00   4.319186e-02
  3.614096e-01    1.776183e+00   4.353660e-02
  3.636201e-01    1.811275e+00   4.381008e-02
  3.658305e-01    1.802738e+00   4.355763e-02
  3.680410e-01    1.795165e+00   4.331654e-02
  3.702514e-01    1.838017e+00   4.368309e-02
  3.724619e-01    1.828167e+00   4.341754e-02
  3.746724e-01    1.821433e+00   4.319289e-02
  3.768828e-01    1.796521e+00   4.275218e-02
  3.790933e-01    1.781545e+00   4.243486e-02
  3.813037e-01    1.841338e+00   4.299995e-02
  3.835142e-01    1.838645e+00   4.282738e-02
  3.857246e-01    1.834750e+00   4.264352e-02
  3.879351e-01    1.851081e+00   4.269425e-02
  3.901455e-01    1.807189e+00   4.205075e-02
  3.923560e-01    1.830714e+00   4.218903e-02
  3.945665e-01    1.819607e+00   4.192748e-02
  3.967769e-01    1.771772e+00   4.124313e-02
  3.989874e-01    1.777275e+00   4.117815e-02
  4.011978e-01    1.745902e+00   4.068760e-02
  4.034083e-01    1.746094e+00   4.056488e-02
  4.056187e-01    1.797955e+00   4.103610e-02
  4.078292e-01    1.807769e+00   4.102341e-02
  4.100397e-01    1.805256e+00   4.086972e-02
  4.122501e-01    1.818053e+00   4.089164e-02
  4.144606e-01    1.773628e+00   4.026917e-02
  4.166710e-01    1.813947e+00   4.060321e-02
  4.188815e-01    1.810305e+00   4.044261e-02
  4.210919e-01    1.842431e+00   4.068032e-02
  4.233024e-01    1.821889e+00   4.033392e-02
  4.255128e-01    1.770662e+00   3.964789e-02
  4.277233e-01    1.814630e+00   4.002179e-02
  4.299338e-01    1.840775e+00   4.019311e-02
  4.321442e-01    1.775141e+00   3.935710e-02
  4.343547e-01    1.798434e+00   3.950246e-02
  4.365651e-01    1.794311e+00   3.934504e-02
  4.387756e-01    1.807729e+00   3.938130e-02
  4.409860e-01    1.783213e+00   3.900499e-02
  4.431965e-01    1.777032e+00   3.882967e-02
  4.454070e-01    1.717369e+00   3.806606e-02
  4.476174e-01    1.673061e+00   3.746863e-02
  4.498279e-01    1.720043e+00   3.788770e-02
  4.520383e-01    1.763627e+00   3.825944e-02
  4.542488e-01    1.732261e+00   3.781545e-02
  4.564592e-01    1.809023e+00   3.854053e-02
  4.586697e-01    1.789062e+00   3.822562e-02
  4.608801e-01    1.789300e+00   3.812576e-02
  4.630906e-01    1.744417e+00   3.754487e-02
  4.653011e-01    1.724520e+00   3.723198e-02
  4.675115e-01    1.684791e+00   3.670367e-02
  4.697220e-01    1.723206e+00   3.702255e-02
  4.719324e-01    1.741324e+00   3.712043e-02
  4.741429e-01    1.685161e+00   3.642281e-02
  4.763533e-01    1.700899e+00   3.649868e-02
  4.785638e-01    1.720776e+00   3.661649e-02
  4.807743e-01    1.698041e+00   3.628130e-02
  4.829847e-01    1.687079e+00   3.607263e-02
  4.851952e-01    1.669264e+00   3.579088e-02
  4.874056e-01    1.649484e+00   3.548847e-02
  4.896161e-01    1.671922e+00   3.564045e-02
  4.918265e-01    1.660025e+00   3.542520e-02
  4.940370e-01    1.657581e+00   3.531173e-02
  4.962475e-01    1.702809e+00   3.570185e-02
  4.984579e-01    1.673543e+00   3.530650e-02
  5.006684e-01    1.676370e+00   3.525013e-02
  5.028788e-01    1.695930e+00   3.536930e-02
  5.050893e-01    1.673401e+00   3.504812e-02
  5.072997e-01    1.677710e+00   3.500846e-02
  5.095102e-01    1.670229e+00   3.484667e-02
  5.117206e-01    1.695017e+00   3.502082e-02
  5.139311e-01    1.678940e+00   3.477185e-02
  5.161416e-01    1.691929e+00   3.482361e-02
  5.183520e-01    1.680729e+00   3.462568e-02
  5.205625e-01    1.732476e+00   3.507232e-02
  5.227729e-01    1.663787e+00   3.428986e-02
  5.249834e-01    1.705370e+00   3.463511e-02
  5.271938e-01    1.728583e+00   3.478868e-02
  5.294043e-01    1.736245e+00   3.478524e-02
  5.316148e-01    1.707186e+00   3.441391e-02
  5.338252e-01    1.804645e+00   3.530170e-02
  5.360357e-01    1.757685e+00   3.476008e-02
  5.382461e-01    1.757741e+00   3.468205e-02
  5.404566e-01    1.765527e+00   3.467967e-02
  5.426670e-01    1.738219e+00   3.433290e-02
  5.448775e-01    1.737296e+00   3.424709e-02
  5.470879e-01    1.786802e+00   3.465416e-02
  5.492984e-01    1.806529e+00   3.476745e-02
  5.515089e-01    1.796301e+00   3.459201e-02
  5.537193e-01    1.773946e+00   3.430033e-02
  5.559298e-01    1.817975e+00   3.464724e-02
  5.581402e-01    1.787044e+00   3.427616e-02
  5.603507e-01    1.786312e+00   3.419458e-02
  5.625611e-01    1.744038e+00   3.371421e-02
  5.647716e-01    1.746903e+00   3.366862e-02
  5.669821e-01    1.828745e+00   3.437401e-02
  5.691925e-01    1.802519e+00   3.405341e-02
  5.714030e-01    1.787544e+00   3.383934e-02
  5.736134e-01    1.719774e+00   3.312109e-02
  5.758239e-01    1.750777e+00   3.334697e-02
  5.780343e-01    1.738415e+00   3.315874e-02
  5.802448e-01    1.714715e+00   3.286301e-02
  5.824552e-01    1.680269e+00   3.246298e-02
  5.846657e-01    1.668983e+00   3.228634e-02
  5.868762e-01    1.711239e+00   3.262443e-02
  5.890866e-01    1.691035e+00   3.236400e-02
  5.912971e-01    1.660625e+00   3.200527e-02
  5.935075e-01    1.619888e+00   3.154493e-02
  5.957180e-01    1.612476e+00   3.140811e-02
  5.979284e-01    1.633933e+00   3.155183e-02
  6.001389e-01    1.686785e+00   3.199280e-02
  6.023494e-01    1.678280e+00   3.184726e-02
  6.045598e-01    1.626813e+00   3.129129e-02
  6.067703e-01    1.659105e+00   3.153676e-02
  6.089807e-01    1.696644e+00   3.182744e-02
  6.111912e-01    1.689237e+00   3.169448e-02
  6.134016e-01    1.702960e+00   3.175948e-02
  6.156121e-01    1.718717e+00   3.184266e-02
  6.178226e-01    1.714536e+00   3.174093e-02
  6.200330e-01    1.733689e+00   3.185476e-02
  6.222435e-01    1.733038e+00   3.178571e-02
  6.244539e-01    1.703300e+00   3.145009e-02
  6.266644e-01    1.751350e+00   3.182841e-02
  6.288748e-01    1.743502e+00   3.169521e-02
  6.310853e-01    1.728353e+00   3.149594e-02
  6.332957e-01    1.718401e+00   3.134450e-02
  6.355062e-01    1.714717e+00   3.125006e-02
  6.377167e-01    1.737441e+00   3.139608e-02
  6.399271e-01    1.753123e+00   3.147702e-02
  6.421376e-01    1.722593e+00   3.114219e-02
  6.443480e-01    1.693722e+00   3.082136e-02
  6.465585e-01    1.686129e+00   3.069395e-02
  6.487689e-01    1.675130e+00   3.053590e-02
  6.509794e-01    1.686512e+00   3.058166e-02
  6.531899e-01    1.660088e+00   3.028411e-02
  6.554003e-01    1.644819e+00   3.008783e-02
  6.576108e-01    1.621281e+00   2.981616e-02
  6.598212e-01    1.623391e+00   2.978011e-02
  6.620317e-01    1.628309e+00   2.976990e-02
  6.642421e-01    1.640465e+00   2.982553e-02
  6.664526e-01    1.653540e+00   2.988900e-02
  6.686630e-01    1.646287e+00   2.976823e-02
  6.708735e-01    1.632302e+00   2.958714e-02
  6.730840e-01    1.632396e+00   2.953406e-02
  6.752944e-01    1.616378e+00   2.933535e-02
  6.775049e-01    1.573931e+00   2.889505e-02
  6.797153e-01    1.633218e+00   2.938090e-02
  6.819258e-01    1.664026e+00   2.960326e-02
  6.841362e-01    1.615001e+00   2.911148e-02
  6.863467e-01    1.629871e+00   2.919281e-02
  6.885572e-01    1.626350e+00   2.910900e-02
  6.907676e-01    1.632721e+00   2.911371e-02
  6.929781e-01    1.593813e+00   2.871359e-02
  6.951885e-01    1.622003e+00   2.891509e-02
  6.973990e-01    1.658291e+00   2.918507e-02
  6.996094e-01    1.613612e+00   2.873859e-02
  7.018199e-01    1.565968e+00   2.826144e-02
  7.040303e-01    1.602516e+00   2.853909e-02
  7.062408e-01    1.636768e+00   2.879198e-02
  7.084513e-01    1.595699e+00   2.837902e-02
  7.106617e-01    1.603044e+00   2.839481e-02
  7.128722e-01    1.589472e+00   2.822545e-02
  7.150826e-01    1.618314e+00   2.843129e-02
  7.172931e-01    1.604736e+00   2.826297e-02
  7.195035e-01    1.580972e+00   2.800469e-02
  7.217140e-01    1.608642e+00   2.829866e-02
  7.239245e-01    1.627911e+00   2.869819e-02
  7.261349e-01    1.569102e+00   2.828349e-02
  7.283454e-01    1.565124e+00   2.831978e-02
  7.305558e-01    1.589786e+00   2.859628e-02
  7.327663e-01    1.609222e+00   2.881353e-02
  7.349767e-01    1.561786e+00   2.840198e-02
  7.371872e-01    1.562216e+00   2.839473e-02
  7.393976e-01    1.618339e+00   2.888582e-02
  7.416081e-01    1.598017e+00   2.868761e-02
  7.438186e-01    1.595730e+00   2.852178e-02
  7.460290e-01    1.579553e+00   2.808215e-02
  7.482395e-01    1.567989e+00   2.780836e-02
  7.504499e-01    1.551900e+00   2.753004e-02
  7.526604e-01    1.545116e+00   2.735434e-02
  7.548708e-01    1.560939e+00   2.740501e-02
  7.570813e-01    1.574529e+00   2.747310e-02
  7.592918e-01    1.568235e+00   2.738301e-02
  7.615022e-01    1.585561e+00   2.749996e-02
  7.637127e-01    1.576856e+00   2.739156e-02
  7.659231e-01    1.576414e+00   2.735570e-02
  7.681336e-01    1.535147e+00   2.696406e-02
  7.703440e-01    1.598733e+00   2.748535e-02
  7.725545e-01    1.605056e+00   2.750850e-02
  7.747650e-01    1.615288e+00   2.755734e-02
  7.769754e-01    1.580514e+00   2.720632e-02
  7.791859e-01    1.557035e+00   2.695031e-02
  7.813963e-01    1.577972e+00   2.707830e-02
  7.836068e-01    1.617555e+00   2.736331e-02
  7.858172e-01    1.595337e+00   2.712393e-02
  7.880277e-01    1.595598e+00   2.707453e-02
  7.902381e-01    1.631393e+00   2.732680e-02
  7.924486e-01    1.627222e+00   2.724130e-02
  7.946591e-01    1.643794e+00   2.733069e-02
  7.968695e-01    1.682266e+00   2.759922e-02
  7.990800e-01    1.675179e+00   2.749181e-02
  8.012904e-01    1.677214e+00   2.746091e-02
  8.035009e-01    1.654677e+00   2.722727e-02
  8.057113e-01    1.669104e+00   2.729841e-02
  8.079218e-01    1.642747e+00   2.703529e-02
  8.101323e-01    1.638323e+00   2.695301e-02
  8.123427e-01    1.640784e+00   2.692727e-02
  8.145532e-01    1.620739e+00   2.671648e-02
  8.167636e-01    1.700407e+00   2.731921e-02
  8.189741e-01    1.693119e+00   2.721519e-02
  8.211845e-01    1.648304e+00   2.680757e-02
  8.233950e-01    1.613713e+00   2.648167e-02
  8.256054e-01    1.604927e+00   2.636570e-02
  8.278159e-01    1.617942e+00   2.642868e-02
  8.300264e-01    1.661668e+00   2.674004e-02
  8.322368e-01    1.641499e+00   2.653411e-02
  8.344473e-01    1.652920e+00   2.658269e-02
  8.366577e-01    1.664844e+00   2.663548e-02
  8.388682e-01    1.686452e+00   2.676492e-02
  8.410786e-01    1.687982e+00   2.673439e-02
  8.432891e-01    1.692385e+00   2.672670e-02
  8.454996e-01    1.664765e+00   2.646578e-02
  8.477100e-01    1.633013e+00   2.617056e-02
  8.499205e-01    1.648993e+00   2.625700e-02
  8.521309e-01    1.649733e+00   2.622194e-02
  8.543414e-01    1.651924e+00   2.619840e-02
  8.565518e-01    1.637787e+00   2.604547e-02
  8.587623e-01    1.662025e+00   2.619660e-02
  8.609727e-01    1.618886e+00   2.581433e-02
  8.631832e-01    1.594081e+00   2.557629e-02
  8.653937e-01    1.584102e+00   2.545693e-02
  8.676041e-01    1.591263e+00   2.547590e-02
  8.698146e-01    1.612655e+00   2.560738e-02
  8.720250e-01    1.631719e+00   2.571902e-02
  8.742355e-01    1.636282e+00   2.571577e-02
  8.764459e-01    1.608802e+00   2.546003e-02
  8.786564e-01    1.564721e+00   2.507136e-02
  8.808669e-01    1.584472e+00   2.519084e-02
  8.830773e-01    1.592303e+00   2.521500e-02
  8.852878e-01    1.598313e+00   2.522467e-02
  8.874982e-01    1.588531e+00   2.511087e-02
  8.897087e-01    1.574343e+00   2.496110e-02
  8.919191e-01    1.611402e+00   2.521530e-02
  8.941296e-01    1.596501e+00   2.506120e-02
  8.963401e-01    1.617161e+00   2.518622e-02
  8.985505e-01    1.615906e+00   2.513930e-02
  9.007610e-01    1.571534e+00   2.475534e-02
  9.029714e-01    1.570538e+00   2.471195e-02
  9.051819e-01    1.591554e+00   2.483964e-02
  9.073923e-01    1.614458e+00   2.498100e-02
  9.096028e-01    1.600885e+00   2.484084e-02
  9.118132e-01    1.563530e+00   2.451351e-02
  9.140237e-01    1.602580e+00   2.478108e-02
  9.162342e-01    1.572886e+00   2.451617e-02
  9.184446e-01    1.583591e+00   2.456387e-02
  9.206551e-01    1.598557e+00   2.464410e-02
  9.228655e-01    1.596417e+00   2.459240e-02
  9.250760e-01    1.589540e+00   2.450415e-02
  9.272864e-01    1.636771e+00   2.483091e-02
  9.294969e-01    1.682652e+00   2.513983e-02
  9.317074e-01    1.647833e+00   2.484324e-02
  9.339178e-01    1.667350e+00   2.495577e-02
  9.361283e-01    1.657674e+00   2.484658e-02
  9.383387e-01    1.608453e+00   2.444164e-02
  9.405492e-01    1.631304e+00   2.458025e-02
  9.427596e-01    1.670521e+00   2.483815e-02
  9.449701e-01    1.653111e+00   2.467482e-02
  9.471805e-01    1.651275e+00   2.462618e-02
  9.493910e-01    1.672907e+00   2.475293e-02
  9.516015e-01    1.718452e+00   2.505259e-02
  9.538119e-01    1.723031e+00   2.505159e-02
  9.560224e-01    1.700295e+00   2.485073e-02
  9.582328e-01    1.723684e+00   2.498748e-02
  9.604433e-01    1.728021e+00   2.498348e-02
  9.626537e-01    1.767293e+00   2.523181e-02
  9.648642e-01    1.758973e+00   2.513788e-02
  9.670747e-01    1.789302e+00   2.531868e-02
  9.692851e-01    1.815936e+00   2.547253e-02
  9.714956e-01    1.853535e+00   2.569859e-02
  9.737060e-01    1.860233e+00   2.571118e-02
  9.759165e-01    1.877200e+00   2.579173e-02
  9.781269e-01    1.841130e+00   2.550936e-02
  9.803374e-01    1.782868e+00   2.506775e-02
  9.825478e-01    1.793459e+00   2.510894e-02
  9.847583e-01    1.777557e+00   2.496343e-02
  9.869688e-01    1.773045e+00   2.489835e-02
  9.891792e-01    1.751971e+00   2.471705e-02
  9.913897e-01    1.766564e+00   2.478627e-02
  9.936001e-01    1.823090e+00   2.514671e-02
  9.958106e-01    2.027611e+00   2.648370e-02
  9.980210e-01    1.924174e+00   2.576598e-02
  1.000231e+00    1.684220e+00   2.423793e-02
  1.002442e+00    1.639459e+00   2.404071e-02
  1.004652e+00    1.636062e+00   2.408280e-02
  1.006863e+00    1.604820e+00   2.390123e-02
  1.009073e+00    1.592476e+00   2.384558e-02
  1.011284e+00    1.567295e+00   2.368794e-02
  1.013494e+00    1.594575e+00   2.391688e-02
  1.015705e+00    1.569823e+00   2.375297e-02
  1.017915e+00    1.539519e+00   2.353879e-02
  1.020126e+00    1.546163e+00   2.360547e-02
  1.022336e+00    1.559985e+00   2.372242e-02
  1.024547e+00    1.577792e+00   2.386876e-02
  1.026757e+00    1.524104e+00   2.346746e-02
  1.028967e+00    1.507537e+00   2.334714e-02
  1.031178e+00    1.516540e+00   2.342287e-02
  1.033388e+00    1.516449e+00   2.342721e-02
  1.035599e+00    1.521652e+00   2.347079e-02
  1.037809e+00    1.505173e+00   2.334657e-02
  1.040020e+00    1.515649e+00   2.342896e-02
  1.042230e+00    1.510004e+00   2.338721e-02
  1.044441e+00    1.519899e+00   2.346350e-02
  1.046651e+00    1.526131e+00   2.351174e-02
  1.048862e+00    1.505266e+00   2.334965e-02
  1.051072e+00    1.522072e+00   2.347728e-02
  1.053282e+00    1.526646e+00   2.351156e-02
  1.055493e+00    1.509627e+00   2.337582e-02
  1.057703e+00    1.538427e+00   2.359619e-02
  1.059914e+00    1.575566e+00   2.387492e-02
  1.062124e+00    1.702823e+00   2.481600e-02
  1.064335e+00    1.981886e+00   2.676837e-02
  1.066545e+00    1.947708e+00   2.652979e-02
  1.068756e+00    1.900982e+00   2.620533e-02
  1.070966e+00    2.096345e+00   2.751113e-02
  1.073177e+00    2.149638e+00   2.785141e-02
  1.075387e+00    1.828551e+00   2.568151e-02
  1.077597e+00    1.613659e+00   2.411764e-02
  1.079808e+00    1.748260e+00   2.495818e-02
  1.082018e+00    2.195821e+00   2.773945e-02
  1.084229e+00    1.979986e+00   2.621294e-02
  1.086439e+00    1.563731e+00   2.320449e-02
  1.088650e+00    1.466706e+00   2.239701e-02
  1.090860e+00    1.439842e+00   2.212368e-02
  1.093071e+00    1.426988e+00   2.196300e-02
  1.095281e+00    1.446431e+00   2.205486e-02
  1.097492e+00    1.443564e+00   2.197813e-02
  1.099702e+00    1.415394e+00   2.171168e-02
  1.101912e+00    1.433228e+00   2.179929e-02
  1.104123e+00    1.433188e+00   2.175081e-02
  1.106333e+00    1.416688e+00   2.158108e-02
  1.108544e+00    1.406908e+00   2.146255e-02
  1.110754e+00    1.405437e+00   2.140863e-02
  1.112965e+00    1.419889e+00   2.147792e-02
  1.115175e+00    1.406351e+00   2.133430e-02
  1.117386e+00    1.382054e+00   2.111041e-02
  1.119596e+00    1.355747e+00   2.087140e-02
  1.121807e+00    1.396247e+00   2.114222e-02
  1.124017e+00    1.402604e+00   2.115373e-02
  1.126228e+00    1.410483e+00   2.117721e-02
  1.128438e+00    1.407809e+00   2.112027e-02
  1.130648e+00    1.392056e+00   2.096757e-02
  1.132859e+00    1.387511e+00   2.089904e-02
  1.135069e+00    1.368749e+00   2.072285e-02
  1.137280e+00    1.383298e+00   2.079976e-02
  1.139490e+00    1.377199e+00   2.072091e-02
  1.141701e+00    1.382058e+00   2.072435e-02
  1.143911e+00    1.371906e+00   2.061636e-02
  1.146122e+00    1.357184e+00   2.047372e-02
  1.148332e+00    1.384939e+00   2.065005e-02
  1.150543e+00    1.362742e+00   2.045325e-02
  1.152753e+00    1.346909e+00   2.030355e-02
  1.154963e+00    1.373824e+00   2.047437e-02
  1.157174e+00    1.382536e+00   2.050892e-02
  1.159384e+00    1.412040e+00   2.069632e-02
  1.161595e+00    1.450464e+00   2.094530e-02
  1.163805e+00    1.546704e+00   2.159790e-02
  1.166016e+00    1.602023e+00   2.194891e-02
  1.168226e+00    1.725661e+00   2.274754e-02
  1.170437e+00    1.751597e+00   2.288555e-02
  1.172647e+00    1.560725e+00   2.157179e-02
  1.174858e+00    1.464572e+00   2.086757e-02
  1.177068e+00    1.435201e+00   2.062828e-02
  1.179278e+00    1.399910e+00   2.034410e-02
  1.181489e+00    1.378407e+00   2.016005e-02
  1.183699e+00    1.385671e+00   2.018525e-02
  1.185910e+00    1.395917e+00   2.023159e-02
  1.188120e+00    1.347826e+00   1.985344e-02
  1.190331e+00    1.356099e+00   1.988748e-02
  1.192541e+00    1.353992e+00   1.984468e-02
  1.194752e+00    1.329014e+00   1.963395e-02
  1.196962e+00    1.351224e+00   1.977160e-02
  1.199173e+00    1.368003e+00   1.986729e-02
  1.201383e+00    1.349846e+00   1.970788e-02
  1.203593e+00    1.330063e+00   1.953826e-02
  1.205804e+00    1.355847e+00   1.970077e-02
  1.208014e+00    1.371669e+00   1.978831e-02
  1.210225e+00    1.397398e+00   1.994728e-02
  1.212435e+00    1.384911e+00   1.983286e-02
  1.214646e+00    1.369455e+00   1.969557e-02
  1.216856e+00    1.366851e+00   1.965121e-02
  1.219067e+00    1.390023e+00   1.979225e-02
  1.221277e+00    1.360048e+00   1.955258e-02
  1.223488e+00    1.320832e+00   1.924314e-02
  1.225698e+00    1.346980e+00   1.940581e-02
  1.227909e+00    1.338840e+00   1.931704e-02
  1.230119e+00    1.365822e+00   1.947868e-02
  1.232329e+00    1.369851e+00   1.947644e-02
  1.234540e+00    1.380897e+00   1.952420e-02
  1.236750e+00    1.345363e+00   1.924114e-02
  1.238961e+00    1.335609e+00   1.914443e-02
  1.241171e+00    1.321926e+00   1.902219e-02
  1.243382e+00    1.339593e+00   1.912545e-02
  1.245592e+00    1.333985e+00   1.906142e-02
  1.247803e+00    1.344446e+00   1.911241e-02
  1.250013e+00    1.337048e+00   1.903632e-02
  1.252224e+00    1.357665e+00   1.915920e-02
  1.254434e+00    1.387971e+00   1.934780e-02
  1.256644e+00    1.396532e+00   1.938376e-02
  1.258855e+00    1.376119e+00   1.921810e-02
  1.261065e+00    1.349895e+00   1.901073e-02
  1.263276e+00    1.330038e+00   1.884761e-02
  1.265486e+00    1.339039e+00   1.888849e-02
  1.267697e+00    1.357726e+00   1.899675e-02
  1.269907e+00    1.347562e+00   1.890284e-02
  1.272118e+00    1.338215e+00   1.881469e-02
  1.274328e+00    1.374306e+00   1.904376e-02
  1.276539e+00    1.406129e+00   1.923976e-02
  1.278749e+00    1.368874e+00   1.896073e-02
  1.280959e+00    1.376169e+00   1.898842e-02
  1.283170e+00    1.367841e+00   1.890831e-02
  1.285380e+00    1.348426e+00   1.875119e-02
  1.287591e+00    1.368900e+00   1.887083e-02
  1.289801e+00    1.364315e+00   1.881787e-02
  1.292012e+00    1.329104e+00   1.855650e-02
  1.294222e+00    1.343215e+00   1.863852e-02
  1.296433e+00    1.341262e+00   1.860943e-02
  1.298643e+00    1.354338e+00   1.868342e-02
  1.300854e+00    1.356283e+00   1.868037e-02
  1.303064e+00    1.377673e+00   1.880768e-02
  1.305274e+00    1.379637e+00   1.879942e-02
  1.307485e+00    1.348737e+00   1.856616e-02
  1.309695e+00    1.388173e+00   1.881307e-02
  1.311906e+00    1.426499e+00   1.904870e-02
  1.314116e+00    1.418819e+00   1.897606e-02
  1.316327e+00    1.416011e+00   1.893504e-02
  1.318537e+00    1.400261e+00   1.880717e-02
  1.320748e+00    1.367849e+00   1.856653e-02
  1.322958e+00    1.352767e+00   1.844335e-02
  1.325169e+00    1.337823e+00   1.832026e-02
  1.327379e+00    1.330925e+00   1.825131e-02
  1.329589e+00    1.358414e+00   1.841769e-02
  1.331800e+00    1.366844e+00   1.845392e-02
  1.334010e+00    1.382322e+00   1.853723e-02
  1.336221e+00    1.362197e+00   1.837994e-02
  1.338431e+00    1.383788e+00   1.850390e-02
  1.340642e+00    1.385467e+00   1.858012e-02
  1.342852e+00    1.365760e+00   1.854878e-02
  1.345063e+00    1.340955e+00   1.842888e-02
  1.347273e+00    1.333223e+00   1.841069e-02
  1.349484e+00    1.349133e+00   1.854787e-02
  1.351694e+00    1.365773e+00   1.868475e-02
  1.353905e+00    1.354507e+00   1.862558e-02
  1.356115e+00    1.340995e+00   1.854741e-02
  1.358325e+00    1.357568e+00   1.867503e-02
  1.360536e+00    1.355822e+00   1.867468e-02
  1.362746e+00    1.353985e+00   1.867159e-02
  1.364957e+00    1.363245e+00   1.874305e-02
  1.367167e+00    1.329162e+00   1.851437e-02
  1.369378e+00    1.318720e+00   1.844744e-02
  1.371588e+00    1.348489e+00   1.865965e-02
  1.373799e+00    1.334083e+00   1.856337e-02
  1.376009e+00    1.332356e+00   1.855475e-02
  1.378220e+00    1.306860e+00   1.837886e-02
  1.380430e+00    1.305384e+00   1.837114e-02
  1.382640e+00    1.305564e+00   1.837333e-02
  1.384851e+00    1.301919e+00   1.834851e-02
  1.387061e+00    1.306376e+00   1.838021e-02
  1.389272e+00    1.268466e+00   1.811175e-02
  1.391482e+00    1.274705e+00   1.815556e-02
  1.393693e+00    1.285847e+00   1.823386e-02
  1.395903e+00    1.274527e+00   1.815195e-02
  1.398114e+00    1.267445e+00   1.810005e-02
  1.400324e+00    1.291883e+00   1.827158e-02
  1.402535e+00    1.295148e+00   1.829235e-02
  1.404745e+00    1.247469e+00   1.795015e-02
  1.406955e+00    1.262476e+00   1.805509e-02
  1.409166e+00    1.277100e+00   1.815606e-02
  1.411376e+00    1.262717e+00   1.805043e-02
  1.413587e+00    1.266922e+00   1.807663e-02
  1.415797e+00    1.285511e+00   1.820521e-02
  1.418008e+00    1.289503e+00   1.819127e-02
  1.420218e+00    1.282876e+00   1.799399e-02
  1.422429e+00    1.258822e+00   1.773955e-02
  1.424639e+00    1.275671e+00   1.779305e-02
  1.426850e+00    1.277923e+00   1.775387e-02
  1.429060e+00    1.272494e+00   1.766708e-02
  1.431270e+00    1.286026e+00   1.771617e-02
  1.433481e+00    1.317097e+00   1.788720e-02
  1.435691e+00    1.341660e+00   1.801374e-02
  1.437902e+00    1.311345e+00   1.777202e-02
  1.440112e+00    1.299411e+00   1.765522e-02
  1.442323e+00    1.256895e+00   1.733111e-02
  1.444533e+00    1.266834e+00   1.736696e-02
  1.446744e+00    1.289966e+00   1.749344e-02
  1.448954e+00    1.270252e+00   1.732906e-02
  1.451165e+00    1.266810e+00   1.727586e-02
  1.453375e+00    1.263538e+00   1.722554e-02
  1.455586e+00    1.267480e+00   1.722427e-02
  1.457796e+00    1.263130e+00   1.716725e-02
  1.460006e+00    1.265990e+00   1.715945e-02
  1.462217e+00    1.288091e+00   1.728219e-02
  1.464427e+00    1.265411e+00   1.710380e-02
  1.466638e+00    1.255942e+00   1.701449e-02
  1.468848e+00    1.274236e+00   1.711257e-02
  1.471059e+00    1.277414e+00   1.710874e-02
  1.473269e+00    1.234878e+00   1.679743e-02
  1.475480e+00    1.239831e+00   1.680758e-02
  1.477690e+00    1.282121e+00   1.706785e-02
  1.479901e+00    1.322116e+00   1.730768e-02
  1.482111e+00    1.311916e+00   1.721708e-02
  1.484321e+00    1.278319e+00   1.697197e-02
  1.486532e+00    1.260220e+00   1.682911e-02
  1.488742e+00    1.262238e+00   1.681995e-02
  1.490953e+00    1.254914e+00   1.674857e-02
  1.493163e+00    1.249455e+00   1.668993e-02
  1.495374e+00    1.242188e+00   1.662002e-02
  1.497584e+00    1.231302e+00   1.652565e-02
  1.499795e+00    1.232425e+00   1.651176e-02
  1.502005e+00    1.251120e+00   1.661492e-02
  1.504216e+00    1.260613e+00   1.665680e-02
  1.506426e+00    1.248550e+00   1.655615e-02
  1.508636e+00    1.276049e+00   1.671691e-02
  1.510847e+00    1.260169e+00   1.659070e-02
  1.513057e+00    1.271099e+00   1.663725e-02
  1.515268e+00    1.307193e+00   1.684557e-02
  1.517478e+00    1.323115e+00   1.692202e-02
  1.519689e+00    1.284472e+00   1.664783e-02
  1.521899e+00    1.275040e+00   1.656329e-02
  1.524110e+00    1.256015e+00   1.641889e-02
  1.526320e+00    1.262624e+00   1.644235e-02
  1.528531e+00    1.280716e+00   1.653973e-02
  1.530741e+00    1.285546e+00   1.655148e-02
  1.532951e+00    1.251286e+00   1.630987e-02
  1.535162e+00    1.228052e+00   1.624356e-02
  1.537372e+00    1.222744e+00   1.627462e-02
  1.539583e+00    1.249299e+00   1.648462e-02
  1.541793e+00    1.251546e+00   1.650643e-02
  1.544004e+00    1.239313e+00   1.642580e-02
  1.546214e+00    1.249777e+00   1.649348e-02
  1.548425e+00    1.252104e+00   1.650913e-02
  1.550635e+00    1.246574e+00   1.648228e-02
  1.552846e+00    1.234026e+00   1.640875e-02
  1.555056e+00    1.254435e+00   1.650223e-02
  1.557266e+00    1.256283e+00   1.640340e-02
  1.559477e+00    1.268679e+00   1.642445e-02
  1.561687e+00    1.295151e+00   1.656363e-02
  1.563898e+00    1.276918e+00   1.642926e-02
  1.566108e+00    1.279879e+00   1.643209e-02
  1.568319e+00    1.300003e+00   1.654481e-02
  1.570529e+00    1.297471e+00   1.650304e-02
  1.572740e+00    1.263629e+00   1.625857e-02
  1.574950e+00    1.249797e+00   1.614296e-02
  1.577161e+00    1.254047e+00   1.614480e-02
  1.579371e+00    1.280175e+00   1.628811e-02
  1.581582e+00    1.270799e+00   1.620841e-02
  1.583792e+00    1.255941e+00   1.609526e-02
  1.586002e+00    1.247953e+00   1.602635e-02
  1.588213e+00    1.235778e+00   1.593080e-02
  1.590423e+00    1.245159e+00   1.597106e-02
  1.592634e+00    1.243674e+00   1.593993e-02
  1.594844e+00    1.232601e+00   1.584750e-02
  1.597055e+00    1.226681e+00   1.578904e-02
  1.599265e+00    1.231878e+00   1.580180e-02
  1.601476e+00    1.224142e+00   1.573193e-02
  1.603686e+00    1.229488e+00   1.574657e-02
  1.605897e+00    1.243823e+00   1.581790e-02
  1.608107e+00    1.224658e+00   1.567613e-02
  1.610317e+00    1.222648e+00   1.564404e-02
  1.612528e+00    1.227655e+00   1.565694e-02
  1.614738e+00    1.208108e+00   1.551301e-02
  1.616949e+00    1.208248e+00   1.549508e-02
  1.619159e+00    1.200793e+00   1.542865e-02
  1.621370e+00    1.209979e+00   1.546916e-02
  1.623580e+00    1.197972e+00   1.537401e-02
  1.625791e+00    1.174276e+00   1.520321e-02
  1.628001e+00    1.156343e+00   1.506877e-02
  1.630212e+00    1.168708e+00   1.513153e-02
  1.632422e+00    1.160694e+00   1.506188e-02
  1.634632e+00    1.140237e+00   1.491156e-02
  1.636843e+00    1.135383e+00   1.486254e-02
  1.639053e+00    1.145816e+00   1.491360e-02
  1.641264e+00    1.166358e+00   1.502962e-02
  1.643474e+00    1.140614e+00   1.484561e-02
  1.645685e+00    1.161907e+00   1.496682e-02
  1.647895e+00    1.178108e+00   1.505406e-02
  1.650106e+00    1.166276e+00   1.496117e-02
  1.652316e+00    1.141370e+00   1.478413e-02
  1.654527e+00    1.115180e+00   1.459705e-02
  1.656737e+00    1.118239e+00   1.460062e-02
  1.658947e+00    1.125280e+00   1.463028e-02
  1.661158e+00    1.107873e+00   1.450057e-02
  1.663368e+00    1.114650e+00   1.452888e-02
  1.665579e+00    1.084478e+00   1.431500e-02
  1.667789e+00    1.094457e+00   1.436462e-02
  1.670000e+00    1.113772e+00   1.447533e-02
  1.672210e+00    1.106432e+00   1.441169e-02
  1.674421e+00    1.110386e+00   1.442208e-02
  1.676631e+00    1.069243e+00   1.413672e-02
  1.678842e+00    1.081663e+00   1.420291e-02
  1.681052e+00    1.080965e+00   1.418306e-02
  1.683263e+00    1.059070e+00   1.402376e-02
  1.685473e+00    1.046606e+00   1.392611e-02
  1.687683e+00    1.058178e+00   1.398765e-02
  1.689894e+00    1.059468e+00   1.398055e-02
  1.692104e+00    1.062088e+00   1.398301e-02
  1.694315e+00    1.095791e+00   1.418847e-02
  1.696525e+00    1.082170e+00   1.408479e-02
  1.698736e+00    1.057771e+00   1.391031e-02
  1.700946e+00    1.066131e+00   1.394999e-02
  1.703157e+00    1.103833e+00   1.417957e-02
  1.705367e+00    1.061114e+00   1.388793e-02
  1.707578e+00    1.033662e+00   1.369263e-02
  1.709788e+00    1.043907e+00   1.374622e-02
  1.711998e+00    1.015484e+00   1.354299e-02
  1.714209e+00    1.017845e+00   1.354441e-02
  1.716419e+00    1.015503e+00   1.351470e-02
  1.718630e+00    9.965762e-01   1.337413e-02
  1.720840e+00    1.008887e+00   1.344243e-02
  1.723051e+00    1.005202e+00   1.340413e-02
  1.725261e+00    1.023996e+00   1.351416e-02
  1.727472e+00    1.003976e+00   1.336733e-02
  1.729682e+00    9.858894e-01   1.323311e-02
  1.731893e+00    9.808072e-01   1.318526e-02
  1.734103e+00    9.939838e-01   1.325983e-02
  1.736313e+00    1.062194e+00   1.369284e-02
  1.738524e+00    1.093667e+00   1.387982e-02
  1.740734e+00    1.048823e+00   1.357825e-02
  1.742945e+00    1.053457e+00   1.359435e-02
  1.745155e+00    1.077536e+00   1.373483e-02
  1.747366e+00    1.027033e+00   1.339503e-02
  1.749576e+00    9.696585e-01   1.300196e-02
  1.751787e+00    9.530717e-01   1.287710e-02
  1.753997e+00    9.983264e-01   1.316576e-02
  1.756208e+00    1.033481e+00   1.338199e-02
  1.758418e+00    1.016857e+00   1.326053e-02
  1.760628e+00    9.712171e-01   1.294615e-02
  1.762839e+00    9.463962e-01   1.276656e-02
  1.765049e+00    9.301562e-01   1.264366e-02
  1.767260e+00    9.244070e-01   1.259193e-02
  1.769470e+00    9.271660e-01   1.259794e-02
  1.771681e+00    9.290857e-01   1.259797e-02
  1.773891e+00    9.279959e-01   1.257769e-02
  1.776102e+00    9.200668e-01   1.251117e-02
  1.778312e+00    9.132214e-01   1.245201e-02
  1.780523e+00    8.990766e-01   1.234276e-02
  1.782733e+00    9.291485e-01   1.253484e-02
  1.784944e+00    9.125404e-01   1.240962e-02
  1.787154e+00    9.011437e-01   1.231954e-02
  1.789364e+00    8.994830e-01   1.229592e-02
  1.791575e+00    9.042112e-01   1.231581e-02
  1.793785e+00    9.240079e-01   1.243747e-02
  1.795996e+00    9.740184e-01   1.275673e-02
  1.798206e+00    1.018966e+00   1.303459e-02
  1.800417e+00    9.774269e-01   1.275309e-02
  1.802627e+00    9.275523e-01   1.241141e-02
  1.804838e+00    9.334392e-01   1.243847e-02
  1.807048e+00    9.453093e-01   1.250421e-02
  1.809259e+00    9.554156e-01   1.255693e-02
  1.811469e+00    9.258701e-01   1.234612e-02
  1.813679e+00    8.759927e-01   1.199421e-02
  1.815890e+00    8.648242e-01   1.190301e-02
  1.818100e+00    8.837430e-01   1.201751e-02
  1.820311e+00    8.855053e-01   1.201479e-02
  1.822521e+00    8.908340e-01   1.203603e-02
  1.824732e+00    8.807196e-01   1.195277e-02
  1.826942e+00    8.960059e-01   1.204366e-02
  1.829153e+00    8.941279e-01   1.201929e-02
  1.831363e+00    8.975317e-01   1.203000e-02
  1.833574e+00    9.264230e-01   1.221013e-02
  1.835784e+00    8.940283e-01   1.198325e-02
  1.837994e+00    8.538293e-01   1.169917e-02
  1.840205e+00    8.514137e-01   1.167159e-02
  1.842415e+00    8.527097e-01   1.166882e-02
  1.844626e+00    8.547289e-01   1.167120e-02
  1.846836e+00    8.468318e-01   1.160585e-02
  1.849047e+00    8.430154e-01   1.156822e-02
  1.851257e+00    8.596327e-01   1.167213e-02
  1.853468e+00    8.619942e-01   1.167936e-02
  1.855678e+00    8.463987e-01   1.156441e-02
  1.857889e+00    8.526455e-01   1.159853e-02
  1.860099e+00    8.623227e-01   1.165551e-02
  1.862309e+00    8.519963e-01   1.157704e-02
  1.864520e+00    8.438271e-01   1.151287e-02
  1.866730e+00    8.464721e-01   1.152157e-02
  1.868941e+00    8.575575e-01   1.158578e-02
  1.871151e+00    8.534407e-01   1.154655e-02
  1.873362e+00    8.511914e-01   1.151997e-02
  1.875572e+00    8.353818e-01   1.140163e-02
  1.877783e+00    8.456500e-01   1.146008e-02
  1.879993e+00    8.497456e-01   1.147663e-02
  1.882204e+00    8.531622e-01   1.148873e-02
  1.884414e+00    8.383250e-01   1.137734e-02
  1.886624e+00    8.446272e-01   1.140896e-02
  1.888835e+00    8.336601e-01   1.132372e-02
  1.891045e+00    8.591024e-01   1.148420e-02
  1.893256e+00    8.501450e-01   1.141303e-02
  1.895466e+00    8.490491e-01   1.139440e-02
  1.897677e+00    8.468094e-01   1.136839e-02
  1.899887e+00    8.204242e-01   1.117898e-02
  1.902098e+00    8.176481e-01   1.114930e-02
  1.904308e+00    8.119423e-01   1.109986e-02
  1.906519e+00    8.320270e-01   1.122545e-02
  1.908729e+00    8.453230e-01   1.130409e-02
  1.910940e+00    8.387378e-01   1.124877e-02
  1.913150e+00    8.178107e-01   1.109703e-02
  1.915360e+00    8.082082e-01   1.102115e-02
  1.917571e+00    8.245792e-01   1.112133e-02
  1.919781e+00    8.493664e-01   1.127637e-02
  1.921992e+00    8.545543e-01   1.129994e-02
  1.924202e+00    8.305677e-01   1.112938e-02
  1.926413e+00    8.175660e-01   1.103160e-02
  1.928623e+00    8.206425e-01   1.104177e-02
  1.930834e+00    8.237861e-01   1.105236e-02
  1.933044e+00    8.538345e-01   1.124122e-02
  1.935255e+00    8.142876e-01   1.096745e-02
  1.937465e+00    7.880526e-01   1.077906e-02
  1.939675e+00    7.903981e-01   1.078434e-02
  1.941886e+00    8.024473e-01   1.085598e-02
  1.944096e+00    7.842391e-01   1.072203e-02
  1.946307e+00    7.985162e-01   1.080888e-02
  1.948517e+00    7.929754e-01   1.076090e-02
  1.950728e+00    8.038729e-01   1.082433e-02
  1.952938e+00    7.860751e-01   1.069381e-02
  1.955149e+00    8.025107e-01   1.079474e-02
  1.957359e+00    8.269668e-01   1.094777e-02
  1.959570e+00    7.952716e-01   1.072504e-02
  1.961780e+00    7.925023e-01   1.069645e-02
  1.963990e+00    7.957457e-01   1.070816e-02
  1.966201e+00    7.943447e-01   1.068865e-02
  1.968411e+00    7.955248e-01   1.068641e-02
  1.970622e+00    7.812603e-01   1.058011e-02
  1.972832e+00    7.899869e-01   1.062904e-02
  1.975043e+00    8.038658e-01   1.071185e-02
  1.977253e+00    7.933882e-01   1.063181e-02
  1.979464e+00    7.775428e-01   1.051512e-02
  1.981674e+00    7.687172e-01   1.044508e-02
  1.983885e+00    7.880715e-01   1.056570e-02
  1.986095e+00    8.028851e-01   1.065471e-02
  1.988305e+00    7.843717e-01   1.052123e-02
  1.990516e+00    7.823320e-01   1.049758e-02
  1.992726e+00    7.879491e-01   1.052548e-02
  1.994937e+00    7.791826e-01   1.045663e-02
  1.997147e+00    7.789708e-01   1.044544e-02
  1.999358e+00    7.713023e-01   1.038409e-02
  2.001568e+00    7.756367e-01   1.040238e-02
  2.003779e+00    7.534183e-01   1.024056e-02
  2.005989e+00    7.682582e-01   1.032889e-02
  2.008200e+00    7.808893e-01   1.040187e-02
  2.010410e+00    7.995349e-01   1.051334e-02
  2.012621e+00    7.628914e-01   1.025796e-02
  2.014831e+00    7.535936e-01   1.018386e-02
  2.017041e+00    7.774885e-01   1.033361e-02
  2.019252e+00    7.815059e-01   1.035021e-02
  2.021462e+00    7.832268e-01   1.035197e-02
  2.023673e+00    7.817963e-01   1.033304e-02
  2.025883e+00    7.606362e-01   1.018273e-02
  2.028094e+00    7.568341e-01   1.014764e-02
  2.030304e+00    7.612584e-01   1.016773e-02
  2.032515e+00    7.912375e-01   1.035649e-02
  2.034725e+00    8.099009e-01   1.046820e-02
  2.036936e+00    8.035215e-01   1.041728e-02
  2.039146e+00    7.666811e-01   1.016604e-02
  2.041356e+00    7.529938e-01   1.006525e-02
  2.043567e+00    7.595907e-01   1.009991e-02
  2.045777e+00    7.535241e-01   1.005027e-02
  2.047988e+00    7.655809e-01   1.012092e-02
  2.050198e+00    7.570326e-01   1.005581e-02
  2.052409e+00    7.469589e-01   9.981056e-03
  2.054619e+00    7.684607e-01   1.011621e-02
  2.056830e+00    7.859572e-01   1.022342e-02
  2.059040e+00    7.692448e-01   1.010654e-02
  2.061251e+00    7.515276e-01   9.982212e-03
  2.063461e+00    7.491980e-01   9.959134e-03
  2.065671e+00    7.369832e-01   9.868953e-03
  2.067882e+00    7.483840e-01   9.935994e-03
  2.070092e+00    7.649530e-01   1.003608e-02
  2.072303e+00    7.454367e-01   9.898107e-03
  2.074513e+00    7.428179e-01   9.871388e-03
  2.076724e+00    7.372174e-01   9.824696e-03
  2.078934e+00    7.427368e-01   9.852390e-03
  2.081145e+00    7.521372e-01   9.905407e-03
  2.083355e+00    7.710915e-01   1.002008e-02
  2.085566e+00    7.775477e-01   1.005284e-02
  2.087776e+00    7.898938e-01   1.012249e-02
  2.089986e+00    7.894223e-01   1.011041e-02
  2.092197e+00    7.453104e-01   9.814867e-03
  2.094407e+00    7.522261e-01   9.850953e-03
  2.096618e+00    7.365187e-01   9.738669e-03
  2.098828e+00    7.136134e-01   9.576858e-03
  2.101039e+00    7.261179e-01   9.651451e-03
  2.103249e+00    7.256268e-01   9.639560e-03
  2.105460e+00    7.362020e-01   9.700486e-03
  2.107670e+00    7.268029e-01   9.629653e-03
  2.109881e+00    7.158177e-01   9.547511e-03
  2.112091e+00    7.119759e-01   9.512947e-03
  2.114301e+00    7.174869e-01   9.540956e-03
  2.116512e+00    7.132038e-01   9.503703e-03
  2.118722e+00    7.124756e-01   9.490082e-03
  2.120933e+00    7.275641e-01   9.581142e-03
  2.123143e+00    7.228925e-01   9.541386e-03
  2.125354e+00    7.173386e-01   9.496165e-03
  2.127564e+00    7.085994e-01   9.429431e-03
  2.129775e+00    7.175849e-01   9.480304e-03
  2.131985e+00    7.218367e-01   9.499244e-03
  2.134196e+00    7.070811e-01   9.393102e-03
  2.136406e+00    7.054972e-01   9.373869e-03
  2.138617e+00    6.989819e-01   9.322108e-03
  2.140827e+00    6.969240e-01   9.324281e-03
  2.143037e+00    7.152479e-01   9.491809e-03
  2.145248e+00    6.945652e-01   9.375399e-03
  2.147458e+00    7.089581e-01   9.487215e-03
  2.149669e+00    7.060479e-01   9.479614e-03
  2.151879e+00    6.948469e-01   9.413291e-03
  2.154090e+00    6.933051e-01   9.410108e-03
  2.156300e+00    7.017509e-01   9.473859e-03
  2.158511e+00    7.044224e-01   9.497208e-03
  2.160721e+00    6.902201e-01   9.405769e-03
  2.162932e+00    6.756663e-01   9.309760e-03
  2.165142e+00    6.951728e-01   9.446179e-03
  2.167352e+00    6.958920e-01   9.454009e-03
  2.169563e+00    6.849443e-01   9.381273e-03
  2.171773e+00    7.180006e-01   9.607471e-03
  2.173984e+00    6.844767e-01   9.381919e-03
  2.176194e+00    6.786685e-01   9.343209e-03
  2.178405e+00    6.976109e-01   9.473383e-03
  2.180615e+00    7.069104e-01   9.537028e-03
  2.182826e+00    6.971806e-01   9.471835e-03
  2.185036e+00    6.947203e-01   9.455181e-03
  2.187247e+00    6.871253e-01   9.403274e-03
  2.189457e+00    6.969435e-01   9.469834e-03
  2.191667e+00    6.912986e-01   9.431210e-03
  2.193878e+00    6.871291e-01   9.402172e-03
  2.196088e+00    6.849442e-01   9.386526e-03
  2.198299e+00    6.848087e-01   9.384494e-03
  2.200509e+00    6.860968e-01   9.392277e-03
  2.202720e+00    6.825957e-01   9.367107e-03
  2.204930e+00    6.898053e-01   9.415219e-03
  2.207141e+00    6.795819e-01   9.344066e-03
  2.209351e+00    6.919693e-01   9.426942e-03
  2.211562e+00    6.788231e-01   9.335359e-03
  2.213772e+00    6.668524e-01   9.197593e-03
  2.215982e+00    6.688371e-01   9.167290e-03
  2.218193e+00    6.738618e-01   9.172083e-03
  2.220403e+00    6.566675e-01   9.030055e-03
  2.222614e+00    6.553814e-01   9.000532e-03
  2.224824e+00    6.526831e-01   8.962915e-03
  2.227035e+00    6.573464e-01   8.977633e-03
  2.229245e+00    6.567580e-01   8.956822e-03
  2.231456e+00    6.833391e-01   9.120541e-03
  2.233666e+00    6.642335e-01   8.977119e-03
  2.235877e+00    6.626065e-01   8.951916e-03
  2.238087e+00    6.838415e-01   9.080627e-03
  2.240298e+00    6.809779e-01   9.047704e-03
  2.242508e+00    6.609403e-01   8.898556e-03
  2.244718e+00    6.751885e-01   8.978077e-03
  2.246929e+00    6.832174e-01   9.016708e-03
  2.249139e+00    6.810481e-01   8.989903e-03
  2.251350e+00    6.704349e-01   8.907822e-03
  2.253560e+00    6.603506e-01   8.829073e-03
  2.255771e+00    6.742401e-01   8.909947e-03
  2.257981e+00    6.806403e-01   8.940839e-03
  2.260192e+00    6.764546e-01   8.902088e-03
  2.262402e+00    6.952009e-01   9.013480e-03
  2.264613e+00    7.455344e-01   9.322577e-03
  2.266823e+00    7.510123e-01   9.345764e-03
  2.269033e+00    6.816319e-01   8.893072e-03
  2.271244e+00    6.796331e-01   8.869458e-03
  2.273454e+00    7.337862e-01   9.205247e-03
  2.275665e+00    7.503368e-01   9.297529e-03
  2.277875e+00    7.206708e-01   9.101547e-03
  2.280086e+00    6.772993e-01   8.813226e-03
  2.282296e+00    6.611968e-01   8.698403e-03
  2.284507e+00    6.702413e-01   8.747483e-03
  2.286717e+00    6.559436e-01   8.644214e-03
  2.288928e+00    6.697361e-01   8.724660e-03
  2.291138e+00    6.764346e-01   8.758630e-03
  2.293348e+00    6.586596e-01   8.633231e-03
  2.295559e+00    6.439542e-01   8.527071e-03
  2.297769e+00    6.601859e-01   8.624570e-03
  2.299980e+00    6.604496e-01   8.616927e-03
  2.302190e+00    6.491447e-01   8.533769e-03
  2.304401e+00    6.495847e-01   8.527339e-03
  2.306611e+00    6.499516e-01   8.520569e-03
  2.308822e+00    6.561852e-01   8.552914e-03
  2.311032e+00    6.525285e-01   8.522596e-03
  2.313243e+00    6.435023e-01   8.457197e-03
  2.315453e+00    6.504097e-01   8.494900e-03
  2.317663e+00    6.293396e-01   8.347156e-03
  2.319874e+00    6.493790e-01   8.470260e-03
  2.322084e+00    6.484638e-01   8.455315e-03
  2.324295e+00    6.496345e-01   8.454689e-03
  2.326505e+00    6.481118e-01   8.435696e-03
  2.328716e+00    6.414571e-01   8.383746e-03
  2.330926e+00    6.349300e-01   8.332235e-03
  2.333137e+00    6.368966e-01   8.336796e-03
  2.335347e+00    6.219710e-01   8.229786e-03
  2.337558e+00    6.436199e-01   8.363521e-03
  2.339768e+00    6.658657e-01   8.498123e-03
  2.341979e+00    6.293072e-01   8.253222e-03
  2.344189e+00    6.385545e-01   8.305227e-03
  2.346399e+00    6.258264e-01   8.213625e-03
  2.348610e+00    6.385149e-01   8.287978e-03
  2.350820e+00    6.356112e-01   8.260950e-03
  2.353031e+00    6.286213e-01   8.207139e-03
  2.355241e+00    6.248834e-01   8.174701e-03
  2.357452e+00    6.348406e-01   8.231137e-03
  2.359662e+00    6.432843e-01   8.277389e-03
  2.361873e+00    6.361956e-01   8.223407e-03
  2.364083e+00    6.295552e-01   8.172377e-03
  2.366294e+00    6.135865e-01   8.060044e-03
  2.368504e+00    6.389969e-01   8.217095e-03
  2.370714e+00    6.087615e-01   8.012396e-03
  2.372925e+00    6.042070e-01   7.974436e-03
  2.375135e+00    6.191039e-01   8.064122e-03
  2.377346e+00    6.206146e-01   8.066041e-03
  2.379556e+00    6.241530e-01   8.081079e-03
  2.381767e+00    6.245279e-01   8.075641e-03
  2.383977e+00    6.286560e-01   8.094293e-03
  2.386188e+00    6.145821e-01   7.995293e-03
  2.388398e+00    6.208839e-01   8.028210e-03
  2.390609e+00    5.942051e-01   7.846268e-03
  2.392819e+00    6.106890e-01   7.946578e-03
  2.395029e+00    6.226897e-01   8.016612e-03
  2.397240e+00    6.017087e-01   7.872583e-03
  2.399450e+00    6.130372e-01   7.938564e-03
  2.401661e+00    6.115664e-01   7.921346e-03
  2.403871e+00    6.093704e-01   7.899371e-03
  2.406082e+00    6.072840e-01   7.878417e-03
  2.408292e+00    6.022684e-01   7.838066e-03
  2.410503e+00    6.118994e-01   7.892978e-03
  2.412713e+00    6.106883e-01   7.877341e-03
  2.414924e+00    5.999330e-01   7.800241e-03
  2.417134e+00    6.043594e-01   7.821295e-03
  2.419344e+00    6.027605e-01   7.803566e-03
  2.421555e+00    5.970231e-01   7.758846e-03
  2.423765e+00    6.011831e-01   7.778419e-03
  2.425976e+00    5.883729e-01   7.687380e-03
  2.428186e+00    5.993677e-01   7.751634e-03
  2.430397e+00    5.956820e-01   7.720316e-03
  2.432607e+00    5.900261e-01   7.676316e-03
  2.434818e+00    5.932462e-01   7.689712e-03
  2.437028e+00    5.907846e-01   7.666617e-03
  2.439239e+00    6.002063e-01   7.719796e-03
  2.441449e+00    6.029213e-01   7.729991e-03
  2.443659e+00    5.865016e-01   7.616679e-03
  2.445870e+00    5.930257e-01   7.671209e-03
  2.448080e+00    5.768905e-01   7.600760e-03
  2.450291e+00    5.764387e-01   7.614360e-03
  2.452501e+00    5.802219e-01   7.650523e-03
  2.454712e+00    5.744969e-01   7.621115e-03
  2.456922e+00    5.766006e-01   7.641714e-03
  2.459133e+00    5.711915e-01   7.611239e-03
  2.461343e+00    5.650845e-01   7.574778e-03
  2.463554e+00    5.667716e-01   7.589561e-03
  2.465764e+00    5.652471e-01   7.582485e-03
  2.467975e+00    5.657326e-01   7.588050e-03
  2.470185e+00    5.424352e-01   7.432375e-03
  2.472395e+00    5.567773e-01   7.531209e-03
  2.474606e+00    5.656467e-01   7.592540e-03
  2.476816e+00    5.617699e-01   7.567229e-03
  2.479027e+00    5.428899e-01   7.439832e-03
  2.481237e+00    5.399355e-01   7.419815e-03
  2.483448e+00    5.504729e-01   7.492173e-03
  2.485658e+00    5.484732e-01   7.478431e-03
  2.487869e+00    5.272529e-01   7.332354e-03
  2.490079e+00    5.373865e-01   7.401964e-03
  2.492290e+00    5.282745e-01   7.338525e-03
  2.494500e+00    5.261602e-01   7.323087e-03
  2.496710e+00    5.346984e-01   7.381563e-03
  2.498921e+00    5.437656e-01   7.442907e-03
  2.501131e+00    5.413527e-01   7.425398e-03
  2.503342e+00    5.411904e-01   7.423026e-03
  2.505552e+00    5.291311e-01   7.338745e-03
  2.507763e+00    5.115963e-01   7.214708e-03
  2.509973e+00    5.220806e-01   7.286866e-03
  2.512184e+00    5.161028e-01   7.243455e-03
  2.514394e+00    5.170874e-01   7.241074e-03
  2.516605e+00    5.345999e-01   7.315238e-03
  2.518815e+00    5.426017e-01   7.341021e-03
  2.521025e+00    5.603457e-01   7.438439e-03
  2.523236e+00    5.512156e-01   7.359189e-03
  2.525446e+00    5.516508e-01   7.346090e-03
  2.527657e+00    5.416390e-01   7.264310e-03
  2.529867e+00    5.420566e-01   7.252697e-03
  2.532078e+00    5.324118e-01   7.172741e-03
  2.534288e+00    5.357098e-01   7.180882e-03
  2.536499e+00    5.379255e-01   7.183632e-03
  2.538709e+00    5.323715e-01   7.135370e-03
  2.540920e+00    5.524881e-01   7.258001e-03
  2.543130e+00    5.411689e-01   7.172755e-03
  2.545340e+00    5.237154e-01   7.046060e-03
  2.547551e+00    5.215898e-01   7.021826e-03
  2.549761e+00    5.169205e-01   6.980787e-03
  2.551972e+00    5.243272e-01   7.021234e-03
  2.554182e+00    5.310867e-01   7.057101e-03
  2.556393e+00    5.153535e-01   6.942738e-03
  2.558603e+00    5.111590e-01   6.905431e-03
  2.560814e+00    5.135980e-01   6.913228e-03
  2.563024e+00    5.065704e-01   6.857302e-03
  2.565235e+00    5.221206e-01   6.952221e-03
  2.567445e+00    5.195491e-01   6.925514e-03
  2.569656e+00    5.131321e-01   6.872918e-03
  2.571866e+00    5.138844e-01   6.868637e-03
  2.574076e+00    5.087595e-01   6.825104e-03
  2.576287e+00    5.130128e-01   6.845263e-03
  2.578497e+00    5.139686e-01   6.843822e-03
  2.580708e+00    5.037984e-01   6.767774e-03
  2.582918e+00    5.095423e-01   6.798520e-03
  2.585129e+00    5.043169e-01   6.755900e-03
  2.587339e+00    5.151441e-01   6.820348e-03
  2.589550e+00    5.133730e-01   6.801053e-03
  2.591760e+00    4.958464e-01   6.676354e-03
  2.593971e+00    5.008782e-01   6.702670e-03
  2.596181e+00    5.110253e-01   6.764022e-03
  2.598391e+00    5.106357e-01   6.756246e-03
  2.600602e+00    5.187951e-01   6.804061e-03
  2.602812e+00    5.024182e-01   6.688307e-03
  2.605023e+00    5.132399e-01   6.752762e-03
  2.607233e+00    5.065389e-01   6.701398e-03
  2.609444e+00    5.150821e-01   6.750389e-03
  2.611654e+00    5.149040e-01   6.741859e-03
  2.613865e+00    5.107598e-01   6.707589e-03
  2.616075e+00    4.977772e-01   6.614733e-03
  2.618286e+00    4.992214e-01   6.617339e-03
  2.620496e+00    5.056617e-01   6.653212e-03
  2.622706e+00    5.044625e-01   6.639561e-03
  2.624917e+00    4.993731e-01   6.600169e-03
  2.627127e+00    5.126852e-01   6.681772e-03
  2.629338e+00    5.171828e-01   6.704963e-03
  2.631548e+00    5.165637e-01   6.694703e-03
  2.633759e+00    5.058533e-01   6.617764e-03
  2.635969e+00    5.009586e-01   6.578989e-03
  2.638180e+00    4.886790e-01   6.490962e-03
  2.640390e+00    4.882622e-01   6.481665e-03
  2.642601e+00    4.969287e-01   6.532295e-03
  2.644811e+00    4.971822e-01   6.526925e-03
  2.647021e+00    4.913444e-01   6.481964e-03
  2.649232e+00    4.967575e-01   6.510887e-03
  2.651442e+00    4.939139e-01   6.485753e-03
  2.653653e+00    5.052360e-01   6.552826e-03
  2.655863e+00    5.144771e-01   6.605701e-03
  2.658074e+00    4.950854e-01   6.473427e-03
  2.660284e+00    4.989454e-01   6.492234e-03
  2.662495e+00    4.992580e-01   6.487516e-03
  2.664705e+00    4.885893e-01   6.411313e-03
  2.666916e+00    4.908466e-01   6.419667e-03
  2.669126e+00    4.944099e-01   6.436489e-03
  2.671337e+00    4.924645e-01   6.417242e-03
  2.673547e+00    4.905601e-01   6.398482e-03
  2.675757e+00    5.030492e-01   6.472899e-03
  2.677968e+00    4.965132e-01   6.424196e-03
  2.680178e+00    4.835012e-01   6.333114e-03
  2.682389e+00    5.024981e-01   6.449861e-03
  2.684599e+00    5.067200e-01   6.470649e-03
  2.686810e+00    4.958071e-01   6.393962e-03
  2.689020e+00    5.003324e-01   6.416717e-03
  2.691231e+00    4.873128e-01   6.326421e-03
  2.693441e+00    5.037375e-01   6.425912e-03
  2.695652e+00    4.913533e-01   6.339936e-03
  2.697862e+00    4.808195e-01   6.265297e-03
  2.700072e+00    4.882152e-01   6.307235e-03
  2.702283e+00    4.936624e-01   6.336079e-03
  2.704493e+00    4.878881e-01   6.292638e-03
  2.706704e+00    4.848405e-01   6.266567e-03
  2.708914e+00    4.838375e-01   6.254143e-03
  2.711125e+00    4.808480e-01   6.228595e-03
  2.713335e+00    4.727099e-01   6.169654e-03
  2.715546e+00    4.769952e-01   6.191170e-03
  2.717756e+00    4.806105e-01   6.208734e-03
  2.719967e+00    4.752415e-01   6.167826e-03
  2.722177e+00    4.746763e-01   6.158081e-03
  2.724387e+00    4.791214e-01   6.180788e-03
  2.726598e+00    4.845988e-01   6.209974e-03
  2.728808e+00    4.826651e-01   6.191429e-03
  2.731019e+00    4.918055e-01   6.243606e-03
  2.733229e+00    4.811841e-01   6.170050e-03
  2.735440e+00    4.800608e-01   6.156588e-03
  2.737650e+00    4.840611e-01   6.176176e-03
  2.739861e+00    4.810851e-01   6.151087e-03
  2.742071e+00    4.817970e-01   6.149917e-03
  2.744282e+00    4.772575e-01   6.114656e-03
  2.746492e+00    4.828763e-01   6.144514e-03
  2.748702e+00    4.852795e-01   6.153854e-03
  2.750913e+00    4.809343e-01   6.120458e-03
  2.753123e+00    4.714059e-01   6.053471e-03
  2.755334e+00    4.828608e-01   6.120488e-03
  2.757544e+00    4.781869e-01   6.085066e-03
  2.759755e+00    4.857942e-01   6.127362e-03
  2.761965e+00    4.859375e-01   6.122254e-03
  2.764176e+00    4.885265e-01   6.132495e-03
  2.766386e+00    4.909109e-01   6.141583e-03
  2.768597e+00    4.716067e-01   6.013821e-03
  2.770807e+00    4.795099e-01   6.058114e-03
  2.773017e+00    4.767342e-01   6.034592e-03
  2.775228e+00    4.885085e-01   6.102817e-03
  2.777438e+00    4.775139e-01   6.027955e-03
  2.779649e+00    4.773667e-01   6.021139e-03
  2.781859e+00    4.838969e-01   6.056371e-03
  2.784070e+00    4.801147e-01   6.026783e-03
  2.786280e+00    4.816821e-01   6.030824e-03
  2.788491e+00    4.828186e-01   6.032050e-03
  2.790701e+00    4.744891e-01   5.974177e-03
  2.792912e+00    4.749232e-01   5.970934e-03
  2.795122e+00    4.743676e-01   5.961729e-03
  2.797333e+00    4.728130e-01   5.946403e-03
  2.799543e+00    4.793201e-01   5.981297e-03
  2.801753e+00    4.691764e-01   5.911859e-03
  2.803964e+00    4.623602e-01   5.863169e-03
  2.806174e+00    4.652825e-01   5.875576e-03
  2.808385e+00    4.752431e-01   5.931346e-03
  2.810595e+00    4.796594e-01   5.951931e-03
  2.812806e+00    4.793470e-01   5.943357e-03
  2.815016e+00    4.762247e-01   5.919218e-03
  2.817227e+00    4.658892e-01   5.880325e-03
  2.819437e+00    4.722560e-01   5.931439e-03
  2.821648e+00    4.747438e-01   5.949336e-03
  2.823858e+00    4.644821e-01   5.889976e-03
  2.826068e+00    4.733424e-01   5.950853e-03
  2.828279e+00    4.871493e-01   6.041135e-03
  2.830489e+00    4.835496e-01   6.022146e-03
  2.832700e+00    4.797488e-01   6.001027e-03
  2.834910e+00    4.531539e-01   5.834335e-03
  2.837121e+00    4.626790e-01   5.897017e-03
  2.839331e+00    4.747938e-01   5.974970e-03
  2.841542e+00    4.710888e-01   5.952618e-03
  2.843752e+00    4.765124e-01   5.987581e-03
  2.845963e+00    4.708925e-01   5.952569e-03
  2.848173e+00    4.659892e-01   5.921578e-03
  2.850383e+00    4.764766e-01   5.988135e-03
  2.852594e+00    4.665762e-01   5.925531e-03
  2.854804e+00    4.637713e-01   5.907178e-03
  2.857015e+00    4.650307e-01   5.914768e-03
  2.859225e+00    4.677627e-01   5.931854e-03
  2.861436e+00    4.634871e-01   5.904054e-03
  2.863646e+00    4.527700e-01   5.835413e-03
  2.865857e+00    4.504907e-01   5.821043e-03
  2.868067e+00    4.581923e-01   5.870813e-03
  2.870278e+00    4.631918e-01   5.902403e-03
  2.872488e+00    4.652003e-01   5.914015e-03
  2.874698e+00    4.721447e-01   5.956955e-03
  2.876909e+00    4.684232e-01   5.932088e-03
  2.879119e+00    4.554172e-01   5.847555e-03
  2.881330e+00    4.630955e-01   5.895157e-03
  2.883540e+00    4.548445e-01   5.841037e-03
  2.885751e+00    4.622938e-01   5.887015e-03
  2.887961e+00    4.636497e-01   5.893774e-03
  2.890172e+00    4.598493e-01   5.867961e-03
  2.892382e+00    4.578864e-01   5.853627e-03
  2.894593e+00    4.551213e-01   5.834125e-03
  2.896803e+00    4.467993e-01   5.778580e-03
  2.899014e+00    4.496416e-01   5.795038e-03
  2.901224e+00    4.499835e-01   5.795282e-03
  2.903434e+00    4.546781e-01   5.823494e-03
  2.905645e+00    4.548489e-01   5.822384e-03
  2.907855e+00    4.578405e-01   5.839386e-03
  2.910066e+00    4.607449e-01   5.855810e-03
  2.912276e+00    4.697025e-01   5.910308e-03
  2.914487e+00    4.636486e-01   5.869637e-03
  2.916697e+00    4.523319e-01   5.795353e-03
  2.918908e+00    4.445856e-01   5.743532e-03
  2.921118e+00    4.475833e-01   5.760203e-03
  2.923329e+00    4.526898e-01   5.790666e-03
  2.925539e+00    4.515177e-01   5.780904e-03
  2.927749e+00    4.497278e-01   5.767123e-03
  2.929960e+00    4.649696e-01   5.861248e-03
  2.932170e+00    4.562873e-01   5.803943e-03
  2.934381e+00    4.611773e-01   5.832507e-03
  2.936591e+00    4.592504e-01   5.817712e-03
  2.938802e+00    4.605828e-01   5.823441e-03
  2.941012e+00    4.673487e-01   5.863677e-03
  2.943223e+00    4.607711e-01   5.819572e-03
  2.945433e+00    4.567085e-01   5.790108e-03
  2.947644e+00    4.606619e-01   5.810953e-03
  2.949854e+00    4.652081e-01   5.835246e-03
  2.952064e+00    4.641620e-01   5.824418e-03
  2.954275e+00    4.684366e-01   5.846696e-03
  2.956485e+00    4.733381e-01   5.872945e-03
  2.958696e+00    4.549626e-01   5.753452e-03
  2.960906e+00    4.597287e-01   5.779278e-03
  2.963117e+00    4.683752e-01   5.828846e-03
  2.965327e+00    4.573008e-01   5.755606e-03
  2.967538e+00    4.596370e-01   5.767352e-03
  2.969748e+00    4.506633e-01   5.707979e-03
  2.971959e+00    4.474313e-01   5.684357e-03
  2.974169e+00    4.532926e-01   5.718878e-03
  2.976379e+00    4.523343e-01   5.709933e-03
  2.978590e+00    4.601979e-01   5.756186e-03
  2.980800e+00    4.563740e-01   5.729415e-03
  2.983011e+00    4.517691e-01   5.697655e-03
  2.985221e+00    4.526093e-01   5.699797e-03
  2.987432e+00    4.433371e-01   5.638038e-03
  2.989642e+00    4.654178e-01   5.774066e-03
  2.991853e+00    4.543541e-01   5.701758e-03
  2.994063e+00    4.568224e-01   5.714296e-03
  2.996274e+00    4.581709e-01   5.719539e-03
  2.998484e+00    4.609980e-01   5.734431e-03
  3.000694e+00    4.659003e-01   5.761336e-03
  3.002905e+00    4.579754e-01   5.709182e-03
  3.005115e+00    4.616946e-01   5.729302e-03
  3.007326e+00    4.579352e-01   5.702769e-03
  3.009536e+00    4.551784e-01   5.682304e-03
  3.011747e+00    4.546300e-01   5.675972e-03
  3.013957e+00    4.544732e-01   5.671800e-03
  3.016168e+00    4.366360e-01   5.556205e-03
  3.018378e+00    4.318963e-01   5.522971e-03
  3.020589e+00    4.492078e-01   5.629363e-03
  3.022799e+00    4.506738e-01   5.635405e-03
  3.025010e+00    4.495586e-01   5.625187e-03
  3.027220e+00    4.475279e-01   5.609393e-03
  3.029430e+00    4.499219e-01   5.621126e-03
  3.031641e+00    4.442355e-01   5.582382e-03
  3.033851e+00    4.603699e-01   5.679295e-03
  3.036062e+00    4.579819e-01   5.661756e-03
  3.038272e+00    4.556099e-01   5.643486e-03
  3.040483e+00    4.381914e-01   5.531385e-03
  3.042693e+00    4.397216e-01   5.537805e-03
  3.044904e+00    4.467097e-01   5.577623e-03
  3.047114e+00    4.586129e-01   5.646606e-03
  3.049325e+00    4.537711e-01   5.612320e-03
  3.051535e+00    4.567669e-01   5.626377e-03
  3.053745e+00    4.552407e-01   5.612209e-03
  3.055956e+00    4.514980e-01   5.584502e-03
  3.058166e+00    4.532993e-01   5.591380e-03
  3.060377e+00    4.565014e-01   5.606257e-03
  3.062587e+00    4.540184e-01   5.586364e-03
  3.064798e+00    4.473754e-01   5.541096e-03
  3.067008e+00    4.530732e-01   5.571521e-03
  3.069219e+00    4.472006e-01   5.530804e-03
  3.071429e+00    4.504357e-01   5.547247e-03
  3.073640e+00    4.554999e-01   5.574996e-03
  3.075850e+00    4.499646e-01   5.537427e-03
  3.078060e+00    4.542716e-01   5.560739e-03
  3.080271e+00    4.520683e-01   5.543763e-03
  3.082481e+00    4.520122e-01   5.539953e-03
  3.084692e+00    4.570278e-01   5.567204e-03
  3.086902e+00    4.375712e-01   5.444198e-03
  3.089113e+00    4.448555e-01   5.485763e-03
  3.091323e+00    4.537220e-01   5.536776e-03
  3.093534e+00    4.420963e-01   5.462023e-03
  3.095744e+00    4.371680e-01   5.428168e-03
  3.097955e+00    4.302703e-01   5.381686e-03
  3.100165e+00    4.442239e-01   5.464928e-03
  3.102375e+00    4.581159e-01   5.546262e-03
  3.104586e+00    4.598099e-01   5.552962e-03
  3.106796e+00    4.549160e-01   5.519780e-03
  3.109007e+00    4.573902e-01   5.531533e-03
  3.111217e+00    4.398608e-01   5.420806e-03
  3.113428e+00    4.502641e-01   5.481121e-03
  3.115638e+00    4.431951e-01   5.434710e-03
  3.117849e+00    4.304517e-01   5.352318e-03
  3.120059e+00    4.423476e-01   5.422325e-03
  3.122270e+00    4.498479e-01   5.464836e-03
  3.124480e+00    4.414936e-01   5.410190e-03
  3.126691e+00    4.367546e-01   5.377516e-03
  3.128901e+00    4.499662e-01   5.455118e-03
  3.131111e+00    4.521978e-01   5.464751e-03
  3.133322e+00    4.644210e-01   5.534594e-03
  3.135532e+00    4.484979e-01   5.435482e-03
  3.137743e+00    4.556017e-01   5.474814e-03
  3.139953e+00    4.474373e-01   5.421864e-03
  3.142164e+00    4.448641e-01   5.418275e-03
  3.144374e+00    4.360624e-01   5.392618e-03
  3.146585e+00    4.411285e-01   5.438380e-03
  3.148795e+00    4.464995e-01   5.482225e-03
  3.151006e+00    4.384305e-01   5.440975e-03
  3.153216e+00    4.415064e-01   5.467159e-03
  3.155426e+00    4.431614e-01   5.483723e-03
  3.157637e+00    4.505072e-01   5.534565e-03
  3.159847e+00    4.474310e-01   5.520560e-03
  3.162058e+00    4.375572e-01   5.463718e-03
  3.164268e+00    4.381879e-01   5.471707e-03
  3.166479e+00    4.478658e-01   5.535501e-03
  3.168689e+00    4.361458e-01   5.465928e-03
  3.170900e+00    4.399748e-01   5.493053e-03
  3.173110e+00    4.398336e-01   5.495047e-03
  3.175321e+00    4.275580e-01   5.420296e-03
  3.177531e+00    4.265262e-01   5.416433e-03
  3.179741e+00    4.321400e-01   5.454028e-03
  3.181952e+00    4.419336e-01   5.517599e-03
  3.184162e+00    4.522168e-01   5.583658e-03
  3.186373e+00    4.373964e-01   5.493019e-03
  3.188583e+00    4.330871e-01   5.467635e-03
  3.190794e+00    4.326715e-01   5.466787e-03
  3.193004e+00    4.328607e-01   5.469207e-03
  3.195215e+00    4.303495e-01   5.454813e-03
  3.197425e+00    4.327241e-01   5.471052e-03
  3.199636e+00    4.372334e-01   5.498694e-03
  3.201846e+00    4.491889e-01   5.572785e-03
  3.204056e+00    4.353091e-01   5.486880e-03
  3.206267e+00    4.343695e-01   5.481812e-03
  3.208477e+00    4.332235e-01   5.475495e-03
  3.210688e+00    4.366364e-01   5.497859e-03
  3.212898e+00    4.274447e-01   5.440271e-03
  3.215109e+00    4.428202e-01   5.537993e-03
  3.217319e+00    4.390233e-01   5.514878e-03
  3.219530e+00    4.312767e-01   5.466362e-03
  3.221740e+00    4.327143e-01   5.476046e-03
  3.223951e+00    4.153408e-01   5.365463e-03
  3.226161e+00    4.224107e-01   5.411083e-03
  3.228372e+00    4.299332e-01   5.459612e-03
  3.230582e+00    4.318565e-01   5.471942e-03
  3.232792e+00    4.223009e-01   5.411290e-03
  3.235003e+00    4.339464e-01   5.485613e-03
  3.237213e+00    4.278398e-01   5.447024e-03
  3.239424e+00    4.219754e-01   5.409549e-03
  3.241634e+00    4.213486e-01   5.405644e-03
  3.243845e+00    4.366287e-01   5.502855e-03
  3.246055e+00    4.298054e-01   5.459431e-03
  3.248266e+00    4.217205e-01   5.408040e-03
  3.250476e+00    4.248855e-01   5.427981e-03
  3.252687e+00    4.300295e-01   5.460660e-03
  3.254897e+00    4.443935e-01   5.550987e-03
  3.257107e+00    4.284794e-01   5.450391e-03
  3.259318e+00    4.291955e-01   5.454688e-03
  3.261528e+00    4.334377e-01   5.481456e-03
  3.263739e+00    4.346789e-01   5.488735e-03
  3.265949e+00    4.147736e-01   5.361461e-03
  3.268160e+00    4.307159e-01   5.463097e-03
  3.270370e+00    4.297740e-01   5.456632e-03
  3.272581e+00    4.273446e-01   5.440885e-03
  3.274791e+00    4.328364e-01   5.475224e-03
  3.277002e+00    4.086958e-01   5.319785e-03
  3.279212e+00    4.234996e-01   5.414894e-03
  3.281422e+00    4.256485e-01   5.428037e-03
  3.283633e+00    4.329467e-01   5.473683e-03
  3.285843e+00    4.178586e-01   5.377134e-03
  3.288054e+00    4.398850e-01   5.516067e-03
  3.290264e+00    4.313954e-01   5.462267e-03
  3.292475e+00    4.330353e-01   5.471812e-03
  3.294685e+00    4.267933e-01   5.431575e-03
  3.296896e+00    4.350122e-01   5.482876e-03
  3.299106e+00    4.298022e-01   5.449369e-03
  3.301317e+00    4.095370e-01   5.318365e-03
  3.303527e+00    4.199024e-01   5.384754e-03
  3.305737e+00    4.138226e-01   5.344611e-03
  3.307948e+00    4.199652e-01   5.383458e-03
  3.310158e+00    4.212650e-01   5.390928e-03
  3.312369e+00    4.338326e-01   5.469849e-03
  3.314579e+00    4.299329e-01   5.444316e-03
  3.316790e+00    4.192982e-01   5.375852e-03
  3.319000e+00    4.201471e-01   5.380102e-03
  3.321211e+00    4.158871e-01   5.352161e-03
  3.323421e+00    4.203787e-01   5.379765e-03
  3.325632e+00    4.205360e-01   5.379901e-03
  3.327842e+00    4.312406e-01   5.447003e-03
  3.330052e+00    4.295249e-01   5.435091e-03
  3.332263e+00    4.216351e-01   5.383928e-03
  3.334473e+00    4.322483e-01   5.450342e-03
  3.336684e+00    4.333400e-01   5.455929e-03
  3.338894e+00    4.096240e-01   5.303731e-03
  3.341105e+00    4.196949e-01   5.367293e-03
  3.343315e+00    4.191310e-01   5.362565e-03
  3.345526e+00    4.153282e-01   5.337279e-03
  3.347736e+00    4.133135e-01   5.322919e-03
  3.349947e+00    4.268377e-01   5.408372e-03
  3.352157e+00    4.189027e-01   5.356695e-03
  3.354368e+00    4.212352e-01   5.370283e-03
  3.356578e+00    4.250638e-01   5.393589e-03
  3.358788e+00    4.403363e-01   5.488297e-03
  3.360999e+00    4.267755e-01   5.401862e-03
  3.363209e+00    4.125910e-01   5.310331e-03
  3.365420e+00    4.324229e-01   5.434889e-03
  3.367630e+00    4.223901e-01   5.370474e-03
  3.369841e+00    4.180051e-01   5.341083e-03
  3.372051e+00    4.030927e-01   5.243031e-03
  3.374262e+00    4.134885e-01   5.307732e-03
  3.376472e+00    4.221781e-01   5.360782e-03
  3.378683e+00    4.154150e-01   5.315164e-03
  3.380893e+00    4.271722e-01   5.387470e-03
  3.383103e+00    4.291654e-01   5.397283e-03
  3.385314e+00    4.176073e-01   5.321893e-03
  3.387524e+00    4.035583e-01   5.228898e-03
  3.389735e+00    4.042305e-01   5.230637e-03
  3.391945e+00    4.249319e-01   5.359203e-03
  3.394156e+00    4.150225e-01   5.292093e-03
  3.396366e+00    4.269727e-01   5.364289e-03
  3.398577e+00    4.146769e-01   5.283414e-03
  3.400787e+00    4.134069e-01   5.287285e-03
  3.402998e+00    4.020394e-01   5.251773e-03
  3.405208e+00    3.966693e-01   5.237001e-03
  3.407418e+00    4.098140e-01   5.339027e-03
  3.409629e+00    3.973702e-01   5.271247e-03
  3.411839e+00    3.892415e-01   5.228670e-03
  3.414050e+00    3.901518e-01   5.245689e-03
  3.416260e+00    3.886857e-01   5.245388e-03
  3.418471e+00    3.869944e-01   5.243288e-03
  3.420681e+00    3.974478e-01   5.322201e-03
  3.422892e+00    3.916238e-01   5.291071e-03
  3.425102e+00    3.930818e-01   5.308742e-03
  3.427313e+00    3.892533e-01   5.290037e-03
  3.429523e+00    3.826842e-01   5.252242e-03
  3.431733e+00    3.915547e-01   5.319445e-03
  3.433944e+00    3.842587e-01   5.276168e-03
  3.436154e+00    4.053023e-01   5.425112e-03
  3.438365e+00    3.912101e-01   5.335974e-03
  3.440575e+00    3.825785e-01   5.282738e-03
  3.442786e+00    3.743620e-01   5.231258e-03
  3.444996e+00    3.735190e-01   5.230856e-03
  3.447207e+00    3.653835e-01   5.178763e-03
  3.449417e+00    3.795449e-01   5.319445e-03
  3.451628e+00    3.704725e-01   5.284997e-03
  3.453838e+00    3.700285e-01   5.303048e-03
  3.456049e+00    3.745051e-01   5.359177e-03
  3.458259e+00    3.606086e-01   5.280561e-03
  3.460469e+00    3.748417e-01   5.403778e-03
  3.462680e+00    3.716440e-01   5.399887e-03
  3.464890e+00    3.600663e-01   5.332733e-03
  3.467101e+00    3.662989e-01   5.396178e-03
  3.469311e+00    3.818796e-01   5.526480e-03
  3.471522e+00    3.902161e-01   5.603249e-03
  3.473732e+00    3.988615e-01   5.681330e-03
  3.475943e+00    3.985302e-01   5.694999e-03
  3.478153e+00    4.180561e-01   5.848868e-03
  3.480364e+00    4.220909e-01   5.892742e-03
  3.482574e+00    4.124800e-01   5.840759e-03
  3.484784e+00    4.249394e-01   5.943428e-03
  3.486995e+00    4.116462e-01   5.864780e-03
  3.489205e+00    4.318839e-01   6.022005e-03
  3.491416e+00    4.281637e-01   6.010948e-03
  3.493626e+00    4.512272e-01   6.185567e-03
  3.495837e+00    4.465996e-01   6.168674e-03
  3.498047e+00    4.392192e-01   6.131842e-03
  3.500258e+00    4.626252e-01   6.307890e-03
  3.502468e+00    4.523630e-01   6.251912e-03
  3.504679e+00    4.781400e-01   6.442318e-03
  3.506889e+00    4.837154e-01   6.494502e-03
  3.509099e+00    4.659068e-01   6.388111e-03
  3.511310e+00    4.940544e-01   6.592968e-03
  3.513520e+00    4.975625e-01   6.630984e-03
  3.515731e+00    4.983549e-01   6.650825e-03
  3.517941e+00    5.071139e-01   6.723627e-03
  3.520152e+00    5.107252e-01   6.762072e-03
  3.522362e+00    5.124141e-01   6.787882e-03
  3.524573e+00    5.252793e-01   6.887122e-03
  3.526783e+00    5.296814e-01   6.929542e-03
  3.528994e+00    5.135212e-01   6.835193e-03
  3.531204e+00    5.208882e-01   6.896496e-03
  3.533414e+00    5.300601e-01   6.969095e-03
  3.535625e+00    5.114492e-01   6.857822e-03
  3.537835e+00    5.255876e-01   6.963981e-03
  3.540046e+00    5.356314e-01   7.039177e-03
  3.542256e+00    5.277134e-01   6.994409e-03
  3.544467e+00    5.393950e-01   7.079036e-03
  3.546677e+00    5.517640e-01   7.167432e-03
  3.548888e+00    5.530339e-01   7.183305e-03
  3.551098e+00    5.405682e-01   7.109216e-03
  3.553309e+00    5.226925e-01   6.998748e-03
  3.555519e+00    5.341847e-01   7.086515e-03
  3.557729e+00    5.234764e-01   7.026720e-03
  3.559940e+00    5.349811e-01   7.115057e-03
  3.562150e+00    5.294396e-01   7.089765e-03
  3.564361e+00    5.350130e-01   7.140263e-03
  3.566571e+00    5.474420e-01   7.236728e-03
  3.568782e+00    5.162671e-01   7.041505e-03
  3.570992e+00    5.458066e-01   7.254000e-03
  3.573203e+00    5.517305e-01   7.307639e-03
  3.575413e+00    5.406586e-01   7.247784e-03
  3.577624e+00    5.427774e-01   7.276167e-03
  3.579834e+00    5.361527e-01   7.245524e-03
  3.582045e+00    5.328442e-01   7.237126e-03
  3.584255e+00    5.369295e-01   7.278866e-03
  3.586465e+00    5.375313e-01   7.296923e-03
  3.588676e+00    5.398717e-01   7.327003e-03
  3.590886e+00    5.394897e-01   7.338199e-03
  3.593097e+00    5.337259e-01   7.313339e-03
  3.595307e+00    5.345060e-01   7.332619e-03
  3.597518e+00    5.359408e-01   7.356659e-03
  3.599728e+00    5.376698e-01   7.382626e-03
  3.601939e+00    5.494996e-01   7.477656e-03
  3.604149e+00    5.451296e-01   7.462412e-03
  3.606360e+00    5.356150e-01   7.411140e-03
  3.608570e+00    5.497808e-01   7.522835e-03
  3.610780e+00    5.451578e-01   7.502347e-03
  3.612991e+00    5.544586e-01   7.576241e-03
  3.615201e+00    5.282411e-01   7.404707e-03
  3.617412e+00    5.366948e-01   7.470983e-03
  3.619622e+00    5.483322e-01   7.557572e-03
  3.621833e+00    5.609773e-01   7.651131e-03
  3.624043e+00    5.470769e-01   7.565327e-03
  3.626254e+00    5.553138e-01   7.631992e-03
  3.628464e+00    5.208272e-01   7.402038e-03
  3.630675e+00    5.475675e-01   7.603949e-03
  3.632885e+00    5.286667e-01   7.485969e-03
  3.635095e+00    5.335122e-01   7.534572e-03
  3.637306e+00    5.245580e-01   7.485314e-03
  3.639516e+00    5.353100e-01   7.576217e-03
  3.641727e+00    5.398585e-01   7.622973e-03
  3.643937e+00    5.421740e-01   7.653999e-03
  3.646148e+00    5.444714e-01   7.684958e-03
  3.648358e+00    5.188545e-01   7.516659e-03
  3.650569e+00    5.494339e-01   7.749923e-03
  3.652779e+00    5.396487e-01   7.695474e-03
  3.654990e+00    5.415863e-01   7.724325e-03
  3.657200e+00    5.299574e-01   7.655784e-03
  3.659410e+00    5.411304e-01   7.751144e-03
  3.661621e+00    5.374556e-01   7.739997e-03
  3.663831e+00    5.316062e-01   7.712866e-03
  3.666042e+00    5.458116e-01   7.830570e-03
  3.668252e+00    5.637430e-01   7.973900e-03
  3.670463e+00    5.449246e-01   7.855084e-03
  3.672673e+00    5.361214e-01   7.806909e-03
  3.674884e+00    5.380768e-01   7.836622e-03
  3.677094e+00    5.235314e-01   7.745389e-03
  3.679305e+00    5.381272e-01   7.868261e-03
  3.681515e+00    5.371515e-01   7.876869e-03
  3.683726e+00    5.426697e-01   7.933225e-03
  3.685936e+00    5.221319e-01   7.797253e-03
  3.688146e+00    5.218158e-01   7.810587e-03
  3.690357e+00    5.134919e-01   7.763766e-03
  3.692567e+00    5.216321e-01   7.841036e-03
  3.694778e+00    5.322654e-01   7.936752e-03
  3.696988e+00    5.309341e-01   7.942873e-03
  3.699199e+00    5.344346e-01   7.985392e-03
  3.701409e+00    5.152526e-01   7.857005e-03
  3.703620e+00    5.092680e-01   7.827282e-03
  3.705830e+00    5.348126e-01   8.037769e-03
  3.708041e+00    5.144416e-01   7.899633e-03
  3.710251e+00    5.110720e-01   7.890242e-03
  3.712461e+00    5.386606e-01   8.117373e-03
  3.714672e+00    5.259210e-01   8.037646e-03
  3.716882e+00    5.316339e-01   8.098030e-03
  3.719093e+00    5.194144e-01   8.021614e-03
  3.721303e+00    4.948280e-01   7.845934e-03
  3.723514e+00    5.090979e-01   7.975392e-03
  3.725724e+00    5.188957e-01   8.068898e-03
  3.727935e+00    5.245869e-01   8.130644e-03
  3.730145e+00    5.227820e-01   8.134058e-03
  3.732356e+00    5.076236e-01   8.032671e-03
  3.734566e+00    5.222163e-01   8.164930e-03
  3.736776e+00    5.060577e-01   8.055271e-03
  3.738987e+00    5.167891e-01   8.157951e-03
  3.741197e+00    5.149482e-01   8.161501e-03
  3.743408e+00    5.272250e-01   8.276440e-03
  3.745618e+00    5.505203e-01   8.476341e-03
  3.747829e+00    5.328658e-01   8.357803e-03
  3.750039e+00    5.177654e-01   8.256957e-03
  3.752250e+00    5.179022e-01   8.276734e-03
  3.754460e+00    4.986522e-01   8.139721e-03
  3.756671e+00    5.014449e-01   8.181146e-03
  3.758881e+00    4.892239e-01   8.099122e-03
  3.761091e+00    5.061859e-01   8.257421e-03
  3.763302e+00    5.107958e-01   8.314038e-03
  3.765512e+00    5.276104e-01   8.469457e-03
  3.767723e+00    4.870738e-01   8.156549e-03
  3.769933e+00    4.997918e-01   8.281536e-03
  3.772144e+00    4.926299e-01   8.241320e-03
  3.774354e+00    5.027007e-01   8.344886e-03
  3.776565e+00    4.988063e-01   8.332247e-03
  3.778775e+00    5.016292e-01   8.375742e-03
  3.780986e+00    4.707483e-01   8.133399e-03
  3.783196e+00    5.044220e-01   8.439542e-03
  3.785407e+00    4.891006e-01   8.330512e-03
  3.787617e+00    5.101464e-01   8.528786e-03
  3.789827e+00    4.938568e-01   8.411888e-03
  3.792038e+00    5.132225e-01   8.596228e-03
  3.794248e+00    5.151184e-01   8.633621e-03
  3.796459e+00    5.140700e-01   8.646428e-03
  3.798669e+00    4.945242e-01   8.501688e-03
  3.800880e+00    4.966000e-01   8.540911e-03
  3.803090e+00    4.914461e-01   8.518083e-03
  3.805301e+00    4.878857e-01   8.508992e-03
  3.807511e+00    4.914142e-01   8.561509e-03
  3.809722e+00    5.150924e-01   8.787904e-03
  3.811932e+00    4.752763e-01   8.463138e-03
  3.814142e+00    5.147246e-01   8.830548e-03
  3.816353e+00    5.241638e-01   8.934540e-03
  3.818563e+00    5.115495e-01   8.849837e-03
  3.820774e+00    5.047911e-01   8.814492e-03
  3.822984e+00    4.811990e-01   8.629018e-03
  3.825195e+00    4.926622e-01   8.754757e-03
  3.827405e+00    5.063018e-01   8.899240e-03
  3.829616e+00    5.035348e-01   8.899084e-03
  3.831826e+00    5.135135e-01   9.011375e-03
  3.834037e+00    5.077144e-01   8.985205e-03
  3.836247e+00    4.725284e-01   8.692252e-03
  3.838457e+00    5.126230e-01   9.078925e-03
  3.840668e+00    5.006931e-01   8.998046e-03
  3.842878e+00    4.915828e-01   8.941172e-03
  3.845089e+00    4.985509e-01   9.029984e-03
  3.847299e+00    4.974472e-01   9.045796e-03
  3.849510e+00    5.289527e-01   9.354532e-03
  3.851720e+00    5.182437e-01   9.281367e-03
  3.853931e+00    5.194039e-01   9.311161e-03
  3.856141e+00    5.024315e-01   9.176939e-03
  3.858352e+00    5.091707e-01   9.257850e-03
  3.860562e+00    4.719937e-01   8.932325e-03
  3.862772e+00    4.818488e-01   9.044336e-03
  3.864983e+00    4.977077e-01   9.211827e-03
  3.867193e+00    5.169092e-01   9.408019e-03
  3.869404e+00    5.158681e-01   9.418851e-03
  3.871614e+00    4.906876e-01   9.206037e-03
  3.873825e+00    4.721840e-01   9.050599e-03
  3.876035e+00    4.927298e-01   9.266021e-03
  3.878246e+00    5.126391e-01   9.477621e-03
  3.880456e+00    4.950596e-01   9.342813e-03
  3.882667e+00    4.990768e-01   9.410200e-03
  3.884877e+00    5.035464e-01   9.482262e-03
  3.887087e+00    4.976383e-01   9.456692e-03
  3.889298e+00    4.981184e-01   9.491745e-03
  3.891508e+00    5.558195e-01   1.005897e-02
  3.893719e+00    4.852332e-01   9.429439e-03
  3.895929e+00    4.931457e-01   9.537480e-03
  3.898140e+00    4.832146e-01   9.472331e-03
  3.900350e+00    5.137544e-01   9.800066e-03
  3.902561e+00    4.930467e-01   9.632946e-03
  3.904771e+00    5.177073e-01   9.904624e-03
  3.906982e+00    5.184729e-01   9.946170e-03
  3.909192e+00    4.825315e-01   9.628421e-03
  3.911403e+00    4.957284e-01   9.793472e-03
  3.913613e+00    4.993417e-01   9.863686e-03
  3.915823e+00    4.774527e-01   9.679530e-03
  3.918034e+00    4.906350e-01   9.847527e-03
  3.920244e+00    5.066833e-01   1.004372e-02
  3.922455e+00    4.994060e-01   1.000785e-02
  3.924665e+00    4.929330e-01   9.979410e-03
  3.926876e+00    4.775086e-01   9.858696e-03
  3.929086e+00    4.686709e-01   9.803738e-03
  3.931297e+00    4.429515e-01   9.564034e-03
  3.933507e+00    4.936864e-01   1.012596e-02
  3.935718e+00    5.388318e-01   1.060917e-02
  3.937928e+00    4.895380e-01   1.014182e-02
  3.940138e+00    4.721370e-01   9.988679e-03
  3.942349e+00    5.009174e-01   1.031893e-02
  3.944559e+00    5.388407e-01   1.073407e-02
  3.946770e+00    5.035414e-01   1.040718e-02
  3.948980e+00    4.783469e-01   1.017387e-02
  3.951191e+00    5.082527e-01   1.051868e-02
  3.953401e+00    4.867174e-01   1.032475e-02
  3.955612e+00    4.672635e-01   1.014735e-02
  3.957822e+00    5.006687e-01   1.053597e-02
  3.960033e+00    4.991558e-01   1.055310e-02
  3.962243e+00    4.802681e-01   1.038418e-02
  3.964453e+00    4.886029e-01   1.050712e-02
  3.966664e+00    4.864633e-01   1.051745e-02
  3.968874e+00    4.811531e-01   1.048817e-02
  3.971085e+00    4.925247e-01   1.063348e-02
  3.973295e+00    4.759258e-01   1.047414e-02
  3.975506e+00    4.682705e-01   1.041061e-02
  3.977716e+00    4.854280e-01   1.062163e-02
  3.979927e+00    4.940300e-01   1.073766e-02
  3.982137e+00    5.018167e-01   1.084469e-02
  3.984348e+00    4.743631e-01   1.056615e-02
  3.986558e+00    5.097203e-01   1.097573e-02
  3.988768e+00    4.808109e-01   1.068282e-02
  3.990979e+00    4.943725e-01   1.085538e-02
  3.993189e+00    4.872578e-01   1.080017e-02
  3.995400e+00    4.926022e-01   1.088291e-02
  3.997610e+00    4.792487e-01   1.076401e-02
  3.999821e+00    5.135539e-01   1.118129e-02
  4.002031e+00    4.982370e-01   1.105223e-02
  4.004242e+00    4.743567e-01   1.082208e-02
  4.006452e+00    4.845163e-01   1.097682e-02
  4.008663e+00    4.659679e-01   1.080384e-02
  4.010873e+00    4.945531e-01   1.117059e-02
  4.013084e+00    4.446431e-01   1.063132e-02
  4.015294e+00    4.754530e-01   1.103394e-02
  4.017504e+00    4.985587e-01   1.134138e-02
  4.019715e+00    5.014390e-01   1.141734e-02
  4.021925e+00    4.915695e-01   1.134779e-02
  4.024136e+00    4.824761e-01   1.128590e-02
  4.026346e+00    4.966386e-01   1.149508e-02
  4.028557e+00    4.757007e-01   1.129409e-02
  4.030767e+00    5.063650e-01   1.169906e-02
  4.032978e+00    4.712700e-01   1.133221e-02
  4.035188e+00    4.862476e-01   1.155700e-02
  4.037399e+00    4.987825e-01   1.175343e-02
  4.039609e+00    4.932890e-01   1.173677e-02
  4.041819e+00    5.089615e-01   1.197173e-02
  4.044030e+00    4.984182e-01   1.189782e-02
  4.046240e+00    4.944090e-01   1.190027e-02
  4.048451e+00    4.972441e-01   1.198604e-02
  4.050661e+00    4.714883e-01   1.172238e-02
  4.052872e+00    4.778856e-01   1.185399e-02
  4.055082e+00    4.957311e-01   1.212754e-02
  4.057293e+00    4.904386e-01   1.211691e-02
  4.059503e+00    4.957305e-01   1.223746e-02
  4.061714e+00    4.962765e-01   1.230149e-02
  4.063924e+00    4.957031e-01   1.235193e-02
  4.066134e+00    4.704261e-01   1.208963e-02
  4.068345e+00    4.815960e-01   1.229104e-02
  4.070555e+00    5.084441e-01   1.269018e-02
  4.072766e+00    5.113547e-01   1.278892e-02
  4.074976e+00    4.924746e-01   1.261337e-02
  4.077187e+00    4.545442e-01   1.217810e-02
  4.079397e+00    4.434115e-01   1.208930e-02
  4.081608e+00    4.867238e-01   1.273208e-02
  4.083818e+00    4.990497e-01   1.295912e-02
  4.086029e+00    4.754052e-01   1.271530e-02
  4.088239e+00    4.572262e-01   1.253679e-02
  4.090449e+00    5.090057e-01   1.329947e-02
  4.092660e+00    4.790255e-01   1.297285e-02
  4.094870e+00    4.667959e-01   1.287732e-02
  4.097081e+00    4.665162e-01   1.294406e-02
  4.099291e+00    4.942121e-01   1.337786e-02
  4.101502e+00    5.219433e-01   1.379938e-02
  4.103712e+00    4.893918e-01   1.341196e-02
  4.105923e+00    5.004334e-01   1.361477e-02
  4.108133e+00    5.083515e-01   1.377512e-02
  4.110344e+00    4.718379e-01   1.332199e-02
  4.112554e+00    4.711050e-01   1.336404e-02
  4.114764e+00    4.855017e-01   1.362130e-02
  4.116975e+00    5.464399e-01   1.450779e-02
  4.119185e+00    4.854820e-01   1.373036e-02
  4.121396e+00    4.413858e-01   1.314584e-02
  4.123606e+00    4.955818e-01   1.398672e-02
  4.125817e+00    4.930022e-01   1.400881e-02
  4.128027e+00    5.128070e-01   1.434755e-02
  4.130238e+00    4.692249e-01   1.378326e-02
  4.132448e+00    5.054353e-01   1.436707e-02
  4.134659e+00    4.753788e-01   1.399356e-02
  4.136869e+00    4.859762e-01   1.421162e-02
  4.139080e+00    4.749675e-01   1.411302e-02
  4.141290e+00    4.875804e-01   1.436276e-02
  4.143500e+00    4.565096e-01   1.396142e-02
  4.145711e+00    5.305975e-01   1.512227e-02
  4.147921e+00    4.721527e-01   1.433045e-02
  4.150132e+00    4.845211e-01   1.458629e-02
  4.152342e+00    4.616490e-01   1.430683e-02
  4.154553e+00    4.601960e-01   1.435217e-02
  4.156763e+00    4.808699e-01   1.474366e-02
  4.158974e+00    4.671375e-01   1.460459e-02
  4.161184e+00    5.028507e-01   1.522755e-02
  4.163395e+00    5.893152e-01   1.656934e-02
  4.165605e+00    4.825435e-01   1.507149e-02
  4.167815e+00    5.226806e-01   1.576714e-02
  4.170026e+00    5.117669e-01   1.568425e-02
  4.172236e+00    4.296440e-01   1.444852e-02
  4.174447e+00    4.807548e-01   1.536666e-02
  4.176657e+00    5.213116e-01   1.608927e-02
  4.178868e+00    5.117413e-01   1.603116e-02
  4.181078e+00    5.165391e-01   1.619706e-02
  4.183289e+00    4.431839e-01   1.508878e-02
  4.185499e+00    4.633478e-01   1.551924e-02
  4.187710e+00    4.348746e-01   1.512274e-02
  4.189920e+00    4.433886e-01   1.536200e-02
  4.192130e+00    4.898100e-01   1.624496e-02
  4.194341e+00    5.345344e-01   1.707442e-02
  4.196551e+00    5.191502e-01   1.693340e-02
  4.198762e+00    4.727123e-01   1.626126e-02
  4.200972e+00    4.761216e-01   1.642516e-02
  4.203183e+00    3.990395e-01   1.513604e-02
  4.205393e+00    4.821062e-01   1.674755e-02
  4.207604e+00    4.930053e-01   1.705176e-02
  4.209814e+00    4.791447e-01   1.692544e-02
  4.212025e+00    4.688371e-01   1.686095e-02
  4.214235e+00    4.795310e-01   1.717331e-02
  4.216445e+00    4.938343e-01   1.755309e-02
  4.218656e+00    4.794329e-01   1.742535e-02
  4.220866e+00    5.119126e-01   1.813906e-02
  4.223077e+00    4.878337e-01   1.784372e-02
  4.225287e+00    4.957004e-01   1.812807e-02
  4.227498e+00    5.006331e-01   1.836132e-02
  4.229708e+00    4.697407e-01   1.793017e-02
  4.231919e+00    4.629974e-01   1.794816e-02
  4.234129e+00    5.423498e-01   1.958878e-02
  4.236340e+00    5.022162e-01   1.901122e-02
  4.238550e+00    4.244252e-01   1.763113e-02
  4.240761e+00    4.702023e-01   1.872154e-02
  4.242971e+00    4.463778e-01   1.840820e-02
  4.245181e+00    4.929045e-01   1.952565e-02
  4.247392e+00    4.473250e-01   1.877471e-02
  4.249602e+00    4.880717e-01   1.980584e-02
  4.251813e+00    4.487264e-01   1.917797e-02
  4.254023e+00    4.269348e-01   1.889506e-02
  4.256234e+00    5.435268e-01   2.154695e-02
  4.258444e+00    4.911452e-01   2.069748e-02
  4.260655e+00    4.843237e-01   2.077872e-02
  4.262865e+00    4.414504e-01   2.006292e-02
  4.265076e+00    4.630137e-01   2.078020e-02
  4.267286e+00    4.872094e-01   2.156972e-02
  4.269496e+00    4.213850e-01   2.030446e-02
  4.271707e+00    4.152666e-01   2.040525e-02
  4.273917e+00    4.963666e-01   2.259752e-02
  4.276128e+00    4.189524e-01   2.103667e-02
  4.278338e+00    4.570105e-01   2.226471e-02
  4.280549e+00    4.410255e-01   2.218545e-02
  4.282759e+00    4.378499e-01   2.242297e-02
  4.284970e+00    4.855061e-01   2.396109e-02
  4.287180e+00    5.322670e-01   2.538945e-02
  4.289391e+00    5.039727e-01   2.489092e-02
  4.291601e+00    4.997057e-01   2.498353e-02
  4.293811e+00    4.319231e-01   2.340845e-02
  4.296022e+00    5.050131e-01   2.551547e-02
  4.298232e+00    4.873943e-01   2.527661e-02
  4.300443e+00    4.200529e-01   2.365839e-02
  4.302653e+00    3.988400e-01   2.325351e-02
  4.304864e+00    5.117030e-01   2.656645e-02
  4.307074e+00    4.144617e-01   2.412444e-02
  4.309285e+00    5.863492e-01   2.895444e-02
  4.311495e+00    4.778509e-01   2.638401e-02
  4.313706e+00    4.037102e-01   2.447875e-02
  4.315916e+00    4.216534e-01   2.526210e-02
  4.318126e+00    4.908232e-01   2.752562e-02
  4.320337e+00    4.528073e-01   2.670556e-02
  4.322547e+00    4.863551e-01   2.797111e-02
  4.324758e+00    4.798839e-01   2.807317e-02
  4.326968e+00    4.806592e-01   2.841220e-02
  4.329179e+00    4.405957e-01   2.750206e-02
  4.331389e+00    5.340287e-01   3.062679e-02
  4.333600e+00    4.751636e-01   2.923502e-02
  4.335810e+00    4.152461e-01   2.765433e-02
  4.338021e+00    5.006289e-01   3.075374e-02
  4.340231e+00    4.263133e-01   2.873499e-02
  4.342442e+00    6.063042e-01   3.472858e-02
  4.344652e+00    4.553006e-01   3.050384e-02
  4.346862e+00    4.174238e-01   2.961602e-02
  4.349073e+00    4.344820e-01   3.065475e-02
  4.351283e+00    4.066037e-01   3.009800e-02
  4.353494e+00    4.389418e-01   3.175410e-02
  4.355704e+00    5.639796e-01   3.657397e-02
  4.357915e+00    4.389915e-01   3.280713e-02
  4.360125e+00    4.591221e-01   3.412142e-02
  4.362336e+00    6.028249e-01   3.981088e-02
  4.364546e+00    4.578968e-01   3.532949e-02
  4.366757e+00    4.505406e-01   3.574073e-02
  4.368967e+00    4.030980e-01   3.448226e-02
  4.371177e+00    5.700800e-01   4.187663e-02
  4.373388e+00    5.951594e-01   4.374591e-02
  4.375598e+00    4.496328e-01   3.889047e-02
  4.377809e+00    4.791472e-01   4.116267e-02
  4.380019e+00    3.558407e-01   3.636375e-02
  4.382230e+00    3.109827e-01   3.494439e-02
  4.384440e+00    3.416207e-01   3.767950e-02
  4.386651e+00    4.136848e-01   4.274084e-02
  4.388861e+00    4.910679e-01   4.813103e-02
  4.391072e+00    4.664325e-01   4.855674e-02
  4.393282e+00    5.217625e-01   5.333970e-02
  4.395492e+00    5.665843e-01   5.789495e-02
  4.397703e+00    5.413551e-01   5.917822e-02
  4.399913e+00    6.033837e-01   6.563878e-02
  4.402124e+00    3.672793e-01   5.411387e-02
  4.404334e+00    4.558742e-01   6.408805e-02
  4.406545e+00    2.082565e-01   4.653371e-02
  4.408755e+00    2.487181e-01   5.515942e-02
  4.410966e+00    2.579625e-01   6.216477e-02
  4.413176e+00    5.307162e-01   1.009322e-01
  4.415387e+00   -3.363355e-01            nan
  4.417597e+00   -1.864377e+00            nan
  4.419807e+00    1.372970e-01   1.330704e-01
