# == pyFAI calibration ==
# Distance Sample to Detector: 0.216 m
# PONI: 1.166e-01, 1.308e-01 m
# Rotations: 0.000000 0.000000 0.000000 rad
# 
# == Fit2d calibration ==
# Distance Sample-beamCenter: 216.000 mm
# Center: x=1744.293, y=1555.000 pix
# Tilt: 0.000 deg  TiltPlanRot: 0.000 deg
# 
# Detector Eiger 9M	 PixelSize= 7.500e-05, 7.500e-05 m
#    Detector has a mask: True 
#    Detector has a dark current: False 
#    detector has a flat field: False 
# 
# Wavelength: 9.8e-11 m
# Mask applied: from detector
# Dark current applied: False
# Flat field applied: False
# Polarization factor: None
# Normalization factor: 1.0
# 
# Headers of the input frame:
# {
# "_array_data.header_convention": "SLS_1.0",
# "_array_data.header_contents": "# Detector: Dectris Eiger 9M, S/N E-18-0102\r\n# Pixel_size 75e-6 m x 75e-6 m\r\n# Silicon sensor, thickness 0.000450 m\r\n# Exposure_time 0.024997 s\r\n# Exposure_period 0.025000 s\r\n# Count_cutoff 62318 counts\r\n# Wavelength 0.980106 A\r\n# Detector_distance 0.215992 m\r\n# Beam_xy (1555, 1744) pixels\r\n# Start_angle 0.000000 deg.\r\n# Angle_increment 0.000000 deg.",
# "Content-Type": "application/octet-stream;",
# "conversions": "x-CBF_BYTE_OFFSET",
# "Content-Transfer-Encoding": "BINARY",
# "X-Binary-Size": "10166592",
# "X-Binary-ID": "1",
# "X-Binary-Element-Type": "signed 32-bit integer",
# "X-Binary-Element-Byte-Order": "LITTLE_ENDIAN",
# "Content-MD5": "1+eMa9LBnB1uZ9HttRx2PA==",
# "X-Binary-Number-of-Elements": "10166590",
# "X-Binary-Size-Fastest-Dimension": "3110",
# "X-Binary-Size-Second-Dimension": "3269",
# "X-Binary-Size-Padding": "4095"
# }
# --> H:/Proxima2a_2019-04-05/RAW_DATA/C5_gel17_position5/C5_mesh_1_data.cbf/C5_mesh_1_data.cbf000011.dat
#        q_A^-1              I           sigma 
  1.105228e-03    1.549152e+00   6.734945e-01
  3.315685e-03    9.603150e-01   3.223683e-01
  5.526141e-03    1.537391e+00   3.154019e-01
  7.736597e-03    1.415441e+00   2.556619e-01
  9.947054e-03    1.367398e+00   2.215257e-01
  1.215751e-02    1.403521e+00   2.029449e-01
  1.436797e-02    1.309237e+00   1.802955e-01
  1.657842e-02    1.394677e+00   1.732133e-01
  1.878888e-02    1.573719e+00   1.728332e-01
  2.099934e-02    1.457686e+00   1.573744e-01
  2.320979e-02    1.365655e+00   1.448783e-01
  2.542025e-02    1.438059e+00   1.420685e-01
  2.763070e-02    1.360064e+00   1.325165e-01
  2.984116e-02    1.331288e+00   1.261573e-01
  3.205162e-02    1.370029e+00   1.234955e-01
  3.426207e-02    1.437725e+00   1.223525e-01
  3.647253e-02    1.388232e+00   1.165255e-01
  3.868299e-02    1.468234e+00   1.163706e-01
  4.089344e-02    1.390562e+00   1.101478e-01
  4.310390e-02    1.401457e+00   1.076995e-01
  4.531436e-02    1.405210e+00   1.051808e-01
  4.752481e-02    1.510157e+00   1.064707e-01
  4.973527e-02    1.435544e+00   1.014752e-01
  5.194572e-02    1.374491e+00   9.715695e-02
  5.415618e-02    1.417605e+00   9.663098e-02
  5.636664e-02    1.516007e+00   9.795257e-02
  5.857709e-02    1.584374e+00   9.822982e-02
  6.078755e-02    1.559678e+00   9.566980e-02
  6.299801e-02    1.530034e+00   9.307797e-02
  6.520846e-02    1.518901e+00   9.115395e-02
  6.741892e-02    1.425389e+00   8.683935e-02
  6.962938e-02    1.371161e+00   8.381283e-02
  7.183983e-02    1.517779e+00   8.681131e-02
  7.405029e-02    1.486580e+00   8.462048e-02
  7.626074e-02    1.419785e+00   8.148950e-02
  7.847120e-02    1.438521e+00   8.085970e-02
  8.068166e-02    1.466308e+00   8.051018e-02
  8.289211e-02    1.457499e+00   7.919009e-02
  8.510257e-02    1.502579e+00   7.935385e-02
  8.731303e-02    1.504716e+00   7.839566e-02
  8.952348e-02    1.428283e+00   7.543184e-02
  9.173394e-02    1.458258e+00   7.529239e-02
  9.394439e-02    1.506485e+00   7.561915e-02
  9.615485e-02    1.458144e+00   7.353430e-02
  9.836531e-02    1.458114e+00   7.270064e-02
  1.005758e-01    1.507160e+00   7.309692e-02
  1.027862e-01    1.547767e+00   7.327244e-02
  1.049967e-01    1.616656e+00   7.409158e-02
  1.072071e-01    1.605035e+00   7.305889e-02
  1.094176e-01    1.531129e+00   7.063149e-02
  1.116280e-01    1.500814e+00   6.923140e-02
  1.138385e-01    1.518658e+00   6.896095e-02
  1.160490e-01    1.472706e+00   6.725894e-02
  1.182594e-01    1.592773e+00   6.928866e-02
  1.204699e-01    1.562095e+00   6.798521e-02
  1.226803e-01    1.550837e+00   6.712393e-02
  1.248908e-01    1.576965e+00   6.708457e-02
  1.271012e-01    1.582461e+00   6.661312e-02
  1.293117e-01    1.671061e+00   6.786409e-02
  1.315222e-01    1.600617e+00   6.585623e-02
  1.337326e-01    1.621074e+00   6.572446e-02
  1.359431e-01    1.589100e+00   6.511116e-02
  1.381535e-01    1.611250e+00   6.644344e-02
  1.403640e-01    1.530707e+00   6.504108e-02
  1.425744e-01    1.538642e+00   6.531362e-02
  1.447849e-01    1.550837e+00   6.558701e-02
  1.469953e-01    1.686399e+00   6.835071e-02
  1.492058e-01    1.665018e+00   6.783712e-02
  1.514163e-01    1.590926e+00   6.620048e-02
  1.536267e-01    1.651974e+00   6.732694e-02
  1.558372e-01    1.693323e+00   6.801388e-02
  1.580476e-01    1.593183e+00   6.581201e-02
  1.602581e-01    1.630952e+00   6.641842e-02
  1.624685e-01    1.699531e+00   6.761480e-02
  1.646790e-01    1.706022e+00   6.754930e-02
  1.668895e-01    1.715100e+00   6.753317e-02
  1.690999e-01    1.685796e+00   6.675268e-02
  1.713104e-01    1.680656e+00   6.644400e-02
  1.735208e-01    1.722143e+00   6.704994e-02
  1.757313e-01    1.742231e+00   6.722848e-02
  1.779417e-01    1.882472e+00   6.965400e-02
  1.801522e-01    1.943601e+00   7.055052e-02
  1.823626e-01    1.795930e+00   6.759164e-02
  1.845731e-01    1.884180e+00   6.900813e-02
  1.867836e-01    1.952480e+00   7.001068e-02
  1.889940e-01    2.013177e+00   7.085827e-02
  1.912045e-01    2.013520e+00   7.062766e-02
  1.934149e-01    1.949538e+00   6.926388e-02
  1.956254e-01    2.007958e+00   7.006216e-02
  1.978358e-01    1.988209e+00   6.947785e-02
  2.000463e-01    1.991007e+00   6.929632e-02
  2.022568e-01    2.062411e+00   7.029647e-02
  2.044672e-01    1.998676e+00   6.896473e-02
  2.066777e-01    1.852021e+00   6.616596e-02
  2.088881e-01    1.936899e+00   6.744379e-02
  2.110986e-01    1.939717e+00   6.726139e-02
  2.133090e-01    1.980554e+00   6.774478e-02
  2.155195e-01    1.959373e+00   6.715807e-02
  2.177300e-01    2.062007e+00   6.835327e-02
  2.199404e-01    2.007037e+00   6.565911e-02
  2.221509e-01    1.914684e+00   6.307761e-02
  2.243613e-01    2.009346e+00   6.379889e-02
  2.265718e-01    1.978662e+00   6.261209e-02
  2.287822e-01    2.005985e+00   6.241892e-02
  2.309927e-01    2.011967e+00   6.194244e-02
  2.332031e-01    2.189828e+00   6.406928e-02
  2.354136e-01    2.122845e+00   6.257053e-02
  2.376241e-01    2.186473e+00   6.300843e-02
  2.398345e-01    2.127842e+00   6.169788e-02
  2.420450e-01    2.104669e+00   6.092247e-02
  2.442554e-01    2.071892e+00   6.002980e-02
  2.464659e-01    1.998988e+00   5.856831e-02
  2.486763e-01    2.083346e+00   5.939832e-02
  2.508868e-01    2.096307e+00   5.920693e-02
  2.530973e-01    2.069191e+00   5.845809e-02
  2.553077e-01    2.018193e+00   5.738297e-02
  2.575182e-01    2.086893e+00   5.800626e-02
  2.597286e-01    2.092307e+00   5.774381e-02
  2.619391e-01    2.084031e+00   5.729773e-02
  2.641495e-01    2.003305e+00   5.586610e-02
  2.663600e-01    2.022853e+00   5.582931e-02
  2.685704e-01    1.999047e+00   5.519895e-02
  2.707809e-01    2.131820e+00   5.670003e-02
  2.729914e-01    2.064198e+00   5.550278e-02
  2.752018e-01    2.030339e+00   5.475917e-02
  2.774123e-01    1.980942e+00   5.381267e-02
  2.796227e-01    1.954336e+00   5.318564e-02
  2.818332e-01    1.955907e+00   5.294160e-02
  2.840436e-01    2.025133e+00   5.360921e-02
  2.862541e-01    1.935200e+00   5.215344e-02
  2.884646e-01    1.979782e+00   5.250039e-02
  2.906750e-01    2.044789e+00   5.310238e-02
  2.928855e-01    1.993313e+00   5.218680e-02
  2.950959e-01    1.994992e+00   5.196895e-02
  2.973064e-01    1.940479e+00   5.102364e-02
  2.995168e-01    1.945604e+00   5.085960e-02
  3.017273e-01    1.882185e+00   4.980325e-02
  3.039377e-01    1.923427e+00   5.012548e-02
  3.061482e-01    1.902357e+00   4.963453e-02
  3.083587e-01    1.903713e+00   4.943731e-02
  3.105691e-01    1.897359e+00   4.914393e-02
  3.127796e-01    1.911828e+00   4.912356e-02
  3.149900e-01    1.872032e+00   4.840707e-02
  3.172005e-01    1.856931e+00   4.801428e-02
  3.194109e-01    1.851757e+00   4.774943e-02
  3.216214e-01    1.882084e+00   4.794241e-02
  3.238319e-01    1.846350e+00   4.729697e-02
  3.260423e-01    1.900673e+00   4.779656e-02
  3.282528e-01    1.947931e+00   4.819448e-02
  3.304632e-01    1.931734e+00   4.780780e-02
  3.326737e-01    1.880689e+00   4.698784e-02
  3.348841e-01    1.901912e+00   4.706900e-02
  3.370946e-01    1.848664e+00   4.623082e-02
  3.393050e-01    1.919424e+00   4.692883e-02
  3.415155e-01    1.906118e+00   4.659007e-02
  3.437260e-01    1.846099e+00   4.568075e-02
  3.459364e-01    1.816455e+00   4.514489e-02
  3.481469e-01    1.851771e+00   4.541524e-02
  3.503573e-01    1.797436e+00   4.458101e-02
  3.525678e-01    1.810986e+00   4.458923e-02
  3.547782e-01    1.823682e+00   4.458356e-02
  3.569887e-01    1.809940e+00   4.425789e-02
  3.591992e-01    1.831839e+00   4.436726e-02
  3.614096e-01    1.826488e+00   4.414884e-02
  3.636201e-01    1.798414e+00   4.365427e-02
  3.658305e-01    1.762537e+00   4.306921e-02
  3.680410e-01    1.863124e+00   4.412883e-02
  3.702514e-01    1.849721e+00   4.382196e-02
  3.724619e-01    1.815879e+00   4.327138e-02
  3.746724e-01    1.784778e+00   4.275607e-02
  3.768828e-01    1.859287e+00   4.349257e-02
  3.790933e-01    1.826648e+00   4.296868e-02
  3.813037e-01    1.826689e+00   4.282855e-02
  3.835142e-01    1.847423e+00   4.292950e-02
  3.857246e-01    1.761253e+00   4.178068e-02
  3.879351e-01    1.763825e+00   4.167584e-02
  3.901455e-01    1.785875e+00   4.180203e-02
  3.923560e-01    1.791864e+00   4.173898e-02
  3.945665e-01    1.817219e+00   4.189997e-02
  3.967769e-01    1.792827e+00   4.148746e-02
  3.989874e-01    1.802352e+00   4.146765e-02
  4.011978e-01    1.817346e+00   4.151171e-02
  4.034083e-01    1.776889e+00   4.092107e-02
  4.056187e-01    1.806471e+00   4.113316e-02
  4.078292e-01    1.779980e+00   4.070690e-02
  4.100397e-01    1.759615e+00   4.034978e-02
  4.122501e-01    1.836491e+00   4.109845e-02
  4.144606e-01    1.848626e+00   4.111174e-02
  4.166710e-01    1.877114e+00   4.130413e-02
  4.188815e-01    1.819930e+00   4.054999e-02
  4.210919e-01    1.802833e+00   4.024078e-02
  4.233024e-01    1.790783e+00   3.998811e-02
  4.255128e-01    1.813617e+00   4.012591e-02
  4.277233e-01    1.845553e+00   4.036136e-02
  4.299338e-01    1.787410e+00   3.960622e-02
  4.321442e-01    1.750456e+00   3.908250e-02
  4.343547e-01    1.698408e+00   3.838822e-02
  4.365651e-01    1.757604e+00   3.894050e-02
  4.387756e-01    1.755470e+00   3.880791e-02
  4.409860e-01    1.754349e+00   3.868801e-02
  4.431965e-01    1.776163e+00   3.882017e-02
  4.454070e-01    1.722276e+00   3.812040e-02
  4.476174e-01    1.752428e+00   3.834705e-02
  4.498279e-01    1.766997e+00   3.840137e-02
  4.520383e-01    1.697736e+00   3.753794e-02
  4.542488e-01    1.671952e+00   3.715134e-02
  4.564592e-01    1.688710e+00   3.723689e-02
  4.586697e-01    1.696689e+00   3.722570e-02
  4.608801e-01    1.759775e+00   3.780987e-02
  4.630906e-01    1.782974e+00   3.795755e-02
  4.653011e-01    1.741524e+00   3.741505e-02
  4.675115e-01    1.779760e+00   3.772396e-02
  4.697220e-01    1.688138e+00   3.664394e-02
  4.719324e-01    1.743195e+00   3.714034e-02
  4.741429e-01    1.815778e+00   3.780802e-02
  4.763533e-01    1.812219e+00   3.767414e-02
  4.785638e-01    1.801837e+00   3.746901e-02
  4.807743e-01    1.743586e+00   3.676467e-02
  4.829847e-01    1.668808e+00   3.587677e-02
  4.851952e-01    1.703640e+00   3.615752e-02
  4.874056e-01    1.723692e+00   3.627799e-02
  4.896161e-01    1.706835e+00   3.601064e-02
  4.918265e-01    1.735596e+00   3.622257e-02
  4.940370e-01    1.772181e+00   3.651201e-02
  4.962475e-01    1.746354e+00   3.615547e-02
  4.984579e-01    1.735963e+00   3.595889e-02
  5.006684e-01    1.731949e+00   3.582973e-02
  5.028788e-01    1.725011e+00   3.567124e-02
  5.050893e-01    1.721087e+00   3.554400e-02
  5.072997e-01    1.681159e+00   3.504442e-02
  5.095102e-01    1.689636e+00   3.504854e-02
  5.117206e-01    1.677598e+00   3.484040e-02
  5.139311e-01    1.681249e+00   3.479575e-02
  5.161416e-01    1.684435e+00   3.474641e-02
  5.183520e-01    1.640064e+00   3.420423e-02
  5.205625e-01    1.683343e+00   3.457141e-02
  5.227729e-01    1.679973e+00   3.445624e-02
  5.249834e-01    1.696712e+00   3.454709e-02
  5.271938e-01    1.667299e+00   3.416644e-02
  5.294043e-01    1.686079e+00   3.427900e-02
  5.316148e-01    1.789036e+00   3.522924e-02
  5.338252e-01    1.773170e+00   3.499252e-02
  5.360357e-01    1.754521e+00   3.472878e-02
  5.382461e-01    1.741424e+00   3.452070e-02
  5.404566e-01    1.730649e+00   3.433542e-02
  5.426670e-01    1.717854e+00   3.413118e-02
  5.448775e-01    1.747731e+00   3.434978e-02
  5.470879e-01    1.758787e+00   3.438143e-02
  5.492984e-01    1.741024e+00   3.413130e-02
  5.515089e-01    1.772300e+00   3.436013e-02
  5.537193e-01    1.748503e+00   3.405349e-02
  5.559298e-01    1.741295e+00   3.390867e-02
  5.581402e-01    1.783660e+00   3.424370e-02
  5.603507e-01    1.770628e+00   3.404413e-02
  5.625611e-01    1.756689e+00   3.383627e-02
  5.647716e-01    1.804408e+00   3.421829e-02
  5.669821e-01    1.793462e+00   3.404082e-02
  5.691925e-01    1.756583e+00   3.361669e-02
  5.714030e-01    1.744521e+00   3.342964e-02
  5.736134e-01    1.699946e+00   3.292961e-02
  5.758239e-01    1.714055e+00   3.299539e-02
  5.780343e-01    1.700580e+00   3.279593e-02
  5.802448e-01    1.683009e+00   3.255775e-02
  5.824552e-01    1.646834e+00   3.213838e-02
  5.846657e-01    1.611431e+00   3.172478e-02
  5.868762e-01    1.626255e+00   3.180400e-02
  5.890866e-01    1.638758e+00   3.185979e-02
  5.912971e-01    1.706984e+00   3.244892e-02
  5.935075e-01    1.662338e+00   3.195559e-02
  5.957180e-01    1.667384e+00   3.193839e-02
  5.979284e-01    1.620571e+00   3.142257e-02
  6.001389e-01    1.649058e+00   3.163300e-02
  6.023494e-01    1.628523e+00   3.137160e-02
  6.045598e-01    1.657303e+00   3.158315e-02
  6.067703e-01    1.663916e+00   3.158248e-02
  6.089807e-01    1.672664e+00   3.160172e-02
  6.111912e-01    1.678973e+00   3.159804e-02
  6.134016e-01    1.667075e+00   3.142309e-02
  6.156121e-01    1.669585e+00   3.138421e-02
  6.178226e-01    1.678704e+00   3.140751e-02
  6.200330e-01    1.670337e+00   3.126733e-02
  6.222435e-01    1.684696e+00   3.133925e-02
  6.244539e-01    1.701458e+00   3.143308e-02
  6.266644e-01    1.710680e+00   3.145669e-02
  6.288748e-01    1.725570e+00   3.153178e-02
  6.310853e-01    1.746369e+00   3.165968e-02
  6.332957e-01    1.729936e+00   3.144953e-02
  6.355062e-01    1.720657e+00   3.130414e-02
  6.377167e-01    1.695867e+00   3.101818e-02
  6.399271e-01    1.697382e+00   3.097258e-02
  6.421376e-01    1.691300e+00   3.085801e-02
  6.443480e-01    1.681477e+00   3.070976e-02
  6.465585e-01    1.695274e+00   3.077705e-02
  6.487689e-01    1.722246e+00   3.096237e-02
  6.509794e-01    1.684181e+00   3.056053e-02
  6.531899e-01    1.693164e+00   3.058432e-02
  6.554003e-01    1.625913e+00   2.991442e-02
  6.576108e-01    1.617046e+00   2.977718e-02
  6.598212e-01    1.607331e+00   2.963245e-02
  6.620317e-01    1.645220e+00   2.992409e-02
  6.642421e-01    1.625017e+00   2.968478e-02
  6.664526e-01    1.631689e+00   2.969085e-02
  6.686630e-01    1.586650e+00   2.922409e-02
  6.708735e-01    1.599187e+00   2.928548e-02
  6.730840e-01    1.615840e+00   2.938391e-02
  6.752944e-01    1.630811e+00   2.946602e-02
  6.775049e-01    1.624863e+00   2.935884e-02
  6.797153e-01    1.602720e+00   2.910531e-02
  6.819258e-01    1.621450e+00   2.922208e-02
  6.841362e-01    1.627701e+00   2.922571e-02
  6.863467e-01    1.584855e+00   2.878686e-02
  6.885572e-01    1.580978e+00   2.870008e-02
  6.907676e-01    1.611277e+00   2.892188e-02
  6.929781e-01    1.607361e+00   2.883537e-02
  6.951885e-01    1.618436e+00   2.888328e-02
  6.973990e-01    1.616473e+00   2.881475e-02
  6.996094e-01    1.526652e+00   2.795348e-02
  7.018199e-01    1.537453e+00   2.800293e-02
  7.040303e-01    1.593304e+00   2.845695e-02
  7.062408e-01    1.598804e+00   2.845611e-02
  7.084513e-01    1.607636e+00   2.848495e-02
  7.106617e-01    1.614998e+00   2.850048e-02
  7.128722e-01    1.631730e+00   2.859819e-02
  7.150826e-01    1.586468e+00   2.815018e-02
  7.172931e-01    1.560133e+00   2.786740e-02
  7.195035e-01    1.563252e+00   2.784730e-02
  7.217140e-01    1.591162e+00   2.814450e-02
  7.239245e-01    1.556328e+00   2.806014e-02
  7.261349e-01    1.597040e+00   2.853414e-02
  7.283454e-01    1.587290e+00   2.851965e-02
  7.305558e-01    1.524178e+00   2.800000e-02
  7.327663e-01    1.569840e+00   2.845876e-02
  7.349767e-01    1.549799e+00   2.829277e-02
  7.371872e-01    1.584873e+00   2.859990e-02
  7.393976e-01    1.595902e+00   2.868490e-02
  7.416081e-01    1.574219e+00   2.847320e-02
  7.438186e-01    1.545422e+00   2.806859e-02
  7.460290e-01    1.550695e+00   2.782444e-02
  7.482395e-01    1.556935e+00   2.771016e-02
  7.504499e-01    1.583962e+00   2.781296e-02
  7.526604e-01    1.551005e+00   2.740642e-02
  7.548708e-01    1.589841e+00   2.765756e-02
  7.570813e-01    1.580465e+00   2.752483e-02
  7.592918e-01    1.591309e+00   2.758373e-02
  7.615022e-01    1.557376e+00   2.725444e-02
  7.637127e-01    1.569918e+00   2.733122e-02
  7.659231e-01    1.558470e+00   2.719957e-02
  7.681336e-01    1.576479e+00   2.732464e-02
  7.703440e-01    1.570170e+00   2.723872e-02
  7.725545e-01    1.586551e+00   2.734945e-02
  7.747650e-01    1.605934e+00   2.747742e-02
  7.769754e-01    1.629095e+00   2.762127e-02
  7.791859e-01    1.580428e+00   2.715202e-02
  7.813963e-01    1.616087e+00   2.740337e-02
  7.836068e-01    1.636641e+00   2.752427e-02
  7.858172e-01    1.660437e+00   2.767179e-02
  7.880277e-01    1.686622e+00   2.783609e-02
  7.902381e-01    1.654370e+00   2.751858e-02
  7.924486e-01    1.633535e+00   2.729409e-02
  7.946591e-01    1.631074e+00   2.722475e-02
  7.968695e-01    1.628644e+00   2.715582e-02
  7.990800e-01    1.622562e+00   2.705661e-02
  8.012904e-01    1.632474e+00   2.709216e-02
  8.035009e-01    1.669679e+00   2.735041e-02
  8.057113e-01    1.628235e+00   2.696214e-02
  8.079218e-01    1.615830e+00   2.681287e-02
  8.101323e-01    1.660998e+00   2.713889e-02
  8.123427e-01    1.644526e+00   2.695796e-02
  8.145532e-01    1.616831e+00   2.668425e-02
  8.167636e-01    1.634167e+00   2.678183e-02
  8.189741e-01    1.644397e+00   2.682072e-02
  8.211845e-01    1.682951e+00   2.708785e-02
  8.233950e-01    1.631099e+00   2.662393e-02
  8.256054e-01    1.650529e+00   2.673765e-02
  8.278159e-01    1.663441e+00   2.679772e-02
  8.300264e-01    1.630886e+00   2.649121e-02
  8.322368e-01    1.650607e+00   2.660761e-02
  8.344473e-01    1.672673e+00   2.674106e-02
  8.366577e-01    1.643993e+00   2.646817e-02
  8.388682e-01    1.628384e+00   2.630010e-02
  8.410786e-01    1.637135e+00   2.632865e-02
  8.432891e-01    1.661503e+00   2.648173e-02
  8.454996e-01    1.645426e+00   2.631161e-02
  8.477100e-01    1.598595e+00   2.589331e-02
  8.499205e-01    1.658963e+00   2.633624e-02
  8.521309e-01    1.633426e+00   2.609203e-02
  8.543414e-01    1.614438e+00   2.589944e-02
  8.565518e-01    1.620563e+00   2.590814e-02
  8.587623e-01    1.600131e+00   2.570421e-02
  8.609727e-01    1.628660e+00   2.589212e-02
  8.631832e-01    1.636770e+00   2.591649e-02
  8.653937e-01    1.629291e+00   2.581748e-02
  8.676041e-01    1.636457e+00   2.583516e-02
  8.698146e-01    1.611892e+00   2.560133e-02
  8.720250e-01    1.628191e+00   2.569121e-02
  8.742355e-01    1.586845e+00   2.532433e-02
  8.764459e-01    1.583007e+00   2.525507e-02
  8.786564e-01    1.581360e+00   2.520432e-02
  8.808669e-01    1.570228e+00   2.507736e-02
  8.830773e-01    1.634774e+00   2.554906e-02
  8.852878e-01    1.618742e+00   2.538538e-02
  8.874982e-01    1.561605e+00   2.489714e-02
  8.897087e-01    1.556130e+00   2.481631e-02
  8.919191e-01    1.588337e+00   2.503418e-02
  8.941296e-01    1.604563e+00   2.512440e-02
  8.963401e-01    1.581244e+00   2.490497e-02
  8.985505e-01    1.582645e+00   2.487922e-02
  9.007610e-01    1.580930e+00   2.482923e-02
  9.029714e-01    1.578624e+00   2.477550e-02
  9.051819e-01    1.553079e+00   2.453757e-02
  9.073923e-01    1.568524e+00   2.462304e-02
  9.096028e-01    1.588304e+00   2.474304e-02
  9.118132e-01    1.617299e+00   2.493145e-02
  9.140237e-01    1.572425e+00   2.454685e-02
  9.162342e-01    1.602632e+00   2.474689e-02
  9.184446e-01    1.584033e+00   2.456731e-02
  9.206551e-01    1.594931e+00   2.461614e-02
  9.228655e-01    1.607229e+00   2.467553e-02
  9.250760e-01    1.605347e+00   2.462570e-02
  9.272864e-01    1.584675e+00   2.443256e-02
  9.294969e-01    1.618576e+00   2.465653e-02
  9.317074e-01    1.632707e+00   2.472893e-02
  9.339178e-01    1.639810e+00   2.474883e-02
  9.361283e-01    1.605134e+00   2.444966e-02
  9.383387e-01    1.631253e+00   2.461423e-02
  9.405492e-01    1.662782e+00   2.481629e-02
  9.427596e-01    1.670690e+00   2.483941e-02
  9.449701e-01    1.682446e+00   2.489279e-02
  9.471805e-01    1.681871e+00   2.485328e-02
  9.493910e-01    1.667780e+00   2.471499e-02
  9.516015e-01    1.674397e+00   2.472938e-02
  9.538119e-01    1.695391e+00   2.484984e-02
  9.560224e-01    1.711285e+00   2.493089e-02
  9.582328e-01    1.762132e+00   2.526464e-02
  9.604433e-01    1.764830e+00   2.524817e-02
  9.626537e-01    1.785274e+00   2.535984e-02
  9.648642e-01    1.785435e+00   2.532625e-02
  9.670747e-01    1.796243e+00   2.536776e-02
  9.692851e-01    1.833770e+00   2.559730e-02
  9.714956e-01    1.867340e+00   2.579412e-02
  9.737060e-01    1.887360e+00   2.589796e-02
  9.759165e-01    1.946280e+00   2.626200e-02
  9.781269e-01    1.980597e+00   2.645788e-02
  9.803374e-01    1.920215e+00   2.601543e-02
  9.825478e-01    1.868633e+00   2.562977e-02
  9.847583e-01    1.848488e+00   2.545662e-02
  9.869688e-01    1.806780e+00   2.513411e-02
  9.891792e-01    1.784106e+00   2.494271e-02
  9.913897e-01    1.777330e+00   2.486169e-02
  9.936001e-01    1.793433e+00   2.494136e-02
  9.958106e-01    1.794121e+00   2.491227e-02
  9.980210e-01    1.737019e+00   2.448079e-02
  1.000231e+00    1.722925e+00   2.451483e-02
  1.002442e+00    1.762005e+00   2.492302e-02
  1.004652e+00    1.757480e+00   2.496044e-02
  1.006863e+00    1.701314e+00   2.460932e-02
  1.009073e+00    1.656775e+00   2.432223e-02
  1.011284e+00    1.650038e+00   2.430516e-02
  1.013494e+00    1.641007e+00   2.426261e-02
  1.015705e+00    1.660737e+00   2.443107e-02
  1.017915e+00    1.793068e+00   2.540326e-02
  1.020126e+00    1.815432e+00   2.557850e-02
  1.022336e+00    1.755041e+00   2.516187e-02
  1.024547e+00    1.658097e+00   2.446866e-02
  1.026757e+00    1.571329e+00   2.382827e-02
  1.028967e+00    1.558117e+00   2.373558e-02
  1.031178e+00    1.550701e+00   2.368521e-02
  1.033388e+00    1.601490e+00   2.407513e-02
  1.035599e+00    1.598055e+00   2.405281e-02
  1.037809e+00    1.592971e+00   2.401785e-02
  1.040020e+00    1.628166e+00   2.428301e-02
  1.042230e+00    1.634657e+00   2.433341e-02
  1.044441e+00    1.629334e+00   2.429351e-02
  1.046651e+00    1.644703e+00   2.440801e-02
  1.048862e+00    1.625713e+00   2.426588e-02
  1.051072e+00    1.584207e+00   2.395168e-02
  1.053282e+00    1.544452e+00   2.364829e-02
  1.055493e+00    1.504568e+00   2.333662e-02
  1.057703e+00    1.485059e+00   2.318331e-02
  1.059914e+00    1.494973e+00   2.325629e-02
  1.062124e+00    1.500565e+00   2.329568e-02
  1.064335e+00    1.487400e+00   2.318984e-02
  1.066545e+00    1.453759e+00   2.292015e-02
  1.068756e+00    1.457954e+00   2.294948e-02
  1.070966e+00    1.459145e+00   2.295236e-02
  1.073177e+00    1.475211e+00   2.307230e-02
  1.075387e+00    1.471236e+00   2.303598e-02
  1.077597e+00    1.423125e+00   2.264906e-02
  1.079808e+00    1.431503e+00   2.258436e-02
  1.082018e+00    1.422672e+00   2.232815e-02
  1.084229e+00    1.431327e+00   2.228701e-02
  1.086439e+00    1.446872e+00   2.232053e-02
  1.088650e+00    1.443998e+00   2.222295e-02
  1.090860e+00    1.434970e+00   2.208620e-02
  1.093071e+00    1.415122e+00   2.187150e-02
  1.095281e+00    1.424096e+00   2.188393e-02
  1.097492e+00    1.427529e+00   2.185571e-02
  1.099702e+00    1.440654e+00   2.190456e-02
  1.101912e+00    1.420635e+00   2.170333e-02
  1.104123e+00    1.403319e+00   2.152296e-02
  1.106333e+00    1.398416e+00   2.144144e-02
  1.108544e+00    1.405456e+00   2.145148e-02
  1.110754e+00    1.395141e+00   2.133005e-02
  1.112965e+00    1.408080e+00   2.138842e-02
  1.115175e+00    1.405453e+00   2.132749e-02
  1.117386e+00    1.397795e+00   2.123027e-02
  1.119596e+00    1.369836e+00   2.097960e-02
  1.121807e+00    1.371785e+00   2.095618e-02
  1.124017e+00    1.376444e+00   2.095553e-02
  1.126228e+00    1.376755e+00   2.092247e-02
  1.128438e+00    1.394452e+00   2.101985e-02
  1.130648e+00    1.392118e+00   2.096802e-02
  1.132859e+00    1.375804e+00   2.081070e-02
  1.135069e+00    1.376887e+00   2.078434e-02
  1.137280e+00    1.362910e+00   2.064593e-02
  1.139490e+00    1.363666e+00   2.061884e-02
  1.141701e+00    1.391352e+00   2.079391e-02
  1.143911e+00    1.381051e+00   2.068496e-02
  1.146122e+00    1.399835e+00   2.079292e-02
  1.148332e+00    1.377546e+00   2.059488e-02
  1.150543e+00    1.369341e+00   2.050270e-02
  1.152753e+00    1.361005e+00   2.040952e-02
  1.154963e+00    1.375181e+00   2.048447e-02
  1.157174e+00    1.364378e+00   2.037381e-02
  1.159384e+00    1.369683e+00   2.038355e-02
  1.161595e+00    1.343545e+00   2.015856e-02
  1.163805e+00    1.338014e+00   2.008810e-02
  1.166016e+00    1.351123e+00   2.015701e-02
  1.168226e+00    1.364539e+00   2.022790e-02
  1.170437e+00    1.360512e+00   2.016947e-02
  1.172647e+00    1.340028e+00   1.998843e-02
  1.174858e+00    1.341357e+00   1.997048e-02
  1.177068e+00    1.346512e+00   1.998074e-02
  1.179278e+00    1.345281e+00   1.994320e-02
  1.181489e+00    1.353030e+00   1.997360e-02
  1.183699e+00    1.371779e+00   2.008382e-02
  1.185910e+00    1.353849e+00   1.992439e-02
  1.188120e+00    1.381171e+00   2.009752e-02
  1.190331e+00    1.363003e+00   1.993805e-02
  1.192541e+00    1.336453e+00   1.971574e-02
  1.194752e+00    1.308714e+00   1.948343e-02
  1.196962e+00    1.334144e+00   1.964623e-02
  1.199173e+00    1.359276e+00   1.980383e-02
  1.201383e+00    1.362488e+00   1.979994e-02
  1.203593e+00    1.366409e+00   1.980343e-02
  1.205804e+00    1.350450e+00   1.966153e-02
  1.208014e+00    1.372324e+00   1.979304e-02
  1.210225e+00    1.366796e+00   1.972768e-02
  1.212435e+00    1.327695e+00   1.941884e-02
  1.214646e+00    1.370179e+00   1.970078e-02
  1.216856e+00    1.345884e+00   1.949990e-02
  1.219067e+00    1.323876e+00   1.931560e-02
  1.221277e+00    1.317264e+00   1.924256e-02
  1.223488e+00    1.348138e+00   1.944103e-02
  1.225698e+00    1.343610e+00   1.938153e-02
  1.227909e+00    1.331795e+00   1.926615e-02
  1.230119e+00    1.354246e+00   1.939595e-02
  1.232329e+00    1.367337e+00   1.945858e-02
  1.234540e+00    1.336330e+00   1.920654e-02
  1.236750e+00    1.334707e+00   1.916477e-02
  1.238961e+00    1.357085e+00   1.929774e-02
  1.241171e+00    1.343089e+00   1.917385e-02
  1.243382e+00    1.357161e+00   1.925044e-02
  1.245592e+00    1.377604e+00   1.937055e-02
  1.247803e+00    1.349273e+00   1.914671e-02
  1.250013e+00    1.344421e+00   1.908872e-02
  1.252224e+00    1.362296e+00   1.919187e-02
  1.254434e+00    1.352157e+00   1.909654e-02
  1.256644e+00    1.356269e+00   1.910230e-02
  1.258855e+00    1.359634e+00   1.910263e-02
  1.261065e+00    1.381948e+00   1.923509e-02
  1.263276e+00    1.381090e+00   1.920593e-02
  1.265486e+00    1.359782e+00   1.903424e-02
  1.267697e+00    1.345312e+00   1.890970e-02
  1.269907e+00    1.362084e+00   1.900441e-02
  1.272118e+00    1.410843e+00   1.931848e-02
  1.274328e+00    1.435467e+00   1.946293e-02
  1.276539e+00    1.407372e+00   1.924826e-02
  1.278749e+00    1.385010e+00   1.907214e-02
  1.280959e+00    1.394939e+00   1.911748e-02
  1.283170e+00    1.399536e+00   1.912611e-02
  1.285380e+00    1.411150e+00   1.918236e-02
  1.287591e+00    1.393846e+00   1.904200e-02
  1.289801e+00    1.397515e+00   1.904546e-02
  1.292012e+00    1.374417e+00   1.887016e-02
  1.294222e+00    1.356388e+00   1.872970e-02
  1.296433e+00    1.342389e+00   1.861724e-02
  1.298643e+00    1.348194e+00   1.864100e-02
  1.300854e+00    1.350957e+00   1.864365e-02
  1.303064e+00    1.356804e+00   1.866470e-02
  1.305274e+00    1.337465e+00   1.850986e-02
  1.307485e+00    1.358166e+00   1.863094e-02
  1.309695e+00    1.368977e+00   1.868256e-02
  1.311906e+00    1.357434e+00   1.858186e-02
  1.314116e+00    1.363280e+00   1.860093e-02
  1.316327e+00    1.366206e+00   1.859906e-02
  1.318537e+00    1.381617e+00   1.868152e-02
  1.320748e+00    1.390149e+00   1.871726e-02
  1.322958e+00    1.367190e+00   1.854141e-02
  1.325169e+00    1.336508e+00   1.831125e-02
  1.327379e+00    1.339632e+00   1.831090e-02
  1.329589e+00    1.366886e+00   1.847504e-02
  1.331800e+00    1.395018e+00   1.864314e-02
  1.334010e+00    1.391402e+00   1.859801e-02
  1.336221e+00    1.396028e+00   1.860677e-02
  1.338431e+00    1.411994e+00   1.869154e-02
  1.340642e+00    1.397458e+00   1.866035e-02
  1.342852e+00    1.406432e+00   1.882293e-02
  1.345063e+00    1.389170e+00   1.875727e-02
  1.347273e+00    1.381683e+00   1.874231e-02
  1.349484e+00    1.351486e+00   1.856406e-02
  1.351694e+00    1.378564e+00   1.877204e-02
  1.353905e+00    1.388629e+00   1.885870e-02
  1.356115e+00    1.467440e+00   1.940212e-02
  1.358325e+00    1.544953e+00   1.992223e-02
  1.360536e+00    1.509666e+00   1.970574e-02
  1.362746e+00    1.438748e+00   1.924719e-02
  1.364957e+00    1.388139e+00   1.891342e-02
  1.367167e+00    1.356687e+00   1.870508e-02
  1.369378e+00    1.337063e+00   1.857531e-02
  1.371588e+00    1.326505e+00   1.850693e-02
  1.373799e+00    1.308987e+00   1.838794e-02
  1.376009e+00    1.313900e+00   1.842579e-02
  1.378220e+00    1.312534e+00   1.841871e-02
  1.380430e+00    1.296286e+00   1.830701e-02
  1.382640e+00    1.310110e+00   1.840529e-02
  1.384851e+00    1.286297e+00   1.823810e-02
  1.387061e+00    1.302434e+00   1.835243e-02
  1.389272e+00    1.303963e+00   1.836344e-02
  1.391482e+00    1.275192e+00   1.815903e-02
  1.393693e+00    1.266142e+00   1.809362e-02
  1.395903e+00    1.294495e+00   1.829357e-02
  1.398114e+00    1.293681e+00   1.828643e-02
  1.400324e+00    1.291818e+00   1.827115e-02
  1.402535e+00    1.290460e+00   1.825918e-02
  1.404745e+00    1.300407e+00   1.832704e-02
  1.406955e+00    1.287053e+00   1.823000e-02
  1.409166e+00    1.263686e+00   1.806046e-02
  1.411376e+00    1.271208e+00   1.811100e-02
  1.413587e+00    1.270062e+00   1.809902e-02
  1.415797e+00    1.261588e+00   1.803502e-02
  1.418008e+00    1.273981e+00   1.808145e-02
  1.420218e+00    1.259133e+00   1.782670e-02
  1.422429e+00    1.250769e+00   1.768271e-02
  1.424639e+00    1.251893e+00   1.762645e-02
  1.426850e+00    1.250142e+00   1.755983e-02
  1.429060e+00    1.256896e+00   1.755847e-02
  1.431270e+00    1.264260e+00   1.756562e-02
  1.433481e+00    1.271317e+00   1.757359e-02
  1.435691e+00    1.291726e+00   1.767533e-02
  1.437902e+00    1.292931e+00   1.764680e-02
  1.440112e+00    1.269431e+00   1.745036e-02
  1.442323e+00    1.259733e+00   1.735066e-02
  1.444533e+00    1.265137e+00   1.735534e-02
  1.446744e+00    1.253970e+00   1.724765e-02
  1.448954e+00    1.271255e+00   1.733590e-02
  1.451165e+00    1.273756e+00   1.732315e-02
  1.453375e+00    1.282262e+00   1.735271e-02
  1.455586e+00    1.289396e+00   1.737254e-02
  1.457796e+00    1.276120e+00   1.725530e-02
  1.460006e+00    1.249672e+00   1.704851e-02
  1.462217e+00    1.235335e+00   1.692458e-02
  1.464427e+00    1.256412e+00   1.704285e-02
  1.466638e+00    1.258539e+00   1.703208e-02
  1.468848e+00    1.281660e+00   1.716234e-02
  1.471059e+00    1.272662e+00   1.707689e-02
  1.473269e+00    1.242616e+00   1.684998e-02
  1.475480e+00    1.266104e+00   1.698473e-02
  1.477690e+00    1.273017e+00   1.700716e-02
  1.479901e+00    1.291190e+00   1.710406e-02
  1.482111e+00    1.269972e+00   1.693962e-02
  1.484321e+00    1.241254e+00   1.672410e-02
  1.486532e+00    1.264866e+00   1.686010e-02
  1.488742e+00    1.269300e+00   1.686693e-02
  1.490953e+00    1.260480e+00   1.678568e-02
  1.493163e+00    1.251690e+00   1.670486e-02
  1.495374e+00    1.252302e+00   1.668754e-02
  1.497584e+00    1.249510e+00   1.664739e-02
  1.499795e+00    1.252176e+00   1.664354e-02
  1.502005e+00    1.263788e+00   1.669883e-02
  1.504216e+00    1.271310e+00   1.672731e-02
  1.506426e+00    1.253514e+00   1.658906e-02
  1.508636e+00    1.241204e+00   1.648708e-02
  1.510847e+00    1.247759e+00   1.650881e-02
  1.513057e+00    1.245473e+00   1.646869e-02
  1.515268e+00    1.261911e+00   1.655124e-02
  1.517478e+00    1.241231e+00   1.639003e-02
  1.519689e+00    1.261320e+00   1.649709e-02
  1.521899e+00    1.245324e+00   1.636915e-02
  1.524110e+00    1.252352e+00   1.639490e-02
  1.526320e+00    1.288087e+00   1.660733e-02
  1.528531e+00    1.265642e+00   1.644212e-02
  1.530741e+00    1.237161e+00   1.623702e-02
  1.532951e+00    1.255533e+00   1.633749e-02
  1.535162e+00    1.251025e+00   1.639481e-02
  1.537372e+00    1.231960e+00   1.633584e-02
  1.539583e+00    1.256931e+00   1.653491e-02
  1.541793e+00    1.248787e+00   1.648822e-02
  1.544004e+00    1.261274e+00   1.657069e-02
  1.546214e+00    1.243383e+00   1.645127e-02
  1.548425e+00    1.223474e+00   1.631926e-02
  1.550635e+00    1.238968e+00   1.643193e-02
  1.552846e+00    1.245910e+00   1.648756e-02
  1.555056e+00    1.246338e+00   1.644889e-02
  1.557266e+00    1.208425e+00   1.608794e-02
  1.559477e+00    1.218931e+00   1.609919e-02
  1.561687e+00    1.248335e+00   1.626151e-02
  1.563898e+00    1.233575e+00   1.614801e-02
  1.566108e+00    1.237020e+00   1.615463e-02
  1.568319e+00    1.242785e+00   1.617662e-02
  1.570529e+00    1.239967e+00   1.613318e-02
  1.572740e+00    1.250900e+00   1.617644e-02
  1.574950e+00    1.259124e+00   1.620308e-02
  1.577161e+00    1.267028e+00   1.622815e-02
  1.579371e+00    1.234945e+00   1.599782e-02
  1.581582e+00    1.218103e+00   1.586878e-02
  1.583792e+00    1.218107e+00   1.585098e-02
  1.586002e+00    1.221496e+00   1.585556e-02
  1.588213e+00    1.212450e+00   1.577970e-02
  1.590423e+00    1.253384e+00   1.602372e-02
  1.592634e+00    1.269960e+00   1.610749e-02
  1.594844e+00    1.243338e+00   1.591638e-02
  1.597055e+00    1.214576e+00   1.571094e-02
  1.599265e+00    1.228356e+00   1.577918e-02
  1.601476e+00    1.240113e+00   1.583423e-02
  1.603686e+00    1.229470e+00   1.574645e-02
  1.605897e+00    1.241077e+00   1.580043e-02
  1.608107e+00    1.240750e+00   1.577877e-02
  1.610317e+00    1.237614e+00   1.573950e-02
  1.612528e+00    1.252079e+00   1.581191e-02
  1.614738e+00    1.273306e+00   1.592611e-02
  1.616949e+00    1.251521e+00   1.577011e-02
  1.619159e+00    1.242790e+00   1.569615e-02
  1.621370e+00    1.194365e+00   1.536904e-02
  1.623580e+00    1.201110e+00   1.539412e-02
  1.625791e+00    1.214623e+00   1.546219e-02
  1.628001e+00    1.212735e+00   1.543182e-02
  1.630212e+00    1.178134e+00   1.519244e-02
  1.632422e+00    1.159736e+00   1.505567e-02
  1.634632e+00    1.142949e+00   1.492927e-02
  1.636843e+00    1.158065e+00   1.501027e-02
  1.639053e+00    1.148817e+00   1.493313e-02
  1.641264e+00    1.142637e+00   1.487599e-02
  1.643474e+00    1.163011e+00   1.499065e-02
  1.645685e+00    1.152229e+00   1.490438e-02
  1.647895e+00    1.139998e+00   1.480858e-02
  1.650106e+00    1.119928e+00   1.466087e-02
  1.652316e+00    1.151594e+00   1.485018e-02
  1.654527e+00    1.109642e+00   1.456078e-02
  1.656737e+00    1.115868e+00   1.458513e-02
  1.658947e+00    1.131207e+00   1.466876e-02
  1.661158e+00    1.130542e+00   1.464815e-02
  1.663368e+00    1.141074e+00   1.470008e-02
  1.665579e+00    1.161704e+00   1.481592e-02
  1.667789e+00    1.129499e+00   1.459278e-02
  1.670000e+00    1.130776e+00   1.458541e-02
  1.672210e+00    1.126055e+00   1.453893e-02
  1.674421e+00    1.117746e+00   1.446978e-02
  1.676631e+00    1.083061e+00   1.422778e-02
  1.678842e+00    1.079560e+00   1.418911e-02
  1.681052e+00    1.088258e+00   1.423081e-02
  1.683263e+00    1.089831e+00   1.422596e-02
  1.685473e+00    1.082788e+00   1.416480e-02
  1.687683e+00    1.065491e+00   1.403589e-02
  1.689894e+00    1.078415e+00   1.410502e-02
  1.692104e+00    1.049587e+00   1.390047e-02
  1.694315e+00    1.053625e+00   1.391281e-02
  1.696525e+00    1.055388e+00   1.390940e-02
  1.698736e+00    1.057369e+00   1.390767e-02
  1.700946e+00    1.035697e+00   1.374946e-02
  1.703157e+00    1.053348e+00   1.385150e-02
  1.705367e+00    1.039987e+00   1.374897e-02
  1.707578e+00    1.041628e+00   1.374528e-02
  1.709788e+00    1.044225e+00   1.374831e-02
  1.711998e+00    1.033687e+00   1.366382e-02
  1.714209e+00    1.024875e+00   1.359112e-02
  1.716419e+00    1.012434e+00   1.349426e-02
  1.718630e+00    1.014211e+00   1.349194e-02
  1.720840e+00    1.000401e+00   1.338578e-02
  1.723051e+00    1.019719e+00   1.350056e-02
  1.725261e+00    1.027589e+00   1.353785e-02
  1.727472e+00    1.004776e+00   1.337266e-02
  1.729682e+00    9.828913e-01   1.321297e-02
  1.731893e+00    9.869704e-01   1.322661e-02
  1.734103e+00    1.002202e+00   1.331455e-02
  1.736313e+00    9.838005e-01   1.317791e-02
  1.738524e+00    9.591487e-01   1.299821e-02
  1.740734e+00    9.699543e-01   1.305773e-02
  1.742945e+00    9.656271e-01   1.301532e-02
  1.745155e+00    9.696675e-01   1.302923e-02
  1.747366e+00    9.884878e-01   1.314126e-02
  1.749576e+00    9.802763e-01   1.307292e-02
  1.751787e+00    9.845455e-01   1.308800e-02
  1.753997e+00    9.751886e-01   1.301234e-02
  1.756208e+00    9.364088e-01   1.273805e-02
  1.758418e+00    9.406469e-01   1.275391e-02
  1.760628e+00    9.477436e-01   1.278875e-02
  1.762839e+00    9.425589e-01   1.274064e-02
  1.765049e+00    9.566475e-01   1.282243e-02
  1.767260e+00    9.406585e-01   1.270215e-02
  1.769470e+00    9.342314e-01   1.264584e-02
  1.771681e+00    9.037256e-01   1.242486e-02
  1.773891e+00    9.313855e-01   1.260062e-02
  1.776102e+00    9.520299e-01   1.272662e-02
  1.778312e+00    9.527773e-01   1.271883e-02
  1.780523e+00    9.274038e-01   1.253570e-02
  1.782733e+00    9.235260e-01   1.249687e-02
  1.784944e+00    9.351525e-01   1.256242e-02
  1.787154e+00    9.125718e-01   1.239741e-02
  1.789364e+00    9.355842e-01   1.254024e-02
  1.791575e+00    9.127656e-01   1.237395e-02
  1.793785e+00    9.119189e-01   1.235584e-02
  1.795996e+00    9.195159e-01   1.239472e-02
  1.798206e+00    9.311807e-01   1.246047e-02
  1.800417e+00    9.600712e-01   1.263932e-02
  1.802627e+00    9.498692e-01   1.255983e-02
  1.804838e+00    9.318609e-01   1.242796e-02
  1.807048e+00    9.528751e-01   1.255415e-02
  1.809259e+00    9.996359e-01   1.284421e-02
  1.811469e+00    1.043966e+00   1.310985e-02
  1.813679e+00    1.028896e+00   1.299892e-02
  1.815890e+00    9.843982e-01   1.269926e-02
  1.818100e+00    9.989815e-01   1.277703e-02
  1.820311e+00    9.700541e-01   1.257533e-02
  1.822521e+00    9.564379e-01   1.247133e-02
  1.824732e+00    9.679357e-01   1.253065e-02
  1.826942e+00    9.390761e-01   1.232973e-02
  1.829153e+00    9.510207e-01   1.239577e-02
  1.831363e+00    9.195204e-01   1.217650e-02
  1.833574e+00    9.179271e-01   1.215401e-02
  1.835784e+00    9.335994e-01   1.224555e-02
  1.837994e+00    9.271579e-01   1.219120e-02
  1.840205e+00    9.274210e-01   1.218143e-02
  1.842415e+00    9.082411e-01   1.204279e-02
  1.844626e+00    8.995745e-01   1.197346e-02
  1.846836e+00    8.745623e-01   1.179436e-02
  1.849047e+00    8.795515e-01   1.181624e-02
  1.851257e+00    8.833849e-01   1.183229e-02
  1.853468e+00    8.724681e-01   1.175010e-02
  1.855678e+00    8.424138e-01   1.153716e-02
  1.857889e+00    8.308656e-01   1.144944e-02
  1.860099e+00    8.493809e-01   1.156771e-02
  1.862309e+00    8.645270e-01   1.166184e-02
  1.864520e+00    8.651168e-01   1.165721e-02
  1.866730e+00    8.711472e-01   1.168829e-02
  1.868941e+00    8.628972e-01   1.162180e-02
  1.871151e+00    8.624853e-01   1.160758e-02
  1.873362e+00    8.518872e-01   1.152467e-02
  1.875572e+00    8.581869e-01   1.155621e-02
  1.877783e+00    8.652961e-01   1.159244e-02
  1.879993e+00    8.608706e-01   1.155151e-02
  1.882204e+00    8.506328e-01   1.147168e-02
  1.884414e+00    8.439171e-01   1.141524e-02
  1.886624e+00    8.462480e-01   1.141989e-02
  1.888835e+00    8.530871e-01   1.145491e-02
  1.891045e+00    8.447926e-01   1.138816e-02
  1.893256e+00    8.457692e-01   1.138362e-02
  1.895466e+00    8.446344e-01   1.136475e-02
  1.897677e+00    8.333274e-01   1.127752e-02
  1.899887e+00    8.248920e-01   1.120938e-02
  1.902098e+00    8.176841e-01   1.114954e-02
  1.904308e+00    8.317773e-01   1.123461e-02
  1.906519e+00    8.393126e-01   1.127451e-02
  1.908729e+00    8.196115e-01   1.113085e-02
  1.910940e+00    8.193792e-01   1.111820e-02
  1.913150e+00    8.280064e-01   1.116597e-02
  1.915360e+00    8.307052e-01   1.117349e-02
  1.917571e+00    8.232651e-01   1.111249e-02
  1.919781e+00    8.066112e-01   1.098891e-02
  1.921992e+00    8.146418e-01   1.103290e-02
  1.924202e+00    7.926688e-01   1.087249e-02
  1.926413e+00    7.992778e-01   1.090751e-02
  1.928623e+00    8.176494e-01   1.102160e-02
  1.930834e+00    8.122589e-01   1.097478e-02
  1.933044e+00    8.081595e-01   1.093642e-02
  1.935255e+00    8.020076e-01   1.088443e-02
  1.937465e+00    7.868997e-01   1.077117e-02
  1.939675e+00    7.980794e-01   1.083661e-02
  1.941886e+00    8.113735e-01   1.091618e-02
  1.944096e+00    8.001652e-01   1.083037e-02
  1.946307e+00    7.944641e-01   1.078142e-02
  1.948517e+00    7.881321e-01   1.072800e-02
  1.950728e+00    7.917427e-01   1.074234e-02
  1.952938e+00    8.012545e-01   1.079657e-02
  1.955149e+00    7.806888e-01   1.064699e-02
  1.957359e+00    7.723823e-01   1.058029e-02
  1.959570e+00    7.976204e-01   1.074086e-02
  1.961780e+00    8.012145e-01   1.075509e-02
  1.963990e+00    7.854572e-01   1.063871e-02
  1.966201e+00    7.993559e-01   1.072231e-02
  1.968411e+00    7.943668e-01   1.067862e-02
  1.970622e+00    7.870908e-01   1.061952e-02
  1.972832e+00    7.895666e-01   1.062622e-02
  1.975043e+00    7.760072e-01   1.052461e-02
  1.977253e+00    7.674853e-01   1.045681e-02
  1.979464e+00    7.774286e-01   1.051434e-02
  1.981674e+00    7.668013e-01   1.043207e-02
  1.983885e+00    7.652892e-01   1.041186e-02
  1.986095e+00    7.708432e-01   1.043992e-02
  1.988305e+00    7.806897e-01   1.049650e-02
  1.990516e+00    7.814203e-01   1.049147e-02
  1.992726e+00    7.829739e-01   1.049219e-02
  1.994937e+00    7.763774e-01   1.043779e-02
  1.997147e+00    7.636847e-01   1.034245e-02
  1.999358e+00    7.744178e-01   1.040503e-02
  2.001568e+00    7.567564e-01   1.027501e-02
  2.003779e+00    7.548343e-01   1.025017e-02
  2.005989e+00    7.531997e-01   1.022717e-02
  2.008200e+00    7.670451e-01   1.030926e-02
  2.010410e+00    7.618719e-01   1.026273e-02
  2.012621e+00    7.589535e-01   1.023144e-02
  2.014831e+00    7.591860e-01   1.022157e-02
  2.017041e+00    7.691684e-01   1.027817e-02
  2.019252e+00    7.626569e-01   1.022464e-02
  2.021462e+00    7.519546e-01   1.014320e-02
  2.023673e+00    7.582174e-01   1.017602e-02
  2.025883e+00    7.443299e-01   1.007300e-02
  2.028094e+00    7.421359e-01   1.004861e-02
  2.030304e+00    7.774466e-01   1.027526e-02
  2.032515e+00    7.457691e-01   1.005455e-02
  2.034725e+00    7.471467e-01   1.005446e-02
  2.036936e+00    7.565525e-01   1.010822e-02
  2.039146e+00    7.581783e-01   1.010949e-02
  2.041356e+00    7.614357e-01   1.012152e-02
  2.043567e+00    7.633919e-01   1.012515e-02
  2.045777e+00    7.606543e-01   1.009771e-02
  2.047988e+00    7.628721e-01   1.010299e-02
  2.050198e+00    7.662039e-01   1.011653e-02
  2.052409e+00    7.770734e-01   1.018025e-02
  2.054619e+00    7.865678e-01   1.023472e-02
  2.056830e+00    7.793704e-01   1.018049e-02
  2.059040e+00    7.625895e-01   1.006271e-02
  2.061251e+00    7.777783e-01   1.015504e-02
  2.063461e+00    7.904710e-01   1.022977e-02
  2.065671e+00    7.893546e-01   1.021359e-02
  2.067882e+00    7.569707e-01   9.992856e-03
  2.070092e+00    7.430711e-01   9.891505e-03
  2.072303e+00    7.542970e-01   9.956726e-03
  2.074513e+00    7.539563e-01   9.945133e-03
  2.076724e+00    7.588757e-01   9.967962e-03
  2.078934e+00    7.489486e-01   9.893521e-03
  2.081145e+00    7.336867e-01   9.783170e-03
  2.083355e+00    7.256500e-01   9.720360e-03
  2.085566e+00    7.378123e-01   9.792594e-03
  2.087776e+00    7.361537e-01   9.772087e-03
  2.089986e+00    7.411596e-01   9.796474e-03
  2.092197e+00    7.360826e-01   9.753903e-03
  2.094407e+00    7.340446e-01   9.731176e-03
  2.096618e+00    7.283073e-01   9.684222e-03
  2.098828e+00    7.163858e-01   9.595447e-03
  2.101039e+00    7.068313e-01   9.522419e-03
  2.103249e+00    7.105549e-01   9.538909e-03
  2.105460e+00    7.215405e-01   9.603424e-03
  2.107670e+00    7.141942e-01   9.545746e-03
  2.109881e+00    7.173924e-01   9.558001e-03
  2.112091e+00    7.136241e-01   9.523958e-03
  2.114301e+00    7.107952e-01   9.496355e-03
  2.116512e+00    7.164744e-01   9.525470e-03
  2.118722e+00    7.098955e-01   9.472881e-03
  2.120933e+00    7.145662e-01   9.495167e-03
  2.123143e+00    7.192372e-01   9.517240e-03
  2.125354e+00    7.260076e-01   9.553363e-03
  2.127564e+00    7.206260e-01   9.509123e-03
  2.129775e+00    7.165781e-01   9.473649e-03
  2.131985e+00    7.179751e-01   9.473797e-03
  2.134196e+00    7.043045e-01   9.374642e-03
  2.136406e+00    7.013708e-01   9.346416e-03
  2.138617e+00    7.053543e-01   9.364497e-03
  2.140827e+00    7.091363e-01   9.405627e-03
  2.143037e+00    6.927992e-01   9.341670e-03
  2.145248e+00    6.848462e-01   9.309568e-03
  2.147458e+00    6.937710e-01   9.385056e-03
  2.149669e+00    6.885034e-01   9.361093e-03
  2.151879e+00    6.879534e-01   9.366467e-03
  2.154090e+00    6.966956e-01   9.433098e-03
  2.156300e+00    6.893771e-01   9.389973e-03
  2.158511e+00    6.833056e-01   9.353761e-03
  2.160721e+00    6.966315e-01   9.449351e-03
  2.162932e+00    6.877367e-01   9.392535e-03
  2.165142e+00    7.020839e-01   9.493042e-03
  2.167352e+00    7.000008e-01   9.481869e-03
  2.169563e+00    6.902677e-01   9.417660e-03
  2.171773e+00    6.914675e-01   9.428284e-03
  2.173984e+00    6.957783e-01   9.459050e-03
  2.176194e+00    6.863831e-01   9.396156e-03
  2.178405e+00    6.940609e-01   9.449255e-03
  2.180615e+00    6.989506e-01   9.483173e-03
  2.182826e+00    6.823834e-01   9.370801e-03
  2.185036e+00    6.763219e-01   9.329114e-03
  2.187247e+00    6.945271e-01   9.453803e-03
  2.189457e+00    6.802709e-01   9.355876e-03
  2.191667e+00    6.744608e-01   9.315643e-03
  2.193878e+00    6.775867e-01   9.336658e-03
  2.196088e+00    6.685302e-01   9.273364e-03
  2.198299e+00    6.820589e-01   9.365642e-03
  2.200509e+00    6.796085e-01   9.347755e-03
  2.202720e+00    6.871825e-01   9.398537e-03
  2.204930e+00    6.868086e-01   9.394735e-03
  2.207141e+00    7.024267e-01   9.499817e-03
  2.209351e+00    6.862440e-01   9.387877e-03
  2.211562e+00    6.721835e-01   9.289578e-03
  2.213772e+00    6.796538e-01   9.285457e-03
  2.215982e+00    6.910877e-01   9.318533e-03
  2.218193e+00    6.832348e-01   9.235648e-03
  2.220403e+00    6.790341e-01   9.182549e-03
  2.222614e+00    6.734570e-01   9.123816e-03
  2.224824e+00    6.588355e-01   9.005060e-03
  2.227035e+00    6.686424e-01   9.054430e-03
  2.229245e+00    6.837078e-01   9.138743e-03
  2.231456e+00    6.866205e-01   9.142420e-03
  2.233666e+00    6.853162e-01   9.118465e-03
  2.235877e+00    6.780149e-01   9.055422e-03
  2.238087e+00    6.715322e-01   8.998525e-03
  2.240298e+00    6.829111e-01   9.060538e-03
  2.242508e+00    6.509431e-01   8.831013e-03
  2.244718e+00    6.624426e-01   8.892921e-03
  2.246929e+00    6.589822e-01   8.855370e-03
  2.249139e+00    6.469654e-01   8.762046e-03
  2.251350e+00    6.498900e-01   8.770274e-03
  2.253560e+00    6.623388e-01   8.842342e-03
  2.255771e+00    6.518397e-01   8.760714e-03
  2.257981e+00    6.632403e-01   8.825798e-03
  2.260192e+00    6.608720e-01   8.798970e-03
  2.262402e+00    6.672192e-01   8.830231e-03
  2.264613e+00    6.828358e-01   8.921994e-03
  2.266823e+00    6.623688e-01   8.776872e-03
  2.269033e+00    6.614356e-01   8.760314e-03
  2.271244e+00    6.589476e-01   8.733459e-03
  2.273454e+00    6.667279e-01   8.774567e-03
  2.275665e+00    6.696768e-01   8.783585e-03
  2.277875e+00    6.697174e-01   8.773866e-03
  2.280086e+00    6.688066e-01   8.757790e-03
  2.282296e+00    6.833209e-01   8.842728e-03
  2.284507e+00    6.753711e-01   8.780892e-03
  2.286717e+00    6.782947e-01   8.790253e-03
  2.288928e+00    6.720783e-01   8.739924e-03
  2.291138e+00    6.514480e-01   8.595338e-03
  2.293348e+00    6.617126e-01   8.653197e-03
  2.295559e+00    6.539820e-01   8.593220e-03
  2.297769e+00    6.509578e-01   8.564091e-03
  2.299980e+00    6.499183e-01   8.547943e-03
  2.302190e+00    6.554351e-01   8.574998e-03
  2.304401e+00    6.582501e-01   8.584046e-03
  2.306611e+00    6.489014e-01   8.513684e-03
  2.308822e+00    6.628934e-01   8.596509e-03
  2.311032e+00    6.529453e-01   8.525326e-03
  2.313243e+00    6.522301e-01   8.514357e-03
  2.315453e+00    6.542574e-01   8.519977e-03
  2.317663e+00    6.404583e-01   8.420580e-03
  2.319874e+00    6.401857e-01   8.410094e-03
  2.322084e+00    6.296421e-01   8.331710e-03
  2.324295e+00    6.280523e-01   8.313056e-03
  2.326505e+00    6.408376e-01   8.388217e-03
  2.328716e+00    6.482316e-01   8.427897e-03
  2.330926e+00    6.361414e-01   8.340184e-03
  2.333137e+00    6.352926e-01   8.326286e-03
  2.335347e+00    6.395784e-01   8.345462e-03
  2.337558e+00    6.433750e-01   8.361956e-03
  2.339768e+00    6.258937e-01   8.239085e-03
  2.341979e+00    6.416680e-01   8.333872e-03
  2.344189e+00    6.521437e-01   8.393127e-03
  2.346399e+00    6.486353e-01   8.361981e-03
  2.348610e+00    6.229394e-01   8.186270e-03
  2.350820e+00    6.455925e-01   8.325551e-03
  2.353031e+00    6.329405e-01   8.235297e-03
  2.355241e+00    6.198610e-01   8.141785e-03
  2.357452e+00    6.056893e-01   8.039945e-03
  2.359662e+00    6.080152e-01   8.047279e-03
  2.361873e+00    6.325896e-01   8.200050e-03
  2.364083e+00    6.312347e-01   8.183270e-03
  2.366294e+00    6.409150e-01   8.237582e-03
  2.368504e+00    6.301134e-01   8.159786e-03
  2.370714e+00    6.109039e-01   8.026469e-03
  2.372925e+00    6.104084e-01   8.015270e-03
  2.375135e+00    6.090963e-01   7.998680e-03
  2.377346e+00    6.192583e-01   8.057210e-03
  2.379556e+00    6.131280e-01   8.009409e-03
  2.381767e+00    6.115352e-01   7.991180e-03
  2.383977e+00    6.097287e-01   7.971527e-03
  2.386188e+00    6.026361e-01   7.917204e-03
  2.388398e+00    6.078427e-01   7.943447e-03
  2.390609e+00    6.042698e-01   7.912425e-03
  2.392819e+00    6.069072e-01   7.921949e-03
  2.395029e+00    6.181610e-01   7.987388e-03
  2.397240e+00    6.274255e-01   8.039066e-03
  2.399450e+00    6.194338e-01   7.979867e-03
  2.401661e+00    6.206197e-01   7.979764e-03
  2.403871e+00    6.099260e-01   7.902979e-03
  2.406082e+00    6.092641e-01   7.891239e-03
  2.408292e+00    6.141719e-01   7.915152e-03
  2.410503e+00    6.208540e-01   7.950520e-03
  2.412713e+00    6.125745e-01   7.889505e-03
  2.414924e+00    6.090139e-01   7.859033e-03
  2.417134e+00    6.163709e-01   7.898649e-03
  2.419344e+00    6.092098e-01   7.845202e-03
  2.421555e+00    6.050466e-01   7.810809e-03
  2.423765e+00    5.979402e-01   7.757415e-03
  2.425976e+00    6.024209e-01   7.778604e-03
  2.428186e+00    5.984346e-01   7.745606e-03
  2.430397e+00    6.011627e-01   7.755735e-03
  2.432607e+00    6.033652e-01   7.762614e-03
  2.434818e+00    5.803357e-01   7.605594e-03
  2.437028e+00    5.657825e-01   7.502624e-03
  2.439239e+00    5.903454e-01   7.656118e-03
  2.441449e+00    5.980288e-01   7.698556e-03
  2.443659e+00    6.008369e-01   7.709203e-03
  2.445870e+00    5.813156e-01   7.595099e-03
  2.448080e+00    5.733001e-01   7.577066e-03
  2.450291e+00    5.602949e-01   7.506991e-03
  2.452501e+00    5.559689e-01   7.488910e-03
  2.454712e+00    5.639921e-01   7.551121e-03
  2.456922e+00    5.715464e-01   7.608141e-03
  2.459133e+00    5.642810e-01   7.565053e-03
  2.461343e+00    5.603905e-01   7.543263e-03
  2.463554e+00    5.616064e-01   7.554896e-03
  2.465764e+00    5.521544e-01   7.494158e-03
  2.467975e+00    5.620141e-01   7.563055e-03
  2.470185e+00    5.608761e-01   7.557652e-03
  2.472395e+00    5.729011e-01   7.639492e-03
  2.474606e+00    5.594260e-01   7.550675e-03
  2.476816e+00    5.614890e-01   7.565339e-03
  2.479027e+00    5.566281e-01   7.533357e-03
  2.481237e+00    5.450605e-01   7.454967e-03
  2.483448e+00    5.411680e-01   7.428583e-03
  2.485658e+00    5.381037e-01   7.407392e-03
  2.487869e+00    5.325313e-01   7.368966e-03
  2.490079e+00    5.329902e-01   7.371626e-03
  2.492290e+00    5.332481e-01   7.372979e-03
  2.494500e+00    5.236477e-01   7.305595e-03
  2.496710e+00    5.311672e-01   7.357151e-03
  2.498921e+00    5.311467e-01   7.356022e-03
  2.501131e+00    5.292112e-01   7.341684e-03
  2.503342e+00    5.207655e-01   7.281596e-03
  2.505552e+00    5.214759e-01   7.285444e-03
  2.507763e+00    5.225710e-01   7.291685e-03
  2.509973e+00    5.207953e-01   7.277905e-03
  2.512184e+00    5.259180e-01   7.311996e-03
  2.514394e+00    5.204341e-01   7.264473e-03
  2.516605e+00    5.306231e-01   7.287987e-03
  2.518815e+00    5.192493e-01   7.181326e-03
  2.521025e+00    5.302881e-01   7.236189e-03
  2.523236e+00    5.254326e-01   7.185002e-03
  2.525446e+00    5.239592e-01   7.159350e-03
  2.527657e+00    5.239815e-01   7.144912e-03
  2.529867e+00    5.218156e-01   7.115999e-03
  2.532078e+00    5.283944e-01   7.145615e-03
  2.534288e+00    5.322196e-01   7.157462e-03
  2.536499e+00    5.327364e-01   7.148901e-03
  2.538709e+00    5.251312e-01   7.086687e-03
  2.540920e+00    5.264738e-01   7.085074e-03
  2.543130e+00    5.318869e-01   7.110954e-03
  2.545340e+00    5.163569e-01   6.996407e-03
  2.547551e+00    5.166337e-01   6.988366e-03
  2.549761e+00    5.216217e-01   7.012465e-03
  2.551972e+00    5.051224e-01   6.891463e-03
  2.554182e+00    5.229795e-01   7.003012e-03
  2.556393e+00    5.237049e-01   6.998767e-03
  2.558603e+00    5.240334e-01   6.991848e-03
  2.560814e+00    5.142942e-01   6.917923e-03
  2.563024e+00    5.220102e-01   6.961013e-03
  2.565235e+00    5.281199e-01   6.992049e-03
  2.567445e+00    5.185829e-01   6.919078e-03
  2.569656e+00    5.286550e-01   6.976094e-03
  2.571866e+00    5.283552e-01   6.964680e-03
  2.574076e+00    5.220268e-01   6.913516e-03
  2.576287e+00    5.230755e-01   6.912076e-03
  2.578497e+00    5.242963e-01   6.912238e-03
  2.580708e+00    5.121900e-01   6.823911e-03
  2.582918e+00    5.005172e-01   6.738052e-03
  2.585129e+00    5.038679e-01   6.752884e-03
  2.587339e+00    5.049967e-01   6.752842e-03
  2.589550e+00    5.052747e-01   6.747201e-03
  2.591760e+00    5.090571e-01   6.764687e-03
  2.593971e+00    5.149344e-01   6.796089e-03
  2.596181e+00    5.001983e-01   6.691989e-03
  2.598391e+00    4.936481e-01   6.642918e-03
  2.600602e+00    5.137362e-01   6.770785e-03
  2.602812e+00    5.127811e-01   6.756948e-03
  2.605023e+00    5.130458e-01   6.751469e-03
  2.607233e+00    5.008801e-01   6.663880e-03
  2.609444e+00    5.048558e-01   6.683036e-03
  2.611654e+00    5.007369e-01   6.648456e-03
  2.613865e+00    5.052323e-01   6.671192e-03
  2.616075e+00    5.038491e-01   6.654953e-03
  2.618286e+00    4.999985e-01   6.622503e-03
  2.620496e+00    5.036442e-01   6.639914e-03
  2.622706e+00    5.013549e-01   6.619078e-03
  2.624917e+00    5.093411e-01   6.665728e-03
  2.627127e+00    4.949597e-01   6.565255e-03
  2.629338e+00    4.917656e-01   6.538130e-03
  2.631548e+00    4.868473e-01   6.499288e-03
  2.633759e+00    4.990122e-01   6.572843e-03
  2.635969e+00    5.013914e-01   6.581832e-03
  2.638180e+00    5.012946e-01   6.574200e-03
  2.640390e+00    5.084258e-01   6.614161e-03
  2.642601e+00    5.053547e-01   6.587448e-03
  2.644811e+00    5.032571e-01   6.566668e-03
  2.647021e+00    4.966611e-01   6.516960e-03
  2.649232e+00    4.879091e-01   6.452631e-03
  2.651442e+00    5.016053e-01   6.536061e-03
  2.653653e+00    4.962884e-01   6.494555e-03
  2.655863e+00    4.985929e-01   6.502915e-03
  2.658074e+00    5.044621e-01   6.534441e-03
  2.660284e+00    4.931271e-01   6.454281e-03
  2.662495e+00    4.930864e-01   6.447288e-03
  2.664705e+00    4.935200e-01   6.443571e-03
  2.666916e+00    4.968903e-01   6.459073e-03
  2.669126e+00    4.966323e-01   6.450940e-03
  2.671337e+00    4.853900e-01   6.370991e-03
  2.673547e+00    4.875830e-01   6.379020e-03
  2.675757e+00    5.094755e-01   6.514122e-03
  2.677968e+00    5.111777e-01   6.518363e-03
  2.680178e+00    4.964053e-01   6.417081e-03
  2.682389e+00    4.808649e-01   6.309517e-03
  2.684599e+00    4.838962e-01   6.323222e-03
  2.686810e+00    4.991637e-01   6.415564e-03
  2.689020e+00    5.005571e-01   6.418161e-03
  2.691231e+00    4.868143e-01   6.323187e-03
  2.693441e+00    4.895476e-01   6.334761e-03
  2.695652e+00    4.915552e-01   6.341222e-03
  2.697862e+00    4.911314e-01   6.332137e-03
  2.700072e+00    4.817292e-01   6.265197e-03
  2.702283e+00    4.983938e-01   6.366365e-03
  2.704493e+00    4.943979e-01   6.334476e-03
  2.706704e+00    4.847776e-01   6.266169e-03
  2.708914e+00    4.914165e-01   6.302929e-03
  2.711125e+00    4.837727e-01   6.247513e-03
  2.713335e+00    4.892972e-01   6.276967e-03
  2.715546e+00    4.959305e-01   6.312859e-03
  2.717756e+00    4.893377e-01   6.264848e-03
  2.719967e+00    4.967847e-01   6.306066e-03
  2.722177e+00    4.889951e-01   6.250282e-03
  2.724387e+00    4.814510e-01   6.195808e-03
  2.726598e+00    4.754784e-01   6.151247e-03
  2.728808e+00    4.828759e-01   6.192788e-03
  2.731019e+00    4.752141e-01   6.137391e-03
  2.733229e+00    4.749454e-01   6.129921e-03
  2.735440e+00    4.738972e-01   6.116934e-03
  2.737650e+00    4.738978e-01   6.110983e-03
  2.739861e+00    4.790593e-01   6.138135e-03
  2.742071e+00    4.809445e-01   6.144468e-03
  2.744282e+00    4.809444e-01   6.138224e-03
  2.746492e+00    4.868526e-01   6.169766e-03
  2.748702e+00    4.896578e-01   6.181534e-03
  2.750913e+00    4.892315e-01   6.173042e-03
  2.753123e+00    4.769198e-01   6.088770e-03
  2.755334e+00    4.856729e-01   6.138275e-03
  2.757544e+00    4.893545e-01   6.155720e-03
  2.759755e+00    4.926710e-01   6.170579e-03
  2.761965e+00    4.783484e-01   6.074267e-03
  2.764176e+00    4.705260e-01   6.018458e-03
  2.766386e+00    4.674212e-01   5.992857e-03
  2.768597e+00    4.754526e-01   6.038267e-03
  2.770807e+00    4.781540e-01   6.049548e-03
  2.773017e+00    4.606956e-01   5.932223e-03
  2.775228e+00    4.742809e-01   6.013278e-03
  2.777438e+00    4.806286e-01   6.047586e-03
  2.779649e+00    4.922861e-01   6.114495e-03
  2.781859e+00    4.750172e-01   6.000561e-03
  2.784070e+00    4.803917e-01   6.028520e-03
  2.786280e+00    4.627259e-01   5.910971e-03
  2.788491e+00    4.674701e-01   5.935396e-03
  2.790701e+00    4.749815e-01   5.977267e-03
  2.792912e+00    4.737379e-01   5.963484e-03
  2.795122e+00    4.696089e-01   5.931746e-03
  2.797333e+00    4.778483e-01   5.977978e-03
  2.799543e+00    4.702284e-01   5.924311e-03
  2.801753e+00    4.666554e-01   5.895948e-03
  2.803964e+00    4.657554e-01   5.884658e-03
  2.806174e+00    4.658308e-01   5.879044e-03
  2.808385e+00    4.737964e-01   5.922292e-03
  2.810595e+00    4.761918e-01   5.930391e-03
  2.812806e+00    4.785531e-01   5.938429e-03
  2.815016e+00    4.596952e-01   5.815595e-03
  2.817227e+00    4.635928e-01   5.865808e-03
  2.819437e+00    4.559912e-01   5.828408e-03
  2.821648e+00    4.606274e-01   5.860215e-03
  2.823858e+00    4.676787e-01   5.910193e-03
  2.826068e+00    4.851614e-01   6.024696e-03
  2.828279e+00    4.918316e-01   6.070105e-03
  2.830489e+00    4.822542e-01   6.014074e-03
  2.832700e+00    4.792141e-01   5.997674e-03
  2.834910e+00    4.754082e-01   5.975872e-03
  2.837121e+00    4.825560e-01   6.022364e-03
  2.839331e+00    4.733806e-01   5.966071e-03
  2.841542e+00    4.696655e-01   5.943632e-03
  2.843752e+00    4.596338e-01   5.880577e-03
  2.845963e+00    4.597133e-01   5.881488e-03
  2.848173e+00    4.590315e-01   5.877198e-03
  2.850383e+00    4.599625e-01   5.883455e-03
  2.852594e+00    4.622751e-01   5.898148e-03
  2.854804e+00    4.591986e-01   5.877984e-03
  2.857015e+00    4.594224e-01   5.878998e-03
  2.859225e+00    4.666042e-01   5.924500e-03
  2.861436e+00    4.608194e-01   5.887036e-03
  2.863646e+00    4.578400e-01   5.867993e-03
  2.865857e+00    4.562646e-01   5.858231e-03
  2.868067e+00    4.568237e-01   5.862039e-03
  2.870278e+00    4.551430e-01   5.850894e-03
  2.872488e+00    4.565539e-01   5.858809e-03
  2.874698e+00    4.639369e-01   5.904931e-03
  2.876909e+00    4.686477e-01   5.933522e-03
  2.879119e+00    4.530283e-01   5.832190e-03
  2.881330e+00    4.615591e-01   5.885387e-03
  2.883540e+00    4.471540e-01   5.791445e-03
  2.885751e+00    4.523140e-01   5.823131e-03
  2.887961e+00    4.591247e-01   5.864929e-03
  2.890172e+00    4.620990e-01   5.882291e-03
  2.892382e+00    4.733397e-01   5.951589e-03
  2.894593e+00    4.712427e-01   5.936535e-03
  2.896803e+00    4.766376e-01   5.968433e-03
  2.899014e+00    4.520748e-01   5.810710e-03
  2.901224e+00    4.615672e-01   5.869376e-03
  2.903434e+00    4.777596e-01   5.969496e-03
  2.905645e+00    4.558217e-01   5.828598e-03
  2.907855e+00    4.555854e-01   5.825003e-03
  2.910066e+00    4.682055e-01   5.903024e-03
  2.912276e+00    4.524332e-01   5.800651e-03
  2.914487e+00    4.592433e-01   5.841666e-03
  2.916697e+00    4.657910e-01   5.880940e-03
  2.918908e+00    4.532262e-01   5.799080e-03
  2.921118e+00    4.629392e-01   5.858171e-03
  2.923329e+00    4.679820e-01   5.887670e-03
  2.925539e+00    4.553538e-01   5.805409e-03
  2.927749e+00    4.503716e-01   5.771254e-03
  2.929960e+00    4.653229e-01   5.863474e-03
  2.932170e+00    4.566415e-01   5.806198e-03
  2.934381e+00    4.524322e-01   5.776941e-03
  2.936591e+00    4.569788e-01   5.803319e-03
  2.938802e+00    4.507172e-01   5.760718e-03
  2.941012e+00    4.637795e-01   5.841247e-03
  2.943223e+00    4.615613e-01   5.824558e-03
  2.945433e+00    4.717136e-01   5.884456e-03
  2.947644e+00    4.607216e-01   5.811339e-03
  2.949854e+00    4.565014e-01   5.780388e-03
  2.952064e+00    4.577789e-01   5.784233e-03
  2.954275e+00    4.511721e-01   5.737939e-03
  2.956485e+00    4.585279e-01   5.780337e-03
  2.958696e+00    4.612335e-01   5.792955e-03
  2.960906e+00    4.540848e-01   5.743715e-03
  2.963117e+00    4.439509e-01   5.674814e-03
  2.965327e+00    4.575690e-01   5.757292e-03
  2.967538e+00    4.520314e-01   5.719441e-03
  2.969748e+00    4.548139e-01   5.734201e-03
  2.971959e+00    4.512232e-01   5.708389e-03
  2.974169e+00    4.530749e-01   5.717518e-03
  2.976379e+00    4.498852e-01   5.694444e-03
  2.978590e+00    4.505302e-01   5.695405e-03
  2.980800e+00    4.605215e-01   5.755391e-03
  2.983011e+00    4.561433e-01   5.725170e-03
  2.985221e+00    4.441456e-01   5.646260e-03
  2.987432e+00    4.406801e-01   5.621123e-03
  2.989642e+00    4.523937e-01   5.692696e-03
  2.991853e+00    4.555617e-01   5.709331e-03
  2.994063e+00    4.413826e-01   5.616920e-03
  2.996274e+00    4.432386e-01   5.625544e-03
  2.998484e+00    4.680075e-01   5.777861e-03
  3.000694e+00    4.477486e-01   5.647995e-03
  3.002905e+00    4.509480e-01   5.665212e-03
  3.005115e+00    4.553814e-01   5.689992e-03
  3.007326e+00    4.560238e-01   5.690850e-03
  3.009536e+00    4.558038e-01   5.686212e-03
  3.011747e+00    4.632824e-01   5.729722e-03
  3.013957e+00    4.650158e-01   5.737206e-03
  3.016168e+00    4.532739e-01   5.661068e-03
  3.018378e+00    4.512628e-01   5.645437e-03
  3.020589e+00    4.584934e-01   5.687263e-03
  3.022799e+00    4.568655e-01   5.673973e-03
  3.025010e+00    4.617362e-01   5.700877e-03
  3.027220e+00    4.548953e-01   5.655373e-03
  3.029430e+00    4.477351e-01   5.607451e-03
  3.031641e+00    4.391684e-01   5.550453e-03
  3.033851e+00    4.518980e-01   5.626802e-03
  3.036062e+00    4.510726e-01   5.618879e-03
  3.038272e+00    4.491693e-01   5.603458e-03
  3.040483e+00    4.473346e-01   5.588785e-03
  3.042693e+00    4.476552e-01   5.587549e-03
  3.044904e+00    4.432631e-01   5.556058e-03
  3.047114e+00    4.602925e-01   5.656945e-03
  3.049325e+00    4.400258e-01   5.526648e-03
  3.051535e+00    4.442940e-01   5.549050e-03
  3.053745e+00    4.376795e-01   5.502880e-03
  3.055956e+00    4.416535e-01   5.523299e-03
  3.058166e+00    4.507863e-01   5.575836e-03
  3.060377e+00    4.430703e-01   5.523189e-03
  3.062587e+00    4.467558e-01   5.541488e-03
  3.064798e+00    4.618953e-01   5.630298e-03
  3.067008e+00    4.627206e-01   5.630529e-03
  3.069219e+00    4.446635e-01   5.515090e-03
  3.071429e+00    4.432145e-01   5.502609e-03
  3.073640e+00    4.629156e-01   5.620184e-03
  3.075850e+00    4.489251e-01   5.531043e-03
  3.078060e+00    4.485525e-01   5.525614e-03
  3.080271e+00    4.580036e-01   5.580039e-03
  3.082481e+00    4.432402e-01   5.485934e-03
  3.084692e+00    4.426207e-01   5.478746e-03
  3.086902e+00    4.427825e-01   5.476531e-03
  3.089113e+00    4.352404e-01   5.426151e-03
  3.091323e+00    4.340718e-01   5.415554e-03
  3.093534e+00    4.452369e-01   5.481377e-03
  3.095744e+00    4.527250e-01   5.523907e-03
  3.097955e+00    4.508479e-01   5.508876e-03
  3.100165e+00    4.302854e-01   5.378524e-03
  3.102375e+00    4.388720e-01   5.428514e-03
  3.104586e+00    4.503421e-01   5.495497e-03
  3.106796e+00    4.571128e-01   5.533095e-03
  3.109007e+00    4.523206e-01   5.500778e-03
  3.111217e+00    4.430979e-01   5.440732e-03
  3.113428e+00    4.413984e-01   5.426886e-03
  3.115638e+00    4.513685e-01   5.484573e-03
  3.117849e+00    4.478140e-01   5.459212e-03
  3.120059e+00    4.465339e-01   5.447923e-03
  3.122270e+00    4.554031e-01   5.498469e-03
  3.124480e+00    4.581414e-01   5.511242e-03
  3.126691e+00    4.341836e-01   5.361679e-03
  3.128901e+00    4.461135e-01   5.431719e-03
  3.131111e+00    4.508016e-01   5.456310e-03
  3.133322e+00    4.447755e-01   5.416281e-03
  3.135532e+00    4.470646e-01   5.426768e-03
  3.137743e+00    4.507129e-01   5.445374e-03
  3.139953e+00    4.344341e-01   5.342489e-03
  3.142164e+00    4.520545e-01   5.461882e-03
  3.144374e+00    4.492149e-01   5.473342e-03
  3.146585e+00    4.366439e-01   5.410675e-03
  3.148795e+00    4.498723e-01   5.502879e-03
  3.151006e+00    4.416561e-01   5.460968e-03
  3.153216e+00    4.415576e-01   5.467461e-03
  3.155426e+00    4.356908e-01   5.437318e-03
  3.157637e+00    4.249981e-01   5.375605e-03
  3.159847e+00    4.273154e-01   5.395012e-03
  3.162058e+00    4.446877e-01   5.508065e-03
  3.164268e+00    4.363603e-01   5.460293e-03
  3.166479e+00    4.366671e-01   5.465836e-03
  3.168689e+00    4.504614e-01   5.554909e-03
  3.170900e+00    4.436871e-01   5.516174e-03
  3.173110e+00    4.396671e-01   5.494025e-03
  3.175321e+00    4.533287e-01   5.581219e-03
  3.177531e+00    4.460339e-01   5.538938e-03
  3.179741e+00    4.430754e-01   5.522603e-03
  3.181952e+00    4.298111e-01   5.441422e-03
  3.184162e+00    4.418275e-01   5.519129e-03
  3.186373e+00    4.437222e-01   5.532586e-03
  3.188583e+00    4.360556e-01   5.486358e-03
  3.190794e+00    4.316646e-01   5.460417e-03
  3.193004e+00    4.359280e-01   5.488546e-03
  3.195215e+00    4.389471e-01   5.509041e-03
  3.197425e+00    4.329540e-01   5.472493e-03
  3.199636e+00    4.357666e-01   5.489490e-03
  3.201846e+00    4.349640e-01   5.483819e-03
  3.204056e+00    4.305503e-01   5.456805e-03
  3.206267e+00    4.437070e-01   5.540422e-03
  3.208477e+00    4.385973e-01   5.509345e-03
  3.210688e+00    4.351180e-01   5.488302e-03
  3.212898e+00    4.277607e-01   5.442274e-03
  3.215109e+00    4.399941e-01   5.520302e-03
  3.217319e+00    4.470034e-01   5.564757e-03
  3.219530e+00    4.340453e-01   5.483885e-03
  3.221740e+00    4.325136e-01   5.474779e-03
  3.223951e+00    4.284015e-01   5.449146e-03
  3.226161e+00    4.415145e-01   5.532117e-03
  3.228372e+00    4.353867e-01   5.494102e-03
  3.230582e+00    4.427761e-01   5.540708e-03
  3.232792e+00    4.312035e-01   5.468027e-03
  3.235003e+00    4.355370e-01   5.495672e-03
  3.237213e+00    4.198151e-01   5.395691e-03
  3.239424e+00    4.302577e-01   5.462366e-03
  3.241634e+00    4.221596e-01   5.410859e-03
  3.243845e+00    4.356618e-01   5.496750e-03
  3.246055e+00    4.347761e-01   5.490918e-03
  3.248266e+00    4.201700e-01   5.398086e-03
  3.250476e+00    4.197364e-01   5.394999e-03
  3.252687e+00    4.244466e-01   5.425086e-03
  3.254897e+00    4.163781e-01   5.373192e-03
  3.257107e+00    4.235258e-01   5.418770e-03
  3.259318e+00    4.313722e-01   5.468506e-03
  3.261528e+00    4.384544e-01   5.513078e-03
  3.263739e+00    4.262555e-01   5.435292e-03
  3.265949e+00    4.292548e-01   5.454256e-03
  3.268160e+00    4.203632e-01   5.397051e-03
  3.270370e+00    4.254861e-01   5.429330e-03
  3.272581e+00    4.150545e-01   5.362092e-03
  3.274791e+00    4.213917e-01   5.402337e-03
  3.277002e+00    4.279533e-01   5.443675e-03
  3.279212e+00    4.315159e-01   5.465898e-03
  3.281422e+00    4.287636e-01   5.447870e-03
  3.283633e+00    4.186506e-01   5.382555e-03
  3.285843e+00    4.143903e-01   5.354779e-03
  3.288054e+00    4.280584e-01   5.441406e-03
  3.290264e+00    4.213718e-01   5.398449e-03
  3.292475e+00    4.311293e-01   5.459736e-03
  3.294685e+00    4.266595e-01   5.430738e-03
  3.296896e+00    4.228646e-01   5.405771e-03
  3.299106e+00    4.244394e-01   5.415264e-03
  3.301317e+00    4.254718e-01   5.420837e-03
  3.303527e+00    4.289404e-01   5.442399e-03
  3.305737e+00    4.303258e-01   5.450141e-03
  3.307948e+00    4.240654e-01   5.409672e-03
  3.310158e+00    4.276830e-01   5.431840e-03
  3.312369e+00    4.258426e-01   5.419270e-03
  3.314579e+00    4.116520e-01   5.327295e-03
  3.316790e+00    4.187874e-01   5.372578e-03
  3.319000e+00    4.111998e-01   5.322495e-03
  3.321211e+00    4.111288e-01   5.321459e-03
  3.323421e+00    4.078761e-01   5.299164e-03
  3.325632e+00    4.081918e-01   5.300368e-03
  3.327842e+00    4.084391e-01   5.301043e-03
  3.330052e+00    4.102092e-01   5.311477e-03
  3.332263e+00    4.209916e-01   5.379795e-03
  3.334473e+00    4.224750e-01   5.388390e-03
  3.336684e+00    4.222761e-01   5.385817e-03
  3.338894e+00    4.287104e-01   5.425871e-03
  3.341105e+00    4.301154e-01   5.433524e-03
  3.343315e+00    4.199380e-01   5.367725e-03
  3.345526e+00    4.165783e-01   5.345327e-03
  3.347736e+00    4.004269e-01   5.239272e-03
  3.349947e+00    4.285764e-01   5.419373e-03
  3.352157e+00    4.127277e-01   5.317061e-03
  3.354368e+00    4.132107e-01   5.318891e-03
  3.356578e+00    4.042447e-01   5.259864e-03
  3.358788e+00    4.237970e-01   5.384231e-03
  3.360999e+00    4.245358e-01   5.387667e-03
  3.363209e+00    3.828160e-01   5.115137e-03
  3.365420e+00    4.088728e-01   5.284823e-03
  3.367630e+00    4.081036e-01   5.278852e-03
  3.369841e+00    4.239786e-01   5.379110e-03
  3.372051e+00    4.269005e-01   5.395628e-03
  3.374262e+00    4.212114e-01   5.357089e-03
  3.376472e+00    4.241363e-01   5.373196e-03
  3.378683e+00    4.117119e-01   5.291417e-03
  3.380893e+00    4.106500e-01   5.282265e-03
  3.383103e+00    4.057897e-01   5.248252e-03
  3.385314e+00    4.126282e-01   5.290042e-03
  3.387524e+00    4.170330e-01   5.315497e-03
  3.389735e+00    4.120253e-01   5.280815e-03
  3.391945e+00    4.136690e-01   5.287720e-03
  3.394156e+00    3.952279e-01   5.164355e-03
  3.396366e+00    4.010957e-01   5.199183e-03
  3.398577e+00    4.083027e-01   5.242647e-03
  3.400787e+00    4.103302e-01   5.267561e-03
  3.402998e+00    4.088015e-01   5.295755e-03
  3.405208e+00    4.025720e-01   5.275816e-03
  3.407418e+00    4.030561e-01   5.294839e-03
  3.409629e+00    3.829187e-01   5.174508e-03
  3.411839e+00    3.809919e-01   5.172974e-03
  3.414050e+00    3.764974e-01   5.153066e-03
  3.416260e+00    3.864380e-01   5.230193e-03
  3.418471e+00    3.872618e-01   5.245111e-03
  3.420681e+00    3.865045e-01   5.248422e-03
  3.422892e+00    3.717683e-01   5.155190e-03
  3.425102e+00    3.826398e-01   5.237750e-03
  3.427313e+00    3.862524e-01   5.269601e-03
  3.429523e+00    3.950098e-01   5.336143e-03
  3.431733e+00    3.766168e-01   5.217015e-03
  3.433944e+00    3.843576e-01   5.276828e-03
  3.436154e+00    3.753689e-01   5.220939e-03
  3.438365e+00    3.857186e-01   5.298382e-03
  3.440575e+00    3.843463e-01   5.294928e-03
  3.442786e+00    3.799033e-01   5.269840e-03
  3.444996e+00    3.738656e-01   5.233266e-03
  3.447207e+00    3.694641e-01   5.207621e-03
  3.449417e+00    3.820647e-01   5.337056e-03
  3.451628e+00    3.640715e-01   5.239153e-03
  3.453838e+00    3.729570e-01   5.323972e-03
  3.456049e+00    3.863679e-01   5.443418e-03
  3.458259e+00    3.666167e-01   5.324363e-03
  3.460469e+00    3.682743e-01   5.356221e-03
  3.462680e+00    3.658156e-01   5.357402e-03
  3.464890e+00    3.640350e-01   5.362058e-03
  3.467101e+00    3.576532e-01   5.332068e-03
  3.469311e+00    3.776447e-01   5.495798e-03
  3.471522e+00    3.728963e-01   5.477467e-03
  3.473732e+00    3.919992e-01   5.632252e-03
  3.475943e+00    3.913809e-01   5.643684e-03
  3.478153e+00    4.092232e-01   5.786752e-03
  3.480364e+00    4.233681e-01   5.901638e-03
  3.482574e+00    4.111811e-01   5.831565e-03
  3.484784e+00    4.250323e-01   5.944073e-03
  3.486995e+00    4.211590e-01   5.932153e-03
  3.489205e+00    4.332528e-01   6.031552e-03
  3.491416e+00    4.313608e-01   6.033343e-03
  3.493626e+00    4.615535e-01   6.255958e-03
  3.495837e+00    4.509986e-01   6.198971e-03
  3.498047e+00    4.437660e-01   6.163530e-03
  3.500258e+00    4.491771e-01   6.215489e-03
  3.502468e+00    4.546226e-01   6.267526e-03
  3.504679e+00    4.608297e-01   6.324632e-03
  3.506889e+00    4.673863e-01   6.383936e-03
  3.509099e+00    4.705918e-01   6.420129e-03
  3.511310e+00    5.013431e-01   6.641443e-03
  3.513520e+00    4.779670e-01   6.499089e-03
  3.515731e+00    4.975207e-01   6.645264e-03
  3.517941e+00    5.106179e-01   6.746808e-03
  3.520152e+00    5.096627e-01   6.755042e-03
  3.522362e+00    4.961465e-01   6.679280e-03
  3.524573e+00    5.046418e-01   6.750461e-03
  3.526783e+00    5.178945e-01   6.851987e-03
  3.528994e+00    5.271510e-01   6.925309e-03
  3.531204e+00    5.222604e-01   6.905594e-03
  3.533414e+00    5.304144e-01   6.971406e-03
  3.535625e+00    5.452736e-01   7.080949e-03
  3.537835e+00    5.554545e-01   7.159128e-03
  3.540046e+00    5.427530e-01   7.085808e-03
  3.542256e+00    5.398303e-01   7.074274e-03
  3.544467e+00    5.322099e-01   7.031736e-03
  3.546677e+00    5.505925e-01   7.159810e-03
  3.548888e+00    5.363840e-01   7.074369e-03
  3.551098e+00    5.318529e-01   7.051645e-03
  3.553309e+00    5.600421e-01   7.244471e-03
  3.555519e+00    5.587509e-01   7.247635e-03
  3.557729e+00    5.371931e-01   7.118206e-03
  3.559940e+00    5.441917e-01   7.176045e-03
  3.562150e+00    5.439700e-01   7.186386e-03
  3.564361e+00    5.553369e-01   7.274620e-03
  3.566571e+00    5.577521e-01   7.304557e-03
  3.568782e+00    5.297855e-01   7.133107e-03
  3.570992e+00    5.387254e-01   7.206805e-03
  3.573203e+00    5.242342e-01   7.123219e-03
  3.575413e+00    5.363095e-01   7.218555e-03
  3.577624e+00    5.344097e-01   7.219891e-03
  3.579834e+00    5.341501e-01   7.231959e-03
  3.582045e+00    5.420645e-01   7.299477e-03
  3.584255e+00    5.369865e-01   7.279263e-03
  3.586465e+00    5.419154e-01   7.326608e-03
  3.588676e+00    5.404644e-01   7.331036e-03
  3.590886e+00    5.225505e-01   7.222088e-03
  3.593097e+00    5.154275e-01   7.186886e-03
  3.595307e+00    5.146854e-01   7.195358e-03
  3.597518e+00    5.194231e-01   7.242389e-03
  3.599728e+00    5.338475e-01   7.356352e-03
  3.601939e+00    5.445113e-01   7.443646e-03
  3.604149e+00    5.417374e-01   7.439135e-03
  3.606360e+00    5.568258e-01   7.556461e-03
  3.608570e+00    5.348307e-01   7.419883e-03
  3.610780e+00    5.286750e-01   7.388019e-03
  3.612991e+00    5.364209e-01   7.451987e-03
  3.615201e+00    5.424490e-01   7.503624e-03
  3.617412e+00    5.431067e-01   7.515478e-03
  3.619622e+00    5.515924e-01   7.580031e-03
  3.621833e+00    5.540141e-01   7.603471e-03
  3.624043e+00    5.486097e-01   7.575942e-03
  3.626254e+00    5.257782e-01   7.426241e-03
  3.628464e+00    5.371031e-01   7.516794e-03
  3.630675e+00    5.467887e-01   7.598531e-03
  3.632885e+00    5.393624e-01   7.561326e-03
  3.635095e+00    5.474083e-01   7.632068e-03
  3.637306e+00    5.275035e-01   7.506310e-03
  3.639516e+00    5.259411e-01   7.509645e-03
  3.641727e+00    5.337988e-01   7.580067e-03
  3.643937e+00    5.334213e-01   7.591954e-03
  3.646148e+00    5.405526e-01   7.657232e-03
  3.648358e+00    5.343169e-01   7.627841e-03
  3.650569e+00    5.292172e-01   7.606030e-03
  3.652779e+00    5.170979e-01   7.532991e-03
  3.654990e+00    5.211376e-01   7.577053e-03
  3.657200e+00    5.374925e-01   7.710042e-03
  3.659410e+00    5.214715e-01   7.609051e-03
  3.661621e+00    5.321327e-01   7.701545e-03
  3.663831e+00    5.388420e-01   7.765188e-03
  3.666042e+00    5.410678e-01   7.796488e-03
  3.668252e+00    5.545955e-01   7.908926e-03
  3.670463e+00    5.246845e-01   7.707842e-03
  3.672673e+00    5.316346e-01   7.774157e-03
  3.674884e+00    5.311770e-01   7.786203e-03
  3.677094e+00    5.318015e-01   7.806323e-03
  3.679305e+00    5.285392e-01   7.797865e-03
  3.681515e+00    5.221421e-01   7.766031e-03
  3.683726e+00    5.292941e-01   7.834828e-03
  3.685936e+00    5.350023e-01   7.892774e-03
  3.688146e+00    5.201575e-01   7.798153e-03
  3.690357e+00    5.115667e-01   7.749223e-03
  3.692567e+00    5.015898e-01   7.688969e-03
  3.694778e+00    5.220469e-01   7.860171e-03
  3.696988e+00    5.188591e-01   7.852022e-03
  3.699199e+00    5.355580e-01   7.993765e-03
  3.701409e+00    4.967952e-01   7.715017e-03
  3.703620e+00    5.027786e-01   7.777247e-03
  3.705830e+00    5.199189e-01   7.925047e-03
  3.708041e+00    5.121731e-01   7.882209e-03
  3.710251e+00    5.120061e-01   7.897435e-03
  3.712461e+00    5.241603e-01   8.007387e-03
  3.714672e+00    5.276895e-01   8.051148e-03
  3.716882e+00    5.118058e-01   7.945613e-03
  3.719093e+00    5.145876e-01   7.984179e-03
  3.721303e+00    5.298197e-01   8.118638e-03
  3.723514e+00    5.072644e-01   7.961050e-03
  3.725724e+00    4.858941e-01   7.808101e-03
  3.727935e+00    5.332028e-01   8.197098e-03
  3.730145e+00    5.172006e-01   8.090535e-03
  3.732356e+00    5.240596e-01   8.161656e-03
  3.734566e+00    5.242208e-01   8.180609e-03
  3.736776e+00    5.264663e-01   8.216071e-03
  3.738987e+00    5.116855e-01   8.117615e-03
  3.741197e+00    5.037159e-01   8.071976e-03
  3.743408e+00    5.224673e-01   8.239011e-03
  3.745618e+00    5.263542e-01   8.288217e-03
  3.747829e+00    5.239968e-01   8.287933e-03
  3.750039e+00    5.008375e-01   8.120881e-03
  3.752250e+00    5.254666e-01   8.336926e-03
  3.754460e+00    5.029675e-01   8.174879e-03
  3.756671e+00    4.847297e-01   8.043645e-03
  3.758881e+00    5.038400e-01   8.219189e-03
  3.761091e+00    5.151721e-01   8.330416e-03
  3.763302e+00    4.941484e-01   8.177456e-03
  3.765512e+00    5.206568e-01   8.413418e-03
  3.767723e+00    4.849254e-01   8.138556e-03
  3.769933e+00    4.851049e-01   8.158946e-03
  3.772144e+00    4.960554e-01   8.269900e-03
  3.774354e+00    5.093892e-01   8.400218e-03
  3.776565e+00    5.170463e-01   8.483252e-03
  3.778775e+00    5.368025e-01   8.664347e-03
  3.780986e+00    5.100628e-01   8.466242e-03
  3.783196e+00    5.178191e-01   8.550908e-03
  3.785407e+00    4.957900e-01   8.387329e-03
  3.787617e+00    5.051658e-01   8.487001e-03
  3.789827e+00    5.118501e-01   8.563776e-03
  3.792038e+00    4.831360e-01   8.340480e-03
  3.794248e+00    5.076792e-01   8.571018e-03
  3.796459e+00    4.966947e-01   8.499067e-03
  3.798669e+00    4.910212e-01   8.471555e-03
  3.800880e+00    4.825682e-01   8.419356e-03
  3.803090e+00    4.940204e-01   8.540337e-03
  3.805301e+00    5.119921e-01   8.716663e-03
  3.807511e+00    5.186904e-01   8.795904e-03
  3.809722e+00    5.164559e-01   8.799562e-03
  3.811932e+00    5.082762e-01   8.751958e-03
  3.814142e+00    5.049439e-01   8.746292e-03
  3.816353e+00    4.941458e-01   8.675009e-03
  3.818563e+00    4.694784e-01   8.478093e-03
  3.820774e+00    4.797077e-01   8.592677e-03
  3.822984e+00    4.924453e-01   8.729277e-03
  3.825195e+00    4.867548e-01   8.702120e-03
  3.827405e+00    5.155630e-01   8.980230e-03
  3.829616e+00    5.197296e-01   9.041070e-03
  3.831826e+00    5.089948e-01   8.971663e-03
  3.834037e+00    5.170621e-01   9.067471e-03
  3.836247e+00    4.812969e-01   8.772599e-03
  3.838457e+00    4.703150e-01   8.696225e-03
  3.840668e+00    5.040358e-01   9.027969e-03
  3.842878e+00    5.029996e-01   9.044404e-03
  3.845089e+00    5.016043e-01   9.057560e-03
  3.847299e+00    5.168598e-01   9.220692e-03
  3.849510e+00    4.922707e-01   9.024333e-03
  3.851720e+00    5.071138e-01   9.181145e-03
  3.853931e+00    5.071654e-01   9.200815e-03
  3.856141e+00    5.032598e-01   9.184496e-03
  3.858352e+00    5.102136e-01   9.267283e-03
  3.860562e+00    5.071270e-01   9.258819e-03
  3.862772e+00    4.923694e-01   9.142604e-03
  3.864983e+00    4.847908e-01   9.091470e-03
  3.867193e+00    4.828143e-01   9.092506e-03
  3.869404e+00    4.955322e-01   9.231260e-03
  3.871614e+00    5.041427e-01   9.331409e-03
  3.873825e+00    4.731276e-01   9.059656e-03
  3.876035e+00    4.778315e-01   9.124854e-03
  3.878246e+00    5.118387e-01   9.470235e-03
  3.880456e+00    4.825281e-01   9.223802e-03
  3.882667e+00    4.799790e-01   9.228385e-03
  3.884877e+00    4.947469e-01   9.399071e-03
  3.887087e+00    4.871601e-01   9.356569e-03
  3.889298e+00    4.901074e-01   9.415153e-03
  3.891508e+00    5.038748e-01   9.577414e-03
  3.893719e+00    4.909455e-01   9.484726e-03
  3.895929e+00    4.978068e-01   9.582426e-03
  3.898140e+00    4.853342e-01   9.493169e-03
  3.900350e+00    4.732757e-01   9.406037e-03
  3.902561e+00    5.185727e-01   9.879161e-03
  3.904771e+00    4.697376e-01   9.434690e-03
  3.906982e+00    4.723786e-01   9.493634e-03
  3.909192e+00    5.057697e-01   9.857556e-03
  3.911403e+00    4.923544e-01   9.760074e-03
  3.913613e+00    4.890096e-01   9.761133e-03
  3.915823e+00    4.606057e-01   9.507241e-03
  3.918034e+00    4.891948e-01   9.833086e-03
  3.920244e+00    5.071377e-01   1.004817e-02
  3.922455e+00    5.039154e-01   1.005294e-02
  3.924665e+00    5.028092e-01   1.007881e-02
  3.926876e+00    4.958802e-01   1.004663e-02
  3.929086e+00    4.810742e-01   9.932505e-03
  3.931297e+00    4.798792e-01   9.954817e-03
  3.933507e+00    4.537626e-01   9.707971e-03
  3.935718e+00    4.852901e-01   1.006826e-02
  3.937928e+00    5.051853e-01   1.030255e-02
  3.940138e+00    5.051659e-01   1.033219e-02
  3.942349e+00    4.962131e-01   1.027042e-02
  3.944559e+00    4.948637e-01   1.028671e-02
  3.946770e+00    4.827048e-01   1.018950e-02
  3.948980e+00    4.736133e-01   1.012349e-02
  3.951191e+00    4.965442e-01   1.039680e-02
  3.953401e+00    4.784970e-01   1.023723e-02
  3.955612e+00    4.667863e-01   1.014214e-02
  3.957822e+00    4.729725e-01   1.024040e-02
  3.960033e+00    4.698251e-01   1.023837e-02
  3.962243e+00    4.940268e-01   1.053176e-02
  3.964453e+00    5.132868e-01   1.076932e-02
  3.966664e+00    4.838631e-01   1.048932e-02
  3.968874e+00    5.000381e-01   1.069197e-02
  3.971085e+00    4.863548e-01   1.056672e-02
  3.973295e+00    4.738226e-01   1.045089e-02
  3.975506e+00    4.671754e-01   1.039847e-02
  3.977716e+00    4.765144e-01   1.052369e-02
  3.979927e+00    5.211639e-01   1.102857e-02
  3.982137e+00    4.944325e-01   1.076461e-02
  3.984348e+00    4.758008e-01   1.058218e-02
  3.986558e+00    4.692552e-01   1.053102e-02
  3.988768e+00    4.864288e-01   1.074509e-02
  3.990979e+00    4.866870e-01   1.077067e-02
  3.993189e+00    4.863288e-01   1.078979e-02
  3.995400e+00    4.685633e-01   1.061411e-02
  3.997610e+00    4.687522e-01   1.064553e-02
  3.999821e+00    4.880426e-01   1.089998e-02
  4.002031e+00    4.830464e-01   1.088238e-02
  4.004242e+00    4.542373e-01   1.059011e-02
  4.006452e+00    4.868032e-01   1.100267e-02
  4.008663e+00    5.113692e-01   1.131791e-02
  4.010873e+00    4.878881e-01   1.109517e-02
  4.013084e+00    4.645350e-01   1.086647e-02
  4.015294e+00    4.808431e-01   1.109634e-02
  4.017504e+00    5.097407e-01   1.146787e-02
  4.019715e+00    4.563307e-01   1.089182e-02
  4.021925e+00    4.683017e-01   1.107584e-02
  4.024136e+00    4.752440e-01   1.120092e-02
  4.026346e+00    5.098261e-01   1.164666e-02
  4.028557e+00    4.888946e-01   1.144972e-02
  4.030767e+00    4.869513e-01   1.147265e-02
  4.032978e+00    4.588587e-01   1.118195e-02
  4.035188e+00    4.771201e-01   1.144801e-02
  4.037399e+00    4.816542e-01   1.154985e-02
  4.039609e+00    4.768331e-01   1.153937e-02
  4.041819e+00    4.717713e-01   1.152600e-02
  4.044030e+00    5.241209e-01   1.220076e-02
  4.046240e+00    5.111095e-01   1.209962e-02
  4.048451e+00    4.827168e-01   1.180966e-02
  4.050661e+00    4.621138e-01   1.160525e-02
  4.052872e+00    4.704638e-01   1.176154e-02
  4.055082e+00    4.875304e-01   1.202694e-02
  4.057293e+00    4.917618e-01   1.213320e-02
  4.059503e+00    4.695871e-01   1.191035e-02
  4.061714e+00    5.125338e-01   1.250128e-02
  4.063924e+00    4.995952e-01   1.240043e-02
  4.066134e+00    4.894829e-01   1.233192e-02
  4.068345e+00    4.895474e-01   1.239223e-02
  4.070555e+00    4.829825e-01   1.236835e-02
  4.072766e+00    4.835015e-01   1.243571e-02
  4.074976e+00    4.845198e-01   1.251090e-02
  4.077187e+00    5.157174e-01   1.297173e-02
  4.079397e+00    4.881603e-01   1.268479e-02
  4.081608e+00    5.162462e-01   1.311243e-02
  4.083818e+00    4.981099e-01   1.294702e-02
  4.086029e+00    4.823146e-01   1.280725e-02
  4.088239e+00    4.769989e-01   1.280515e-02
  4.090449e+00    4.794075e-01   1.290696e-02
  4.092660e+00    4.929727e-01   1.316032e-02
  4.094870e+00    4.761880e-01   1.300632e-02
  4.097081e+00    4.695866e-01   1.298658e-02
  4.099291e+00    4.840110e-01   1.323902e-02
  4.101502e+00    5.287176e-01   1.388861e-02
  4.103712e+00    5.141110e-01   1.374642e-02
  4.105923e+00    4.723291e-01   1.322708e-02
  4.108133e+00    4.656452e-01   1.318378e-02
  4.110344e+00    4.860949e-01   1.352161e-02
  4.112554e+00    4.820749e-01   1.351877e-02
  4.114764e+00    4.848871e-01   1.361282e-02
  4.116975e+00    4.408070e-01   1.303026e-02
  4.119185e+00    4.755485e-01   1.358902e-02
  4.121396e+00    5.183464e-01   1.424596e-02
  4.123606e+00    5.035521e-01   1.409875e-02
  4.125817e+00    4.557778e-01   1.346959e-02
  4.128027e+00    5.121571e-01   1.433823e-02
  4.130238e+00    5.549262e-01   1.498928e-02
  4.132448e+00    5.091659e-01   1.442016e-02
  4.134659e+00    5.030081e-01   1.439429e-02
  4.136869e+00    5.295718e-01   1.483562e-02
  4.139080e+00    5.245268e-01   1.483099e-02
  4.141290e+00    5.239375e-01   1.488856e-02
  4.143500e+00    4.388555e-01   1.368896e-02
  4.145711e+00    4.643971e-01   1.414741e-02
  4.147921e+00    4.605045e-01   1.415254e-02
  4.150132e+00    4.968297e-01   1.477033e-02
  4.152342e+00    4.877833e-01   1.470626e-02
  4.154553e+00    4.512552e-01   1.421222e-02
  4.156763e+00    4.649365e-01   1.449721e-02
  4.158974e+00    5.074423e-01   1.522164e-02
  4.161184e+00    5.131713e-01   1.538316e-02
  4.163395e+00    4.997358e-01   1.525819e-02
  4.165605e+00    4.888440e-01   1.516926e-02
  4.167815e+00    4.825431e-01   1.515001e-02
  4.170026e+00    5.059000e-01   1.559386e-02
  4.172236e+00    5.273004e-01   1.600652e-02
  4.174447e+00    4.427457e-01   1.474684e-02
  4.176657e+00    4.825652e-01   1.547986e-02
  4.178868e+00    4.825360e-01   1.556711e-02
  4.181078e+00    4.641590e-01   1.535362e-02
  4.183289e+00    5.154340e-01   1.627212e-02
  4.185499e+00    4.851569e-01   1.588022e-02
  4.187710e+00    4.704886e-01   1.572988e-02
  4.189920e+00    4.662877e-01   1.575381e-02
  4.192130e+00    4.487019e-01   1.554844e-02
  4.194341e+00    4.481848e-01   1.563460e-02
  4.196551e+00    4.600759e-01   1.594082e-02
  4.198762e+00    4.825853e-01   1.642999e-02
  4.200972e+00    4.975656e-01   1.679091e-02
  4.203183e+00    4.785877e-01   1.657626e-02
  4.205393e+00    4.988278e-01   1.703561e-02
  4.207604e+00    4.733021e-01   1.670744e-02
  4.209814e+00    4.728560e-01   1.681405e-02
  4.212025e+00    5.031649e-01   1.746734e-02
  4.214235e+00    5.318128e-01   1.808514e-02
  4.216445e+00    4.544666e-01   1.683937e-02
  4.218656e+00    4.600148e-01   1.706826e-02
  4.220866e+00    4.928290e-01   1.779786e-02
  4.223077e+00    5.228427e-01   1.847272e-02
  4.225287e+00    4.521950e-01   1.731458e-02
  4.227498e+00    5.218734e-01   1.874650e-02
  4.229708e+00    4.961091e-01   1.842682e-02
  4.231919e+00    4.419745e-01   1.753628e-02
  4.234129e+00    4.473683e-01   1.779053e-02
  4.236340e+00    4.686478e-01   1.836476e-02
  4.238550e+00    4.327199e-01   1.780288e-02
  4.240761e+00    4.840044e-01   1.899394e-02
  4.242971e+00    4.901301e-01   1.928960e-02
  4.245181e+00    4.689645e-01   1.904530e-02
  4.247392e+00    4.630003e-01   1.910079e-02
  4.249602e+00    5.128750e-01   2.030288e-02
  4.251813e+00    4.954273e-01   2.015122e-02
  4.254023e+00    4.828554e-01   2.009429e-02
  4.256234e+00    5.315300e-01   2.130817e-02
  4.258444e+00    5.073693e-01   2.103634e-02
  4.260655e+00    4.475044e-01   1.997334e-02
  4.262865e+00    4.702111e-01   2.070594e-02
  4.265076e+00    4.141795e-01   1.965438e-02
  4.267286e+00    4.848760e-01   2.151778e-02
  4.269496e+00    5.063755e-01   2.225814e-02
  4.271707e+00    4.923099e-01   2.221781e-02
  4.273917e+00    4.610468e-01   2.177865e-02
  4.276128e+00    5.031357e-01   2.305327e-02
  4.278338e+00    4.953807e-01   2.318073e-02
  4.280549e+00    4.560096e-01   2.255942e-02
  4.282759e+00    4.605426e-01   2.299665e-02
  4.284970e+00    5.225486e-01   2.485834e-02
  4.287180e+00    5.364639e-01   2.548944e-02
  4.289391e+00    6.248540e-01   2.771538e-02
  4.291601e+00    5.673037e-01   2.661994e-02
  4.293811e+00    5.129825e-01   2.551071e-02
  4.296022e+00    4.730654e-01   2.469511e-02
  4.298232e+00    5.682893e-01   2.729309e-02
  4.300443e+00    4.370467e-01   2.413270e-02
  4.302653e+00    4.594943e-01   2.495895e-02
  4.304864e+00    4.656928e-01   2.534417e-02
  4.307074e+00    4.654893e-01   2.556655e-02
  4.309285e+00    4.031174e-01   2.400783e-02
  4.311495e+00    5.550484e-01   2.843453e-02
  4.313706e+00    4.440875e-01   2.567380e-02
  4.315916e+00    4.605141e-01   2.640069e-02
  4.318126e+00    4.813841e-01   2.726024e-02
  4.320337e+00    4.194140e-01   2.570143e-02
  4.322547e+00    4.903336e-01   2.808533e-02
  4.324758e+00    4.022920e-01   2.570359e-02
  4.326968e+00    4.693440e-01   2.807594e-02
  4.329179e+00    3.812910e-01   2.558423e-02
  4.331389e+00    4.188628e-01   2.712393e-02
  4.333600e+00    4.429978e-01   2.822785e-02
  4.335810e+00    4.897572e-01   3.003338e-02
  4.338021e+00    6.050162e-01   3.380755e-02
  4.340231e+00    5.934553e-01   3.390409e-02
  4.342442e+00    4.710257e-01   3.061044e-02
  4.344652e+00    3.820892e-01   2.794333e-02
  4.346862e+00    3.994300e-01   2.896968e-02
  4.349073e+00    4.875873e-01   3.247502e-02
  4.351283e+00    5.197177e-01   3.402786e-02
  4.353494e+00    3.732515e-01   2.928300e-02
  4.355704e+00    4.361840e-01   3.216474e-02
  4.357915e+00    4.338718e-01   3.261304e-02
  4.360125e+00    4.210748e-01   3.267745e-02
  4.362336e+00    4.670222e-01   3.504109e-02
  4.364546e+00    3.758627e-01   3.200959e-02
  4.366757e+00    3.956511e-01   3.349223e-02
  4.368967e+00    3.594771e-01   3.256315e-02
  4.371177e+00    4.076786e-01   3.541310e-02
  4.373388e+00    5.985654e-01   4.386948e-02
  4.375598e+00    5.417185e-01   4.268816e-02
  4.377809e+00    3.522603e-01   3.529464e-02
  4.380019e+00    3.265211e-01   3.483531e-02
  4.382230e+00    4.413275e-01   4.162744e-02
  4.384440e+00    2.354771e-01   3.128425e-02
  4.386651e+00    3.527455e-01   3.946589e-02
  4.388861e+00    5.420801e-01   5.057018e-02
  4.391072e+00    4.483873e-01   4.760673e-02
  4.393282e+00    5.094252e-01   5.270693e-02
  4.395492e+00    3.371926e-01   4.466394e-02
  4.397703e+00    3.173504e-01   4.530611e-02
  4.399913e+00    5.375119e-01   6.195186e-02
  4.402124e+00    3.226285e-01   5.071815e-02
  4.404334e+00    6.334114e-01   7.553923e-02
  4.406545e+00    5.636566e-01   7.656160e-02
  4.408755e+00    3.641900e-01   6.674588e-02
  4.410966e+00    4.568759e-01   8.273815e-02
  4.413176e+00    3.537507e-01   8.241369e-02
  4.415387e+00    1.143890e-02   1.755893e-02
  4.417597e+00   -1.867260e+00            nan
  4.419807e+00   -3.766224e-01            nan
